
Integration time [ms]: 200.000
Averaging Nr. [scans]: 10
Smoothing Nr. [pixels]: 0
Data measured with spectrometer [name]: 2101012U2
Wave   ;Sample   ;Dark     ;Reference
[nm]   ;[counts] ;[counts] ;[counts] 

197.733;  149.300;  516.000;  404.000
197.879; -163.800; -610.000; -634.000
198.025;  -96.900; -475.000; -420.000
198.171; -165.600; -602.000; -612.000
198.317;  -45.500; -401.000; -316.000
198.463; -114.700; -655.000; -404.000
198.609;   64.900;  181.000; -137.000
198.755; -151.700; -644.000; -410.000
198.901; -133.800; -505.000; -424.000
199.047; -137.700; -615.000; -488.000
199.193;  -74.600; -230.000; -468.000
199.339;  -84.500; -222.000; -369.000
199.485;   55.200;  330.000;  271.000
199.631;   32.800;  227.000;  310.000
199.777; -118.700; -466.000; -398.000
199.923; -143.200; -610.000; -424.000
200.069;  -10.400; -141.000;  -58.000
200.215;  181.300;  128.000;  453.000
200.361;   84.900;  243.000;  477.000
200.507; -127.400; -600.000; -373.000
200.653;  -32.400; -371.000; -194.000
200.798;  -64.000; -215.000; -125.000
200.944;  -43.700; -146.000;  -41.000
201.090;   66.800;   61.000;  222.000
201.236;  -10.000; -116.000; -158.000
201.382;  276.600;  874.000;  903.000
201.528;    1.900;  -58.000;  -48.000
201.674;  -61.500; -386.000; -293.000
201.819; -112.100; -540.000; -439.000
201.965; -176.300; -699.000; -447.000
202.111;  -32.500; -273.000; -226.000
202.257;  -90.700; -250.000; -238.000
202.402;   23.300;   13.000;  -36.000
202.548;  -69.800; -169.000; -116.000
202.694;  158.700;  410.000; -183.000
202.840; -126.100; -603.000; -531.000
202.985; -129.200; -681.000; -639.000
203.131; -236.500; -832.000; -666.000
203.277;  -29.200; -199.000; -262.000
203.423; -107.500; -434.000; -520.000
203.568;  -66.700; -462.000; -237.000
203.714; -114.300; -535.000; -542.000
203.860; -149.900; -682.000; -641.000
204.005;   62.600;  112.000;  167.000
204.151;  153.700;  561.000;  556.000
204.296;  -90.700; -354.000; -221.000
204.442; -128.400; -600.000; -547.000
204.588; -177.200; -592.000; -579.000
204.733;   44.300;  178.000;  168.000
204.879; -249.800;-1018.000; -822.000
205.025;   29.500;  -99.000;  126.000
205.170;   -2.100;  -17.000;   94.000
205.316;  176.800;  438.000;  661.000
205.461; -151.500; -698.000; -554.000
205.607;  216.800;  609.000;  665.000
205.752; -138.200; -626.000; -551.000
205.898; -155.000; -501.000; -391.000
206.043; -130.500; -578.000; -506.000
206.189;  -89.800; -243.000; -285.000
206.334;  184.900;  554.000;  606.000
206.480;  176.300;  409.000;  239.000
206.625; -191.200; -529.000; -552.000
206.771; -109.800; -451.000; -373.000
206.916;  -58.200; -210.000; -537.000
207.062; -153.800; -545.000; -591.000
207.207; -104.000; -546.000; -443.000
207.353;  134.800;  185.000;  460.000
207.498;   38.300;  196.000;   85.000
207.643;  -96.000; -501.000; -370.000
207.789; -247.600;-1069.000; -910.000
207.934; -193.800; -665.000; -713.000
208.080;  -36.500; -154.000;   66.000
208.225;    0.100;  -22.000;  -57.000
208.370; -188.100; -727.000; -619.000
208.516; -159.000; -741.000; -487.000
208.661;  -22.900; -127.000;  -69.000
208.806;  -57.500; -165.000; -171.000
208.952; -231.100;-1044.000; -731.000
209.097;  174.700;  378.000;  349.000
209.242;  -84.600; -307.000; -382.000
209.387;   97.800;  392.000;  350.000
209.533; -120.600; -321.000; -350.000
209.678;  178.400;  472.000;  543.000
209.823; -102.900; -408.000; -310.000
209.969; -192.900; -860.000; -757.000
210.114; -176.400; -907.000; -719.000
210.259; -249.200; -939.000; -889.000
210.404;   -3.700; -171.000;  103.000
210.549;   67.400;  108.000;    3.000
210.695;  -15.600;   -3.000;  -95.000
210.840;   94.200;   94.000;   67.000
210.985; -123.300; -484.000; -303.000
211.130;  137.700;  268.000;  406.000
211.275;   32.200;  207.000;  199.000
211.420; -123.300; -300.000; -289.000
211.566; -126.000; -536.000; -489.000
211.711;   68.700;  218.000;  157.000
211.856; -108.100; -545.000; -519.000
212.001;    8.000;  151.000;   44.000
212.146;  -11.200;  153.000;   49.000
212.291;  -44.200; -210.000; -186.000
212.436;  -24.200; -280.000;   -6.000
212.581; -155.700; -685.000; -653.000
212.726; -130.800; -487.000; -538.000
212.871; -100.200; -552.000; -217.000
213.016; -281.400;-1172.000;-1029.000
213.161;  142.300;  406.000;  291.000
213.306; -144.300; -435.000; -577.000
213.451; -199.900; -778.000; -689.000
213.596;  -90.100; -455.000; -347.000
213.741; -115.400; -448.000; -538.000
213.886; -124.500; -498.000; -517.000
214.031;   -9.500; -294.000; -124.000
214.176;  -64.600; -408.000; -341.000
214.321;  -51.100; -296.000; -157.000
214.466;  -23.100; -163.000;  -43.000
214.611;  -11.000;  -61.000;  -10.000
214.756; -251.200; -948.000; -858.000
214.901;  -35.100; -388.000; -226.000
215.046; -271.500; -797.000; -825.000
215.191;   45.000;  128.000;   35.000
215.336;  -24.000; -157.000;  -19.000
215.480; -134.900; -684.000; -505.000
215.625;  -31.100; -175.000;  -19.000
215.770; -162.700; -757.000; -662.000
215.915;   11.300;   -5.000;  -97.000
216.060;  -16.000; -113.000;  -21.000
216.205; -225.800; -731.000; -779.000
216.349; -155.500; -470.000; -533.000
216.494; -271.400; -939.000; -867.000
216.639; -210.900; -823.000; -888.000
216.784; -177.500; -577.000; -525.000
216.929;  126.700;  392.000;  281.000
217.073;  -20.700; -244.000;  -31.000
217.218;   17.200;   78.000;  -47.000
217.363; -166.700; -656.000; -618.000
217.507; -180.600; -623.000; -588.000
217.652; -254.100; -845.000; -874.000
217.797; -183.600; -708.000; -659.000
217.942; -229.800; -856.000; -720.000
218.086;  141.400;  608.000;  539.000
218.231;  -40.800; -174.000;  -26.000
218.376;  -74.200; -337.000; -229.000
218.520;   -1.800;  -41.000;   96.000
218.665;  -66.600; -338.000; -204.000
218.810;  -88.200; -275.000; -233.000
218.954;   35.100;  201.000;   35.000
219.099; -219.900; -713.000; -963.000
219.243; -119.300; -589.000; -554.000
219.388;  -63.400; -264.000; -136.000
219.532;    9.000; -116.000; -116.000
219.677; -156.300; -564.000; -521.000
219.822;   23.100;   33.000;   89.000
219.966;    6.700;   17.000;  -99.000
220.111;  -67.500; -328.000;  -40.000
220.255; -153.100; -797.000; -750.000
220.400;  -19.100; -180.000; -146.000
220.544; -128.500; -516.000; -450.000
220.689;  -91.500; -422.000; -451.000
220.833;  -14.600; -123.000;  -58.000
220.978; -104.300; -393.000; -563.000
221.122;   65.700;  319.000;  307.000
221.267; -241.900; -906.000; -837.000
221.411; -129.500; -478.000; -394.000
221.555;    1.000; -104.000;  -23.000
221.700;  -82.100; -329.000; -222.000
221.844;   71.200;  255.000;  272.000
221.989;  -96.100; -328.000; -311.000
222.133;  -67.700; -289.000; -307.000
222.277;   -4.600;    5.000;   78.000
222.422;   43.300;  227.000;  113.000
222.566;  -69.200; -381.000; -214.000
222.711;  -88.100; -414.000; -479.000
222.855; -171.500; -643.000; -586.000
222.999; -143.300; -642.000; -717.000
223.144;  -49.800; -195.000; -194.000
223.288;  125.400;  423.000;  251.000
223.432;   25.300;  184.000;  230.000
223.576;   25.800;  152.000;  -21.000
223.721;  114.700;  364.000;  273.000
223.865; -113.600; -472.000; -475.000
224.009;  528.800; 1673.000; 1631.000
224.153; -182.200; -660.000; -671.000
224.298; -129.900; -531.000; -489.000
224.442;  -32.100;  -74.000;  -33.000
224.586;    7.700; -169.000; -106.000
224.730; -212.700; -858.000; -670.000
224.875; -186.100; -739.000; -688.000
225.019;    7.700;  102.000;  188.000
225.163;  118.200;  208.000;  341.000
225.307;   56.400;   97.000;  -91.000
225.451;  138.100;  360.000;  481.000
225.595;   63.800;  264.000;  176.000
225.739;  -38.000; -170.000;  -94.000
225.884;   16.900;   86.000;    5.000
226.028; -190.700; -760.000; -626.000
226.172;  -64.500; -260.000; -273.000
226.316; -244.200; -941.000; -902.000
226.460; -149.900; -645.000; -493.000
226.604; -124.700; -406.000; -400.000
226.748; -200.800; -836.000; -733.000
226.892;  -68.600; -227.000; -181.000
227.036; -114.700; -537.000; -447.000
227.180;  -94.700; -551.000; -375.000
227.324; -116.300; -561.000; -580.000
227.468; -198.600; -819.000; -717.000
227.612;   10.300;  242.000;  -28.000
227.756; -215.400; -845.000; -698.000
227.900;  146.400;  342.000;  441.000
228.044;  -96.700; -509.000; -290.000
228.188;  171.200;  448.000;  568.000
228.332; -156.400; -546.000; -472.000
228.476;  -68.300; -223.000; -149.000
228.620;  -59.500; -210.000; -150.000
228.764;  128.800;  431.000;  349.000
228.908;  -14.300; -155.000;   30.000
229.052; -102.000; -615.000; -528.000
229.195;  -12.600; -172.000;   13.000
229.339;  -71.900; -235.000; -305.000
229.483;  -36.600;    5.000; -162.000
229.627;  -17.200; -156.000;  139.000
229.771;  -91.700; -218.000; -294.000
229.915;   47.600;  230.000;   79.000
230.059; -189.800; -648.000; -663.000
230.202;  -60.200; -370.000; -317.000
230.346;  -32.200; -107.000;  107.000
230.490; -122.300; -489.000; -521.000
230.634; -206.600; -736.000; -553.000
230.777;  192.800;  478.000;  509.000
230.921;  -97.600; -450.000; -359.000
231.065;  -77.200; -246.000; -286.000
231.209;   90.900;  261.000;  265.000
231.352;   60.200;   54.000;   40.000
231.496;   38.900;  568.000;  188.000
231.640; -141.600; -693.000; -621.000
231.783;  166.200;  546.000;  525.000
231.927;  -94.200; -294.000; -365.000
232.071; -240.100; -962.000; -736.000
232.214; -204.100; -980.000; -764.000
232.358; -206.500; -683.000; -599.000
232.502;   37.000;  -19.000;    7.000
232.645; -274.700;-1090.000; -927.000
232.789;  -55.800; -257.000; -218.000
232.933;  -73.300; -407.000; -224.000
233.076; -260.200;-1038.000; -897.000
233.220; -203.300; -752.000; -777.000
233.363; -152.700; -669.000; -477.000
233.507;  165.300;  371.000;  129.000
233.650; -167.900; -764.000; -834.000
233.794;  112.900;  438.000;  461.000
233.938; -112.400; -530.000; -362.000
234.081;  -19.600;  -93.000;   31.000
234.225; -121.000; -631.000; -539.000
234.368; -192.600; -773.000; -723.000
234.512;  -87.400; -385.000; -299.000
234.655; -188.400; -582.000; -555.000
234.798; -122.100; -493.000; -466.000
234.942; -257.500; -884.000;-1002.000
235.085; -146.100; -651.000; -443.000
235.229; -133.000; -405.000; -410.000
235.372;  -88.100; -247.000; -191.000
235.516; -107.000; -397.000; -321.000
235.659;   40.700;   92.000;  121.000
235.802;  -16.300;  -38.000;  -22.000
235.946;   45.100;  335.000;  215.000
236.089;   80.000;  126.000;  250.000
236.233;  129.900;  275.000;  298.000
236.376;  -88.600; -235.000; -378.000
236.519;  -86.800; -297.000; -319.000
236.663;  -46.200; -215.000; -117.000
236.806; -270.400;-1029.000; -999.000
236.949;  148.700;  543.000;  431.000
237.092;  146.300;  412.000;  391.000
237.236; -121.400; -589.000; -502.000
237.379;  165.500;  352.000;  428.000
237.522; -240.100; -879.000; -768.000
237.666;  -35.400; -271.000;   18.000
237.809; -250.300; -851.000; -823.000
237.952;   81.700;  469.000;  271.000
238.095; -121.600; -447.000; -442.000
238.238;  198.500;  688.000;  700.000
238.382;   11.200;  166.000;  103.000
238.525; -113.400; -598.000; -511.000
238.668; -280.400;-1060.000; -985.000
238.811; -128.700; -638.000; -643.000
238.954; -130.300; -483.000; -334.000
239.097;  191.100;  617.000;  664.000
239.241;   74.600;  394.000;  326.000
239.384;  -48.800; -254.000; -214.000
239.527; -118.000; -424.000; -224.000
239.670; -286.000; -994.000;-1091.000
239.813; -227.000; -696.000; -658.000
239.956;  198.000;  579.000;  473.000
240.099; -222.800; -778.000; -725.000
240.242;  142.300;  428.000;  432.000
240.385;  126.300;  466.000;  450.000
240.528; -137.600; -706.000; -473.000
240.671;   60.100;  189.000;  134.000
240.814;  -67.200; -441.000; -158.000
240.957; -188.100; -767.000; -578.000
241.100; -150.200; -779.000; -755.000
241.243; -272.700;-1234.000; -893.000
241.386; -105.800; -508.000; -379.000
241.529; -153.200; -735.000; -547.000
241.672; -125.800; -566.000; -495.000
241.815; -216.000; -832.000; -808.000
241.958;  -19.500; -125.000; -182.000
242.101; -129.800; -545.000; -390.000
242.244;  -55.500; -270.000; -325.000
242.387;  -32.800; -304.000; -246.000
242.530;  116.900;  470.000;  134.000
242.673;  -61.200; -381.000; -309.000
242.815; -236.800; -925.000; -899.000
242.958; -133.100; -482.000; -381.000
243.101;   23.600;  132.000;  187.000
243.244; -138.700; -564.000; -521.000
243.387;  -66.900; -313.000; -316.000
243.530; -200.000; -657.000; -674.000
243.672;   25.000;   43.000;  -92.000
243.815;  -98.300; -355.000; -283.000
243.958;    7.900;   98.000;  -26.000
244.101;   18.800;   59.000;  -16.000
244.243;  -12.500;  -47.000;  101.000
244.386; -217.800; -761.000; -630.000
244.529;  -38.500; -132.000; -139.000
244.672; -324.100;-1154.000; -951.000
244.814; -194.100; -621.000; -794.000
244.957; -114.700; -380.000; -304.000
245.100; -144.700; -489.000; -489.000
245.242; -116.500; -387.000; -374.000
245.385;   14.700;  -59.000;  -39.000
245.528; -230.600; -871.000; -705.000
245.670;  227.500;  612.000;  634.000
245.813; -145.400; -599.000; -547.000
245.956;  -41.600; -324.000; -275.000
246.098; -125.500; -508.000; -650.000
246.241;   30.800;  194.000;   48.000
246.383;  -15.000; -119.000;  -73.000
246.526; -153.200; -454.000; -525.000
246.669; -199.900; -889.000; -780.000
246.811;   71.100;  172.000;   -1.000
246.954; -127.300; -512.000; -426.000
247.096;  -39.900;  -84.000;   -6.000
247.239; -124.700; -482.000; -445.000
247.381; -128.000; -647.000; -488.000
247.524;  192.000;  645.000;  679.000
247.666;   22.900;   58.000;   11.000
247.809; -217.500; -887.000; -691.000
247.951;    1.100;  -75.000;  138.000
248.094;   77.300;  432.000;  308.000
248.236; -285.800;-1262.000;-1238.000
248.378;   22.100; -356.000;  -81.000
248.521;  -63.200; -334.000; -337.000
248.663;  -78.000; -236.000; -267.000
248.806;  -39.800; -300.000; -266.000
248.948; -165.400; -886.000; -763.000
249.090;  -95.000; -428.000; -398.000
249.233;  -90.500; -344.000; -381.000
249.375; -123.000; -474.000; -451.000
249.518;  -16.500;  -83.000; -133.000
249.660;   26.900; -103.000;    3.000
249.802; -333.400;-1303.000;-1189.000
249.945; -116.700; -612.000; -540.000
250.087; -234.000; -834.000; -768.000
250.229;  -76.200; -362.000; -480.000
250.371; -142.900; -494.000; -439.000
250.514;  -72.300; -310.000; -244.000
250.656;  -33.400;   69.000;  102.000
250.798; -230.400; -849.000; -800.000
250.940;  -89.600; -322.000; -322.000
251.083;  -37.900; -335.000; -111.000
251.225;  148.300;  338.000;  310.000
251.367;  -88.500; -274.000; -373.000
251.509;  -44.500; -265.000; -210.000
251.651; -166.700; -731.000; -671.000
251.794;  171.300;  538.000;  632.000
251.936; -194.300; -821.000; -747.000
252.078; -156.700; -540.000; -461.000
252.220; -121.200; -645.000; -477.000
252.362;  199.800;  344.000;  462.000
252.504; -102.400; -677.000; -584.000
252.646; -204.000; -875.000; -722.000
252.788;  -14.800;   14.000; -128.000
252.931;  -55.300; -257.000; -253.000
253.073;  -40.800; -376.000; -317.000
253.215;  -14.600;  141.000;  122.000
253.357;  -10.400;   82.000; -153.000
253.499;  -78.100; -374.000; -234.000
253.641; -163.900; -749.000; -594.000
253.783; -162.100; -609.000; -527.000
253.925; -162.700; -586.000; -591.000
254.067; -189.400; -744.000; -667.000
254.209;  -60.900; -391.000; -259.000
254.351; -257.600; -865.000; -883.000
254.493; -103.900; -441.000; -417.000
254.635; -229.900; -936.000; -818.000
254.777; -172.000; -752.000; -687.000
254.918; -124.300; -512.000; -430.000
255.060; -109.000; -551.000; -395.000
255.202; -124.900; -473.000; -261.000
255.344; -146.700; -658.000; -455.000
255.486; -149.000; -471.000; -406.000
255.628; -223.900; -780.000; -781.000
255.770; -133.300; -676.000; -536.000
255.912; -123.000; -559.000; -468.000
256.053; -193.400; -730.000; -508.000
256.195;  329.600; 1008.000;  903.000
256.337; -193.500; -861.000; -595.000
256.479;  150.300;  532.000;  416.000
256.621;  -49.800; -394.000; -212.000
256.762; -161.300; -789.000; -742.000
256.904;  151.800;  485.000;  487.000
257.046;  -49.600; -381.000; -271.000
257.188;  -63.200; -351.000; -264.000
257.329; -131.800; -525.000; -464.000
257.471; -230.000; -939.000; -807.000
257.613;  -96.500; -584.000; -498.000
257.755; -279.100;-1073.000; -982.000
257.896;   87.800;  286.000;  392.000
258.038; -106.100; -403.000; -352.000
258.180;  -61.100; -354.000; -279.000
258.321; -132.400; -581.000; -457.000
258.463;   -1.600;  -71.000;  133.000
258.605; -156.100; -562.000; -570.000
258.746; -194.800; -886.000; -772.000
258.888; -280.900;-1026.000;-1020.000
259.029;   49.000;  121.000;   -8.000
259.171; -180.000; -614.000; -550.000
259.313;   39.100;  -49.000;  -47.000
259.454; -142.800; -536.000; -414.000
259.596;  -93.100; -483.000; -390.000
259.737; -114.700; -590.000; -474.000
259.879;  101.800;  217.000;  311.000
260.020;  212.000;  901.000;  636.000
260.162;  -53.800; -146.000; -253.000
260.303; -219.000; -768.000; -687.000
260.445; -143.000; -609.000; -613.000
260.586;   67.100;  392.000;  157.000
260.728;  -93.500; -360.000; -248.000
260.869; -130.200; -350.000; -343.000
261.011;  173.800;  706.000;  537.000
261.152;  -95.700; -479.000; -319.000
261.293; -190.600; -576.000; -595.000
261.435;  -23.500; -219.000; -184.000
261.576;  -59.100; -455.000; -325.000
261.718;  133.900;  420.000;  470.000
261.859; -245.400; -940.000; -949.000
262.000; -250.400; -951.000;-1016.000
262.142;    1.700;  -52.000;  -60.000
262.283; -210.500; -808.000; -691.000
262.424; -159.600; -666.000; -625.000
262.566; -281.300;-1161.000; -983.000
262.707; -231.500; -840.000; -830.000
262.848; -223.500; -769.000; -726.000
262.990;  -92.000; -362.000; -345.000
263.131;  193.600;  650.000;  681.000
263.272;    5.900;  -61.000;  -41.000
263.413; -161.300; -589.000; -561.000
263.555;  -97.200; -669.000; -143.000
263.696; -126.800; -550.000; -641.000
263.837; -132.100; -449.000; -551.000
263.978;   30.700;   -5.000;  -77.000
264.119;  -85.300; -283.000; -264.000
264.261; -215.300; -847.000; -630.000
264.402;   55.000;   33.000;   40.000
264.543; -142.200; -509.000; -524.000
264.684;    7.200;   61.000;  -50.000
264.825; -111.200; -816.000; -538.000
264.966;   18.900;  -84.000;  -67.000
265.107; -224.200; -646.000; -670.000
265.248; -218.200; -825.000; -812.000
265.390;   17.800;  152.000;   -9.000
265.531;  -26.800; -238.000; -107.000
265.672; -160.700; -557.000; -630.000
265.813;  146.400;  563.000;  439.000
265.954; -274.000; -959.000; -940.000
266.095;   14.100; -372.000; -322.000
266.236; -173.800; -686.000; -548.000
266.377;  -37.000; -243.000; -297.000
266.518; -113.600; -619.000; -547.000
266.659;   60.800;  170.000;  268.000
266.800;   27.600;   83.000;   85.000
266.941; -113.600; -487.000; -478.000
267.082;   58.000;  354.000;   99.000
267.223;  -83.500; -344.000; -273.000
267.364; -226.700; -892.000; -686.000
267.504;   -1.300;    3.000;  135.000
267.645;   51.200;  160.000;   67.000
267.786;  -23.100; -147.000;  -86.000
267.927; -113.900; -473.000; -379.000
268.068;  -28.900; -186.000;  -61.000
268.209;  -83.500; -175.000; -413.000
268.350;  -98.600; -388.000; -532.000
268.490; -152.200; -648.000; -521.000
268.631;  124.600;  127.000;  225.000
268.772; -215.200; -874.000; -647.000
268.913; -108.200; -328.000; -476.000
269.054;   -6.700; -117.000;   12.000
269.194;  -97.000; -418.000; -402.000
269.335; -271.500;-1137.000;-1074.000
269.476;   -7.400;   33.000;  -35.000
269.617;  -69.200; -347.000; -392.000
269.757; -151.600; -713.000; -646.000
269.898; -216.100; -856.000; -613.000
270.039; -113.400; -415.000; -405.000
270.180; -263.900; -952.000; -816.000
270.320;  -30.900; -190.000; -250.000
270.461;  -73.000; -277.000; -249.000
270.602;  -10.900; -186.000; -156.000
270.742; -231.600; -868.000; -943.000
270.883;  -88.200; -442.000; -390.000
271.023;  -96.300; -358.000; -357.000
271.164; -130.100; -607.000; -528.000
271.305; -180.700; -666.000; -654.000
271.445; -176.300; -722.000; -683.000
271.586; -132.000; -462.000; -283.000
271.726;  -63.700; -397.000; -322.000
271.867; -101.300; -594.000; -534.000
272.008;  289.400; -473.000; -285.000
272.148;  259.800;  462.000;  468.000
272.289;   30.800; -113.000; -181.000
272.429;   57.200;   19.000;  185.000
272.570; -200.100; -633.000; -737.000
272.710; -157.300; -825.000; -775.000
272.851;  -14.500;  113.000; -130.000
272.991; -320.600;-1173.000;-1077.000
273.131; -103.400; -419.000; -459.000
273.272; -191.200; -683.000; -723.000
273.412;   26.800; -143.000;  -31.000
273.553;  -75.300; -488.000; -507.000
273.693;  320.600;  913.000;  858.000
273.834; -168.600; -894.000; -692.000
273.974; -139.400; -664.000; -615.000
274.114; -151.700; -772.000; -560.000
274.255;  148.500;  414.000;  373.000
274.395;   54.200; -180.000; -125.000
274.535;  108.400;  199.000;  350.000
274.676;   64.200;  225.000;   94.000
274.816;   10.200;  110.000;   34.000
274.956; -150.900; -624.000; -690.000
275.097; -128.400;-1014.000; -922.000
275.237; -203.200; -913.000; -803.000
275.377; -210.500; -778.000; -689.000
275.517; -270.500; -878.000; -937.000
275.658; -109.300; -590.000; -555.000
275.798; -116.200; -606.000; -413.000
275.938;   52.900;  215.000;  323.000
276.078; -154.600; -626.000; -395.000
276.218;   36.900;   99.000;  104.000
276.359; -254.600;-1026.000;-1024.000
276.499; -117.200; -605.000; -446.000
276.639;  -80.400; -305.000; -151.000
276.779;  -84.200; -475.000; -357.000
276.919; -185.500; -783.000; -624.000
277.059;  -32.500; -261.000; -212.000
277.199;  -65.800; -357.000; -259.000
277.340;  122.100;  287.000;  175.000
277.480; -207.700; -840.000; -693.000
277.620;   70.900;  192.000;   16.000
277.760; -377.800;-1533.000;-1294.000
277.900;   75.800;  113.000;   33.000
278.040;   82.200;  137.000;  159.000
278.180;  122.600;  270.000;  170.000
278.320;   49.900;   21.000;   56.000
278.460; -107.400; -443.000; -469.000
278.600; -159.400; -708.000; -598.000
278.740;  165.900;  448.000;  224.000
278.880; -135.000; -768.000; -791.000
279.020;   38.200; -194.000; -144.000
279.160; -160.600; -672.000; -595.000
279.300; -206.300; -926.000; -873.000
279.440; -141.800; -709.000; -622.000
279.579;  -61.400;-1014.000; -929.000
279.719;  -83.400; -410.000; -394.000
279.859;  143.600;   -4.000;   41.000
279.999;   39.200; -208.000;  101.000
280.139;  -46.900; -435.000; -387.000
280.279; -135.300; -708.000; -745.000
280.419;  -24.000; -229.000; -147.000
280.559;  -34.700; -259.000; -180.000
280.698; -157.700; -790.000; -639.000
280.838; -190.600; -778.000; -800.000
280.978; -193.900; -846.000; -790.000
281.118; -189.000; -811.000; -704.000
281.257;   42.800;   24.000;    6.000
281.397; -228.200;-1094.000; -960.000
281.537; -143.400; -599.000; -712.000
281.677;  -13.700; -150.000; -101.000
281.816; -157.600; -700.000; -630.000
281.956;  -48.900; -193.000; -257.000
282.096;  -94.400; -539.000; -396.000
282.235; -161.400; -672.000; -638.000
282.375;   -8.100; -243.000;  -98.000
282.515; -155.100; -715.000; -707.000
282.654;   81.000;   29.000;  106.000
282.794;   85.600;  388.000;  244.000
282.934; -113.200; -530.000; -491.000
283.073; -248.100;-1030.000; -857.000
283.213;  -75.500; -460.000; -467.000
283.353;  -47.600; -408.000; -349.000
283.492;  -46.800; -264.000; -296.000
283.632;  -41.300; -254.000; -168.000
283.771; -150.000; -859.000; -730.000
283.911;  -95.700; -369.000; -260.000
284.050; -182.800; -794.000; -748.000
284.190; -293.200;-1229.000;-1096.000
284.329; -275.400;-1055.000; -964.000
284.469; -118.800; -516.000; -591.000
284.608;  -70.000; -559.000; -598.000
284.748; -116.600; -614.000; -570.000
284.887;   26.600;  -87.000;  -20.000
285.027; -226.400; -844.000; -892.000
285.166;  -20.500; -192.000; -249.000
285.306;   45.900; -116.000;  -33.000
285.445;  -70.200; -229.000; -343.000
285.584; -145.600; -630.000; -494.000
285.724;  -59.400; -282.000; -322.000
285.863; -185.800; -857.000; -507.000
286.002;  -85.700; -366.000; -276.000
286.142; -199.400; -715.000; -622.000
286.281; -116.700; -525.000; -493.000
286.420; -151.900; -554.000; -417.000
286.560;  251.700;  653.000;  623.000
286.699; -238.700; -958.000; -912.000
286.838; -143.200; -590.000; -591.000
286.978; -132.800; -533.000; -537.000
287.117; -256.900;-1085.000; -950.000
287.256;  -48.100; -228.000; -211.000
287.395;  -45.700; -197.000; -378.000
287.535;  -97.100; -370.000; -298.000
287.674; -107.400; -509.000; -484.000
287.813;  181.100;  661.000;  533.000
287.952; -244.600;-1010.000; -871.000
288.091; -296.500;-1049.000; -915.000
288.231;   53.500;   13.000;   15.000
288.370; -325.800;-1217.000;-1200.000
288.509; -133.200; -728.000; -645.000
288.648; -134.200; -770.000; -548.000
288.787;  -26.300; -243.000;  -87.000
288.926; -122.500; -454.000; -475.000
289.065;  290.100;  859.000;  672.000
289.204;  -78.700; -377.000; -217.000
289.344; -162.700; -791.000; -690.000
289.483;   94.500;  416.000;  304.000
289.622;   -9.500; -291.000; -149.000
289.761;   13.700; -309.000; -166.000
289.900; -187.700; -785.000; -626.000
290.039;  -12.800;  -12.000;  -95.000
290.178;  -53.000; -274.000; -180.000
290.317; -169.400; -618.000; -479.000
290.456; -110.300; -463.000; -451.000
290.595; -266.100; -961.000; -833.000
290.734; -233.500; -904.000; -891.000
290.873;  -85.100; -456.000; -420.000
291.011; -199.700; -833.000; -843.000
291.150; -176.400; -770.000; -682.000
291.289;   12.400; -343.000; -110.000
291.428; -141.100; -599.000; -480.000
291.567;  -57.300; -370.000; -442.000
291.706;   46.400;  109.000;  154.000
291.845; -148.700; -597.000; -505.000
291.984; -290.200;-1234.000;-1061.000
292.122;  185.100;  602.000;  582.000
292.261;  146.100;  620.000;  463.000
292.400;   45.000; -144.000;  211.000
292.539; -217.900; -959.000; -813.000
292.678;  -51.600; -325.000; -300.000
292.816; -300.500;-1136.000; -965.000
292.955; -178.600; -844.000; -684.000
293.094;  -18.000; -173.000; -337.000
293.233;  -93.300; -556.000; -400.000
293.371;  -48.800; -225.000;  -84.000
293.510; -184.300; -866.000; -780.000
293.649; -249.800; -959.000; -924.000
293.787; -142.700;-1083.000;-1012.000
293.926;   43.900; -113.000;  -32.000
294.065;  -91.600; -379.000; -290.000
294.203;  156.200;  298.000;  406.000
294.342;   86.900;   74.000;  156.000
294.481;12715.500;51180.000; -836.000
294.619;  -47.500; -425.000; -582.000
294.758; -266.900;-1230.000;-1137.000
294.896;  127.800; -125.000;    5.000
295.035; -225.600;-1040.000;-1006.000
295.174; -207.500;-1082.000; -954.000
295.312;  -87.700; -323.000; -203.000
295.451;  -19.400; -307.000; -428.000
295.589; -102.500; -389.000; -518.000
295.728;   45.900; -292.000; -165.000
295.866;   33.000;  -36.000;  -51.000
296.005; -135.500; -584.000; -341.000
296.143; -110.500; -558.000; -596.000
296.282; -183.400; -957.000; -881.000
296.420; -124.500; -657.000; -557.000
296.559; -166.100; -892.000; -633.000
296.697;   15.800; -847.000; -665.000
296.835;  145.500;-1141.000;-1002.000
296.974;   97.700;  -23.000;   39.000
297.112;   45.800; -443.000; -504.000
297.251; -124.000; -815.000; -755.000
297.389;  151.400; -576.000; -438.000
297.527;  106.200; -145.000;  -83.000
297.666; -111.300; -486.000; -438.000
297.804;  -74.700; -404.000; -264.000
297.942;    8.500; -136.000; -161.000
298.081;   22.200; -183.000;   63.000
298.219;  141.000;  -17.000;  -19.000
298.357;  120.200; -144.000;  -71.000
298.495;   49.200; -810.000; -812.000
298.634;  219.500;  245.000;  219.000
298.772;  136.200; -220.000; -338.000
298.910;  -32.900; -309.000; -182.000
299.048;   24.000; -130.000; -153.000
299.187;  -32.900; -350.000; -250.000
299.325;   88.800;   52.000;  122.000
299.463;  114.700; -389.000; -299.000
299.601;  194.800; -327.000; -271.000
299.739; -164.500; -908.000; -883.000
299.877; -132.400; -791.000; -703.000
300.016; -122.700;-1095.000; -935.000
300.154;  315.000;  -19.000; -161.000
300.292;  110.200; -428.000; -348.000
300.430;   68.500; -408.000; -291.000
300.568; -163.300; -940.000; -874.000
300.706;  -74.100; -366.000; -469.000
300.844; -149.200;-1108.000; -979.000
300.982;  248.900;  246.000;  282.000
301.120; -203.200; -965.000; -866.000
301.258; -104.700; -812.000; -705.000
301.396;   93.400;  104.000;  -41.000
301.534;  160.400; -218.000; -293.000
301.672;    6.600; -664.000; -521.000
301.810;   65.000; -613.000; -545.000
301.948;  272.000;   53.000;  149.000
302.086; 1119.500; -250.000;  -32.000
302.224; 1780.600; -610.000; -585.000
302.362;   94.100; -558.000; -622.000
302.500;  -42.400; -923.000; -893.000
302.638;  281.700;  128.000;  245.000
302.776;   34.800; -352.000; -408.000
302.913;  112.500;  447.000;  236.000
303.051;   25.000;  -86.000;  -23.000
303.189;  141.300;   90.000;  118.000
303.327;  -19.700; -341.000; -256.000
303.465; -145.000; -832.000; -588.000
303.603; -182.800; -805.000; -604.000
303.740;  242.100;  417.000;  241.000
303.878;   51.400; -800.000; -759.000
304.016; -151.800; -915.000; -790.000
304.154; -242.400;-1123.000;-1152.000
304.291;  -67.900; -505.000; -554.000
304.429;   54.400;  102.000;   74.000
304.567; -251.200; -908.000; -893.000
304.705;  -68.800; -408.000; -515.000
304.842;  172.200; -616.000; -540.000
304.980;  153.500;  215.000;   35.000
305.118;  102.300; -367.000; -365.000
305.255; -116.900; -945.000; -927.000
305.393;  134.100;  178.000;  239.000
305.531; -192.200;-1173.000; -956.000
305.668; -112.900; -663.000; -582.000
305.806;  208.200; -358.000; -439.000
305.943;  178.300; -629.000; -637.000
306.081;  109.200; -378.000; -267.000
306.219; -197.500; -863.000; -748.000
306.356;   59.100;  158.000;   27.000
306.494;  278.400;  981.000;  761.000
306.631;   52.400;  -11.000;  -55.000
306.769;   19.000; -613.000; -485.000
306.906;   25.700; -284.000; -258.000
307.044;  -74.800; -473.000; -488.000
307.181;  -75.800; -410.000; -332.000
307.319;   80.500;  112.000;   87.000
307.456; -305.300;-1191.000;-1153.000
307.594; -182.400; -980.000; -727.000
307.731;    1.800; -371.000; -164.000
307.868;   27.400;  -15.000;   20.000
308.006; -229.200; -961.000; -847.000
308.143;  -53.700; -618.000; -330.000
308.281;  452.600;  -37.000; -254.000
308.418;   48.800; -748.000; -640.000
308.555;  -95.000; -400.000; -250.000
308.693; -122.400; -577.000; -573.000
308.830; -182.600; -712.000; -657.000
308.967;   42.100; -215.000;  -95.000
309.105;  -33.600; -507.000; -396.000
309.242;  110.100; -468.000; -367.000
309.379;  815.900; -577.000; -655.000
309.517;  -82.800; -936.000; -948.000
309.654; -168.800; -910.000; -734.000
309.791; -115.700; -662.000; -580.000
309.928; -198.000; -977.000; -914.000
310.065;  364.200;  819.000;  697.000
310.203;   -4.700; -825.000; -850.000
310.340;   12.800; -465.000; -321.000
310.477; -102.400; -412.000; -516.000
310.614;  -83.600; -383.000; -473.000
310.751; -106.600; -427.000; -518.000
310.889;  -17.900;    1.000;   11.000
311.026; -282.100;-1161.000; -939.000
311.163;  -67.100; -386.000; -380.000
311.300;  -96.300; -512.000; -479.000
311.437;  -88.200; -658.000; -619.000
311.574; -316.600;-1226.000; -985.000
311.711; -112.400; -595.000; -433.000
311.848;  -37.300; -380.000; -388.000
311.985;   51.100;  270.000;   93.000
312.122; -190.900; -932.000; -762.000
312.259; -203.900; -941.000; -994.000
312.396; -125.900; -508.000; -551.000
312.533; -149.800; -812.000; -790.000
312.670; -246.400;-1070.000; -898.000
312.807;  -28.600; -352.000; -367.000
312.944;  -90.300; -513.000; -611.000
313.081;   -9.200; -150.000; -415.000
313.218; -169.700;-1111.000; -867.000
313.355;   59.200; -531.000; -449.000
313.492;   50.700; -455.000; -292.000
313.629;  307.500;  815.000;  735.000
313.766; -301.500;-1176.000;-1008.000
313.902;   14.900; -186.000;   21.000
314.039;  -44.800; -372.000; -289.000
314.176;   82.100;  286.000;  192.000
314.313; -128.500; -569.000; -473.000
314.450; -107.700; -788.000; -684.000
314.587;  -82.800; -468.000; -480.000
314.723;   66.900;  -78.000;  130.000
314.860;  130.000;  318.000;  332.000
314.997;  114.300;  223.000;  142.000
315.134;  -65.000; -385.000; -368.000
315.270;  -57.800; -480.000; -496.000
315.407; -238.100;-1094.000; -967.000
315.544;  -86.700; -657.000; -538.000
315.681; -109.600; -681.000; -565.000
315.817;   70.500; -133.000; -176.000
315.954;   22.000; -613.000; -392.000
316.091; -217.600;-1045.000;-1023.000
316.227;   13.600;  -71.000; -179.000
316.364;   41.100;   23.000;    6.000
316.500;  -50.600; -113.000; -300.000
316.637;  -67.000; -181.000; -302.000
316.774; -139.600; -625.000; -358.000
316.910; -141.000; -598.000; -629.000
317.047;  -89.800; -487.000; -351.000
317.183;  -51.800; -435.000; -566.000
317.320;   -4.500; -367.000; -321.000
317.456; -125.300; -733.000; -805.000
317.593; -122.000; -598.000; -641.000
317.729;   52.000;  168.000;  -67.000
317.866; -383.000;-1434.000;-1285.000
318.002; -154.700; -708.000; -948.000
318.139; -159.200; -883.000; -867.000
318.275; -188.000;-1003.000; -738.000
318.412; -102.300; -517.000; -336.000
318.548;  -64.300; -751.000; -720.000
318.685; -160.100; -985.000; -888.000
318.821; -171.600; -762.000; -735.000
318.957;  -14.000;   34.000;  -23.000
319.094;  118.200;  297.000;  154.000
319.230; -118.200; -756.000; -742.000
319.367;  245.900; -471.000; -520.000
319.503;  156.300; -538.000; -436.000
319.639; -166.000; -877.000; -793.000
319.775; -101.400; -750.000; -685.000
319.912;  -82.800; -424.000; -519.000
320.048; -141.700;-1184.000;-1184.000
320.184;  174.200;   59.000;   70.000
320.321;  -73.400; -497.000; -467.000
320.457;  138.500;  475.000;  662.000
320.593; -106.900; -375.000; -382.000
320.729; -181.100; -732.000; -734.000
320.866; -131.000; -577.000; -635.000
321.002; -106.900; -759.000; -809.000
321.138;   -5.900; -135.000; -211.000
321.274;  152.800; -148.000; -115.000
321.410;  -15.300; -585.000; -353.000
321.546;  -46.100;-1011.000; -911.000
321.683;  187.800;  400.000;  185.000
321.819;   68.500;  -48.000; -117.000
321.955; -194.800; -743.000; -722.000
322.091;  -70.300; -585.000; -540.000
322.227;    9.300; -382.000; -202.000
322.363;  -37.500; -320.000; -215.000
322.499;  -69.000; -343.000; -331.000
322.635;  323.400;  636.000;  443.000
322.771;   96.400; -139.000;   12.000
322.907;  196.900;  129.000;  327.000
323.043;   11.600; -115.000; -206.000
323.179;  -25.000; -394.000; -363.000
323.315;   77.500; -401.000; -371.000
323.451;  201.600; -328.000; -236.000
323.587;  123.200;  -60.000;  -77.000
323.723;   82.300; -682.000; -601.000
323.859;  -38.200; -258.000;  -76.000
323.995;  -24.400; -467.000; -409.000
324.131; -177.900; -967.000; -892.000
324.267;  -33.400; -254.000; -276.000
324.402; -231.300; -960.000; -983.000
324.538;   21.800; -279.000; -104.000
324.674;  112.700;  164.000;   77.000
324.810;  357.000;  226.000;  308.000
324.946;   85.400; -810.000; -658.000
325.082; -113.300; -568.000; -475.000
325.217;   10.300;  -62.000;   16.000
325.353; -164.900; -764.000; -659.000
325.489; -172.800; -540.000; -506.000
325.625; -103.700; -579.000; -525.000
325.760;  158.400;  517.000;  376.000
325.896;    1.500; -515.000; -702.000
326.032;  -67.900; -403.000; -352.000
326.168;  -79.000; -462.000; -369.000
326.303;  -72.700; -352.000; -461.000
326.439;   -4.800; -336.000; -276.000
326.575;   56.300; -190.000;  -29.000
326.710;    9.600; -156.000;  -30.000
326.846;   30.300;  146.000;  103.000
326.982; -132.800; -530.000; -548.000
327.117; -106.700; -481.000; -442.000
327.253; -131.600; -745.000; -742.000
327.388; -208.200;-1137.000;-1153.000
327.524;  -36.700; -811.000; -578.000
327.659;   -3.600;  -58.000;  -22.000
327.795;    9.900;   69.000;   45.000
327.931; -142.100; -723.000; -499.000
328.066;  -15.200; -417.000; -276.000
328.202;   20.400;   12.000; -129.000
328.337;  250.700;  957.000;  713.000
328.473;  -10.400;  -12.000;  -74.000
328.608;    1.800; -256.000; -267.000
328.743; -159.200; -799.000; -664.000
328.879;   81.100;  214.000;  114.000
329.014;  -97.500; -102.000; -122.000
329.150; -137.200; -358.000; -483.000
329.285; -120.700; -465.000; -466.000
329.421;  -85.100; -548.000; -246.000
329.556;   -9.400;  -36.000;   85.000
329.691; -146.700; -633.000; -615.000
329.827; -128.800; -626.000; -480.000
329.962;  -68.500;  131.000; -301.000
330.097; -137.600; -673.000; -585.000
330.233;  -71.100; -410.000; -223.000
330.368; -213.500; -839.000; -628.000
330.503;   30.200;    3.000;   98.000
330.638;   42.900;  -93.000; -125.000
330.774;  -74.900; -609.000; -530.000
330.909;  -52.100; -434.000; -244.000
331.044; -157.800; -714.000; -708.000
331.179; -309.200;-1217.000;-1109.000
331.315;   72.800;   77.000;   20.000
331.450;   85.100;  157.000;  285.000
331.585; -181.400; -805.000; -706.000
331.720; -131.000; -510.000; -460.000
331.855;   30.900;  -35.000; -102.000
331.990;  453.000;   62.000;  138.000
332.126;  262.400; -110.000;   71.000
332.261;    3.100; -379.000; -265.000
332.396;   39.600; -135.000; -242.000
332.531; -203.700;-1074.000;-1031.000
332.666;   85.600; -519.000; -363.000
332.801; -163.600; -726.000; -807.000
332.936;    4.500; -192.000; -122.000
333.071; -261.000; -870.000; -817.000
333.206;   49.300;  307.000;  379.000
333.341;   72.900;  344.000;  418.000
333.476; -137.800; -627.000; -623.000
333.611;  -44.900; -251.000; -173.000
333.746;  -78.200; -381.000; -464.000
333.881; -187.000; -973.000; -935.000
334.016; -220.300; -936.000; -917.000
334.151; -209.400; -746.000; -702.000
334.286;  111.900;  152.000;  186.000
334.421;   16.800; -125.000; -178.000
334.556; -141.600; -611.000; -567.000
334.690; -141.100; -631.000; -577.000
334.825;  134.200;  381.000;   83.000
334.960;  -95.500; -285.000; -413.000
335.095;   78.200;  135.000;  -91.000
335.230; -176.100; -722.000; -738.000
335.365; -261.600;-1084.000; -990.000
335.499; -229.400;-1108.000;-1037.000
335.634;   75.100;    9.000;  534.000
335.769; -188.900; -755.000; -720.000
335.904; -104.200; -603.000; -561.000
336.038; -109.900; -735.000; -657.000
336.173; -201.700;-1206.000;-1194.000
336.308;   17.100; -116.000; -189.000
336.443;  -24.200; -544.000; -634.000
336.577; -124.300; -936.000; -787.000
336.712;  142.700;   -4.000;  -12.000
336.847;  -69.700; -724.000; -607.000
336.981;  102.600; -272.000; -208.000
337.116;  544.300;  615.000;  501.000
337.250;  307.700; -434.000; -421.000
337.385;  472.800; -297.000; -208.000
337.520;  182.600; -632.000; -603.000
337.654;  -27.700; -215.000; -126.000
337.789; -233.800; -989.000; -933.000
337.923;  -38.200; -104.000; -205.000
338.058; -133.100; -673.000; -738.000
338.192;  -34.800; -611.000; -488.000
338.327;   25.300;  -18.000; -155.000
338.461;  -92.100; -299.000; -469.000
338.596; -141.400; -780.000; -638.000
338.730; -164.200; -767.000; -803.000
338.865;  181.400;  -46.000; -140.000
338.999;  -91.900; -846.000; -702.000
339.134;  -16.600; -634.000; -536.000
339.268;   23.200; -741.000; -603.000
339.403;  655.900; -740.000; -775.000
339.537;  224.700; -894.000; -820.000
339.671; -187.600; -829.000; -813.000
339.806; -114.000; -556.000; -512.000
339.940;   74.300; -261.000; -235.000
340.074; -136.500; -685.000; -510.000
340.209;  -28.400; -351.000; -230.000
340.343; -129.700; -517.000; -573.000
340.477;  382.900;  998.000; 1036.000
340.612;  -95.300;-1033.000; -900.000
340.746;  298.600; -199.000; -243.000
340.880;  -82.100; -924.000; -785.000
341.014;    5.600;  -45.000; -154.000
341.149; -157.300; -756.000; -718.000
341.283; -167.100; -839.000; -754.000
341.417; -183.700;-1124.000; -938.000
341.551;  245.800; -768.000; -708.000
341.685;   -7.800; -633.000; -611.000
341.820;  -77.100; -562.000; -493.000
341.954;  -41.400; -218.000; -349.000
342.088; -269.600;-1102.000;-1019.000
342.222;  124.900;  565.000;  618.000
342.356; -100.600; -395.000; -335.000
342.490; -153.000; -880.000; -841.000
342.624;  -42.800; -339.000; -242.000
342.758;   -4.200; -364.000; -312.000
342.892; -109.800; -710.000; -585.000
343.026;  -27.800;  -58.000; -116.000
343.160;  -76.400; -426.000; -376.000
343.294; -109.500; -474.000; -337.000
343.428;  -28.200; -488.000; -448.000
343.562;    4.200; -172.000;  -23.000
343.696;   -7.100; -385.000; -314.000
343.830;   13.900; -362.000; -356.000
343.964;   67.300; -231.000; -168.000
344.098; 1686.400;  199.000;   70.000
344.232; 1416.200; -266.000; -127.000
344.366;  148.400; -567.000; -453.000
344.500;  116.700; -665.000; -744.000
344.634;  104.600; -324.000; -164.000
344.768;   -1.800; -531.000; -341.000
344.902;   76.900;  278.000;  256.000
345.035;  -94.800; -556.000; -496.000
345.169; -226.900; -933.000; -656.000
345.303;  -44.600; -308.000; -482.000
345.437; -121.900; -826.000; -717.000
345.571; -114.700; -675.000; -594.000
345.704;  -86.100; -309.000; -532.000
345.838;   -4.600; -331.000; -284.000
345.972;  -40.500; -543.000; -495.000
346.106;  379.200; -179.000; -190.000
346.239;  790.000; -312.000; -243.000
346.373;   53.600; -343.000; -302.000
346.507; -219.100; -950.000; -962.000
346.640;  298.000;  -30.000;   13.000
346.774;  -70.000; -650.000; -797.000
346.908;    5.900; -138.000;  -11.000
347.041; -124.600; -646.000; -593.000
347.175;   54.900;  259.000;   27.000
347.309; -120.200; -698.000; -628.000
347.442; -181.300; -883.000; -732.000
347.576;  536.500;  670.000;  668.000
347.709;  390.800; -123.000;  -52.000
347.843; -143.300; -933.000; -825.000
347.976;  115.000;  235.000;  294.000
348.110; -341.200;-1268.000;-1186.000
348.243; -160.700; -679.000; -772.000
348.377;   45.200;  -26.000;   60.000
348.510;  132.800;  403.000;  540.000
348.644;   -5.000;  -37.000; -159.000
348.777;   14.900;  180.000;  191.000
348.911;  -19.300; -142.000; -112.000
349.044;  365.100;  471.000;  448.000
349.178;  269.500;-1069.000;-1006.000
349.311;  261.100;  141.000;  255.000
349.444;    1.000; -927.000; -813.000
349.578;   20.000; -347.000; -200.000
349.711; -169.300; -959.000; -862.000
349.845;   33.800; -661.000; -591.000
349.978; -270.100;-1224.000;-1137.000
350.111; -112.300; -546.000; -612.000
350.244; -122.800; -596.000; -700.000
350.378;   33.100; -392.000; -393.000
350.511;  -76.300; -393.000; -426.000
350.644; -181.400; -808.000; -806.000
350.778;   72.900;  168.000;  104.000
350.911;   31.900;  134.000;  140.000
351.044; -127.500; -685.000; -615.000
351.177;  -25.000; -321.000; -281.000
351.310;   13.300;    3.000; -131.000
351.444; -160.200; -888.000; -788.000
351.577;  243.000;  140.000;   90.000
351.710;  267.300;  593.000;  417.000
351.843;  -27.600; -165.000;  -77.000
351.976;   43.500;  149.000;  -79.000
352.109; -139.700; -621.000; -612.000
352.242;    1.600; -464.000; -419.000
352.376;  -93.000; -580.000; -636.000
352.509;  307.100; -437.000; -356.000
352.642;   25.300; -654.000; -604.000
352.775;  131.200; -141.000;  -98.000
352.908; -181.600; -933.000; -904.000
353.041; -172.000; -814.000; -824.000
353.174;  -79.700; -551.000; -424.000
353.307; -133.000; -753.000; -764.000
353.440;  164.300;  541.000;  453.000
353.573; -201.200; -957.000;-1008.000
353.706;   -5.500; -384.000; -558.000
353.839;    8.800; -264.000; -220.000
353.971; -137.200; -657.000; -512.000
354.104; -150.300; -896.000; -835.000
354.237;  -58.500; -627.000; -662.000
354.370; -131.700; -846.000; -879.000
354.503; -345.100;-1231.000;-1308.000
354.636;  -37.400; -529.000; -348.000
354.769; -225.300; -937.000; -860.000
354.902;    9.500; -230.000; -139.000
355.034;    2.300; -164.000; -220.000
355.167;   13.400; -262.000; -162.000
355.300; -128.200;-1061.000; -880.000
355.433; 1669.600;  -71.000;  -14.000
355.565; 2665.600; -402.000; -384.000
355.698;  665.000; -356.000; -296.000
355.831;    1.000; -882.000; -801.000
355.964;  186.900; -285.000; -170.000
356.096; -134.000; -856.000; -843.000
356.229;   30.400; -523.000; -530.000
356.362;  539.800; -373.000; -266.000
356.494; 1073.100; -229.000; -162.000
356.627;  943.200;  269.000;  377.000
356.760; 1178.300;  120.000;   53.000
356.892; 1669.900; -286.000; -601.000
357.025; 1242.000;  403.000;  389.000
357.157; 1107.600; -167.000; -179.000
357.290; 1213.500; -856.000; -713.000
357.423;  366.100; -667.000; -556.000
357.555;  238.500; -217.000; -228.000
357.688;  219.300; -483.000; -364.000
357.820;  725.600; -870.000; -877.000
357.953; 6596.800; -563.000; -589.000
358.085; 1389.900; -632.000; -612.000
358.218; 2060.200;-1131.000; -932.000
358.350;  453.700;  -58.000;  312.000
358.483; -232.100;-1300.000;-1187.000
358.615;   27.400;-1182.000;-1078.000
358.747; -106.900;-1187.000;-1058.000
358.880;   62.100; -810.000; -744.000
359.012;   30.900; -376.000; -202.000
359.145;  -24.600; -480.000; -511.000
359.277;   71.600; -962.000; -913.000
359.409; 5440.700;  536.000;  231.000
359.542; 1327.900; -738.000; -688.000
359.674;  151.900;   46.000;   13.000
359.806;  -67.300; -565.000; -438.000
359.939;  -48.200; -617.000; -516.000
360.071;    5.600; -583.000; -579.000
360.203;   -2.800; -411.000; -364.000
360.335;  129.200;  164.000;  -16.000
360.468;  367.300; -249.000; -307.000
360.600; 4311.900; -547.000; -454.000
360.732; 4914.300; -546.000; -423.000
360.864;  688.400;-1216.000;-1044.000
360.996;  526.400; -516.000; -554.000
361.129;  105.300; -389.000; -598.000
361.261;   96.100;  110.000; -113.000
361.393;  -59.300; -252.000; -214.000
361.525;   83.800;   94.000;  244.000
361.657;  -41.500; -821.000; -703.000
361.789;   77.600; -139.000; -155.000
361.921;  458.600; -642.000; -593.000
362.053;  512.500;  524.000;  541.000
362.185;  132.000;  288.000;   72.000
362.318; -103.000; -709.000; -705.000
362.450;  274.800;  294.000;  444.000
362.582;  181.900; -913.000; -870.000
362.714;    7.700; -353.000; -332.000
362.846; -124.100; -606.000; -490.000
362.978; -240.400; -941.000; -811.000
363.109;  116.900; -161.000; -260.000
363.241;  803.500; -739.000; -749.000
363.373;  798.100; -649.000; -564.000
363.505; 1205.600; -186.000;  -91.000
363.637;  266.700; -787.000; -601.000
363.769; -172.400;-1067.000;-1080.000
363.901; -124.700; -596.000; -654.000
364.033; -223.500;-1103.000;-1062.000
364.165;   33.300; -283.000; -283.000
364.296;  154.000; -316.000; -177.000
364.428;  119.700;-1344.000;-1220.000
364.560; -125.100; -679.000; -661.000
364.692;  -94.500; -738.000; -835.000
364.824;  519.700; -588.000; -456.000
364.955;  800.000; -402.000; -564.000
365.087; 1600.100;-1097.000; -852.000
365.219;   79.000; -686.000; -816.000
365.351;  -82.000; -526.000; -572.000
365.482;  200.300;  300.000;  240.000
365.614;  -38.200; -402.000; -314.000
365.746; -164.700; -729.000; -752.000
365.877; -148.800; -706.000; -672.000
366.009;  504.600;  -35.000;  -62.000
366.141; -186.100;-1249.000;-1134.000
366.272; -197.900; -803.000; -719.000
366.404; -164.400;-1005.000; -874.000
366.535;   -1.400; -139.000;  -12.000
366.667; -165.600; -644.000; -649.000
366.799;  142.900;  353.000;  203.000
366.930; -197.100; -862.000; -996.000
367.062;  225.100; -639.000; -613.000
367.193;  230.000; -872.000; -842.000
367.325;  -92.800; -580.000; -684.000
367.456;  151.100; -246.000;   31.000
367.588;  311.900; -371.000; -318.000
367.719;   97.900;  -44.000;  -45.000
367.851;   15.700; -222.000; -241.000
367.982;  -48.700; -875.000; -732.000
368.113;  182.500; -475.000; -358.000
368.245; -170.300; -960.000; -841.000
368.376;   20.000; -254.000; -302.000
368.508;  -16.700; -188.000; -263.000
368.639; -206.100;-1166.000;-1034.000
368.770;  -13.400; -670.000; -589.000
368.902;  -99.600; -836.000; -926.000
369.033; -152.300; -906.000; -855.000
369.164;  -58.900; -720.000; -653.000
369.296; -178.500; -452.000; -601.000
369.427;   45.100; -209.000; -144.000
369.558;  -58.800; -593.000; -377.000
369.689; -126.300; -721.000; -569.000
369.821; -221.200; -951.000; -845.000
369.952;   14.100;   42.000; -108.000
370.083;  -64.000; -229.000; -108.000
370.214; -120.100; -735.000; -650.000
370.345;   34.900;   65.000;   81.000
370.477; -127.300; -810.000; -790.000
370.608;  473.600; -328.000; -264.000
370.739;  -89.800;-1233.000;-1292.000
370.870;  -82.100;-1102.000; -923.000
371.001;  239.800; -378.000; -467.000
371.132; -112.300; -754.000; -735.000
371.263;   15.900;  -42.000; -148.000
371.394; -214.100; -841.000; -748.000
371.525;  150.400;  345.000;  225.000
371.657; -138.900; -808.000; -670.000
371.788;  179.500;  103.000;  199.000
371.919;  332.100; -384.000; -304.000
372.050; 6522.700;  -91.000; -156.000
372.181; 1866.200; -188.000; -294.000
372.311;  685.800;   42.000; -127.000
372.442;   62.600; -457.000; -451.000
372.573;   17.600; -444.000; -340.000
372.704; -188.600;-1008.000; -980.000
372.835;  193.100; -228.000; -289.000
372.966;  -92.800; -646.000; -554.000
373.097;  -89.900; -575.000; -711.000
373.228;  -54.700; -717.000; -542.000
373.359;  241.100; -824.000; -536.000
373.490; 1684.400; -881.000; -727.000
373.620; 2060.700;-1001.000; -803.000
373.751; 3262.100; -332.000; -396.000
373.882; 1371.400; -663.000; -733.000
374.013;  161.600; -449.000; -262.000
374.143;  -40.400; -581.000; -659.000
374.274; -173.000; -987.000; -908.000
374.405;  339.700; -388.000; -276.000
374.536;  831.500; -526.000; -387.000
374.666; 1994.600; -759.000; -807.000
374.797;  435.800; -817.000; -868.000
374.928; 1578.000; -710.000; -560.000
375.058; 1629.000; -535.000; -500.000
375.189;  179.700;  -59.000;  -93.000
375.320; -156.800; -928.000;-1034.000
375.450;  -42.000; -625.000; -616.000
375.581;  -56.100; -526.000; -436.000
375.712;   19.500; -574.000; -250.000
375.842;  616.700; -438.000; -415.000
375.973;  426.900; -554.000; -513.000
376.103;  -75.300; -665.000; -648.000
376.234; -110.500; -531.000; -552.000
376.364;  -29.200; -944.000; -867.000
376.495;  681.200;  925.000;  529.000
376.625;   24.500; -472.000; -485.000
376.756;  155.000; -709.000; -678.000
376.886; -115.400;-1178.000;-1026.000
377.017;   70.500;-1048.000;-1061.000
377.147;  563.500; -786.000; -782.000
377.278;  137.900;  174.000;  228.000
377.408; -187.400; -801.000; -815.000
377.538; -149.600; -707.000; -693.000
377.669; -102.600; -537.000; -613.000
377.799; -113.500; -645.000; -635.000
377.929;  -68.500; -610.000; -428.000
378.060; -219.500; -781.000; -847.000
378.190;  -63.300; -726.000; -531.000
378.320;  -49.200; -401.000; -406.000
378.451;   10.700; -131.000;  -22.000
378.581;   36.700;  -67.000; -110.000
378.711;  378.000; 1035.000;  866.000
378.841;   21.800; -533.000; -675.000
378.972;  -95.700; -871.000; -751.000
379.102;   39.000; -652.000; -579.000
379.232;  -17.200; -126.000;  -73.000
379.362; -180.700;-1001.000; -885.000
379.492;   52.700; -373.000; -424.000
379.623;  245.400;    0.000;  111.000
379.753; -133.100;-1107.000; -974.000
379.883;  456.800;   59.000;  156.000
380.013;   20.800;-1081.000;-1017.000
380.143; -155.100;-1097.000;-1056.000
380.273; -138.000; -985.000; -861.000
380.403;   41.300; -344.000; -257.000
380.533;  -68.000; -651.000; -664.000
380.663;  202.900;  173.000;  128.000
380.793; -140.600;-1027.000;-1074.000
380.923;    8.900; -103.000;  -34.000
381.053; -152.100; -613.000; -623.000
381.183;   -8.300; -106.000; -248.000
381.313;   99.700; -656.000; -470.000
381.443;  100.600; -692.000; -473.000
381.573;  368.900; -402.000; -409.000
381.703;  520.700;-1249.000;-1095.000
381.833; -231.100;-1454.000;-1336.000
381.963;  245.600; -134.000;  -87.000
382.093; 2578.500; -925.000; -909.000
382.223;  708.400; -713.000; -602.000
382.353;  -27.000; -801.000; -608.000
382.482;  677.800;-1091.000; -964.000
382.612; 1418.100; -872.000; -644.000
382.742;  775.500; -695.000; -622.000
382.872;  498.700; -565.000; -551.000
383.002;  172.800;  347.000; -132.000
383.131;   37.900; -226.000; -160.000
383.261;  -18.300; -706.000; -768.000
383.391;  503.800; -552.000; -377.000
383.521; 5669.100;  451.000;  263.000
383.650; 1201.600; -947.000; -904.000
383.780;   -5.100; -783.000; -656.000
383.910;  294.300;  880.000;  802.000
384.039;   59.100; -794.000; -656.000
384.169;  395.100;-1205.000;-1017.000
384.299;  -12.700; -650.000; -662.000
384.428; -139.500; -764.000; -680.000
384.558;  -67.400; -308.000; -275.000
384.687;  -20.000; -414.000; -334.000
384.817;   97.500;   75.000;   -2.000
384.947;   59.100; -234.000; -141.000
385.076;  597.900;  982.000;  912.000
385.206;  242.500;  369.000;  480.000
385.335;  -58.900; -549.000; -417.000
385.465;  -87.600; -655.000; -663.000
385.594;  300.900;  -53.000;  -44.000
385.724;  753.800; -868.000; -838.000
385.853;  278.100; -296.000; -270.000
385.982; 2517.300; -743.000; -787.000
386.112; 3757.200;-1052.000; -871.000
386.241;  280.300; -307.000; -312.000
386.371;  105.800; -174.000;  -87.000
386.500;   66.200; -825.000; -789.000
386.629;   46.100; -874.000; -817.000
386.759;  160.700;  -43.000;   68.000
386.888;   48.700; -170.000; -250.000
387.017; -102.700; -648.000; -620.000
387.147; -131.000; -771.000; -798.000
387.276;   38.900; -410.000; -397.000
387.405;   43.100; -398.000; -342.000
387.535;  -76.800; -452.000; -361.000
387.664;  -87.800; -692.000; -620.000
387.793;  170.200; -198.000; -113.000
387.922; 1033.500;  255.000;  200.000
388.052;   44.500; -576.000; -423.000
388.181;   73.400; -342.000; -472.000
388.310;   -8.600; -889.000; -710.000
388.439;  -59.200; -749.000; -742.000
388.568;  391.200;  365.000;  244.000
388.697; 1978.100; -756.000; -653.000
388.826;  405.900; -768.000; -666.000
388.956;  148.600; -285.000; -307.000
389.085;  -35.100; -347.000; -287.000
389.214; -143.100; -842.000; -872.000
389.343;  -95.300; -645.000; -413.000
389.472;  814.400;  126.000;  149.000
389.601;  968.000;   91.000;    0.000
389.730;   80.300; -568.000; -687.000
389.859;  171.500;  226.000;   46.000
389.988;  409.100; -423.000; -408.000
390.117;  264.500; -168.000; -146.000
390.246;   47.400; -331.000; -320.000
390.375;  272.700; -673.000; -626.000
390.504;  -81.900; -703.000; -621.000
390.633; -121.400; -672.000; -726.000
390.761;  -52.300; -732.000; -645.000
390.890;   78.800;   -4.000; -130.000
391.019;   22.600; -421.000; -441.000
391.148; -203.200; -826.000; -855.000
391.277;  -67.900; -576.000; -493.000
391.406; -109.300; -821.000; -805.000
391.534;  105.500;  574.000; -301.000
391.663;  -51.800; -583.000; -645.000
391.792; -107.000; -673.000; -701.000
391.921;  235.100;   -3.000;   15.000
392.050;  401.400; -287.000; -228.000
392.178;  -60.400;-1206.000;-1061.000
392.307;  302.300; -758.000; -712.000
392.436;  141.400; -427.000; -641.000
392.564;   84.000;  166.000;   -6.000
392.693; -153.800; -860.000; -682.000
392.822;  386.300; -529.000; -534.000
392.950;  163.100; -880.000; -714.000
393.079;  644.700; -188.000; -328.000
393.208;   81.100; -488.000; -511.000
393.336;   22.800; -170.000; -145.000
393.465;  -28.700; -317.000; -199.000
393.593;   73.000;   62.000;   79.000
393.722; -280.400;-1121.000; -916.000
393.850;   13.400; -188.000;  -61.000
393.979; -255.000; -926.000; -805.000
394.107;  -62.900; -517.000; -537.000
394.236;    1.400; -570.000; -507.000
394.364;  575.700;  383.000;  206.000
394.493;  887.800; -911.000; -767.000
394.621;   56.500; -955.000; -916.000
394.750; 1287.300; -873.000; -923.000
394.878; 5325.600; -247.000; -149.000
395.007; 6865.300; -721.000; -807.000
395.135;  496.400; -790.000; -721.000
395.263; -129.900;-1038.000;-1040.000
395.392;   74.000;  -25.000; -107.000
395.520; -142.400; -818.000; -679.000
395.648; -139.500; -865.000; -915.000
395.777;    3.400; -366.000; -405.000
395.905;  -31.100; -449.000; -564.000
396.033;  117.300;  217.000;  172.000
396.162; 1521.300; -399.000; -453.000
396.290; 1266.500;  -17.000;   -2.000
396.418;  222.700; -555.000; -514.000
396.546; -113.700; -571.000; -466.000
396.674; -140.100; -850.000; -878.000
396.803;   58.100;  -72.000;  -23.000
396.931;  213.300; -179.000; -199.000
397.059;   80.100;-1026.000; -989.000
397.187; -179.300;-1026.000; -975.000
397.315; -205.800; -884.000; -649.000
397.443; -122.500; -592.000; -443.000
397.572; -132.100; -578.000; -424.000
397.700;    1.000; -607.000; -614.000
397.828;   73.900;  120.000;  -90.000
397.956;  -34.100; -508.000; -478.000
398.084;  -59.600; -767.000; -626.000
398.212;  159.500;  137.000;  124.000
398.340;   90.500;  -56.000;  159.000
398.468;   73.800; -390.000; -169.000
398.596; -234.900; -993.000; -953.000
398.724; -184.500; -762.000; -767.000
398.852; -273.500;-1024.000; -976.000
398.980;  -75.300; -560.000; -560.000
399.108;  -57.300; -982.000; -735.000
399.236;   89.800;   13.000;    8.000
399.363;   92.700;  222.000;  196.000
399.491;  -76.400; -404.000; -398.000
399.619; -226.300; -829.000; -800.000
399.747; -156.400; -859.000; -771.000
399.875;  201.700;  220.000;  234.000
400.003;  -55.400; -359.000; -284.000
400.130; -114.800; -421.000; -341.000
400.258;   16.400;  -83.000;   38.000
400.386;  -55.500; -352.000; -168.000
400.514;  -44.000; -526.000; -587.000
400.641; -138.900; -928.000; -802.000
400.769; -202.400; -979.000; -888.000
400.897; -147.100; -838.000; -793.000
401.025;   54.000; -166.000; -152.000
401.152;   53.100;  220.000;   38.000
401.280; -105.800; -430.000; -429.000
401.408; -188.900; -712.000; -576.000
401.535; -174.800; -735.000; -758.000
401.663; -329.600;-1134.000;-1054.000
401.790; -122.600; -514.000; -525.000
401.918;  172.300;  436.000;  405.000
402.046;   44.700;  134.000;  122.000
402.173;   -9.500;  -18.000;    7.000
402.301;  -85.100; -519.000; -397.000
402.428;  157.800;  528.000;  383.000
402.556; -227.100;-1188.000; -913.000
402.683;    6.600;  -20.000;   -1.000
402.811;   10.300;  -37.000; -206.000
402.938;   40.700;   20.000;   27.000
403.066;  368.900; -574.000; -558.000
403.193;  589.400;  299.000;  239.000
403.321;  460.000; -396.000; -574.000
403.448;  603.600;   83.000;   27.000
403.575;  308.700;  -90.000;  -46.000
403.703; -151.600; -732.000; -557.000
403.830;  -68.300; -531.000; -496.000
403.957; -234.800;-1117.000;-1023.000
404.085;   57.300;  -61.000; -172.000
404.212;  229.800;  -50.000;   63.000
404.339;  558.100; -566.000; -306.000
404.467;10498.100; -612.000; -524.000
404.594; 6535.100; -287.000; -227.000
404.721; 1556.000; -869.000; -764.000
404.848;  160.700; -113.000; -202.000
404.976; -150.800; -856.000; -783.000
405.103;   46.200;  -14.000;  -82.000
405.230;   57.600;  190.000;  226.000
405.357;  103.200;  117.000;   44.000
405.484;  511.800;  -49.000;    5.000
405.612;   81.500; -548.000; -563.000
405.739;  -73.100; -488.000; -243.000
405.866;  194.300;  669.000;  385.000
405.993;  -36.800; -398.000; -102.000
406.120; -220.100; -801.000; -887.000
406.247;  -61.200; -323.000; -342.000
406.374;  923.900;  540.000;  629.000
406.501;  199.900; -632.000; -702.000
406.628;  -86.100; -621.000; -589.000
406.755; -133.600; -803.000; -620.000
406.882;  -10.500; -228.000; -277.000
407.009; -151.600; -719.000; -628.000
407.136;  114.300; -480.000; -401.000
407.263;  264.700; -939.000; -829.000
407.390; -104.900; -692.000; -614.000
407.517; -283.400;-1139.000;-1187.000
407.644;  -76.800; -332.000; -256.000
407.771;  -81.200; -249.000; -287.000
407.898;   66.000;  168.000;  328.000
408.025;  -79.000; -421.000; -313.000
408.151;   15.800;   82.000;  153.000
408.278;  -85.900; -267.000; -216.000
408.405; -177.900; -931.000; -899.000
408.532;  -91.600; -549.000; -542.000
408.659; -161.500; -677.000; -648.000
408.785; -352.000;-1298.000;-1170.000
408.912;  -49.600; -412.000; -296.000
409.039; -154.200; -610.000; -686.000
409.166; -150.700; -591.000; -555.000
409.292; -162.300; -571.000; -534.000
409.419; -206.300; -665.000; -649.000
409.546;  -90.800; -431.000; -192.000
409.672; -199.600; -713.000; -545.000
409.799;   -6.400;  -36.000;   34.000
409.926;   -5.100; -180.000; -179.000
410.052; -309.300;-1127.000;-1091.000
410.179;  -70.500; -368.000; -392.000
410.305; -116.400; -375.000; -493.000
410.432;  -18.100; -220.000; -333.000
410.558;  -98.800; -305.000; -380.000
410.685; -159.200; -688.000; -431.000
410.812; -134.100; -409.000; -588.000
410.938; -230.600; -964.000; -808.000
411.065; -146.400; -671.000; -645.000
411.191;    0.300; -189.000; -174.000
411.317; -163.100; -823.000; -742.000
411.444; -102.000; -317.000; -246.000
411.570;  -94.400; -339.000; -294.000
411.697; -167.200; -758.000; -752.000
411.823; -280.200; -989.000; -999.000
411.949;   -1.700;  -56.000;   17.000
412.076; -163.400; -539.000; -519.000
412.202; -186.500; -758.000; -757.000
412.329; -204.800; -798.000; -752.000
412.455; -167.900; -821.000; -657.000
412.581;   19.800;  -15.000;  172.000
412.707;  -95.900; -540.000; -457.000
412.834;  110.200;  156.000;  219.000
412.960; -124.700; -785.000; -784.000
413.086; -152.400; -743.000; -701.000
413.212;  366.400;  604.000;  578.000
413.339; -100.800; -685.000; -701.000
413.465;   67.400; -364.000; -310.000
413.591; -123.100; -757.000; -474.000
413.717;  -43.200; -358.000; -366.000
413.843; -239.500; -839.000; -861.000
413.969;  -65.000;  -47.000; -292.000
414.096; -142.800; -679.000; -679.000
414.222;   26.000;  -33.000;   85.000
414.348;   32.800; -652.000; -385.000
414.474;  209.100;   38.000;  -52.000
414.600;   34.500; -126.000; -144.000
414.726;   47.100;  -96.000;  -55.000
414.852;  -49.300; -365.000; -342.000
414.978;  101.300;  104.000;  -18.000
415.104;  119.000;   38.000;   80.000
415.230;   96.700; -329.000; -330.000
415.356;   85.400; -409.000; -514.000
415.482;  384.500;   13.000;  -35.000
415.608;  542.000; -247.000; -323.000
415.734; 1781.500;   67.000;   38.000
415.860;36547.800; -875.000; -767.000
415.986;24032.000; -685.000; -607.000
416.111; 2039.800; -798.000; -652.000
416.237;  479.600; -424.000; -571.000
416.363; 2169.600; -765.000; -733.000
416.489; 7243.000; -324.000; -251.000
416.615;  726.600; -707.000; -742.000
416.741;  -25.300; -677.000; -784.000
416.866; -134.100; -673.000; -736.000
416.992; -199.100; -801.000; -818.000
417.118;   24.100;  -41.000;  -80.000
417.244;  -86.500; -798.000; -531.000
417.369; -117.600; -801.000; -612.000
417.495;   35.500; -325.000; -254.000
417.621; -150.700;-1015.000; -803.000
417.746;   57.400; -579.000; -572.000
417.872;  152.600; -254.000; -144.000
417.998;  153.200; -515.000; -530.000
418.123; 2088.200;-1073.000; -845.000
418.249; 9531.500; -512.000; -601.000
418.374; 1215.600; -916.000; -824.000
418.500;  180.900; -383.000; -482.000
418.626;  245.800;   70.000;  -59.000
418.751;  236.200; -549.000; -448.000
418.877;  417.000; -637.000; -643.000
419.002; 3503.800; -688.000; -560.000
419.128;22359.700; -930.000; -721.000
419.253; 4880.400; -967.000; -837.000
419.379;  660.100; -391.000; -338.000
419.504;  747.500;  325.000;  415.000
419.629;  890.600; -393.000; -212.000
419.755; 6966.500; -317.000; -254.000
419.880;36711.300;  -98.000;   67.000
420.006;20670.800; -280.000; -221.000
420.131;50266.800; -662.000; -775.000
420.256; 6663.600; -315.000; -316.000
420.382;  948.300; -665.000; -687.000
420.507;  142.000; -649.000; -778.000
420.632;  293.200; -337.000; -339.000
420.758;  472.900; -251.000; -425.000
420.883;  -94.900; -876.000; -672.000
421.008; -158.500; -775.000; -619.000
421.133; -100.500; -509.000; -467.000
421.259;  -19.700; -325.000; -259.000
421.384; -189.800; -834.000; -693.000
421.509;  -44.600;-1052.000; -862.000
421.634; 2126.800; -936.000; -820.000
421.759;  834.000; -359.000; -327.000
421.885;  -63.600; -717.000; -656.000
422.010;  -64.200; -673.000; -542.000
422.135; -207.600; -695.000; -727.000
422.260;  123.200;  340.000;  280.000
422.385;  -13.300;   12.000;  -98.000
422.510;   70.200;  151.000;  -26.000
422.635;  124.700;  -87.000;  -43.000
422.760;  244.400; -766.000; -791.000
422.885;  153.400;  -57.000;  -80.000
423.010;   -1.700; -112.000; -169.000
423.135; -121.800; -481.000; -561.000
423.260;   65.200; -150.000; -245.000
423.385;  208.300;  476.000;  222.000
423.510;   96.200;   71.000;  -22.000
423.635;  210.600;  133.000;   45.000
423.760;  166.700;  383.000;  328.000
423.885;  160.900;  336.000;  391.000
424.010;   88.400;  -68.000;  -13.000
424.135;   23.200;    5.000;  -33.000
424.259; -126.100; -654.000; -457.000
424.384;  -59.800; -279.000; -272.000
424.509;   17.600; -260.000; -186.000
424.634; -143.100; -761.000; -623.000
424.759;   -2.600; -688.000; -544.000
424.883;   54.900; -506.000; -527.000
425.008;  378.400; -502.000; -410.000
425.133; 3682.200; -679.000; -653.000
425.258; 1566.800; -517.000; -381.000
425.382; 1958.800; -867.000; -774.000
425.507; 4563.100; -487.000; -543.000
425.632;  724.500; -802.000; -663.000
425.756;  880.800; -256.000; -146.000
425.881;12371.100; -831.000; -857.000
426.006;30029.000; -604.000; -355.000
426.130; 4362.700; -696.000; -508.000
426.255;  624.800; -611.000; -491.000
426.379;  336.700; -189.000; -577.000
426.504;  757.400;  660.000;  544.000
426.629; 7500.600; -519.000; -466.000
426.753; 4619.000;   64.000;  -46.000
426.878;  545.600; -252.000; -288.000
427.002;  330.600; -651.000; -668.000
427.127; 3147.900;  -35.000; -158.000
427.251;20471.800;  372.000;  401.000
427.375; 5187.900; -191.000; -173.000
427.500; 4185.000; -616.000; -610.000
427.624; 1272.400; -234.000; -400.000
427.749;  194.100; -216.000; -225.000
427.873;  -36.900; -499.000; -412.000
427.997;   -9.100; -222.000; -230.000
428.122;  220.500;  795.000;  703.000
428.246;  200.500;  433.000;  434.000
428.371; -200.600; -869.000; -773.000
428.495; -158.200; -624.000; -646.000
428.619;   15.700; -186.000; -117.000
428.743;   98.300;   65.000;  132.000
428.868;   87.600; -732.000; -643.000
428.992; 2627.900; -219.000; -326.000
429.116;  961.200; -329.000; -357.000
429.240;  605.300;  419.000;  426.000
429.365;   22.100; -454.000; -574.000
429.489;  -31.300; -638.000; -647.000
429.613;   89.700; -236.000; -177.000
429.737;  162.600; -563.000; -432.000
429.861;  530.600; -247.000; -133.000
429.985;10429.200; -425.000; -305.000
430.109;10307.800; -770.000; -908.000
430.234; 1227.300;   76.000;  -50.000
430.358;  126.700; -250.000; -160.000
430.482;  -98.000; -672.000; -564.000
430.606;  -52.800; -655.000; -375.000
430.730;  110.500; -437.000; -388.000
430.854;  278.300; -909.000; -835.000
430.978;  -69.000; -795.000; -764.000
431.102; -122.400; -499.000; -422.000
431.226; -170.100; -874.000; -815.000
431.350;  140.900;  345.000;  422.000
431.474;  -78.300; -661.000; -373.000
431.597; -272.100;-1060.000; -848.000
431.721; -102.800; -276.000; -267.000
431.845; -194.400; -704.000; -472.000
431.969; -118.700; -304.000; -349.000
432.093; -111.500; -395.000; -317.000
432.217;   24.500;   32.000;   82.000
432.341; -132.300; -523.000; -518.000
432.464;   77.100;   96.000;   40.000
432.588;  408.600; -401.000; -329.000
432.712;  211.500;  -52.000;  -52.000
432.836;  172.900;  213.000;  263.000
432.959;   30.300; -372.000; -311.000
433.083;  227.000;   11.000;    2.000
433.207;  780.200;  285.000;  930.000
433.330; 9516.600; -391.000; -200.000
433.454;10566.000; -654.000; -638.000
433.578; 6325.000;  583.000;  278.000
433.701; 1073.800; -623.000; -675.000
433.825;  309.800; -292.000; -299.000
433.949;  391.400;   28.000;  -72.000
434.072;  147.600; -410.000; -323.000
434.196;   42.900; -309.000; -117.000
434.319; 7946.700;25482.000;25124.000
434.443; 1526.100; -656.000; -603.000
434.566; 4731.200;  281.000;   62.000
434.690;  701.800; -637.000; -383.000
434.813;  142.800; -251.000; -173.000
434.937; -106.100; -569.000; -696.000
435.060;  -18.100; -423.000; -332.000
435.184;  619.200; -492.000; -217.000
435.307;  358.600;  159.000;  102.000
435.431;   27.600;  -40.000;   24.000
435.554;  -90.100; -399.000; -240.000
435.677; -118.100; -350.000; -258.000
435.801;  -12.400;  -25.000;   49.000
435.924;   37.500;    1.000;  -67.000
436.048; -173.400;-1019.000; -732.000
436.171;  -64.600; -240.000;  -66.000
436.294;   14.100; -248.000; -229.000
436.417;  193.600; -963.000; -849.000
436.541; -122.500; -814.000; -840.000
436.664;  -24.200; -242.000; -316.000
436.787;   19.900;   13.000;  113.000
436.910; -163.700; -792.000; -422.000
437.034;   68.400;  142.000;  143.000
437.157;  183.700;  -11.000;    0.000
437.280;  -66.000; -392.000; -292.000
437.403; -144.500; -982.000; -869.000
437.526; 1263.200; -903.000; -865.000
437.649; 4013.300; -505.000; -332.000
437.772;  548.600; -692.000; -540.000
437.896;  291.200;  700.000;  544.000
438.019; -169.000; -758.000; -503.000
438.142; -123.900; -596.000; -506.000
438.265;   31.600; -639.000; -670.000
438.388; 1104.100; -520.000; -410.000
438.511;  202.900; -597.000; -394.000
438.634;  -21.200; -247.000; -125.000
438.757; -210.800; -693.000; -619.000
438.880;   10.800;  -34.000;  -57.000
439.003; -102.700; -417.000; -437.000
439.126;  -52.800; -287.000; -167.000
439.248;  -84.400;  -98.000; -139.000
439.371;  -42.700;    9.000;  -53.000
439.494;  160.200;  510.000;  439.000
439.617;  -48.400;   65.000;  -88.000
439.740; -294.100; -968.000; -816.000
439.863; -226.400; -755.000; -595.000
439.986; -157.400; -476.000; -431.000
440.108;  -21.300; -161.000; -112.000
440.231; -249.800; -950.000; -836.000
440.354;  -10.300;  -64.000; -150.000
440.477;  111.000; -566.000; -542.000
440.599;   76.600; -200.000; -225.000
440.722; -207.200; -709.000; -586.000
440.845;  211.100;  751.000;  928.000
440.968; -171.700; -415.000; -311.000
441.090;  -32.900; -199.000;  -33.000
441.213; -280.700;-1021.000; -825.000
441.336;  -39.600; -159.000;   -5.000
441.458; -109.200; -549.000; -396.000
441.581; -132.900; -628.000; -629.000
441.703;  -81.800; -152.000;   13.000
441.826; -147.600; -557.000; -400.000
441.948;  -28.300;   56.000;   51.000
442.071;  122.800;  555.000;  424.000
442.193; -174.900; -531.000; -485.000
442.316;  122.200;  152.000;   97.000
442.438;  116.900; -233.000;  -10.000
442.561;  209.200;  272.000;  262.000
442.683; 1016.300; -809.000; -522.000
442.806; 2034.200;   -8.000;   74.000
442.928;   57.300; -859.000; -604.000
443.051;  -82.700; -577.000; -373.000
443.173; -105.000; -341.000; -339.000
443.295; -106.400; -263.000; -371.000
443.418;  -58.000; -321.000;  -29.000
443.540;   48.300; -106.000;   -4.000
443.662; -158.200; -563.000; -465.000
443.785;   39.100;  335.000;  199.000
443.907; -163.900; -362.000; -208.000
444.029; -195.500; -767.000; -494.000
444.152; -242.400; -644.000; -554.000
444.274;   12.800;  -18.000;  -24.000
444.396; -162.500; -461.000; -221.000
444.518; -216.400; -691.000; -454.000
444.640; -160.900; -268.000; -111.000
444.763;   15.000;  388.000;  249.000
444.885; -184.800; -432.000; -392.000
445.007;    3.500;   35.000;   86.000
445.129; -180.400; -610.000; -515.000
445.251; -131.300; -372.000; -439.000
445.373; -209.800; -537.000; -386.000
445.495;   72.900;  242.000;  350.000
445.617;  193.200;  853.000;  753.000
445.739;  -67.800; -215.000;  -97.000
445.861;   12.300; -245.000; -112.000
445.984;    2.700; -267.000; -101.000
446.105;  456.000; -418.000; -251.000
446.227; 1119.700; -176.000;  -19.000
446.349;   50.300; -358.000; -249.000
446.471; -126.700; -615.000; -448.000
446.593;  -67.900; -316.000;   19.000
446.715;   68.900;  -67.000;   41.000
446.837;  225.600;  697.000;  832.000
446.959; -127.300; -457.000; -478.000
447.081; -174.500; -628.000; -518.000
447.203;  180.200;  862.000;  834.000
447.325; -104.400; -270.000;   42.000
447.446;   65.900;  286.000;  530.000
447.568; -267.100; -921.000; -803.000
447.690;  -87.800; -236.000; -245.000
447.812; -246.300; -798.000; -519.000
447.933;    1.300;  155.000;  127.000
448.055;  -56.200; -306.000; -261.000
448.177;  354.700;   31.000;   79.000
448.299;  186.800; -935.000; -727.000
448.420;  110.400;  -25.000;  159.000
448.542;  -32.900;   -3.000;   33.000
448.664;   14.300;  109.000;  322.000
448.785;   11.100;  265.000;   83.000
448.907; -103.600; -614.000; -353.000
449.028;  -34.700; -771.000; -471.000
449.150;  194.700;  492.000;  589.000
449.272; -325.500;-1044.000; -913.000
449.393;  120.200;  612.000;  694.000
449.515; -187.800; -634.000; -581.000
449.636;  -52.800; -264.000; -155.000
449.758;  211.700;  763.000;  622.000
449.879; -109.600; -498.000; -396.000
450.001;  -87.800; -149.000;  -49.000
450.122;  -39.400;  -95.000;  162.000
450.244;    7.400;   37.000;  364.000
450.365; -121.000; -495.000; -301.000
450.486;    0.900;   80.000;  268.000
450.608;   86.800;  393.000;  326.000
450.729;  177.700;  578.000;  645.000
450.850;   44.200; -574.000; -466.000
450.972; 1535.200; -552.000; -389.000
451.093; 8941.600;  190.000;  588.000
451.214; 3389.700; -516.000; -337.000
451.336;  642.500;  773.000;  579.000
451.457;  168.600;  264.000;  393.000
451.578;   -0.700; -118.000;  -74.000
451.699; -173.700; -546.000; -540.000
451.821;  -84.400; -284.000;  -50.000
451.942;   58.000;  278.000;  285.000
452.063;  164.700;  228.000;  419.000
452.184; 1103.600;  -54.000;  -49.000
452.305; 1925.500;  103.000;  170.000
452.427;  214.200; -549.000; -301.000
452.548;   32.000;   23.000;   79.000
452.669;  -64.700; -257.000;  -89.000
452.790;   -3.700;    3.000;  -18.000
452.911;   30.900;  195.000;  259.000
453.032;  -95.200; -289.000;  -60.000
453.153;  -16.400;  -29.000;   81.000
453.274;  283.400;  737.000;  868.000
453.395;   -3.600;  -51.000;  175.000
453.516;  333.700; 1317.000; 1388.000
453.637;  -23.700; -205.000; -150.000
453.758;  -34.500;   15.000;   69.000
453.879; -164.800; -462.000; -250.000
454.000;  229.900; 1086.000;  948.000
454.121; -191.500; -554.000; -326.000
454.242; -185.000; -599.000; -383.000
454.362;  -35.100;  -99.000;  114.000
454.483;    7.000; -309.000; -229.000
454.604;  172.600;  512.000;  580.000
454.725; -200.600; -627.000; -555.000
454.846; -184.100; -474.000; -406.000
454.967;   18.300;  230.000;  539.000
455.087;   -6.600;  179.000;  153.000
455.208;  123.400;  554.000;  856.000
455.329;  -35.100;  -22.000;   82.000
455.450;  150.700;  473.000;  633.000
455.570; -115.600; -234.000; -211.000
455.691;  -17.300;  201.000;  407.000
455.812; -120.000; -270.000;  -92.000
455.932;  -57.100;  107.000;  -97.000
456.053;  -84.100;   36.000;   24.000
456.173; -172.900; -433.000; -355.000
456.294; -202.800; -476.000; -303.000
456.415;  -62.700;  -73.000;   70.000
456.535;  -14.600;  297.000;  273.000
456.656;  -34.200;  132.000;  240.000
456.776;  -75.100;    3.000;  298.000
456.897;   48.600;  308.000;  513.000
457.017;  -92.900; -153.000;   -3.000
457.138; -139.900; -402.000; -249.000
457.258;   20.300;  263.000;  224.000
457.379;   45.900;  509.000;  521.000
457.499;   43.800;  443.000;  432.000
457.620; -190.300; -407.000; -231.000
457.740; -119.500; -132.000;  -11.000
457.860;  -40.300;   87.000;   44.000
457.981;  -31.500;  132.000;  124.000
458.101;  -85.700;  -89.000;   40.000
458.221;   81.500;  336.000;  402.000
458.342;  -59.800;   -4.000;  -37.000
458.462;  112.200;  617.000;  352.000
458.582;   -7.900; -302.000; -294.000
458.703;   79.900;  303.000;  154.000
458.823;   20.300;   22.000;  163.000
458.943;  125.200;  341.000;  467.000
459.063;   20.600; 1124.000;  192.000
459.183;   24.200;  328.000;  313.000
459.304;   69.400;  315.000;  517.000
459.424;  -62.500; -246.000;  -89.000
459.544;  734.600;  388.000;  764.000
459.664; 1563.800;  499.000;  506.000
459.784;  594.600; 1004.000; 1175.000
459.904;  178.000;  867.000;  744.000
460.024;  219.200;  867.000;  684.000
460.144;   68.200;  449.000;  554.000
460.264;   53.800;  515.000;  327.000
460.385;  -91.500; -145.000; -119.000
460.505;  156.900;  905.000;  858.000
460.625; -105.100;  -17.000;  -68.000
460.745;   41.000;  396.000;  541.000
460.864;  -19.500;  153.000;  469.000
460.984;  104.100;  499.000;  573.000
461.104;  330.800; 1656.000; 1775.000
461.224;  129.600;  657.000;  650.000
461.344;    6.600;  431.000;  360.000
461.464;   14.100;  258.000;  513.000
461.584;   33.000;  283.000;  466.000
461.704;  -62.100;   58.000;  108.000
461.824;  -48.600;  238.000;  259.000
461.943;   -6.400;  191.000;  130.000
462.063;  -93.400;    2.000;  324.000
462.183;  116.800;  639.000;  717.000
462.303;  298.500; 1678.000; 1230.000
462.422;  142.700;  781.000;  840.000
462.542;    8.100;  271.000;  391.000
462.662;  129.600;  353.000;  380.000
462.782;  510.300;  833.000;  572.000
462.901;  905.400;  545.000;  717.000
463.021;  548.400; 1702.000; 1638.000
463.141;   57.100;  337.000;  770.000
463.260;   38.400;  614.000;  474.000
463.380;  100.100;  902.000;  884.000
463.499;  -19.700;  342.000;  332.000
463.619;   17.000;  581.000;  559.000
463.738;  284.500; 1644.000;  903.000
463.858;   71.900;  657.000;  811.000
463.978;   -2.000;  542.000;  396.000
464.097;  171.300;  921.000; 1114.000
464.217;  284.700; 1196.000; 1143.000
464.336;  305.900; 1068.000; 1130.000
464.455;  -18.800;  328.000;  659.000
464.575;  143.800;  597.000;  602.000
464.694;  400.000; 1204.000; 1179.000
464.814;  315.600; 1190.000; 1138.000
464.933;  228.000; 1095.000; 1027.000
465.052;  277.700; 1412.000; 1054.000
465.172;  252.400;  922.000;  799.000
465.291;  355.500; 1376.000; 1320.000
465.410;  103.900;  462.000;  735.000
465.530;  249.500; 1355.000; 1310.000
465.649;  219.500; 1209.000; 1273.000
465.768;  367.200; 1673.000; 1508.000
465.888;  179.700;  941.000; 1174.000
466.007;  247.700; 1335.000; 1440.000
466.126;  105.900;  721.000;  641.000
466.245;  141.000; 1176.000; 1187.000
466.364;  121.500;  950.000; 1060.000
466.484;  236.200; 1024.000; 1213.000
466.603;  167.300; 1101.000; 1222.000
466.722;  334.800; 1490.000; 1769.000
466.841;  229.700; 1151.000; 1401.000
466.960;  127.100; 1069.000;  972.000
467.079;  381.600; 1971.000; 1786.000
467.198;  171.300; 1238.000; 1181.000
467.317;  257.600; 1768.000; 1162.000
467.436;  253.600; 1709.000; 1261.000
467.555;  328.700; 1796.000; 1746.000
467.674;  215.900; 1227.000; 1329.000
467.793;  167.900; 1376.000; 1374.000
467.912;  247.500; 1658.000; 1539.000
468.031;  391.900; 2038.000; 1930.000
468.150;  412.500; 1842.000; 1837.000
468.269;  468.700; 2313.000; 2090.000
468.388;  466.700; 2168.000; 2339.000
468.507;  612.900; 2884.000; 2903.000
468.626;  654.400; 2555.000; 2541.000
468.744;  385.400; 2018.000; 2174.000
468.863;  461.700; 2312.000; 2523.000
468.982;  291.100; 1503.000; 1555.000
469.101;  510.500; 2788.000; 2692.000
469.220;  370.600; 2333.000; 2176.000
469.338;  562.500; 2935.000; 3051.000
469.457;  463.400; 2719.000; 2545.000
469.576;  792.000; 3953.000; 3784.000
469.695;  540.100; 2877.000; 3066.000
469.813;  870.400; 4148.000; 4192.000
469.932;  910.600; 4255.000; 4485.000
470.051;  919.400; 4075.000; 4161.000
470.169; 1813.300; 4470.000; 4338.000
470.288; 2776.900; 4700.000; 4809.000
470.406; 1704.200; 5059.000; 5194.000
470.525; 1322.400; 6101.000; 5787.000
470.644; 1397.900; 6847.000; 6794.000
470.762; 1843.000; 8397.000; 7873.000
470.881; 1885.700; 8651.000; 8464.000
470.999; 2197.800; 9685.000; 9151.000
471.118; 2361.100;11174.000;10711.000

