
Integration time [ms]: 100.000
Averaging Nr. [scans]: 40
Smoothing Nr. [pixels]: 0
Data measured with spectrometer [name]: 2101012U2
Wave   ;Sample   ;Dark     ;Reference
[nm]   ;[counts] ;[counts] ;[counts] 

197.733;   56.225;  516.000;  404.000
197.879;  -74.125; -610.000; -634.000
198.025;  -40.450; -475.000; -420.000
198.171;  -72.650; -602.000; -612.000
198.317;  -25.150; -401.000; -316.000
198.463;  -64.475; -655.000; -404.000
198.609;   18.900;  181.000; -137.000
198.755;  -83.100; -644.000; -410.000
198.901;  -69.650; -505.000; -424.000
199.047;  -59.225; -615.000; -488.000
199.193;  -40.700; -230.000; -468.000
199.339;  -50.225; -222.000; -369.000
199.485;   39.075;  330.000;  271.000
199.631;   10.075;  227.000;  310.000
199.777;  -50.825; -466.000; -398.000
199.923;  -64.525; -610.000; -424.000
200.069;    0.300; -141.000;  -58.000
200.215;   47.850;  128.000;  453.000
200.361;   39.375;  243.000;  477.000
200.507;  -61.400; -600.000; -373.000
200.653;  -22.000; -371.000; -194.000
200.798;  -42.900; -215.000; -125.000
200.944;  -17.475; -146.000;  -41.000
201.090;   31.025;   61.000;  222.000
201.236;   -6.475; -116.000; -158.000
201.382;  121.325;  874.000;  903.000
201.528;    1.175;  -58.000;  -48.000
201.674;  -43.325; -386.000; -293.000
201.819;  -58.400; -540.000; -439.000
201.965;  -80.000; -699.000; -447.000
202.111;  -27.225; -273.000; -226.000
202.257;  -47.425; -250.000; -238.000
202.402;   -4.600;   13.000;  -36.000
202.548;  -35.925; -169.000; -116.000
202.694;   92.500;  410.000; -183.000
202.840;  -70.325; -603.000; -531.000
202.985;  -72.800; -681.000; -639.000
203.131; -102.050; -832.000; -666.000
203.277;  -30.525; -199.000; -262.000
203.423;  -52.125; -434.000; -520.000
203.568;  -43.750; -462.000; -237.000
203.714;  -53.450; -535.000; -542.000
203.860;  -86.900; -682.000; -641.000
204.005;    8.775;  112.000;  167.000
204.151;   62.025;  561.000;  556.000
204.296;  -60.475; -354.000; -221.000
204.442;  -80.775; -600.000; -547.000
204.588;  -77.600; -592.000; -579.000
204.733;   10.400;  178.000;  168.000
204.879; -130.450;-1018.000; -822.000
205.025;   -0.575;  -99.000;  126.000
205.170;    7.075;  -17.000;   94.000
205.316;   88.100;  438.000;  661.000
205.461;  -83.225; -698.000; -554.000
205.607;   84.600;  609.000;  665.000
205.752;  -81.800; -626.000; -551.000
205.898;  -48.625; -501.000; -391.000
206.043;  -79.525; -578.000; -506.000
206.189;  -53.175; -243.000; -285.000
206.334;   62.800;  554.000;  606.000
206.480;   83.000;  409.000;  239.000
206.625;  -80.675; -529.000; -552.000
206.771;  -46.550; -451.000; -373.000
206.916;  -30.675; -210.000; -537.000
207.062;  -79.475; -545.000; -591.000
207.207;  -69.275; -546.000; -443.000
207.353;   54.075;  185.000;  460.000
207.498;   16.275;  196.000;   85.000
207.643;  -48.850; -501.000; -370.000
207.789; -137.625;-1069.000; -910.000
207.934;  -92.775; -665.000; -713.000
208.080;  -20.225; -154.000;   66.000
208.225;   -4.425;  -22.000;  -57.000
208.370;  -79.475; -727.000; -619.000
208.516;  -79.550; -741.000; -487.000
208.661;  -38.850; -127.000;  -69.000
208.806;  -34.125; -165.000; -171.000
208.952; -111.800;-1044.000; -731.000
209.097;   78.150;  378.000;  349.000
209.242;  -39.425; -307.000; -382.000
209.387;   53.575;  392.000;  350.000
209.533;  -49.925; -321.000; -350.000
209.678;   70.475;  472.000;  543.000
209.823;  -51.100; -408.000; -310.000
209.969; -110.200; -860.000; -757.000
210.114; -104.375; -907.000; -719.000
210.259; -109.900; -939.000; -889.000
210.404;  -26.775; -171.000;  103.000
210.549;    8.350;  108.000;    3.000
210.695;  -11.600;   -3.000;  -95.000
210.840;   28.525;   94.000;   67.000
210.985;  -63.050; -484.000; -303.000
211.130;   68.450;  268.000;  406.000
211.275;   15.525;  207.000;  199.000
211.420;  -61.300; -300.000; -289.000
211.566;  -65.950; -536.000; -489.000
211.711;   18.975;  218.000;  157.000
211.856;  -73.475; -545.000; -519.000
212.001;   12.100;  151.000;   44.000
212.146;   11.600;  153.000;   49.000
212.291;  -19.800; -210.000; -186.000
212.436;  -23.050; -280.000;   -6.000
212.581;  -80.625; -685.000; -653.000
212.726;  -80.075; -487.000; -538.000
212.871;  -58.050; -552.000; -217.000
213.016; -147.125;-1172.000;-1029.000
213.161;   46.925;  406.000;  291.000
213.306;  -87.700; -435.000; -577.000
213.451;  -99.150; -778.000; -689.000
213.596;  -48.275; -455.000; -347.000
213.741;  -55.325; -448.000; -538.000
213.886;  -88.450; -498.000; -517.000
214.031;  -28.000; -294.000; -124.000
214.176;  -55.800; -408.000; -341.000
214.321;  -16.850; -296.000; -157.000
214.466;  -41.150; -163.000;  -43.000
214.611;   -6.800;  -61.000;  -10.000
214.756; -122.050; -948.000; -858.000
214.901;  -28.900; -388.000; -226.000
215.046; -118.575; -797.000; -825.000
215.191;   18.700;  128.000;   35.000
215.336;  -13.975; -157.000;  -19.000
215.480;  -62.125; -684.000; -505.000
215.625;   -6.100; -175.000;  -19.000
215.770;  -80.275; -757.000; -662.000
215.915;   -8.825;   -5.000;  -97.000
216.060;  -10.850; -113.000;  -21.000
216.205; -118.450; -731.000; -779.000
216.349;  -70.550; -470.000; -533.000
216.494; -133.050; -939.000; -867.000
216.639; -115.375; -823.000; -888.000
216.784;  -98.850; -577.000; -525.000
216.929;   49.775;  392.000;  281.000
217.073;  -20.050; -244.000;  -31.000
217.218;    6.675;   78.000;  -47.000
217.363;  -86.575; -656.000; -618.000
217.507;  -82.100; -623.000; -588.000
217.652; -129.400; -845.000; -874.000
217.797; -100.350; -708.000; -659.000
217.942; -115.550; -856.000; -720.000
218.086;   79.000;  608.000;  539.000
218.231;  -33.075; -174.000;  -26.000
218.376;  -36.800; -337.000; -229.000
218.520;    1.225;  -41.000;   96.000
218.665;  -33.700; -338.000; -204.000
218.810;  -43.900; -275.000; -233.000
218.954;   10.250;  201.000;   35.000
219.099; -106.150; -713.000; -963.000
219.243;  -62.700; -589.000; -554.000
219.388;  -32.775; -264.000; -136.000
219.532;  -17.125; -116.000; -116.000
219.677;  -75.050; -564.000; -521.000
219.822;   -6.225;   33.000;   89.000
219.966;    3.800;   17.000;  -99.000
220.111;  -39.825; -328.000;  -40.000
220.255; -106.075; -797.000; -750.000
220.400;  -23.525; -180.000; -146.000
220.544;  -79.500; -516.000; -450.000
220.689;  -47.750; -422.000; -451.000
220.833;  -40.925; -123.000;  -58.000
220.978;  -45.025; -393.000; -563.000
221.122;   18.800;  319.000;  307.000
221.267; -122.450; -906.000; -837.000
221.411;  -65.975; -478.000; -394.000
221.555;  -14.500; -104.000;  -23.000
221.700;  -51.975; -329.000; -222.000
221.844;   41.475;  255.000;  272.000
221.989;  -53.200; -328.000; -311.000
222.133;  -41.275; -289.000; -307.000
222.277;    0.850;    5.000;   78.000
222.422;   26.350;  227.000;  113.000
222.566;  -53.025; -381.000; -214.000
222.711;  -58.475; -414.000; -479.000
222.855;  -79.050; -643.000; -586.000
222.999; -100.700; -642.000; -717.000
223.144;  -25.925; -195.000; -194.000
223.288;   43.075;  423.000;  251.000
223.432;   14.550;  184.000;  230.000
223.576;   26.375;  152.000;  -21.000
223.721;   44.225;  364.000;  273.000
223.865;  -49.425; -472.000; -475.000
224.009;  214.350; 1673.000; 1631.000
224.153;  -86.575; -660.000; -671.000
224.298;  -71.700; -531.000; -489.000
224.442;  -19.275;  -74.000;  -33.000
224.586;  -17.350; -169.000; -106.000
224.730;  -94.150; -858.000; -670.000
224.875; -106.025; -739.000; -688.000
225.019;   11.700;  102.000;  188.000
225.163;   55.550;  208.000;  341.000
225.307;   23.950;   97.000;  -91.000
225.451;   39.225;  360.000;  481.000
225.595;   29.050;  264.000;  176.000
225.739;  -24.300; -170.000;  -94.000
225.884;   -0.425;   86.000;    5.000
226.028; -109.900; -760.000; -626.000
226.172;  -44.925; -260.000; -273.000
226.316; -111.800; -941.000; -902.000
226.460;  -66.925; -645.000; -493.000
226.604;  -62.050; -406.000; -400.000
226.748; -101.600; -836.000; -733.000
226.892;  -34.950; -227.000; -181.000
227.036;  -51.425; -537.000; -447.000
227.180;  -54.775; -551.000; -375.000
227.324;  -64.000; -561.000; -580.000
227.468; -104.425; -819.000; -717.000
227.612;   12.225;  242.000;  -28.000
227.756;  -99.725; -845.000; -698.000
227.900;   51.750;  342.000;  441.000
228.044;  -54.950; -509.000; -290.000
228.188;   40.100;  448.000;  568.000
228.332;  -87.000; -546.000; -472.000
228.476;  -32.875; -223.000; -149.000
228.620;  -14.625; -210.000; -150.000
228.764;   66.200;  431.000;  349.000
228.908;  -34.000; -155.000;   30.000
229.052;  -56.400; -615.000; -528.000
229.195;   -5.200; -172.000;   13.000
229.339;  -30.925; -235.000; -305.000
229.483;  -38.175;    5.000; -162.000
229.627;  -12.725; -156.000;  139.000
229.771;  -60.725; -218.000; -294.000
229.915;   10.000;  230.000;   79.000
230.059; -101.475; -648.000; -663.000
230.202;  -47.425; -370.000; -317.000
230.346;  -14.525; -107.000;  107.000
230.490;  -66.850; -489.000; -521.000
230.634; -110.100; -736.000; -553.000
230.777;   73.600;  478.000;  509.000
230.921;  -52.675; -450.000; -359.000
231.065;  -37.825; -246.000; -286.000
231.209;   21.425;  261.000;  265.000
231.352;    3.275;   54.000;   40.000
231.496;   18.200;  568.000;  188.000
231.640;  -80.975; -693.000; -621.000
231.783;   58.375;  546.000;  525.000
231.927;  -39.500; -294.000; -365.000
232.071; -121.325; -962.000; -736.000
232.214; -107.475; -980.000; -764.000
232.358; -111.400; -683.000; -599.000
232.502;   -2.125;  -19.000;    7.000
232.645; -142.425;-1090.000; -927.000
232.789;  -20.325; -257.000; -218.000
232.933;  -40.600; -407.000; -224.000
233.076; -121.025;-1038.000; -897.000
233.220; -111.650; -752.000; -777.000
233.363;  -70.850; -669.000; -477.000
233.507;   56.025;  371.000;  129.000
233.650; -108.775; -764.000; -834.000
233.794;   35.775;  438.000;  461.000
233.938;  -57.775; -530.000; -362.000
234.081;  -28.125;  -93.000;   31.000
234.225;  -72.675; -631.000; -539.000
234.368; -123.175; -773.000; -723.000
234.512;  -42.700; -385.000; -299.000
234.655;  -94.575; -582.000; -555.000
234.798;  -75.300; -493.000; -466.000
234.942; -134.500; -884.000;-1002.000
235.085;  -78.100; -651.000; -443.000
235.229;  -64.400; -405.000; -410.000
235.372;  -45.000; -247.000; -191.000
235.516;  -54.450; -397.000; -321.000
235.659;   15.850;   92.000;  121.000
235.802;  -25.150;  -38.000;  -22.000
235.946;   28.475;  335.000;  215.000
236.089;   13.125;  126.000;  250.000
236.233;   42.850;  275.000;  298.000
236.376;  -56.625; -235.000; -378.000
236.519;  -48.100; -297.000; -319.000
236.663;  -25.750; -215.000; -117.000
236.806; -130.825;-1029.000; -999.000
236.949;   59.675;  543.000;  431.000
237.092;   42.950;  412.000;  391.000
237.236;  -84.350; -589.000; -502.000
237.379;   66.950;  352.000;  428.000
237.522; -127.550; -879.000; -768.000
237.666;  -21.275; -271.000;   18.000
237.809; -130.600; -851.000; -823.000
237.952;   43.175;  469.000;  271.000
238.095;  -74.550; -447.000; -442.000
238.238;   81.075;  688.000;  700.000
238.382;   -1.450;  166.000;  103.000
238.525;  -67.550; -598.000; -511.000
238.668; -146.450;-1060.000; -985.000
238.811;  -80.100; -638.000; -643.000
238.954;  -55.100; -483.000; -334.000
239.097;   90.425;  617.000;  664.000
239.241;   31.975;  394.000;  326.000
239.384;  -45.700; -254.000; -214.000
239.527;  -67.400; -424.000; -224.000
239.670; -144.175; -994.000;-1091.000
239.813; -111.700; -696.000; -658.000
239.956;   70.350;  579.000;  473.000
240.099; -111.825; -778.000; -725.000
240.242;   63.250;  428.000;  432.000
240.385;   41.475;  466.000;  450.000
240.528;  -77.925; -706.000; -473.000
240.671;    9.900;  189.000;  134.000
240.814;  -40.125; -441.000; -158.000
240.957; -114.350; -767.000; -578.000
241.100;  -82.075; -779.000; -755.000
241.243; -149.775;-1234.000; -893.000
241.386;  -66.325; -508.000; -379.000
241.529;  -90.775; -735.000; -547.000
241.672;  -67.400; -566.000; -495.000
241.815; -122.225; -832.000; -808.000
241.958;  -37.100; -125.000; -182.000
242.101;  -66.650; -545.000; -390.000
242.244;  -42.375; -270.000; -325.000
242.387;  -50.025; -304.000; -246.000
242.530;   58.800;  470.000;  134.000
242.673;  -51.025; -381.000; -309.000
242.815; -124.450; -925.000; -899.000
242.958;  -70.800; -482.000; -381.000
243.101;   -5.950;  132.000;  187.000
243.244; -100.300; -564.000; -521.000
243.387;  -50.650; -313.000; -316.000
243.530; -103.025; -657.000; -674.000
243.672;  -15.250;   43.000;  -92.000
243.815;  -54.200; -355.000; -283.000
243.958;  -12.450;   98.000;  -26.000
244.101;   -4.275;   59.000;  -16.000
244.243;  -12.075;  -47.000;  101.000
244.386; -110.850; -761.000; -630.000
244.529;  -25.275; -132.000; -139.000
244.672; -161.000;-1154.000; -951.000
244.814;  -99.275; -621.000; -794.000
244.957;  -41.400; -380.000; -304.000
245.100;  -84.475; -489.000; -489.000
245.242;  -59.300; -387.000; -374.000
245.385;   -7.100;  -59.000;  -39.000
245.528; -112.475; -871.000; -705.000
245.670;   75.500;  612.000;  634.000
245.813;  -95.800; -599.000; -547.000
245.956;  -18.475; -324.000; -275.000
246.098;  -88.300; -508.000; -650.000
246.241;   -0.475;  194.000;   48.000
246.383;  -25.850; -119.000;  -73.000
246.526;  -82.400; -454.000; -525.000
246.669; -111.825; -889.000; -780.000
246.811;   15.700;  172.000;   -1.000
246.954;  -66.600; -512.000; -426.000
247.096;  -29.225;  -84.000;   -6.000
247.239;  -73.525; -482.000; -445.000
247.381;  -71.025; -647.000; -488.000
247.524;   77.950;  645.000;  679.000
247.666;   -9.450;   58.000;   11.000
247.809; -119.325; -887.000; -691.000
247.951;  -12.225;  -75.000;  138.000
248.094;   27.025;  432.000;  308.000
248.236; -160.375;-1262.000;-1238.000
248.378;    0.125; -356.000;  -81.000
248.521;  -21.550; -334.000; -337.000
248.663;  -42.450; -236.000; -267.000
248.806;  -24.300; -300.000; -266.000
248.948;  -87.950; -886.000; -763.000
249.090;  -48.550; -428.000; -398.000
249.233;  -53.900; -344.000; -381.000
249.375;  -81.525; -474.000; -451.000
249.518;  -31.125;  -83.000; -133.000
249.660;    6.350; -103.000;    3.000
249.802; -157.200;-1303.000;-1189.000
249.945;  -67.000; -612.000; -540.000
250.087; -122.150; -834.000; -768.000
250.229;  -63.900; -362.000; -480.000
250.371;  -75.725; -494.000; -439.000
250.514;  -63.775; -310.000; -244.000
250.656;  -12.675;   69.000;  102.000
250.798; -123.225; -849.000; -800.000
250.940;  -77.300; -322.000; -322.000
251.083;  -43.075; -335.000; -111.000
251.225;   53.075;  338.000;  310.000
251.367;  -44.000; -274.000; -373.000
251.509;  -36.100; -265.000; -210.000
251.651;  -99.925; -731.000; -671.000
251.794;   75.825;  538.000;  632.000
251.936;  -97.075; -821.000; -747.000
252.078;  -91.700; -540.000; -461.000
252.220;  -73.600; -645.000; -477.000
252.362;   85.550;  344.000;  462.000
252.504;  -76.475; -677.000; -584.000
252.646; -106.275; -875.000; -722.000
252.788;   -6.100;   14.000; -128.000
252.931;  -41.925; -257.000; -253.000
253.073;  -44.075; -376.000; -317.000
253.215;   -0.800;  141.000;  122.000
253.357;  -20.100;   82.000; -153.000
253.499;  -61.175; -374.000; -234.000
253.641;  -87.725; -749.000; -594.000
253.783; -103.025; -609.000; -527.000
253.925;  -87.000; -586.000; -591.000
254.067; -130.275; -744.000; -667.000
254.209;  -28.650; -391.000; -259.000
254.351; -134.000; -865.000; -883.000
254.493;  -67.000; -441.000; -417.000
254.635; -126.425; -936.000; -818.000
254.777;  -95.600; -752.000; -687.000
254.918;  -63.925; -512.000; -430.000
255.060;  -79.775; -551.000; -395.000
255.202;  -63.625; -473.000; -261.000
255.344;  -75.525; -658.000; -455.000
255.486;  -70.475; -471.000; -406.000
255.628; -121.675; -780.000; -781.000
255.770; -101.875; -676.000; -536.000
255.912;  -81.900; -559.000; -468.000
256.053;  -84.450; -730.000; -508.000
256.195;  157.150; 1008.000;  903.000
256.337;  -98.550; -861.000; -595.000
256.479;   56.825;  532.000;  416.000
256.621;  -58.900; -394.000; -212.000
256.762; -102.725; -789.000; -742.000
256.904;   43.475;  485.000;  487.000
257.046;  -54.525; -381.000; -271.000
257.188;  -47.450; -351.000; -264.000
257.329;  -74.875; -525.000; -464.000
257.471; -124.950; -939.000; -807.000
257.613;  -73.575; -584.000; -498.000
257.755; -149.925;-1073.000; -982.000
257.896;   31.450;  286.000;  392.000
258.038;  -76.475; -403.000; -352.000
258.180;  -49.650; -354.000; -279.000
258.321;  -91.975; -581.000; -457.000
258.463;  -10.950;  -71.000;  133.000
258.605;  -91.850; -562.000; -570.000
258.746; -106.200; -886.000; -772.000
258.888; -156.300;-1026.000;-1020.000
259.029;   12.375;  121.000;   -8.000
259.171;  -84.775; -614.000; -550.000
259.313;  -13.025;  -49.000;  -47.000
259.454;  -76.400; -536.000; -414.000
259.596;  -70.275; -483.000; -390.000
259.737;  -73.900; -590.000; -474.000
259.879;   24.175;  217.000;  311.000
260.020;   83.200;  901.000;  636.000
260.162;  -48.575; -146.000; -253.000
260.303; -123.775; -768.000; -687.000
260.445;  -94.700; -609.000; -613.000
260.586;   14.675;  392.000;  157.000
260.728;  -56.275; -360.000; -248.000
260.869; -120.200; -350.000; -343.000
261.011;   63.500;  706.000;  537.000
261.152;  -72.050; -479.000; -319.000
261.293;  -79.625; -576.000; -595.000
261.435;  -22.125; -219.000; -184.000
261.576;  -54.375; -455.000; -325.000
261.718;   54.400;  420.000;  470.000
261.859; -145.625; -940.000; -949.000
262.000; -137.950; -951.000;-1016.000
262.142;  -23.275;  -52.000;  -60.000
262.283; -118.175; -808.000; -691.000
262.424;  -87.625; -666.000; -625.000
262.566; -158.475;-1161.000; -983.000
262.707; -113.450; -840.000; -830.000
262.848; -121.625; -769.000; -726.000
262.990;  -60.975; -362.000; -345.000
263.131;   72.175;  650.000;  681.000
263.272;   -5.025;  -61.000;  -41.000
263.413;  -99.350; -589.000; -561.000
263.555;  -74.100; -669.000; -143.000
263.696;  -97.700; -550.000; -641.000
263.837;  -56.700; -449.000; -551.000
263.978;  -19.050;   -5.000;  -77.000
264.119;  -58.125; -283.000; -264.000
264.261; -114.025; -847.000; -630.000
264.402;   -1.575;   33.000;   40.000
264.543;  -91.475; -509.000; -524.000
264.684;  -19.775;   61.000;  -50.000
264.825;  -81.275; -816.000; -538.000
264.966;   -6.050;  -84.000;  -67.000
265.107; -128.825; -646.000; -670.000
265.248; -122.175; -825.000; -812.000
265.390;   -2.650;  152.000;   -9.000
265.531;  -18.575; -238.000; -107.000
265.672;  -86.300; -557.000; -630.000
265.813;   56.875;  563.000;  439.000
265.954; -147.450; -959.000; -940.000
266.095;  -24.650; -372.000; -322.000
266.236; -103.875; -686.000; -548.000
266.377;  -42.900; -243.000; -297.000
266.518;  -62.425; -619.000; -547.000
266.659;   33.575;  170.000;  268.000
266.800;   -0.575;   83.000;   85.000
266.941;  -76.750; -487.000; -478.000
267.082;    0.200;  354.000;   99.000
267.223;  -41.675; -344.000; -273.000
267.364; -124.525; -892.000; -686.000
267.504;  -26.425;    3.000;  135.000
267.645;   -5.200;  160.000;   67.000
267.786;  -34.350; -147.000;  -86.000
267.927;  -75.400; -473.000; -379.000
268.068;  -37.075; -186.000;  -61.000
268.209;  -41.050; -175.000; -413.000
268.350;  -58.900; -388.000; -532.000
268.490;  -91.350; -648.000; -521.000
268.631;   26.050;  127.000;  225.000
268.772; -114.025; -874.000; -647.000
268.913;  -60.775; -328.000; -476.000
269.054;  -11.425; -117.000;   12.000
269.194;  -57.050; -418.000; -402.000
269.335; -154.150;-1137.000;-1074.000
269.476;  -20.900;   33.000;  -35.000
269.617;  -52.725; -347.000; -392.000
269.757;  -94.200; -713.000; -646.000
269.898; -123.625; -856.000; -613.000
270.039;  -47.075; -415.000; -405.000
270.180; -122.675; -952.000; -816.000
270.320;  -21.350; -190.000; -250.000
270.461;  -50.825; -277.000; -249.000
270.602;  -23.675; -186.000; -156.000
270.742; -121.025; -868.000; -943.000
270.883;  -56.225; -442.000; -390.000
271.023;  -63.275; -358.000; -357.000
271.164;  -76.125; -607.000; -528.000
271.305; -104.050; -666.000; -654.000
271.445; -108.500; -722.000; -683.000
271.586;  -67.025; -462.000; -283.000
271.726;  -39.300; -397.000; -322.000
271.867;  -70.325; -594.000; -534.000
272.008;  164.025; -473.000; -285.000
272.148;  111.625;  462.000;  468.000
272.289;    1.175; -113.000; -181.000
272.429;    9.775;   19.000;  185.000
272.570;  -95.375; -633.000; -737.000
272.710; -100.075; -825.000; -775.000
272.851;  -25.900;  113.000; -130.000
272.991; -169.275;-1173.000;-1077.000
273.131;  -85.300; -419.000; -459.000
273.272; -106.675; -683.000; -723.000
273.412;   -0.275; -143.000;  -31.000
273.553;  -69.100; -488.000; -507.000
273.693;  115.500;  913.000;  858.000
273.834;  -89.825; -894.000; -692.000
273.974;  -69.550; -664.000; -615.000
274.114;  -94.450; -772.000; -560.000
274.255;   47.400;  414.000;  373.000
274.395;  -10.425; -180.000; -125.000
274.535;   39.075;  199.000;  350.000
274.676;   17.200;  225.000;   94.000
274.816;  -11.500;  110.000;   34.000
274.956;  -86.325; -624.000; -690.000
275.097;  -56.050;-1014.000; -922.000
275.237; -116.775; -913.000; -803.000
275.377; -103.250; -778.000; -689.000
275.517; -142.150; -878.000; -937.000
275.658;  -68.350; -590.000; -555.000
275.798;  -78.200; -606.000; -413.000
275.938;   11.275;  215.000;  323.000
276.078; -103.000; -626.000; -395.000
276.218;    0.275;   99.000;  104.000
276.359;  -93.925;-1026.000;-1024.000
276.499;  -79.400; -605.000; -446.000
276.639;  -43.050; -305.000; -151.000
276.779;  -53.675; -475.000; -357.000
276.919; -101.150; -783.000; -624.000
277.059;  -20.450; -261.000; -212.000
277.199;  -55.000; -357.000; -259.000
277.340;   51.275;  287.000;  175.000
277.480; -118.275; -840.000; -693.000
277.620;   21.425;  192.000;   16.000
277.760; -199.550;-1533.000;-1294.000
277.900;   10.175;  113.000;   33.000
278.040;  -10.350;  137.000;  159.000
278.180;   17.200;  270.000;  170.000
278.320;   -5.375;   21.000;   56.000
278.460;  -74.575; -443.000; -469.000
278.600;  -78.750; -708.000; -598.000
278.740;   29.625;  448.000;  224.000
278.880;  -75.400; -768.000; -791.000
279.020;  -15.575; -194.000; -144.000
279.160;  -95.050; -672.000; -595.000
279.300; -115.675; -926.000; -873.000
279.440;  -95.900; -709.000; -622.000
279.579;  -33.050;-1014.000; -929.000
279.719;  -68.775; -410.000; -394.000
279.859;   60.600;   -4.000;   41.000
279.999;   14.750; -208.000;  101.000
280.139;  -25.600; -435.000; -387.000
280.279;  -87.275; -708.000; -745.000
280.419;  -22.275; -229.000; -147.000
280.559;  -49.075; -259.000; -180.000
280.698; -106.025; -790.000; -639.000
280.838; -102.325; -778.000; -800.000
280.978; -104.400; -846.000; -790.000
281.118; -125.875; -811.000; -704.000
281.257;    1.300;   24.000;    6.000
281.397; -130.200;-1094.000; -960.000
281.537;  -99.825; -599.000; -712.000
281.677;  -31.800; -150.000; -101.000
281.816;  -96.300; -700.000; -630.000
281.956;  -52.075; -193.000; -257.000
282.096;  -67.775; -539.000; -396.000
282.235; -108.725; -672.000; -638.000
282.375;  -22.525; -243.000;  -98.000
282.515; -108.675; -715.000; -707.000
282.654;   14.050;   29.000;  106.000
282.794;   16.250;  388.000;  244.000
282.934;  -77.050; -530.000; -491.000
283.073; -131.900;-1030.000; -857.000
283.213;  -64.875; -460.000; -467.000
283.353;  -53.725; -408.000; -349.000
283.492;  -40.825; -264.000; -296.000
283.632;  -52.725; -254.000; -168.000
283.771; -103.100; -859.000; -730.000
283.911;  -40.550; -369.000; -260.000
284.050; -107.125; -794.000; -748.000
284.190; -166.400;-1229.000;-1096.000
284.329; -138.625;-1055.000; -964.000
284.469;  -78.750; -516.000; -591.000
284.608;  -67.750; -559.000; -598.000
284.748;  -91.800; -614.000; -570.000
284.887;  -19.450;  -87.000;  -20.000
285.027; -129.050; -844.000; -892.000
285.166;  -37.325; -192.000; -249.000
285.306;    3.825; -116.000;  -33.000
285.445;  -38.350; -229.000; -343.000
285.584; -104.350; -630.000; -494.000
285.724;  -52.075; -282.000; -322.000
285.863; -114.625; -857.000; -507.000
286.002;  -65.275; -366.000; -276.000
286.142; -126.100; -715.000; -622.000
286.281;  -65.825; -525.000; -493.000
286.420;  -86.675; -554.000; -417.000
286.560;   87.725;  653.000;  623.000
286.699; -140.100; -958.000; -912.000
286.838;  -86.675; -590.000; -591.000
286.978;  -88.075; -533.000; -537.000
287.117; -135.450;-1085.000; -950.000
287.256;  -30.700; -228.000; -211.000
287.395;  -55.975; -197.000; -378.000
287.535;  -65.725; -370.000; -298.000
287.674; -100.850; -509.000; -484.000
287.813;   41.675;  661.000;  533.000
287.952; -131.300;-1010.000; -871.000
288.091; -150.400;-1049.000; -915.000
288.231;    5.325;   13.000;   15.000
288.370; -172.975;-1217.000;-1200.000
288.509;  -98.300; -728.000; -645.000
288.648;  -94.075; -770.000; -548.000
288.787;  -46.950; -243.000;  -87.000
288.926;  -79.925; -454.000; -475.000
289.065;   99.625;  859.000;  672.000
289.204;  -60.775; -377.000; -217.000
289.344;  -93.800; -791.000; -690.000
289.483;   14.650;  416.000;  304.000
289.622;  -29.825; -291.000; -149.000
289.761;  -14.725; -309.000; -166.000
289.900; -116.400; -785.000; -626.000
290.039;  -29.100;  -12.000;  -95.000
290.178;  -62.600; -274.000; -180.000
290.317;  -73.525; -618.000; -479.000
290.456;  -66.000; -463.000; -451.000
290.595; -129.475; -961.000; -833.000
290.734; -142.900; -904.000; -891.000
290.873;  -77.800; -456.000; -420.000
291.011; -106.925; -833.000; -843.000
291.150; -108.350; -770.000; -682.000
291.289;  -23.250; -343.000; -110.000
291.428;  -86.825; -599.000; -480.000
291.567;  -51.950; -370.000; -442.000
291.706;  -29.750;  109.000;  154.000
291.845;  -95.275; -597.000; -505.000
291.984; -170.975;-1234.000;-1061.000
292.122;   76.100;  602.000;  582.000
292.261;   27.825;  620.000;  463.000
292.400;    0.925; -144.000;  211.000
292.539; -132.525; -959.000; -813.000
292.678;  -34.600; -325.000; -300.000
292.816; -157.475;-1136.000; -965.000
292.955;  -87.000; -844.000; -684.000
293.094;  -32.675; -173.000; -337.000
293.233;  -55.925; -556.000; -400.000
293.371;  -37.775; -225.000;  -84.000
293.510; -104.300; -866.000; -780.000
293.649; -142.675; -959.000; -924.000
293.787;  -72.225;-1083.000;-1012.000
293.926;   -2.950; -113.000;  -32.000
294.065;  -47.100; -379.000; -290.000
294.203;   47.300;  298.000;  406.000
294.342;    6.650;   74.000;  156.000
294.481; 6155.200;51180.000; -836.000
294.619;  -35.700; -425.000; -582.000
294.758; -140.350;-1230.000;-1137.000
294.896;   53.750; -125.000;    5.000
295.035; -134.875;-1040.000;-1006.000
295.174; -129.500;-1082.000; -954.000
295.312;  -49.200; -323.000; -203.000
295.451;  -25.350; -307.000; -428.000
295.589;  -65.175; -389.000; -518.000
295.728;    7.525; -292.000; -165.000
295.866;  -13.900;  -36.000;  -51.000
296.005;  -75.125; -584.000; -341.000
296.143;  -78.925; -558.000; -596.000
296.282; -127.800; -957.000; -881.000
296.420;  -98.725; -657.000; -557.000
296.559;  -84.325; -892.000; -633.000
296.697;    6.350; -847.000; -665.000
296.835;   33.150;-1141.000;-1002.000
296.974;   31.250;  -23.000;   39.000
297.112;  -11.675; -443.000; -504.000
297.251;  -93.925; -815.000; -755.000
297.389;   74.750; -576.000; -438.000
297.527;   13.300; -145.000;  -83.000
297.666;  -65.000; -486.000; -438.000
297.804;  -68.650; -404.000; -264.000
297.942;  -10.500; -136.000; -161.000
298.081;  -13.275; -183.000;   63.000
298.219;   44.300;  -17.000;  -19.000
298.357;   30.150; -144.000;  -71.000
298.495;   16.975; -810.000; -812.000
298.634;   51.675;  245.000;  219.000
298.772;   35.475; -220.000; -338.000
298.910;  -45.900; -309.000; -182.000
299.048;  -15.700; -130.000; -153.000
299.187;  -49.200; -350.000; -250.000
299.325;   10.400;   52.000;  122.000
299.463;   50.300; -389.000; -299.000
299.601;   72.800; -327.000; -271.000
299.739; -111.550; -908.000; -883.000
299.877; -103.675; -791.000; -703.000
300.016;  -53.675;-1095.000; -935.000
300.154;  137.925;  -19.000; -161.000
300.292;   19.125; -428.000; -348.000
300.430;   12.450; -408.000; -291.000
300.568; -116.825; -940.000; -874.000
300.706;  -42.675; -366.000; -469.000
300.844;  -83.100;-1108.000; -979.000
300.982;  112.850;  246.000;  282.000
301.120; -115.075; -965.000; -866.000
301.258;  -91.150; -812.000; -705.000
301.396;   20.800;  104.000;  -41.000
301.534;   55.950; -218.000; -293.000
301.672;  -36.775; -664.000; -521.000
301.810;   14.675; -613.000; -545.000
301.948;  100.675;   53.000;  149.000
302.086;  558.575; -250.000;  -32.000
302.224;  836.525; -610.000; -585.000
302.362;   12.250; -558.000; -622.000
302.500;  -33.600; -923.000; -893.000
302.638;   81.800;  128.000;  245.000
302.776;  -10.250; -352.000; -408.000
302.913;   34.925;  447.000;  236.000
303.051;    4.525;  -86.000;  -23.000
303.189;   43.175;   90.000;  118.000
303.327;  -38.700; -341.000; -256.000
303.465;  -99.475; -832.000; -588.000
303.603; -110.350; -805.000; -604.000
303.740;   83.150;  417.000;  241.000
303.878;   -0.200; -800.000; -759.000
304.016; -101.175; -915.000; -790.000
304.154; -131.900;-1123.000;-1152.000
304.291;  -62.150; -505.000; -554.000
304.429;   -6.500;  102.000;   74.000
304.567; -120.625; -908.000; -893.000
304.705;  -59.125; -408.000; -515.000
304.842;   64.125; -616.000; -540.000
304.980;   37.625;  215.000;   35.000
305.118;   17.000; -367.000; -365.000
305.255;  -89.600; -945.000; -927.000
305.393;   54.025;  178.000;  239.000
305.531; -118.725;-1173.000; -956.000
305.668;  -79.775; -663.000; -582.000
305.806;   95.300; -358.000; -439.000
305.943;   93.975; -629.000; -637.000
306.081;   27.475; -378.000; -267.000
306.219;  -93.575; -863.000; -748.000
306.356;    5.625;  158.000;   27.000
306.494;  100.400;  981.000;  761.000
306.631;   -4.325;  -11.000;  -55.000
306.769;  -13.500; -613.000; -485.000
306.906;  -31.225; -284.000; -258.000
307.044;  -69.075; -473.000; -488.000
307.181;  -66.550; -410.000; -332.000
307.319;    5.850;  112.000;   87.000
307.456; -175.275;-1191.000;-1153.000
307.594; -104.575; -980.000; -727.000
307.731;  -26.675; -371.000; -164.000
307.868;    1.675;  -15.000;   20.000
308.006; -131.300; -961.000; -847.000
308.143;  -80.375; -618.000; -330.000
308.281;  132.475;  -37.000; -254.000
308.418;  -23.950; -748.000; -640.000
308.555;  -87.825; -400.000; -250.000
308.693;  -83.375; -577.000; -573.000
308.830; -105.425; -712.000; -657.000
308.967;  -26.650; -215.000;  -95.000
309.105;  -59.450; -507.000; -396.000
309.242;   32.975; -468.000; -367.000
309.379;  276.600; -577.000; -655.000
309.517;  -84.025; -936.000; -948.000
309.654; -117.650; -910.000; -734.000
309.791;  -87.875; -662.000; -580.000
309.928; -122.775; -977.000; -914.000
310.065;  155.250;  819.000;  697.000
310.203;  -23.200; -825.000; -850.000
310.340;  -34.275; -465.000; -321.000
310.477;  -81.600; -412.000; -516.000
310.614;  -67.125; -383.000; -473.000
310.751;  -82.075; -427.000; -518.000
310.889;  -32.100;    1.000;   11.000
311.026; -159.575;-1161.000; -939.000
311.163;  -48.050; -386.000; -380.000
311.300;  -90.750; -512.000; -479.000
311.437;  -73.650; -658.000; -619.000
311.574; -164.850;-1226.000; -985.000
311.711;  -67.650; -595.000; -433.000
311.848;  -51.225; -380.000; -388.000
311.985;    4.125;  270.000;   93.000
312.122; -131.375; -932.000; -762.000
312.259; -120.450; -941.000; -994.000
312.396;  -82.750; -508.000; -551.000
312.533; -105.375; -812.000; -790.000
312.670; -139.375;-1070.000; -898.000
312.807;  -39.025; -352.000; -367.000
312.944;  -85.300; -513.000; -611.000
313.081;  -38.800; -150.000; -415.000
313.218; -113.375;-1111.000; -867.000
313.355;  -10.400; -531.000; -449.000
313.492;  -17.650; -455.000; -292.000
313.629;  115.725;  815.000;  735.000
313.766; -161.150;-1176.000;-1008.000
313.902;  -16.800; -186.000;   21.000
314.039;  -62.300; -372.000; -289.000
314.176;    7.975;  286.000;  192.000
314.313;  -82.350; -569.000; -473.000
314.450;  -83.325; -788.000; -684.000
314.587;  -57.850; -468.000; -480.000
314.723;  -10.600;  -78.000;  130.000
314.860;   13.525;  318.000;  332.000
314.997;   20.725;  223.000;  142.000
315.134;  -44.475; -385.000; -368.000
315.270;  -39.625; -480.000; -496.000
315.407; -140.325;-1094.000; -967.000
315.544;  -62.250; -657.000; -538.000
315.681;  -75.775; -681.000; -565.000
315.817;   18.375; -133.000; -176.000
315.954;    3.175; -613.000; -392.000
316.091; -133.325;-1045.000;-1023.000
316.227;  -28.000;  -71.000; -179.000
316.364;  -18.500;   23.000;    6.000
316.500;  -51.700; -113.000; -300.000
316.637;  -44.800; -181.000; -302.000
316.774; -100.500; -625.000; -358.000
316.910; -106.850; -598.000; -629.000
317.047;  -77.075; -487.000; -351.000
317.183;  -55.875; -435.000; -566.000
317.320;  -10.700; -367.000; -321.000
317.456;  -72.075; -733.000; -805.000
317.593;  -95.725; -598.000; -641.000
317.729;    2.850;  168.000;  -67.000
317.866; -206.250;-1434.000;-1285.000
318.002;  -97.125; -708.000; -948.000
318.139; -103.975; -883.000; -867.000
318.275; -117.900;-1003.000; -738.000
318.412;  -61.450; -517.000; -336.000
318.548;  -45.725; -751.000; -720.000
318.685; -112.400; -985.000; -888.000
318.821; -106.650; -762.000; -735.000
318.957;  -17.275;   34.000;  -23.000
319.094;   30.350;  297.000;  154.000
319.230;  -76.375; -756.000; -742.000
319.367;  101.825; -471.000; -520.000
319.503;   40.725; -538.000; -436.000
319.639; -108.350; -877.000; -793.000
319.775;  -67.300; -750.000; -685.000
319.912;  -61.750; -424.000; -519.000
320.048; -102.025;-1184.000;-1184.000
320.184;   71.425;   59.000;   70.000
320.321;  -66.300; -497.000; -467.000
320.457;   54.600;  475.000;  662.000
320.593;  -70.150; -375.000; -382.000
320.729;  -97.600; -732.000; -734.000
320.866;  -90.875; -577.000; -635.000
321.002;  -83.900; -759.000; -809.000
321.138;  -22.675; -135.000; -211.000
321.274;   64.950; -148.000; -115.000
321.410;  -31.625; -585.000; -353.000
321.546;  -55.700;-1011.000; -911.000
321.683;   38.150;  400.000;  185.000
321.819;  -16.200;  -48.000; -117.000
321.955; -109.850; -743.000; -722.000
322.091;  -52.100; -585.000; -540.000
322.227;  -19.825; -382.000; -202.000
322.363;  -34.300; -320.000; -215.000
322.499;  -55.725; -343.000; -331.000
322.635;  137.475;  636.000;  443.000
322.771;    2.675; -139.000;   12.000
322.907;   74.175;  129.000;  327.000
323.043;  -25.425; -115.000; -206.000
323.179;  -61.075; -394.000; -363.000
323.315;   -1.450; -401.000; -371.000
323.451;   60.725; -328.000; -236.000
323.587;   61.725;  -60.000;  -77.000
323.723;   -3.450; -682.000; -601.000
323.859;  -39.475; -258.000;  -76.000
323.995;  -58.800; -467.000; -409.000
324.131; -126.425; -967.000; -892.000
324.267;  -46.875; -254.000; -276.000
324.402; -145.475; -960.000; -983.000
324.538;  -32.175; -279.000; -104.000
324.674;    1.500;  164.000;   77.000
324.810;   86.775;  226.000;  308.000
324.946;  -28.800; -810.000; -658.000
325.082;  -76.000; -568.000; -475.000
325.217;  -26.275;  -62.000;   16.000
325.353; -111.150; -764.000; -659.000
325.489; -102.225; -540.000; -506.000
325.625;  -99.650; -579.000; -525.000
325.760;   64.775;  517.000;  376.000
325.896;  -20.950; -515.000; -702.000
326.032;  -54.550; -403.000; -352.000
326.168;  -63.350; -462.000; -369.000
326.303;  -62.175; -352.000; -461.000
326.439;  -22.200; -336.000; -276.000
326.575;   -7.650; -190.000;  -29.000
326.710;  -14.050; -156.000;  -30.000
326.846;  -14.000;  146.000;  103.000
326.982;  -92.125; -530.000; -548.000
327.117;  -80.175; -481.000; -442.000
327.253;  -87.450; -745.000; -742.000
327.388; -163.875;-1137.000;-1153.000
327.524;  -70.400; -811.000; -578.000
327.659;  -34.475;  -58.000;  -22.000
327.795;   -9.900;   69.000;   45.000
327.931;  -93.475; -723.000; -499.000
328.066;  -42.250; -417.000; -276.000
328.202;  -41.700;   12.000; -129.000
328.337;   98.450;  957.000;  713.000
328.473;   25.675;  -12.000;  -74.000
328.608;  -45.725; -256.000; -267.000
328.743;  -99.675; -799.000; -664.000
328.879;   11.375;  214.000;  114.000
329.014;  -37.250; -102.000; -122.000
329.150;  -90.925; -358.000; -483.000
329.285;  -91.525; -465.000; -466.000
329.421;  -53.400; -548.000; -246.000
329.556;  -34.900;  -36.000;   85.000
329.691; -119.425; -633.000; -615.000
329.827;  -96.100; -626.000; -480.000
329.962;  -51.375;  131.000; -301.000
330.097;  -94.675; -673.000; -585.000
330.233;  -55.850; -410.000; -223.000
330.368; -127.200; -839.000; -628.000
330.503;  -19.525;    3.000;   98.000
330.638;  -13.975;  -93.000; -125.000
330.774;  -73.275; -609.000; -530.000
330.909;  -45.075; -434.000; -244.000
331.044;  -90.725; -714.000; -708.000
331.179; -179.600;-1217.000;-1109.000
331.315;   -3.025;   77.000;   20.000
331.450;    2.925;  157.000;  285.000
331.585;  -94.925; -805.000; -706.000
331.720;  -88.675; -510.000; -460.000
331.855;  -15.350;  -35.000; -102.000
331.990;  255.625;   62.000;  138.000
332.126;  131.450; -110.000;   71.000
332.261;  -32.500; -379.000; -265.000
332.396;   -7.250; -135.000; -242.000
332.531; -108.225;-1074.000;-1031.000
332.666;   22.600; -519.000; -363.000
332.801;  -99.350; -726.000; -807.000
332.936;  -27.825; -192.000; -122.000
333.071; -160.900; -870.000; -817.000
333.206;    8.850;  307.000;  379.000
333.341;   26.325;  344.000;  418.000
333.476;  -96.000; -627.000; -623.000
333.611;  -46.125; -251.000; -173.000
333.746;  -53.475; -381.000; -464.000
333.881; -131.950; -973.000; -935.000
334.016; -131.650; -936.000; -917.000
334.151; -123.625; -746.000; -702.000
334.286;   10.700;  152.000;  186.000
334.421;  -21.500; -125.000; -178.000
334.556;  -92.575; -611.000; -567.000
334.690;  -98.900; -631.000; -577.000
334.825;   54.825;  381.000;   83.000
334.960;  -67.400; -285.000; -413.000
335.095;  -10.075;  135.000;  -91.000
335.230; -118.800; -722.000; -738.000
335.365; -134.175;-1084.000; -990.000
335.499; -149.375;-1108.000;-1037.000
335.634;   16.000;    9.000;  534.000
335.769; -101.350; -755.000; -720.000
335.904;  -67.550; -603.000; -561.000
336.038;  -66.750; -735.000; -657.000
336.173; -132.100;-1206.000;-1194.000
336.308;  -10.850; -116.000; -189.000
336.443;   -2.800; -544.000; -634.000
336.577;  -79.475; -936.000; -787.000
336.712;   40.400;   -4.000;  -12.000
336.847;  -60.700; -724.000; -607.000
336.981;   49.925; -272.000; -208.000
337.116;  246.250;  615.000;  501.000
337.250;  112.850; -434.000; -421.000
337.385;  260.450; -297.000; -208.000
337.520;   95.800; -632.000; -603.000
337.654;  -36.950; -215.000; -126.000
337.789; -137.825; -989.000; -933.000
337.923;  -37.975; -104.000; -205.000
338.058;  -98.925; -673.000; -738.000
338.192;  -53.325; -611.000; -488.000
338.327;  -15.075;  -18.000; -155.000
338.461;  -81.500; -299.000; -469.000
338.596;  -95.550; -780.000; -638.000
338.730; -106.275; -767.000; -803.000
338.865;   87.175;  -46.000; -140.000
338.999;  -45.750; -846.000; -702.000
339.134;  -37.000; -634.000; -536.000
339.268;    8.800; -741.000; -603.000
339.403;  378.200; -740.000; -775.000
339.537;  108.825; -894.000; -820.000
339.671; -111.800; -829.000; -813.000
339.806;  -57.100; -556.000; -512.000
339.940;    1.200; -261.000; -235.000
340.074;  -97.000; -685.000; -510.000
340.209;  -47.650; -351.000; -230.000
340.343; -102.975; -517.000; -573.000
340.477;  159.850;  998.000; 1036.000
340.612;  -65.450;-1033.000; -900.000
340.746;  148.275; -199.000; -243.000
340.880;  -73.625; -924.000; -785.000
341.014;  -27.425;  -45.000; -154.000
341.149; -118.550; -756.000; -718.000
341.283; -124.500; -839.000; -754.000
341.417; -120.275;-1124.000; -938.000
341.551;   93.675; -768.000; -708.000
341.685;  -56.100; -633.000; -611.000
341.820;  -62.175; -562.000; -493.000
341.954;  -57.900; -218.000; -349.000
342.088; -156.425;-1102.000;-1019.000
342.222;   40.775;  565.000;  618.000
342.356;  -71.550; -395.000; -335.000
342.490; -115.225; -880.000; -841.000
342.624;  -66.400; -339.000; -242.000
342.758;  -24.100; -364.000; -312.000
342.892;  -82.375; -710.000; -585.000
343.026;  -42.700;  -58.000; -116.000
343.160;  -55.450; -426.000; -376.000
343.294;  -77.675; -474.000; -337.000
343.428;  -42.700; -488.000; -448.000
343.562;  -35.500; -172.000;  -23.000
343.696;  -48.050; -385.000; -314.000
343.830;  -32.425; -362.000; -356.000
343.964;    6.275; -231.000; -168.000
344.098;  799.475;  199.000;   70.000
344.232;  666.375; -266.000; -127.000
344.366;   94.050; -567.000; -453.000
344.500;   16.975; -665.000; -744.000
344.634;   12.350; -324.000; -164.000
344.768;  -40.850; -531.000; -341.000
344.902;   20.075;  278.000;  256.000
345.035;  -85.975; -556.000; -496.000
345.169; -142.050; -933.000; -656.000
345.303;  -39.200; -308.000; -482.000
345.437;  -86.150; -826.000; -717.000
345.571;  -84.725; -675.000; -594.000
345.704;  -83.350; -309.000; -532.000
345.838;  -32.600; -331.000; -284.000
345.972;  -51.900; -543.000; -495.000
346.106;  160.350; -179.000; -190.000
346.239;  393.100; -312.000; -243.000
346.373;  -18.150; -343.000; -302.000
346.507; -152.850; -950.000; -962.000
346.640;  112.375;  -30.000;   13.000
346.774;  -68.325; -650.000; -797.000
346.908;  -24.225; -138.000;  -11.000
347.041;  -98.975; -646.000; -593.000
347.175;   -6.400;  259.000;   27.000
347.309;  -90.875; -698.000; -628.000
347.442; -104.000; -883.000; -732.000
347.576;  249.075;  670.000;  668.000
347.709;  160.350; -123.000;  -52.000
347.843; -109.800; -933.000; -825.000
347.976;   15.775;  235.000;  294.000
348.110; -189.800;-1268.000;-1186.000
348.243; -105.775; -679.000; -772.000
348.377;   10.525;  -26.000;   60.000
348.510;   42.025;  403.000;  540.000
348.644;  -38.000;  -37.000; -159.000
348.777;   -7.650;  180.000;  191.000
348.911;  -52.175; -142.000; -112.000
349.044;  146.200;  471.000;  448.000
349.178;  103.100;-1069.000;-1006.000
349.311;   99.500;  141.000;  255.000
349.444;  -14.250; -927.000; -813.000
349.578;  -38.975; -347.000; -200.000
349.711; -121.725; -959.000; -862.000
349.845;  -25.925; -661.000; -591.000
349.978; -158.800;-1224.000;-1137.000
350.111;  -99.675; -546.000; -612.000
350.244;  -88.050; -596.000; -700.000
350.378;   -1.325; -392.000; -393.000
350.511;  -88.525; -393.000; -426.000
350.644; -119.325; -808.000; -806.000
350.778;    0.250;  168.000;  104.000
350.911;   -7.050;  134.000;  140.000
351.044;  -99.750; -685.000; -615.000
351.177;  -39.075; -321.000; -281.000
351.310;  -11.100;    3.000; -131.000
351.444;  -97.025; -888.000; -788.000
351.577;   90.175;  140.000;   90.000
351.710;   64.325;  593.000;  417.000
351.843;  -54.800; -165.000;  -77.000
351.976;  -14.950;  149.000;  -79.000
352.109;  -96.250; -621.000; -612.000
352.242;  -38.525; -464.000; -419.000
352.376;  -73.350; -580.000; -636.000
352.509;  135.175; -437.000; -356.000
352.642;  -21.425; -654.000; -604.000
352.775;   35.175; -141.000;  -98.000
352.908; -123.325; -933.000; -904.000
353.041; -115.850; -814.000; -824.000
353.174;  -64.675; -551.000; -424.000
353.307;  -90.125; -753.000; -764.000
353.440;   61.200;  541.000;  453.000
353.573; -124.675; -957.000;-1008.000
353.706;  -56.125; -384.000; -558.000
353.839;  -36.275; -264.000; -220.000
353.971; -103.825; -657.000; -512.000
354.104;  -96.175; -896.000; -835.000
354.237;  -38.050; -627.000; -662.000
354.370;  -98.375; -846.000; -879.000
354.503; -195.950;-1231.000;-1308.000
354.636;  -51.025; -529.000; -348.000
354.769; -144.375; -937.000; -860.000
354.902;  -18.275; -230.000; -139.000
355.034;  -41.025; -164.000; -220.000
355.167;  -20.675; -262.000; -162.000
355.300; -101.150;-1061.000; -880.000
355.433; 1021.575;  -71.000;  -14.000
355.565; 1563.550; -402.000; -384.000
355.698;  402.775; -356.000; -296.000
355.831;  -23.450; -882.000; -801.000
355.964;   46.625; -285.000; -170.000
356.096;  -86.650; -856.000; -843.000
356.229;  -16.050; -523.000; -530.000
356.362;  316.650; -373.000; -266.000
356.494;  613.350; -229.000; -162.000
356.627;  426.150;  269.000;  377.000
356.760;  671.425;  120.000;   53.000
356.892; 1032.150; -286.000; -601.000
357.025;  581.150;  403.000;  389.000
357.157;  523.375; -167.000; -179.000
357.290;  745.550; -856.000; -713.000
357.423;  217.925; -667.000; -556.000
357.555;   88.875; -217.000; -228.000
357.688;  114.950; -483.000; -364.000
357.820;  412.025; -870.000; -877.000
357.953; 3499.800; -563.000; -589.000
358.085;  730.950; -632.000; -612.000
358.218;  891.175;-1131.000; -932.000
358.350;  149.200;  -58.000;  312.000
358.483; -144.375;-1300.000;-1187.000
358.615;  -44.275;-1182.000;-1078.000
358.747;  -88.525;-1187.000;-1058.000
358.880;   -3.325; -810.000; -744.000
359.012;  -15.025; -376.000; -202.000
359.145;  -55.800; -480.000; -511.000
359.277;   40.475; -962.000; -913.000
359.409; 2793.800;  536.000;  231.000
359.542;  742.150; -738.000; -688.000
359.674;   49.675;   46.000;   13.000
359.806;  -63.300; -565.000; -438.000
359.939;  -43.350; -617.000; -516.000
360.071;  -22.500; -583.000; -579.000
360.203;  -32.100; -411.000; -364.000
360.335;   40.825;  164.000;  -16.000
360.468;  179.650; -249.000; -307.000
360.600; 2324.950; -547.000; -454.000
360.732; 3075.650; -546.000; -423.000
360.864;  423.275;-1216.000;-1044.000
360.996;  201.900; -516.000; -554.000
361.129;   17.700; -389.000; -598.000
361.261;    8.000;  110.000; -113.000
361.393;  -46.125; -252.000; -214.000
361.525;    1.100;   94.000;  244.000
361.657;  -56.775; -821.000; -703.000
361.789;  -17.000; -139.000; -155.000
361.921;  146.100; -642.000; -593.000
362.053;  207.675;  524.000;  541.000
362.185;   34.500;  288.000;   72.000
362.318;  -85.775; -709.000; -705.000
362.450;   91.500;  294.000;  444.000
362.582;   31.200; -913.000; -870.000
362.714;  -56.200; -353.000; -332.000
362.846;  -83.350; -606.000; -490.000
362.978; -151.875; -941.000; -811.000
363.109;   33.450; -161.000; -260.000
363.241;  349.025; -739.000; -749.000
363.373;  442.600; -649.000; -564.000
363.505;  713.900; -186.000;  -91.000
363.637;  144.075; -787.000; -601.000
363.769; -135.525;-1067.000;-1080.000
363.901;  -81.950; -596.000; -654.000
364.033; -135.950;-1103.000;-1062.000
364.165;  -20.675; -283.000; -283.000
364.296;   66.375; -316.000; -177.000
364.428;   76.250;-1344.000;-1220.000
364.560;  -80.525; -679.000; -661.000
364.692;  -68.975; -738.000; -835.000
364.824;  195.000; -588.000; -456.000
364.955;  432.750; -402.000; -564.000
365.087; 1078.750;-1097.000; -852.000
365.219;   38.375; -686.000; -816.000
365.351;  -66.225; -526.000; -572.000
365.482;   38.700;  300.000;  240.000
365.614;  -40.625; -402.000; -314.000
365.746; -110.050; -729.000; -752.000
365.877; -100.925; -706.000; -672.000
366.009;  272.300;  -35.000;  -62.000
366.141;  -81.775;-1249.000;-1134.000
366.272; -110.025; -803.000; -719.000
366.404; -126.750;-1005.000; -874.000
366.535;  -19.650; -139.000;  -12.000
366.667; -111.925; -644.000; -649.000
366.799;   22.900;  353.000;  203.000
366.930; -126.425; -862.000; -996.000
367.062;  132.950; -639.000; -613.000
367.193;  177.825; -872.000; -842.000
367.325;  -54.550; -580.000; -684.000
367.456;   13.800; -246.000;   31.000
367.588;  162.050; -371.000; -318.000
367.719;   28.700;  -44.000;  -45.000
367.851;  -24.925; -222.000; -241.000
367.982;  -68.325; -875.000; -732.000
368.113;   68.775; -475.000; -358.000
368.245; -129.225; -960.000; -841.000
368.376;  -40.200; -254.000; -302.000
368.508;  -36.500; -188.000; -263.000
368.639; -147.525;-1166.000;-1034.000
368.770;  -26.825; -670.000; -589.000
368.902;  -74.175; -836.000; -926.000
369.033; -105.275; -906.000; -855.000
369.164;  -44.200; -720.000; -653.000
369.296; -111.100; -452.000; -601.000
369.427;  -15.325; -209.000; -144.000
369.558;  -59.700; -593.000; -377.000
369.689;  -90.650; -721.000; -569.000
369.821; -133.975; -951.000; -845.000
369.952;  -34.275;   42.000; -108.000
370.083;  -52.975; -229.000; -108.000
370.214;  -89.725; -735.000; -650.000
370.345;  -10.350;   65.000;   81.000
370.477;  -97.725; -810.000; -790.000
370.608;  185.450; -328.000; -264.000
370.739;  -68.375;-1233.000;-1292.000
370.870;  -51.125;-1102.000; -923.000
371.001;   55.025; -378.000; -467.000
371.132;  -89.300; -754.000; -735.000
371.263;  -36.325;  -42.000; -148.000
371.394; -134.875; -841.000; -748.000
371.525;   27.750;  345.000;  225.000
371.657; -103.975; -808.000; -670.000
371.788;   68.625;  103.000;  199.000
371.919;  118.050; -384.000; -304.000
372.050; 3234.025;  -91.000; -156.000
372.181;  991.225; -188.000; -294.000
372.311;  306.450;   42.000; -127.000
372.442;   15.400; -457.000; -451.000
372.573;  -29.950; -444.000; -340.000
372.704; -135.200;-1008.000; -980.000
372.835;   55.325; -228.000; -289.000
372.966;  -79.375; -646.000; -554.000
373.097;  -77.850; -575.000; -711.000
373.228;  -68.225; -717.000; -542.000
373.359;   95.600; -824.000; -536.000
373.490;  780.625; -881.000; -727.000
373.620; 1004.425;-1001.000; -803.000
373.751; 1505.650; -332.000; -396.000
373.882;  671.425; -663.000; -733.000
374.013;   43.775; -449.000; -262.000
374.143;  -53.100; -581.000; -659.000
374.274; -111.800; -987.000; -908.000
374.405;  127.950; -388.000; -276.000
374.536;  360.350; -526.000; -387.000
374.666;  939.100; -759.000; -807.000
374.797;  169.350; -817.000; -868.000
374.928;  704.450; -710.000; -560.000
375.058;  756.300; -535.000; -500.000
375.189;   63.400;  -59.000;  -93.000
375.320; -125.425; -928.000;-1034.000
375.450;  -41.325; -625.000; -616.000
375.581;  -56.050; -526.000; -436.000
375.712;  -47.475; -574.000; -250.000
375.842;  234.775; -438.000; -415.000
375.973;  182.850; -554.000; -513.000
376.103;  -68.900; -665.000; -648.000
376.234;  -90.125; -531.000; -552.000
376.364;  -72.675; -944.000; -867.000
376.495;  268.300;  925.000;  529.000
376.625;  -33.650; -472.000; -485.000
376.756;   25.200; -709.000; -678.000
376.886;  -97.700;-1178.000;-1026.000
377.017;   43.000;-1048.000;-1061.000
377.147;  384.325; -786.000; -782.000
377.278;   55.275;  174.000;  228.000
377.408; -134.150; -801.000; -815.000
377.538; -111.900; -707.000; -693.000
377.669;  -79.950; -537.000; -613.000
377.799;  -95.500; -645.000; -635.000
377.929;  -74.800; -610.000; -428.000
378.060; -141.650; -781.000; -847.000
378.190;  -66.425; -726.000; -531.000
378.320;  -61.325; -401.000; -406.000
378.451;  -27.700; -131.000;  -22.000
378.581;  -22.900;  -67.000; -110.000
378.711;  117.000; 1035.000;  866.000
378.841;  -40.650; -533.000; -675.000
378.972;  -92.875; -871.000; -751.000
379.102;  -27.000; -652.000; -579.000
379.232;  -35.125; -126.000;  -73.000
379.362; -119.500;-1001.000; -885.000
379.492;  -18.975; -373.000; -424.000
379.623;   81.775;    0.000;  111.000
379.753; -113.200;-1107.000; -974.000
379.883;  136.750;   59.000;  156.000
380.013;  -21.125;-1081.000;-1017.000
380.143; -114.275;-1097.000;-1056.000
380.273; -106.750; -985.000; -861.000
380.403;   -9.375; -344.000; -257.000
380.533;  -35.825; -651.000; -664.000
380.663;   49.250;  173.000;  128.000
380.793; -119.900;-1027.000;-1074.000
380.923;  -38.050; -103.000;  -34.000
381.053;  -99.725; -613.000; -623.000
381.183;  -39.225; -106.000; -248.000
381.313;   21.700; -656.000; -470.000
381.443;    2.125; -692.000; -473.000
381.573;  144.025; -402.000; -409.000
381.703;  197.900;-1249.000;-1095.000
381.833; -147.125;-1454.000;-1336.000
381.963;   82.600; -134.000;  -87.000
382.093; 1276.675; -925.000; -909.000
382.223;  393.525; -713.000; -602.000
382.353;  -40.525; -801.000; -608.000
382.482;  279.450;-1091.000; -964.000
382.612;  651.950; -872.000; -644.000
382.742;  365.525; -695.000; -622.000
382.872;  206.350; -565.000; -551.000
383.002;   44.675;  347.000; -132.000
383.131;  -29.500; -226.000; -160.000
383.261;  -58.900; -706.000; -768.000
383.391;  277.100; -552.000; -377.000
383.521; 3498.200;  451.000;  263.000
383.650;  875.175; -947.000; -904.000
383.780;  -15.025; -783.000; -656.000
383.910;   96.425;  880.000;  802.000
384.039;  -12.725; -794.000; -656.000
384.169;  141.450;-1205.000;-1017.000
384.299;  -54.050; -650.000; -662.000
384.428; -106.300; -764.000; -680.000
384.558;  -52.050; -308.000; -275.000
384.687;  -61.250; -414.000; -334.000
384.817;    1.125;   75.000;   -2.000
384.947;  -18.275; -234.000; -141.000
385.076;  238.400;  982.000;  912.000
385.206;   80.375;  369.000;  480.000
385.335;  -49.425; -549.000; -417.000
385.465; -102.225; -655.000; -663.000
385.594;   94.100;  -53.000;  -44.000
385.724;  328.750; -868.000; -838.000
385.853;   88.775; -296.000; -270.000
385.982; 1143.375; -743.000; -787.000
386.112; 1905.800;-1052.000; -871.000
386.241;  101.575; -307.000; -312.000
386.371;   -1.850; -174.000;  -87.000
386.500;  -32.075; -825.000; -789.000
386.629;    8.925; -874.000; -817.000
386.759;   57.625;  -43.000;   68.000
386.888;  -26.050; -170.000; -250.000
387.017; -102.375; -648.000; -620.000
387.147; -103.775; -771.000; -798.000
387.276;  -24.225; -410.000; -397.000
387.405;  -12.200; -398.000; -342.000
387.535;  -67.050; -452.000; -361.000
387.664;  -84.975; -692.000; -620.000
387.793;   31.375; -198.000; -113.000
387.922;  426.400;  255.000;  200.000
388.052;    4.300; -576.000; -423.000
388.181;  -12.150; -342.000; -472.000
388.310;  -46.475; -889.000; -710.000
388.439;  -81.675; -749.000; -742.000
388.568;  138.875;  365.000;  244.000
388.697;  857.900; -756.000; -653.000
388.826;  168.675; -768.000; -666.000
388.956;   31.000; -285.000; -307.000
389.085;  -49.900; -347.000; -287.000
389.214; -115.125; -842.000; -872.000
389.343;  -87.225; -645.000; -413.000
389.472;  394.500;  126.000;  149.000
389.601;  511.425;   91.000;    0.000
389.730;    2.525; -568.000; -687.000
389.859;   40.450;  226.000;   46.000
389.988;  138.100; -423.000; -408.000
390.117;  108.675; -168.000; -146.000
390.246;  -30.575; -331.000; -320.000
390.375;   63.025; -673.000; -626.000
390.504;  -66.650; -703.000; -621.000
390.633; -106.875; -672.000; -726.000
390.761;  -89.700; -732.000; -645.000
390.890;  -13.925;   -4.000; -130.000
391.019;  -47.725; -421.000; -441.000
391.148; -136.875; -826.000; -855.000
391.277;  -93.625; -576.000; -493.000
391.406;  -92.575; -821.000; -805.000
391.534;    7.725;  574.000; -301.000
391.663;  -89.400; -583.000; -645.000
391.792;  -91.325; -673.000; -701.000
391.921;   48.250;   -3.000;   15.000
392.050;  120.600; -287.000; -228.000
392.178;  -66.125;-1206.000;-1061.000
392.307;  106.100; -758.000; -712.000
392.436;   40.700; -427.000; -641.000
392.564;    0.150;  166.000;   -6.000
392.693; -112.400; -860.000; -682.000
392.822;  147.875; -529.000; -534.000
392.950;   49.100; -880.000; -714.000
393.079;  263.125; -188.000; -328.000
393.208;  -10.525; -488.000; -511.000
393.336;  -26.475; -170.000; -145.000
393.465;  -66.850; -317.000; -199.000
393.593;  -18.675;   62.000;   79.000
393.722; -150.375;-1121.000; -916.000
393.850;  -42.350; -188.000;  -61.000
393.979; -159.625; -926.000; -805.000
394.107;  -74.250; -517.000; -537.000
394.236;  -31.800; -570.000; -507.000
394.364;  177.250;  383.000;  206.000
394.493;  313.025; -911.000; -767.000
394.621;  -16.950; -955.000; -916.000
394.750;  738.075; -873.000; -923.000
394.878; 3051.350; -247.000; -149.000
395.007; 4294.050; -721.000; -807.000
395.135;  328.650; -790.000; -721.000
395.263;  -99.900;-1038.000;-1040.000
395.392;   -1.875;  -25.000; -107.000
395.520; -131.850; -818.000; -679.000
395.648; -105.175; -865.000; -915.000
395.777;  -46.850; -366.000; -405.000
395.905;  -64.875; -449.000; -564.000
396.033;    6.250;  217.000;  172.000
396.162;  488.525; -399.000; -453.000
396.290;  468.925;  -17.000;   -2.000
396.418;   57.200; -555.000; -514.000
396.546;  -89.350; -571.000; -466.000
396.674;  -96.250; -850.000; -878.000
396.803;   -1.250;  -72.000;  -23.000
396.931;   48.725; -179.000; -199.000
397.059;   -4.500;-1026.000; -989.000
397.187; -111.075;-1026.000; -975.000
397.315; -149.075; -884.000; -649.000
397.443; -109.100; -592.000; -443.000
397.572; -109.575; -578.000; -424.000
397.700;  -31.525; -607.000; -614.000
397.828;  -10.200;  120.000;  -90.000
397.956;  -59.125; -508.000; -478.000
398.084;  -68.800; -767.000; -626.000
398.212;   33.375;  137.000;  124.000
398.340;   -7.900;  -56.000;  159.000
398.468;    3.625; -390.000; -169.000
398.596; -139.225; -993.000; -953.000
398.724; -121.325; -762.000; -767.000
398.852; -162.125;-1024.000; -976.000
398.980;  -79.425; -560.000; -560.000
399.108;  -60.300; -982.000; -735.000
399.236;    1.450;   13.000;    8.000
399.363;    5.875;  222.000;  196.000
399.491;  -82.275; -404.000; -398.000
399.619; -136.550; -829.000; -800.000
399.747; -121.775; -859.000; -771.000
399.875;   61.000;  220.000;  234.000
400.003;  -70.725; -359.000; -284.000
400.130; -111.800; -421.000; -341.000
400.258;  -41.050;  -83.000;   38.000
400.386;  -74.300; -352.000; -168.000
400.514;  -55.800; -526.000; -587.000
400.641; -114.550; -928.000; -802.000
400.769; -143.800; -979.000; -888.000
400.897; -133.275; -838.000; -793.000
401.025;  -45.775; -166.000; -152.000
401.152;  -13.175;  220.000;   38.000
401.280;  -93.375; -430.000; -429.000
401.408; -124.000; -712.000; -576.000
401.535; -114.675; -735.000; -758.000
401.663; -195.900;-1134.000;-1054.000
401.790; -106.900; -514.000; -525.000
401.918;   31.025;  436.000;  405.000
402.046;   -9.975;  134.000;  122.000
402.173;  -48.650;  -18.000;    7.000
402.301;  -74.875; -519.000; -397.000
402.428;   21.300;  528.000;  383.000
402.556; -155.300;-1188.000; -913.000
402.683;  -36.625;  -20.000;   -1.000
402.811;  -46.125;  -37.000; -206.000
402.938;  -17.225;   20.000;   27.000
403.066;  139.600; -574.000; -558.000
403.193;  264.275;  299.000;  239.000
403.321;  217.700; -396.000; -574.000
403.448;  269.600;   83.000;   27.000
403.575;  105.750;  -90.000;  -46.000
403.703;  -94.625; -732.000; -557.000
403.830;  -90.775; -531.000; -496.000
403.957; -156.125;-1117.000;-1023.000
404.085;   -6.200;  -61.000; -172.000
404.212;   84.175;  -50.000;   63.000
404.339;  265.850; -566.000; -306.000
404.467; 6080.825; -612.000; -524.000
404.594; 4012.150; -287.000; -227.000
404.721;  847.600; -869.000; -764.000
404.848;   72.625; -113.000; -202.000
404.976; -114.800; -856.000; -783.000
405.103;  -28.300;  -14.000;  -82.000
405.230;  -15.225;  190.000;  226.000
405.357;   16.800;  117.000;   44.000
405.484;  248.700;  -49.000;    5.000
405.612;   57.175; -548.000; -563.000
405.739;  -82.325; -488.000; -243.000
405.866;   61.975;  669.000;  385.000
405.993;  -61.550; -398.000; -102.000
406.120; -137.675; -801.000; -887.000
406.247;  -55.200; -323.000; -342.000
406.374;  348.425;  540.000;  629.000
406.501;   60.875; -632.000; -702.000
406.628;  -88.625; -621.000; -589.000
406.755; -123.475; -803.000; -620.000
406.882;  -43.475; -228.000; -277.000
407.009; -124.650; -719.000; -628.000
407.136;   12.575; -480.000; -401.000
407.263;   79.825; -939.000; -829.000
407.390;  -95.575; -692.000; -614.000
407.517; -187.650;-1139.000;-1187.000
407.644;  -68.150; -332.000; -256.000
407.771;  -78.500; -249.000; -287.000
407.898;   -3.600;  168.000;  328.000
408.025;  -80.550; -421.000; -313.000
408.151;  -29.850;   82.000;  153.000
408.278;  -87.150; -267.000; -216.000
408.405; -138.150; -931.000; -899.000
408.532;  -73.825; -549.000; -542.000
408.659; -118.625; -677.000; -648.000
408.785; -204.625;-1298.000;-1170.000
408.912;  -77.800; -412.000; -296.000
409.039; -111.025; -610.000; -686.000
409.166; -103.275; -591.000; -555.000
409.292; -126.650; -571.000; -534.000
409.419; -126.525; -665.000; -649.000
409.546;  -94.850; -431.000; -192.000
409.672; -120.900; -713.000; -545.000
409.799;  -30.825;  -36.000;   34.000
409.926;  -59.950; -180.000; -179.000
410.052; -177.850;-1127.000;-1091.000
410.179;  -73.225; -368.000; -392.000
410.305; -107.175; -375.000; -493.000
410.432;  -56.775; -220.000; -333.000
410.558;  -88.775; -305.000; -380.000
410.685; -121.100; -688.000; -431.000
410.812; -103.300; -409.000; -588.000
410.938; -147.600; -964.000; -808.000
411.065; -113.850; -671.000; -645.000
411.191;  -32.500; -189.000; -174.000
411.317; -123.475; -823.000; -742.000
411.444;  -89.425; -317.000; -246.000
411.570;  -91.875; -339.000; -294.000
411.697; -142.075; -758.000; -752.000
411.823; -177.550; -989.000; -999.000
411.949;  -55.300;  -56.000;   17.000
412.076; -117.500; -539.000; -519.000
412.202; -134.300; -758.000; -757.000
412.329; -144.325; -798.000; -752.000
412.455; -119.850; -821.000; -657.000
412.581;  -32.850;  -15.000;  172.000
412.707;  -87.750; -540.000; -457.000
412.834;   -1.000;  156.000;  219.000
412.960;  -86.800; -785.000; -784.000
413.086; -112.725; -743.000; -701.000
413.212;  111.625;  604.000;  578.000
413.339;  -80.000; -685.000; -701.000
413.465;  -26.425; -364.000; -310.000
413.591;  -98.125; -757.000; -474.000
413.717;  -71.425; -358.000; -366.000
413.843; -151.350; -839.000; -861.000
413.969;  -63.800;  -47.000; -292.000
414.096; -112.375; -679.000; -679.000
414.222;  -18.475;  -33.000;   85.000
414.348;  -42.675; -652.000; -385.000
414.474;   55.850;   38.000;  -52.000
414.600;  -17.275; -126.000; -144.000
414.726;  -19.925;  -96.000;  -55.000
414.852;  -51.575; -365.000; -342.000
414.978;   14.950;  104.000;  -18.000
415.104;   31.625;   38.000;   80.000
415.230;   21.950; -329.000; -330.000
415.356;   44.550; -409.000; -514.000
415.482;  186.325;   13.000;  -35.000
415.608;  276.350; -247.000; -323.000
415.734;  956.650;   67.000;   38.000
415.860;20309.475; -875.000; -767.000
415.986;15624.525; -685.000; -607.000
416.111; 1365.900; -798.000; -652.000
416.237;  257.600; -424.000; -571.000
416.363; 1131.000; -765.000; -733.000
416.489; 4533.575; -324.000; -251.000
416.615;  521.825; -707.000; -742.000
416.741;  -12.575; -677.000; -784.000
416.866;  -82.900; -673.000; -736.000
416.992; -135.925; -801.000; -818.000
417.118;  -33.675;  -41.000;  -80.000
417.244;  -73.325; -798.000; -531.000
417.369;  -85.800; -801.000; -612.000
417.495;  -33.450; -325.000; -254.000
417.621;  -98.625;-1015.000; -803.000
417.746;    2.025; -579.000; -572.000
417.872;   29.900; -254.000; -144.000
417.998;   41.525; -515.000; -530.000
418.123; 1061.450;-1073.000; -845.000
418.249; 5802.100; -512.000; -601.000
418.374;  860.550; -916.000; -824.000
418.500;  127.350; -383.000; -482.000
418.626;  100.450;   70.000;  -59.000
418.751;  113.225; -549.000; -448.000
418.877;  194.200; -637.000; -643.000
419.002; 1843.425; -688.000; -560.000
419.128;13373.875; -930.000; -721.000
419.253; 3496.275; -967.000; -837.000
419.379;  460.425; -391.000; -338.000
419.504;  411.575;  325.000;  415.000
419.629;  556.725; -393.000; -212.000
419.755; 3692.550; -317.000; -254.000
419.880;23027.200;  -98.000;   67.000
420.006;12164.925; -280.000; -221.000
420.131;31396.525; -662.000; -775.000
420.256; 4746.325; -315.000; -316.000
420.382;  619.000; -665.000; -687.000
420.507;   77.825; -649.000; -778.000
420.632;   93.200; -337.000; -339.000
420.758;  176.900; -251.000; -425.000
420.883;  -90.475; -876.000; -672.000
421.008; -103.850; -775.000; -619.000
421.133; -105.325; -509.000; -467.000
421.259;  -61.150; -325.000; -259.000
421.384; -124.950; -834.000; -693.000
421.509;  -78.775;-1052.000; -862.000
421.634;  884.200; -936.000; -820.000
421.759;  390.525; -359.000; -327.000
421.885;  -73.500; -717.000; -656.000
422.010;  -86.075; -673.000; -542.000
422.135; -151.500; -695.000; -727.000
422.260;   16.450;  340.000;  280.000
422.385;  -63.250;   12.000;  -98.000
422.510;   -4.125;  151.000;  -26.000
422.635;   -0.525;  -87.000;  -43.000
422.760;   95.200; -766.000; -791.000
422.885;   55.775;  -57.000;  -80.000
423.010;  -30.275; -112.000; -169.000
423.135; -112.175; -481.000; -561.000
423.260;  -31.600; -150.000; -245.000
423.385;   48.225;  476.000;  222.000
423.510;   15.750;   71.000;  -22.000
423.635;   52.450;  133.000;   45.000
423.760;   48.450;  383.000;  328.000
423.885;   45.825;  336.000;  391.000
424.010;   -9.175;  -68.000;  -13.000
424.135;  -21.700;    5.000;  -33.000
424.259;  -98.200; -654.000; -457.000
424.384;  -75.650; -279.000; -272.000
424.509;  -35.475; -260.000; -186.000
424.634; -103.125; -761.000; -623.000
424.759;  -26.775; -688.000; -544.000
424.883;  -25.925; -506.000; -527.000
425.008;  155.350; -502.000; -410.000
425.133; 2078.675; -679.000; -653.000
425.258; 1029.025; -517.000; -381.000
425.382;  906.025; -867.000; -774.000
425.507; 2398.250; -487.000; -543.000
425.632;  422.850; -802.000; -663.000
425.756;  485.800; -256.000; -146.000
425.881; 6890.925; -831.000; -857.000
426.006;19929.525; -604.000; -355.000
426.130; 3190.300; -696.000; -508.000
426.255;  399.025; -611.000; -491.000
426.379;  168.300; -189.000; -577.000
426.504;  368.125;  660.000;  544.000
426.629; 4116.825; -519.000; -466.000
426.753; 2995.475;   64.000;  -46.000
426.878;  333.050; -252.000; -288.000
427.002;  150.325; -651.000; -668.000
427.127; 1601.225;  -35.000; -158.000
427.251;12107.225;  372.000;  401.000
427.375; 3686.525; -191.000; -173.000
427.500; 2118.275; -616.000; -610.000
427.624;  720.950; -234.000; -400.000
427.749;   70.675; -216.000; -225.000
427.873;  -42.400; -499.000; -412.000
427.997;  -48.700; -222.000; -230.000
428.122;   62.275;  795.000;  703.000
428.246;   62.825;  433.000;  434.000
428.371; -143.375; -869.000; -773.000
428.495; -111.875; -624.000; -646.000
428.619;  -45.775; -186.000; -117.000
428.743;   10.625;   65.000;  132.000
428.868;  -17.300; -732.000; -643.000
428.992; 1224.200; -219.000; -326.000
429.116;  494.025; -329.000; -357.000
429.240;  238.125;  419.000;  426.000
429.365;  -41.100; -454.000; -574.000
429.489;  -54.175; -638.000; -647.000
429.613;    4.025; -236.000; -177.000
429.737;   25.900; -563.000; -432.000
429.861;  253.850; -247.000; -133.000
429.985; 5663.475; -425.000; -305.000
430.109; 6689.550; -770.000; -908.000
430.234;  756.700;   76.000;  -50.000
430.358;   63.675; -250.000; -160.000
430.482;  -76.700; -672.000; -564.000
430.606;  -74.825; -655.000; -375.000
430.730;  -23.950; -437.000; -388.000
430.854;   48.550; -909.000; -835.000
430.978;  -89.225; -795.000; -764.000
431.102; -101.725; -499.000; -422.000
431.226; -131.400; -874.000; -815.000
431.350;   14.800;  345.000;  422.000
431.474;  -98.750; -661.000; -373.000
431.597; -153.225;-1060.000; -848.000
431.721;  -83.275; -276.000; -267.000
431.845; -132.400; -704.000; -472.000
431.969;  -96.025; -304.000; -349.000
432.093;  -98.300; -395.000; -317.000
432.217;  -23.200;   32.000;   82.000
432.341; -102.000; -523.000; -518.000
432.464;  -13.650;   96.000;   40.000
432.588;  117.625; -401.000; -329.000
432.712;   84.100;  -52.000;  -52.000
432.836;   32.300;  213.000;  263.000
432.959;  -12.900; -372.000; -311.000
433.083;   93.750;   11.000;    2.000
433.207;  397.350;  285.000;  930.000
433.330; 5210.475; -391.000; -200.000
433.454; 6884.725; -654.000; -638.000
433.578; 3864.700;  583.000;  278.000
433.701;  746.450; -623.000; -675.000
433.825;  117.475; -292.000; -299.000
433.949;  108.500;   28.000;  -72.000
434.072;    5.325; -410.000; -323.000
434.196;  -27.875; -309.000; -117.000
434.319; 3593.425;25482.000;25124.000
434.443;  687.175; -656.000; -603.000
434.566; 2843.400;  281.000;   62.000
434.690;  522.450; -637.000; -383.000
434.813;   44.825; -251.000; -173.000
434.937;  -78.700; -569.000; -696.000
435.060;  -71.225; -423.000; -332.000
435.184;  178.200; -492.000; -217.000
435.307;  113.325;  159.000;  102.000
435.431;  -24.350;  -40.000;   24.000
435.554;  -99.100; -399.000; -240.000
435.677;  -90.975; -350.000; -258.000
435.801;  -58.900;  -25.000;   49.000
435.924;  -32.600;    1.000;  -67.000
436.048; -142.175;-1019.000; -732.000
436.171;  -73.625; -240.000;  -66.000
436.294;  -35.200; -248.000; -229.000
436.417;  102.375; -963.000; -849.000
436.541;  -88.100; -814.000; -840.000
436.664;  -72.100; -242.000; -316.000
436.787;  -41.475;   13.000;  113.000
436.910; -134.150; -792.000; -422.000
437.034;  -23.825;  142.000;  143.000
437.157;   13.600;  -11.000;    0.000
437.280;  -78.675; -392.000; -292.000
437.403; -120.825; -982.000; -869.000
437.526;  383.900; -903.000; -865.000
437.649; 1712.350; -505.000; -332.000
437.772;  233.125; -692.000; -540.000
437.896;  102.925;  700.000;  544.000
438.019; -118.775; -758.000; -503.000
438.142; -103.275; -596.000; -506.000
438.265;  -51.300; -639.000; -670.000
438.388;  391.200; -520.000; -410.000
438.511;   43.050; -597.000; -394.000
438.634;  -57.800; -247.000; -125.000
438.757; -149.200; -693.000; -619.000
438.880;  -39.575;  -34.000;  -57.000
439.003;  -96.000; -417.000; -437.000
439.126;  -65.050; -287.000; -167.000
439.248;  -92.375;  -98.000; -139.000
439.371;  -41.100;    9.000;  -53.000
439.494;   19.700;  510.000;  439.000
439.617;  -65.350;   65.000;  -88.000
439.740; -178.225; -968.000; -816.000
439.863; -143.175; -755.000; -595.000
439.986; -132.725; -476.000; -431.000
440.108;  -56.650; -161.000; -112.000
440.231; -170.700; -950.000; -836.000
440.354;  -63.075;  -64.000; -150.000
440.477;  -24.400; -566.000; -542.000
440.599;  -27.375; -200.000; -225.000
440.722; -136.825; -709.000; -586.000
440.845;   54.900;  751.000;  928.000
440.968; -117.125; -415.000; -311.000
441.090;  -73.675; -199.000;  -33.000
441.213; -171.925;-1021.000; -825.000
441.336;  -72.700; -159.000;   -5.000
441.458;  -91.800; -549.000; -396.000
441.581;  -95.175; -628.000; -629.000
441.703;  -96.250; -152.000;   13.000
441.826; -114.350; -557.000; -400.000
441.948;  -69.300;   56.000;   51.000
442.071;   23.550;  555.000;  424.000
442.193; -125.050; -531.000; -485.000
442.316;   -2.775;  152.000;   97.000
442.438;   37.525; -233.000;  -10.000
442.561;   52.525;  272.000;  262.000
442.683;  358.175; -809.000; -522.000
442.806;  887.675;   -8.000;   74.000
442.928;   -7.275; -859.000; -604.000
443.051;  -84.400; -577.000; -373.000
443.173;  -98.850; -341.000; -339.000
443.295;  -95.375; -263.000; -371.000
443.418;  -97.350; -321.000;  -29.000
443.540;  -13.950; -106.000;   -4.000
443.662; -131.250; -563.000; -465.000
443.785;  -20.450;  335.000;  199.000
443.907; -118.575; -362.000; -208.000
444.029; -130.325; -767.000; -494.000
444.152; -138.425; -644.000; -554.000
444.274;  -50.350;  -18.000;  -24.000
444.396; -120.050; -461.000; -221.000
444.518; -139.250; -691.000; -454.000
444.640; -118.475; -268.000; -111.000
444.763;  -38.100;  388.000;  249.000
444.885; -132.500; -432.000; -392.000
445.007;  -47.375;   35.000;   86.000
445.129; -120.625; -610.000; -515.000
445.251; -113.425; -372.000; -439.000
445.373; -144.250; -537.000; -386.000
445.495;  -14.000;  242.000;  350.000
445.617;   40.600;  853.000;  753.000
445.739;  -66.375; -215.000;  -97.000
445.861;  -44.125; -245.000; -112.000
445.984;  -41.050; -267.000; -101.000
446.105;  121.350; -418.000; -251.000
446.227;  465.350; -176.000;  -19.000
446.349;  -25.475; -358.000; -249.000
446.471; -119.550; -615.000; -448.000
446.593;  -72.725; -316.000;   19.000
446.715;  -28.675;  -67.000;   41.000
446.837;   43.775;  697.000;  832.000
446.959; -109.975; -457.000; -478.000
447.081; -136.325; -628.000; -518.000
447.203;   51.475;  862.000;  834.000
447.325;  -98.825; -270.000;   42.000
447.446;  -20.800;  286.000;  530.000
447.568; -155.850; -921.000; -803.000
447.690;  -90.150; -236.000; -245.000
447.812; -157.025; -798.000; -519.000
447.933;  -36.975;  155.000;  127.000
448.055;  -78.375; -306.000; -261.000
448.177;   96.725;   31.000;   79.000
448.299;   24.875; -935.000; -727.000
448.420;   10.725;  -25.000;  159.000
448.542;  -45.825;   -3.000;   33.000
448.664;  -21.550;  109.000;  322.000
448.785;  -51.025;  265.000;   83.000
448.907; -100.825; -614.000; -353.000
449.028;  -57.875; -771.000; -471.000
449.150;   33.150;  492.000;  589.000
449.272; -190.225;-1044.000; -913.000
449.393;   17.550;  612.000;  694.000
449.515; -156.675; -634.000; -581.000
449.636;  -69.300; -264.000; -155.000
449.758;   60.950;  763.000;  622.000
449.879;  -96.450; -498.000; -396.000
450.001;  -86.750; -149.000;  -49.000
450.122;  -47.725;  -95.000;  162.000
450.244;  -36.325;   37.000;  364.000
450.365;  -97.075; -495.000; -301.000
450.486;  -36.775;   80.000;  268.000
450.608;   -3.325;  393.000;  326.000
450.729;   70.025;  578.000;  645.000
450.850;    9.350; -574.000; -466.000
450.972;  772.500; -552.000; -389.000
451.093; 5297.950;  190.000;  588.000
451.214; 2477.350; -516.000; -337.000
451.336;  456.275;  773.000;  579.000
451.457;   68.600;  264.000;  393.000
451.578;  -41.750; -118.000;  -74.000
451.699; -121.725; -546.000; -540.000
451.821;  -71.075; -284.000;  -50.000
451.942;  -15.500;  278.000;  285.000
452.063;   13.225;  228.000;  419.000
452.184;  555.625;  -54.000;  -49.000
452.305; 1197.875;  103.000;  170.000
452.427;  155.200; -549.000; -301.000
452.548;  -24.825;   23.000;   79.000
452.669;  -62.200; -257.000;  -89.000
452.790;  -55.525;    3.000;  -18.000
452.911;   -9.075;  195.000;  259.000
453.032;  -84.575; -289.000;  -60.000
453.153;  -69.150;  -29.000;   81.000
453.274;   47.000;  737.000;  868.000
453.395;  -55.800;  -51.000;  175.000
453.516;  115.275; 1317.000; 1388.000
453.637;  -79.225; -205.000; -150.000
453.758;  -63.375;   15.000;   69.000
453.879; -134.600; -462.000; -250.000
454.000;   54.175; 1086.000;  948.000
454.121; -126.000; -554.000; -326.000
454.242; -122.700; -599.000; -383.000
454.362;  -67.200;  -99.000;  114.000
454.483;  -51.275; -309.000; -229.000
454.604;   39.300;  512.000;  580.000
454.725; -140.750; -627.000; -555.000
454.846; -119.500; -474.000; -406.000
454.967;  -25.925;  230.000;  539.000
455.087;  -60.725;  179.000;  153.000
455.208;   16.050;  554.000;  856.000
455.329;  -74.425;  -22.000;   82.000
455.450;   22.225;  473.000;  633.000
455.570;  -73.350; -234.000; -211.000
455.691;  -47.825;  201.000;  407.000
455.812; -112.575; -270.000;  -92.000
455.932;  -70.925;  107.000;  -97.000
456.053;  -73.575;   36.000;   24.000
456.173; -126.025; -433.000; -355.000
456.294; -135.775; -476.000; -303.000
456.415;  -63.225;  -73.000;   70.000
456.535;  -47.275;  297.000;  273.000
456.656;  -65.250;  132.000;  240.000
456.776;  -72.875;    3.000;  298.000
456.897;  -13.550;  308.000;  513.000
457.017;  -90.025; -153.000;   -3.000
457.138; -128.475; -402.000; -249.000
457.258;  -36.800;  263.000;  224.000
457.379;  -27.050;  509.000;  521.000
457.499;  -30.475;  443.000;  432.000
457.620; -134.425; -407.000; -231.000
457.740; -102.425; -132.000;  -11.000
457.860;  -75.100;   87.000;   44.000
457.981;  -50.950;  132.000;  124.000
458.101;  -80.600;  -89.000;   40.000
458.221;  -22.100;  336.000;  402.000
458.342;  -72.550;   -4.000;  -37.000
458.462;   24.400;  617.000;  352.000
458.582;  -46.125; -302.000; -294.000
458.703;   29.450;  303.000;  154.000
458.823;  -16.650;   22.000;  163.000
458.943;    4.150;  341.000;  467.000
459.063;   -7.350; 1124.000;  192.000
459.183;  -27.200;  328.000;  313.000
459.304;    4.325;  315.000;  517.000
459.424;  -68.900; -246.000;  -89.000
459.544;  329.675;  388.000;  764.000
459.664;  893.975;  499.000;  506.000
459.784;  342.450; 1004.000; 1175.000
459.904;   34.000;  867.000;  744.000
460.024;   39.925;  867.000;  684.000
460.144;    9.750;  449.000;  554.000
460.264;   -9.325;  515.000;  327.000
460.385; -101.275; -145.000; -119.000
460.505;   31.175;  905.000;  858.000
460.625;  -95.825;  -17.000;  -68.000
460.745;  -26.975;  396.000;  541.000
460.864;  -60.650;  153.000;  469.000
460.984;    2.250;  499.000;  573.000
461.104;  113.150; 1656.000; 1775.000
461.224;   20.425;  657.000;  650.000
461.344;  -35.900;  431.000;  360.000
461.464;  -40.450;  258.000;  513.000
461.584;  -37.975;  283.000;  466.000
461.704;  -58.100;   58.000;  108.000
461.824;  -75.450;  238.000;  259.000
461.943;  -50.925;  191.000;  130.000
462.063;  -75.350;    2.000;  324.000
462.183;    8.775;  639.000;  717.000
462.303;   76.800; 1678.000; 1230.000
462.422;   22.200;  781.000;  840.000
462.542;  -52.525;  271.000;  391.000
462.662;   34.100;  353.000;  380.000
462.782;  230.900;  833.000;  572.000
462.901;  497.275;  545.000;  717.000
463.021;  295.200; 1702.000; 1638.000
463.141;   -6.975;  337.000;  770.000
463.260;  -35.150;  614.000;  474.000
463.380;    5.150;  902.000;  884.000
463.499;  -53.725;  342.000;  332.000
463.619;  -44.875;  581.000;  559.000
463.738;   99.875; 1644.000;  903.000
463.858;  -16.775;  657.000;  811.000
463.978;  -30.400;  542.000;  396.000
464.097;   51.600;  921.000; 1114.000
464.217;  107.900; 1196.000; 1143.000
464.336;  106.850; 1068.000; 1130.000
464.455;  -47.550;  328.000;  659.000
464.575;   20.450;  597.000;  602.000
464.694;  143.100; 1204.000; 1179.000
464.814;  131.575; 1190.000; 1138.000
464.933;   50.175; 1095.000; 1027.000
465.052;   93.350; 1412.000; 1054.000
465.172;   87.000;  922.000;  799.000
465.291;  117.700; 1376.000; 1320.000
465.410;   -1.350;  462.000;  735.000
465.530;   83.600; 1355.000; 1310.000
465.649;   39.800; 1209.000; 1273.000
465.768;  129.025; 1673.000; 1508.000
465.888;   24.725;  941.000; 1174.000
466.007;   80.750; 1335.000; 1440.000
466.126;  -17.650;  721.000;  641.000
466.245;   44.625; 1176.000; 1187.000
466.364;   -2.325;  950.000; 1060.000
466.484;   36.000; 1024.000; 1213.000
466.603;   20.625; 1101.000; 1222.000
466.722;  103.725; 1490.000; 1769.000
466.841;   58.975; 1151.000; 1401.000
466.960;   28.000; 1069.000;  972.000
467.079;  154.200; 1971.000; 1786.000
467.198;   45.200; 1238.000; 1181.000
467.317;   73.400; 1768.000; 1162.000
467.436;   57.075; 1709.000; 1261.000
467.555;  118.725; 1796.000; 1746.000
467.674;   52.850; 1227.000; 1329.000
467.793;   46.275; 1376.000; 1374.000
467.912;   77.075; 1658.000; 1539.000
468.031;  126.550; 2038.000; 1930.000
468.150;  130.300; 1842.000; 1837.000
468.269;  187.900; 2313.000; 2090.000
468.388;  184.275; 2168.000; 2339.000
468.507;  247.975; 2884.000; 2903.000
468.626;  267.950; 2555.000; 2541.000
468.744;  135.875; 2018.000; 2174.000
468.863;  200.950; 2312.000; 2523.000
468.982;   85.275; 1503.000; 1555.000
469.101;  197.800; 2788.000; 2692.000
469.220;  142.900; 2333.000; 2176.000
469.338;  236.350; 2935.000; 3051.000
469.457;  193.125; 2719.000; 2545.000
469.576;  334.525; 3953.000; 3784.000
469.695;  244.075; 2877.000; 3066.000
469.813;  410.575; 4148.000; 4192.000
469.932;  403.100; 4255.000; 4485.000
470.051;  429.775; 4075.000; 4161.000
470.169;  853.025; 4470.000; 4338.000
470.288; 1541.400; 4700.000; 4809.000
470.406;  916.900; 5059.000; 5194.000
470.525;  648.800; 6101.000; 5787.000
470.644;  645.900; 6847.000; 6794.000
470.762;  809.475; 8397.000; 7873.000
470.881;  899.175; 8651.000; 8464.000
470.999; 1040.175; 9685.000; 9151.000
471.118; 1106.725;11174.000;10711.000

