
Integration time [ms]: 100.000
Averaging Nr. [scans]: 40
Smoothing Nr. [pixels]: 0
Data measured with spectrometer [name]: 2101012U2
Wave   ;Sample   ;Dark     ;Reference
[nm]   ;[counts] ;[counts] ;[counts] 

197.733;   51.525;  516.000;  404.000
197.879;  -85.675; -610.000; -634.000
198.025;  -43.575; -475.000; -420.000
198.171;  -72.000; -602.000; -612.000
198.317;  -28.625; -401.000; -316.000
198.463;  -64.950; -655.000; -404.000
198.609;   21.650;  181.000; -137.000
198.755;  -76.675; -644.000; -410.000
198.901;  -56.825; -505.000; -424.000
199.047;  -53.900; -615.000; -488.000
199.193;  -29.700; -230.000; -468.000
199.339;  -40.275; -222.000; -369.000
199.485;   30.350;  330.000;  271.000
199.631;   21.450;  227.000;  310.000
199.777;  -56.775; -466.000; -398.000
199.923;  -59.700; -610.000; -424.000
200.069;   11.175; -141.000;  -58.000
200.215;   52.450;  128.000;  453.000
200.361;   39.450;  243.000;  477.000
200.507;  -63.025; -600.000; -373.000
200.653;  -10.225; -371.000; -194.000
200.798;  -38.600; -215.000; -125.000
200.944;    3.825; -146.000;  -41.000
201.090;   34.575;   61.000;  222.000
201.236;    1.300; -116.000; -158.000
201.382;  105.775;  874.000;  903.000
201.528;    1.075;  -58.000;  -48.000
201.674;  -51.725; -386.000; -293.000
201.819;  -56.025; -540.000; -439.000
201.965;  -82.100; -699.000; -447.000
202.111;  -18.450; -273.000; -226.000
202.257;  -42.150; -250.000; -238.000
202.402;    3.200;   13.000;  -36.000
202.548;  -38.650; -169.000; -116.000
202.694;   81.475;  410.000; -183.000
202.840;  -70.400; -603.000; -531.000
202.985;  -65.825; -681.000; -639.000
203.131;  -99.450; -832.000; -666.000
203.277;  -19.600; -199.000; -262.000
203.423;  -58.225; -434.000; -520.000
203.568;  -32.225; -462.000; -237.000
203.714;  -66.250; -535.000; -542.000
203.860;  -71.550; -682.000; -641.000
204.005;   13.450;  112.000;  167.000
204.151;   72.875;  561.000;  556.000
204.296;  -54.900; -354.000; -221.000
204.442;  -57.975; -600.000; -547.000
204.588;  -71.050; -592.000; -579.000
204.733;   -1.625;  178.000;  168.000
204.879; -125.525;-1018.000; -822.000
205.025;   22.275;  -99.000;  126.000
205.170;   -1.575;  -17.000;   94.000
205.316;   79.150;  438.000;  661.000
205.461;  -78.225; -698.000; -554.000
205.607;   75.275;  609.000;  665.000
205.752;  -87.750; -626.000; -551.000
205.898;  -42.500; -501.000; -391.000
206.043;  -56.850; -578.000; -506.000
206.189;  -19.450; -243.000; -285.000
206.334;   64.275;  554.000;  606.000
206.480;   80.775;  409.000;  239.000
206.625;  -81.750; -529.000; -552.000
206.771;  -34.750; -451.000; -373.000
206.916;  -51.100; -210.000; -537.000
207.062;  -57.500; -545.000; -591.000
207.207;  -65.725; -546.000; -443.000
207.353;   57.300;  185.000;  460.000
207.498;   18.300;  196.000;   85.000
207.643;  -61.750; -501.000; -370.000
207.789; -121.125;-1069.000; -910.000
207.934;  -77.750; -665.000; -713.000
208.080;  -25.000; -154.000;   66.000
208.225;    0.500;  -22.000;  -57.000
208.370;  -78.900; -727.000; -619.000
208.516;  -73.750; -741.000; -487.000
208.661;  -35.600; -127.000;  -69.000
208.806;  -23.725; -165.000; -171.000
208.952; -107.650;-1044.000; -731.000
209.097;   64.850;  378.000;  349.000
209.242;  -43.375; -307.000; -382.000
209.387;   78.525;  392.000;  350.000
209.533;  -47.675; -321.000; -350.000
209.678;   73.100;  472.000;  543.000
209.823;  -56.100; -408.000; -310.000
209.969;  -95.850; -860.000; -757.000
210.114; -105.775; -907.000; -719.000
210.259;  -96.675; -939.000; -889.000
210.404;  -10.775; -171.000;  103.000
210.549;   18.625;  108.000;    3.000
210.695;  -19.300;   -3.000;  -95.000
210.840;   35.600;   94.000;   67.000
210.985;  -58.575; -484.000; -303.000
211.130;   71.975;  268.000;  406.000
211.275;    9.650;  207.000;  199.000
211.420;  -36.100; -300.000; -289.000
211.566;  -77.300; -536.000; -489.000
211.711;   16.625;  218.000;  157.000
211.856;  -55.700; -545.000; -519.000
212.001;   -0.300;  151.000;   44.000
212.146;   18.800;  153.000;   49.000
212.291;  -26.575; -210.000; -186.000
212.436;  -33.800; -280.000;   -6.000
212.581;  -80.800; -685.000; -653.000
212.726;  -71.175; -487.000; -538.000
212.871;  -48.950; -552.000; -217.000
213.016; -144.825;-1172.000;-1029.000
213.161;   54.550;  406.000;  291.000
213.306;  -76.975; -435.000; -577.000
213.451;  -83.600; -778.000; -689.000
213.596;  -42.325; -455.000; -347.000
213.741;  -59.125; -448.000; -538.000
213.886;  -84.375; -498.000; -517.000
214.031;   -8.850; -294.000; -124.000
214.176;  -55.350; -408.000; -341.000
214.321;  -40.250; -296.000; -157.000
214.466;  -13.550; -163.000;  -43.000
214.611;   -1.600;  -61.000;  -10.000
214.756; -114.625; -948.000; -858.000
214.901;  -26.000; -388.000; -226.000
215.046; -113.400; -797.000; -825.000
215.191;   16.975;  128.000;   35.000
215.336;  -25.425; -157.000;  -19.000
215.480;  -57.100; -684.000; -505.000
215.625;  -25.100; -175.000;  -19.000
215.770;  -71.675; -757.000; -662.000
215.915;  -12.700;   -5.000;  -97.000
216.060;    3.275; -113.000;  -21.000
216.205; -112.325; -731.000; -779.000
216.349;  -66.250; -470.000; -533.000
216.494; -131.975; -939.000; -867.000
216.639; -111.650; -823.000; -888.000
216.784;  -77.875; -577.000; -525.000
216.929;   48.325;  392.000;  281.000
217.073;   -9.825; -244.000;  -31.000
217.218;    9.000;   78.000;  -47.000
217.363;  -87.575; -656.000; -618.000
217.507;  -79.250; -623.000; -588.000
217.652; -116.950; -845.000; -874.000
217.797;  -95.875; -708.000; -659.000
217.942; -105.875; -856.000; -720.000
218.086;   81.075;  608.000;  539.000
218.231;  -22.050; -174.000;  -26.000
218.376;  -23.725; -337.000; -229.000
218.520;  -14.975;  -41.000;   96.000
218.665;  -36.775; -338.000; -204.000
218.810;  -48.225; -275.000; -233.000
218.954;   12.575;  201.000;   35.000
219.099; -100.250; -713.000; -963.000
219.243;  -71.500; -589.000; -554.000
219.388;  -19.050; -264.000; -136.000
219.532;   -3.625; -116.000; -116.000
219.677;  -74.750; -564.000; -521.000
219.822;   13.100;   33.000;   89.000
219.966;   -2.575;   17.000;  -99.000
220.111;  -37.175; -328.000;  -40.000
220.255;  -93.925; -797.000; -750.000
220.400;  -15.800; -180.000; -146.000
220.544;  -70.900; -516.000; -450.000
220.689;  -50.200; -422.000; -451.000
220.833;  -24.050; -123.000;  -58.000
220.978;  -45.925; -393.000; -563.000
221.122;   24.725;  319.000;  307.000
221.267;  -98.550; -906.000; -837.000
221.411;  -74.825; -478.000; -394.000
221.555;   -7.225; -104.000;  -23.000
221.700;  -57.450; -329.000; -222.000
221.844;   35.050;  255.000;  272.000
221.989;  -44.150; -328.000; -311.000
222.133;  -29.125; -289.000; -307.000
222.277;   -6.075;    5.000;   78.000
222.422;   19.700;  227.000;  113.000
222.566;  -41.575; -381.000; -214.000
222.711;  -42.750; -414.000; -479.000
222.855;  -76.300; -643.000; -586.000
222.999;  -85.275; -642.000; -717.000
223.144;  -30.050; -195.000; -194.000
223.288;   56.850;  423.000;  251.000
223.432;   25.175;  184.000;  230.000
223.576;   25.150;  152.000;  -21.000
223.721;   31.625;  364.000;  273.000
223.865;  -52.950; -472.000; -475.000
224.009;  187.300; 1673.000; 1631.000
224.153;  -77.600; -660.000; -671.000
224.298;  -74.175; -531.000; -489.000
224.442;   -6.825;  -74.000;  -33.000
224.586;   -2.500; -169.000; -106.000
224.730;  -83.575; -858.000; -670.000
224.875;  -98.350; -739.000; -688.000
225.019;   17.950;  102.000;  188.000
225.163;   47.825;  208.000;  341.000
225.307;    3.800;   97.000;  -91.000
225.451;   38.325;  360.000;  481.000
225.595;   39.125;  264.000;  176.000
225.739;  -25.800; -170.000;  -94.000
225.884;   10.400;   86.000;    5.000
226.028;  -88.150; -760.000; -626.000
226.172;  -34.925; -260.000; -273.000
226.316; -114.550; -941.000; -902.000
226.460;  -66.625; -645.000; -493.000
226.604;  -57.950; -406.000; -400.000
226.748;  -83.125; -836.000; -733.000
226.892;  -37.675; -227.000; -181.000
227.036;  -37.900; -537.000; -447.000
227.180;  -59.600; -551.000; -375.000
227.324;  -65.150; -561.000; -580.000
227.468; -104.675; -819.000; -717.000
227.612;    4.900;  242.000;  -28.000
227.756; -105.000; -845.000; -698.000
227.900;   53.225;  342.000;  441.000
228.044;  -60.225; -509.000; -290.000
228.188;   48.625;  448.000;  568.000
228.332;  -82.100; -546.000; -472.000
228.476;  -15.475; -223.000; -149.000
228.620;  -51.825; -210.000; -150.000
228.764;   67.675;  431.000;  349.000
228.908;  -28.800; -155.000;   30.000
229.052;  -50.000; -615.000; -528.000
229.195;   -8.875; -172.000;   13.000
229.339;  -31.300; -235.000; -305.000
229.483;  -33.550;    5.000; -162.000
229.627;   -6.400; -156.000;  139.000
229.771;  -50.625; -218.000; -294.000
229.915;    6.550;  230.000;   79.000
230.059;  -96.800; -648.000; -663.000
230.202;  -45.025; -370.000; -317.000
230.346;  -10.875; -107.000;  107.000
230.490;  -57.250; -489.000; -521.000
230.634; -102.375; -736.000; -553.000
230.777;   75.525;  478.000;  509.000
230.921;  -68.700; -450.000; -359.000
231.065;  -24.525; -246.000; -286.000
231.209;   27.075;  261.000;  265.000
231.352;   14.250;   54.000;   40.000
231.496;    8.675;  568.000;  188.000
231.640;  -63.425; -693.000; -621.000
231.783;   46.150;  546.000;  525.000
231.927;  -42.700; -294.000; -365.000
232.071; -118.475; -962.000; -736.000
232.214;  -94.300; -980.000; -764.000
232.358;  -97.600; -683.000; -599.000
232.502;   10.775;  -19.000;    7.000
232.645; -141.300;-1090.000; -927.000
232.789;  -19.250; -257.000; -218.000
232.933;  -51.575; -407.000; -224.000
233.076; -111.825;-1038.000; -897.000
233.220; -107.550; -752.000; -777.000
233.363;  -64.225; -669.000; -477.000
233.507;   50.625;  371.000;  129.000
233.650;  -84.075; -764.000; -834.000
233.794;   39.650;  438.000;  461.000
233.938;  -67.225; -530.000; -362.000
234.081;  -16.050;  -93.000;   31.000
234.225;  -51.375; -631.000; -539.000
234.368; -119.400; -773.000; -723.000
234.512;  -43.025; -385.000; -299.000
234.655;  -78.100; -582.000; -555.000
234.798;  -56.775; -493.000; -466.000
234.942; -122.800; -884.000;-1002.000
235.085;  -56.700; -651.000; -443.000
235.229;  -76.750; -405.000; -410.000
235.372;  -52.075; -247.000; -191.000
235.516;  -46.900; -397.000; -321.000
235.659;   21.325;   92.000;  121.000
235.802;  -20.800;  -38.000;  -22.000
235.946;   32.075;  335.000;  215.000
236.089;   14.950;  126.000;  250.000
236.233;   52.500;  275.000;  298.000
236.376;  -65.250; -235.000; -378.000
236.519;  -35.175; -297.000; -319.000
236.663;  -33.250; -215.000; -117.000
236.806; -128.950;-1029.000; -999.000
236.949;   60.525;  543.000;  431.000
237.092;   50.875;  412.000;  391.000
237.236;  -81.525; -589.000; -502.000
237.379;   69.900;  352.000;  428.000
237.522; -113.625; -879.000; -768.000
237.666;  -20.950; -271.000;   18.000
237.809; -119.975; -851.000; -823.000
237.952;   36.000;  469.000;  271.000
238.095;  -69.375; -447.000; -442.000
238.238;   83.525;  688.000;  700.000
238.382;   -9.125;  166.000;  103.000
238.525;  -63.150; -598.000; -511.000
238.668; -131.050;-1060.000; -985.000
238.811;  -71.750; -638.000; -643.000
238.954;  -62.725; -483.000; -334.000
239.097;   89.700;  617.000;  664.000
239.241;   25.325;  394.000;  326.000
239.384;  -37.475; -254.000; -214.000
239.527;  -57.475; -424.000; -224.000
239.670; -141.150; -994.000;-1091.000
239.813; -117.400; -696.000; -658.000
239.956;   78.675;  579.000;  473.000
240.099; -106.600; -778.000; -725.000
240.242;   58.800;  428.000;  432.000
240.385;   34.725;  466.000;  450.000
240.528;  -71.850; -706.000; -473.000
240.671;    4.100;  189.000;  134.000
240.814;  -34.600; -441.000; -158.000
240.957;  -98.925; -767.000; -578.000
241.100;  -80.050; -779.000; -755.000
241.243; -134.575;-1234.000; -893.000
241.386;  -62.575; -508.000; -379.000
241.529;  -88.175; -735.000; -547.000
241.672;  -60.400; -566.000; -495.000
241.815; -115.925; -832.000; -808.000
241.958;  -29.700; -125.000; -182.000
242.101;  -70.925; -545.000; -390.000
242.244;  -35.875; -270.000; -325.000
242.387;  -57.475; -304.000; -246.000
242.530;   55.575;  470.000;  134.000
242.673;  -42.575; -381.000; -309.000
242.815; -106.400; -925.000; -899.000
242.958;  -66.875; -482.000; -381.000
243.101;   13.225;  132.000;  187.000
243.244;  -72.900; -564.000; -521.000
243.387;  -47.175; -313.000; -316.000
243.530;  -96.100; -657.000; -674.000
243.672;   11.225;   43.000;  -92.000
243.815;  -38.600; -355.000; -283.000
243.958;   -0.100;   98.000;  -26.000
244.101;   -8.225;   59.000;  -16.000
244.243;    3.675;  -47.000;  101.000
244.386; -110.475; -761.000; -630.000
244.529;  -22.725; -132.000; -139.000
244.672; -139.475;-1154.000; -951.000
244.814;  -96.050; -621.000; -794.000
244.957;  -36.950; -380.000; -304.000
245.100;  -66.550; -489.000; -489.000
245.242;  -66.075; -387.000; -374.000
245.385;   -2.875;  -59.000;  -39.000
245.528; -110.175; -871.000; -705.000
245.670;   85.425;  612.000;  634.000
245.813;  -82.000; -599.000; -547.000
245.956;  -32.000; -324.000; -275.000
246.098;  -72.850; -508.000; -650.000
246.241;  -14.225;  194.000;   48.000
246.383;  -25.400; -119.000;  -73.000
246.526;  -74.625; -454.000; -525.000
246.669; -109.425; -889.000; -780.000
246.811;   11.500;  172.000;   -1.000
246.954;  -61.575; -512.000; -426.000
247.096;  -30.275;  -84.000;   -6.000
247.239;  -68.800; -482.000; -445.000
247.381;  -78.250; -647.000; -488.000
247.524;   80.175;  645.000;  679.000
247.666;  -11.125;   58.000;   11.000
247.809; -112.050; -887.000; -691.000
247.951;   -9.450;  -75.000;  138.000
248.094;   20.825;  432.000;  308.000
248.236; -149.800;-1262.000;-1238.000
248.378;  -14.425; -356.000;  -81.000
248.521;  -45.500; -334.000; -337.000
248.663;  -52.025; -236.000; -267.000
248.806;  -24.225; -300.000; -266.000
248.948;  -92.625; -886.000; -763.000
249.090;  -49.600; -428.000; -398.000
249.233;  -58.325; -344.000; -381.000
249.375;  -64.100; -474.000; -451.000
249.518;  -39.400;  -83.000; -133.000
249.660;  -20.650; -103.000;    3.000
249.802; -165.550;-1303.000;-1189.000
249.945;  -76.175; -612.000; -540.000
250.087; -113.050; -834.000; -768.000
250.229;  -49.225; -362.000; -480.000
250.371;  -68.250; -494.000; -439.000
250.514;  -43.200; -310.000; -244.000
250.656;   -8.550;   69.000;  102.000
250.798; -117.200; -849.000; -800.000
250.940;  -70.650; -322.000; -322.000
251.083;  -34.100; -335.000; -111.000
251.225;   57.500;  338.000;  310.000
251.367;  -41.975; -274.000; -373.000
251.509;  -45.075; -265.000; -210.000
251.651;  -87.850; -731.000; -671.000
251.794;   40.775;  538.000;  632.000
251.936; -115.325; -821.000; -747.000
252.078;  -75.475; -540.000; -461.000
252.220;  -68.300; -645.000; -477.000
252.362;   60.200;  344.000;  462.000
252.504;  -73.350; -677.000; -584.000
252.646; -104.300; -875.000; -722.000
252.788;   -4.350;   14.000; -128.000
252.931;  -38.750; -257.000; -253.000
253.073;  -32.350; -376.000; -317.000
253.215;   -7.400;  141.000;  122.000
253.357;   -7.000;   82.000; -153.000
253.499;  -56.275; -374.000; -234.000
253.641;  -86.225; -749.000; -594.000
253.783;  -88.625; -609.000; -527.000
253.925;  -77.625; -586.000; -591.000
254.067; -105.300; -744.000; -667.000
254.209;  -31.425; -391.000; -259.000
254.351; -135.050; -865.000; -883.000
254.493;  -63.450; -441.000; -417.000
254.635; -127.175; -936.000; -818.000
254.777;  -77.225; -752.000; -687.000
254.918;  -51.650; -512.000; -430.000
255.060;  -68.875; -551.000; -395.000
255.202;  -65.725; -473.000; -261.000
255.344;  -80.950; -658.000; -455.000
255.486;  -87.175; -471.000; -406.000
255.628; -103.250; -780.000; -781.000
255.770;  -86.400; -676.000; -536.000
255.912;  -51.175; -559.000; -468.000
256.053;  -83.400; -730.000; -508.000
256.195;  142.525; 1008.000;  903.000
256.337; -101.000; -861.000; -595.000
256.479;   47.975;  532.000;  416.000
256.621;  -42.925; -394.000; -212.000
256.762;  -94.900; -789.000; -742.000
256.904;   54.475;  485.000;  487.000
257.046;  -47.575; -381.000; -271.000
257.188;  -53.075; -351.000; -264.000
257.329;  -65.025; -525.000; -464.000
257.471; -112.925; -939.000; -807.000
257.613;  -63.975; -584.000; -498.000
257.755; -150.100;-1073.000; -982.000
257.896;   28.450;  286.000;  392.000
258.038;  -82.550; -403.000; -352.000
258.180;  -39.275; -354.000; -279.000
258.321;  -84.050; -581.000; -457.000
258.463;   -5.225;  -71.000;  133.000
258.605;  -79.500; -562.000; -570.000
258.746;  -95.600; -886.000; -772.000
258.888; -138.800;-1026.000;-1020.000
259.029;   22.175;  121.000;   -8.000
259.171; -109.600; -614.000; -550.000
259.313;   -5.950;  -49.000;  -47.000
259.454;  -72.325; -536.000; -414.000
259.596;  -51.650; -483.000; -390.000
259.737;  -76.200; -590.000; -474.000
259.879;   41.425;  217.000;  311.000
260.020;   74.800;  901.000;  636.000
260.162;  -34.875; -146.000; -253.000
260.303; -101.825; -768.000; -687.000
260.445;  -59.125; -609.000; -613.000
260.586;   22.050;  392.000;  157.000
260.728;  -35.125; -360.000; -248.000
260.869;  -78.175; -350.000; -343.000
261.011;   80.050;  706.000;  537.000
261.152;  -64.225; -479.000; -319.000
261.293;  -80.300; -576.000; -595.000
261.435;  -24.700; -219.000; -184.000
261.576;  -39.600; -455.000; -325.000
261.718;   40.275;  420.000;  470.000
261.859; -113.175; -940.000; -949.000
262.000; -120.575; -951.000;-1016.000
262.142;  -18.150;  -52.000;  -60.000
262.283; -110.650; -808.000; -691.000
262.424;  -81.125; -666.000; -625.000
262.566; -153.000;-1161.000; -983.000
262.707; -106.825; -840.000; -830.000
262.848; -118.400; -769.000; -726.000
262.990;  -35.375; -362.000; -345.000
263.131;   68.200;  650.000;  681.000
263.272;    7.350;  -61.000;  -41.000
263.413;  -85.800; -589.000; -561.000
263.555;  -66.500; -669.000; -143.000
263.696;  -86.525; -550.000; -641.000
263.837;  -43.675; -449.000; -551.000
263.978;   -6.000;   -5.000;  -77.000
264.119;  -33.975; -283.000; -264.000
264.261; -121.250; -847.000; -630.000
264.402;   -0.950;   33.000;   40.000
264.543;  -71.000; -509.000; -524.000
264.684;   -9.700;   61.000;  -50.000
264.825;  -92.725; -816.000; -538.000
264.966;    2.050;  -84.000;  -67.000
265.107; -114.075; -646.000; -670.000
265.248; -118.700; -825.000; -812.000
265.390;  -14.375;  152.000;   -9.000
265.531;  -20.775; -238.000; -107.000
265.672;  -81.800; -557.000; -630.000
265.813;   67.250;  563.000;  439.000
265.954; -134.075; -959.000; -940.000
266.095;  -11.350; -372.000; -322.000
266.236;  -87.525; -686.000; -548.000
266.377;  -45.375; -243.000; -297.000
266.518;  -68.775; -619.000; -547.000
266.659;   31.425;  170.000;  268.000
266.800;    8.675;   83.000;   85.000
266.941;  -73.550; -487.000; -478.000
267.082;   13.900;  354.000;   99.000
267.223;  -44.225; -344.000; -273.000
267.364; -108.325; -892.000; -686.000
267.504;    4.125;    3.000;  135.000
267.645;   -1.475;  160.000;   67.000
267.786;  -21.325; -147.000;  -86.000
267.927;  -87.225; -473.000; -379.000
268.068;  -18.075; -186.000;  -61.000
268.209;  -48.275; -175.000; -413.000
268.350;  -67.750; -388.000; -532.000
268.490;  -96.125; -648.000; -521.000
268.631;   34.475;  127.000;  225.000
268.772; -106.500; -874.000; -647.000
268.913;  -39.250; -328.000; -476.000
269.054;  -37.150; -117.000;   12.000
269.194;  -42.725; -418.000; -402.000
269.335; -145.925;-1137.000;-1074.000
269.476;   -7.525;   33.000;  -35.000
269.617;  -47.825; -347.000; -392.000
269.757;  -79.225; -713.000; -646.000
269.898; -101.250; -856.000; -613.000
270.039;  -52.550; -415.000; -405.000
270.180; -140.175; -952.000; -816.000
270.320;  -20.175; -190.000; -250.000
270.461;  -48.775; -277.000; -249.000
270.602;  -12.250; -186.000; -156.000
270.742; -114.950; -868.000; -943.000
270.883;  -56.425; -442.000; -390.000
271.023;  -58.450; -358.000; -357.000
271.164;  -70.775; -607.000; -528.000
271.305;  -94.350; -666.000; -654.000
271.445;  -81.200; -722.000; -683.000
271.586;  -59.750; -462.000; -283.000
271.726;  -46.725; -397.000; -322.000
271.867;  -69.400; -594.000; -534.000
272.008;   67.250; -473.000; -285.000
272.148;   86.475;  462.000;  468.000
272.289;  -12.100; -113.000; -181.000
272.429;   -0.725;   19.000;  185.000
272.570;  -76.200; -633.000; -737.000
272.710; -102.950; -825.000; -775.000
272.851;  -25.975;  113.000; -130.000
272.991; -159.125;-1173.000;-1077.000
273.131;  -64.150; -419.000; -459.000
273.272;  -97.750; -683.000; -723.000
273.412;   -6.250; -143.000;  -31.000
273.553;  -70.675; -488.000; -507.000
273.693;  121.750;  913.000;  858.000
273.834; -105.575; -894.000; -692.000
273.974;  -80.225; -664.000; -615.000
274.114; -102.750; -772.000; -560.000
274.255;   51.350;  414.000;  373.000
274.395;  -24.675; -180.000; -125.000
274.535;   30.575;  199.000;  350.000
274.676;   25.275;  225.000;   94.000
274.816;    3.200;  110.000;   34.000
274.956;  -86.250; -624.000; -690.000
275.097; -100.775;-1014.000; -922.000
275.237; -118.700; -913.000; -803.000
275.377;  -98.425; -778.000; -689.000
275.517; -134.275; -878.000; -937.000
275.658;  -65.400; -590.000; -555.000
275.798;  -67.050; -606.000; -413.000
275.938;   24.925;  215.000;  323.000
276.078;  -82.725; -626.000; -395.000
276.218;   13.375;   99.000;  104.000
276.359; -132.025;-1026.000;-1024.000
276.499;  -67.500; -605.000; -446.000
276.639;  -40.125; -305.000; -151.000
276.779;  -45.675; -475.000; -357.000
276.919; -102.825; -783.000; -624.000
277.059;  -30.975; -261.000; -212.000
277.199;  -58.500; -357.000; -259.000
277.340;   45.550;  287.000;  175.000
277.480; -113.150; -840.000; -693.000
277.620;   27.200;  192.000;   16.000
277.760; -174.075;-1533.000;-1294.000
277.900;    4.250;  113.000;   33.000
278.040;   -1.375;  137.000;  159.000
278.180;   17.925;  270.000;  170.000
278.320;   -8.750;   21.000;   56.000
278.460;  -44.450; -443.000; -469.000
278.600;  -73.250; -708.000; -598.000
278.740;   51.775;  448.000;  224.000
278.880;  -96.075; -768.000; -791.000
279.020;  -21.825; -194.000; -144.000
279.160;  -87.625; -672.000; -595.000
279.300; -100.900; -926.000; -873.000
279.440;  -86.350; -709.000; -622.000
279.579;  -64.500;-1014.000; -929.000
279.719;  -66.650; -410.000; -394.000
279.859;   37.275;   -4.000;   41.000
279.999;   -7.375; -208.000;  101.000
280.139;  -35.975; -435.000; -387.000
280.279;  -94.075; -708.000; -745.000
280.419;  -19.750; -229.000; -147.000
280.559;  -41.075; -259.000; -180.000
280.698;  -78.875; -790.000; -639.000
280.838;  -93.575; -778.000; -800.000
280.978;  -86.375; -846.000; -790.000
281.118; -111.775; -811.000; -704.000
281.257;    1.925;   24.000;    6.000
281.397; -126.600;-1094.000; -960.000
281.537;  -83.150; -599.000; -712.000
281.677;  -23.775; -150.000; -101.000
281.816;  -66.100; -700.000; -630.000
281.956;  -34.475; -193.000; -257.000
282.096;  -54.850; -539.000; -396.000
282.235; -105.300; -672.000; -638.000
282.375;  -11.750; -243.000;  -98.000
282.515;  -83.425; -715.000; -707.000
282.654;   15.200;   29.000;  106.000
282.794;   25.150;  388.000;  244.000
282.934;  -37.800; -530.000; -491.000
283.073; -112.975;-1030.000; -857.000
283.213;  -38.500; -460.000; -467.000
283.353;  -42.050; -408.000; -349.000
283.492;  -21.700; -264.000; -296.000
283.632;  -45.950; -254.000; -168.000
283.771;  -82.325; -859.000; -730.000
283.911;  -46.925; -369.000; -260.000
284.050;  -88.525; -794.000; -748.000
284.190; -155.800;-1229.000;-1096.000
284.329; -122.225;-1055.000; -964.000
284.469;  -95.125; -516.000; -591.000
284.608;  -58.850; -559.000; -598.000
284.748;  -75.450; -614.000; -570.000
284.887;    1.875;  -87.000;  -20.000
285.027; -126.475; -844.000; -892.000
285.166;  -21.600; -192.000; -249.000
285.306;  -12.850; -116.000;  -33.000
285.445;  -35.250; -229.000; -343.000
285.584; -101.925; -630.000; -494.000
285.724;  -29.125; -282.000; -322.000
285.863;  -81.700; -857.000; -507.000
286.002;  -51.950; -366.000; -276.000
286.142; -109.725; -715.000; -622.000
286.281;  -57.675; -525.000; -493.000
286.420;  -82.400; -554.000; -417.000
286.560;   91.950;  653.000;  623.000
286.699; -133.600; -958.000; -912.000
286.838;  -92.850; -590.000; -591.000
286.978;  -89.475; -533.000; -537.000
287.117; -121.450;-1085.000; -950.000
287.256;  -39.225; -228.000; -211.000
287.395;  -55.425; -197.000; -378.000
287.535;  -60.550; -370.000; -298.000
287.674;  -77.225; -509.000; -484.000
287.813;   50.275;  661.000;  533.000
287.952; -109.725;-1010.000; -871.000
288.091; -136.425;-1049.000; -915.000
288.231;    4.975;   13.000;   15.000
288.370; -166.525;-1217.000;-1200.000
288.509;  -73.500; -728.000; -645.000
288.648;  -81.875; -770.000; -548.000
288.787;  -16.650; -243.000;  -87.000
288.926;  -61.350; -454.000; -475.000
289.065;  111.800;  859.000;  672.000
289.204;  -44.800; -377.000; -217.000
289.344;  -81.450; -791.000; -690.000
289.483;   11.600;  416.000;  304.000
289.622;  -32.200; -291.000; -149.000
289.761;  -37.775; -309.000; -166.000
289.900;  -96.725; -785.000; -626.000
290.039;  -16.175;  -12.000;  -95.000
290.178;  -48.325; -274.000; -180.000
290.317;  -76.175; -618.000; -479.000
290.456;  -49.575; -463.000; -451.000
290.595; -123.900; -961.000; -833.000
290.734; -131.275; -904.000; -891.000
290.873;  -71.550; -456.000; -420.000
291.011;  -91.800; -833.000; -843.000
291.150; -104.950; -770.000; -682.000
291.289;  -31.075; -343.000; -110.000
291.428;  -84.450; -599.000; -480.000
291.567;  -54.550; -370.000; -442.000
291.706;  -10.200;  109.000;  154.000
291.845;  -90.950; -597.000; -505.000
291.984; -165.250;-1234.000;-1061.000
292.122;   76.050;  602.000;  582.000
292.261;   45.100;  620.000;  463.000
292.400;    7.275; -144.000;  211.000
292.539; -105.800; -959.000; -813.000
292.678;  -50.075; -325.000; -300.000
292.816; -154.575;-1136.000; -965.000
292.955;  -86.700; -844.000; -684.000
293.094;  -37.225; -173.000; -337.000
293.233;  -54.875; -556.000; -400.000
293.371;  -23.300; -225.000;  -84.000
293.510;  -89.275; -866.000; -780.000
293.649; -120.425; -959.000; -924.000
293.787;  -93.225;-1083.000;-1012.000
293.926;  -18.675; -113.000;  -32.000
294.065;  -43.925; -379.000; -290.000
294.203;   37.225;  298.000;  406.000
294.342;   42.950;   74.000;  156.000
294.481; 5219.500;51180.000; -836.000
294.619;  -26.475; -425.000; -582.000
294.758; -142.275;-1230.000;-1137.000
294.896;   21.825; -125.000;    5.000
295.035; -130.950;-1040.000;-1006.000
295.174; -123.875;-1082.000; -954.000
295.312;  -34.700; -323.000; -203.000
295.451;  -31.350; -307.000; -428.000
295.589;  -59.000; -389.000; -518.000
295.728;    4.350; -292.000; -165.000
295.866;  -24.900;  -36.000;  -51.000
296.005;  -56.375; -584.000; -341.000
296.143;  -79.800; -558.000; -596.000
296.282;  -90.875; -957.000; -881.000
296.420;  -74.700; -657.000; -557.000
296.559;  -74.075; -892.000; -633.000
296.697;  -55.500; -847.000; -665.000
296.835;  -59.200;-1141.000;-1002.000
296.974;   27.700;  -23.000;   39.000
297.112;  -39.725; -443.000; -504.000
297.251;  -82.250; -815.000; -755.000
297.389;    8.700; -576.000; -438.000
297.527;   13.525; -145.000;  -83.000
297.666;  -47.525; -486.000; -438.000
297.804;  -35.725; -404.000; -264.000
297.942;   -3.000; -136.000; -161.000
298.081;   -5.475; -183.000;   63.000
298.219;   20.175;  -17.000;  -19.000
298.357;    2.375; -144.000;  -71.000
298.495;  -64.375; -810.000; -812.000
298.634;   15.075;  245.000;  219.000
298.772;   -5.825; -220.000; -338.000
298.910;  -47.800; -309.000; -182.000
299.048;  -21.950; -130.000; -153.000
299.187;  -41.650; -350.000; -250.000
299.325;   10.600;   52.000;  122.000
299.463;  -24.325; -389.000; -299.000
299.601;   35.500; -327.000; -271.000
299.739; -113.125; -908.000; -883.000
299.877;  -85.275; -791.000; -703.000
300.016; -111.775;-1095.000; -935.000
300.154;   58.450;  -19.000; -161.000
300.292;  -26.250; -428.000; -348.000
300.430;  -25.325; -408.000; -291.000
300.568; -120.850; -940.000; -874.000
300.706;  -52.250; -366.000; -469.000
300.844; -119.075;-1108.000; -979.000
300.982;   81.050;  246.000;  282.000
301.120; -112.950; -965.000; -866.000
301.258;  -84.375; -812.000; -705.000
301.396;    2.175;  104.000;  -41.000
301.534;    2.925; -218.000; -293.000
301.672;  -68.350; -664.000; -521.000
301.810;  -42.775; -613.000; -545.000
301.948;   59.825;   53.000;  149.000
302.086;  230.050; -250.000;  -32.000
302.224;  288.675; -610.000; -585.000
302.362;  -43.575; -558.000; -622.000
302.500;  -83.675; -923.000; -893.000
302.638;   37.375;  128.000;  245.000
302.776;  -44.975; -352.000; -408.000
302.913;   42.825;  447.000;  236.000
303.051;    0.275;  -86.000;  -23.000
303.189;   30.450;   90.000;  118.000
303.327;  -35.525; -341.000; -256.000
303.465;  -81.975; -832.000; -588.000
303.603;  -95.300; -805.000; -604.000
303.740;   54.375;  417.000;  241.000
303.878;  -58.450; -800.000; -759.000
304.016;  -90.825; -915.000; -790.000
304.154; -148.650;-1123.000;-1152.000
304.291;  -53.275; -505.000; -554.000
304.429;   -2.775;  102.000;   74.000
304.567; -117.100; -908.000; -893.000
304.705;  -61.225; -408.000; -515.000
304.842;  -21.425; -616.000; -540.000
304.980;   20.750;  215.000;   35.000
305.118;   -3.675; -367.000; -365.000
305.255; -112.200; -945.000; -927.000
305.393;   53.425;  178.000;  239.000
305.531; -128.225;-1173.000; -956.000
305.668;  -84.775; -663.000; -582.000
305.806;   12.050; -358.000; -439.000
305.943;   -6.925; -629.000; -637.000
306.081;    1.850; -378.000; -267.000
306.219;  -98.550; -863.000; -748.000
306.356;   21.550;  158.000;   27.000
306.494;  122.525;  981.000;  761.000
306.631;   19.550;  -11.000;  -55.000
306.769;   22.825; -613.000; -485.000
306.906;   -4.975; -284.000; -258.000
307.044;  -17.100; -473.000; -488.000
307.181;  -53.075; -410.000; -332.000
307.319;   20.050;  112.000;   87.000
307.456; -154.300;-1191.000;-1153.000
307.594;  -98.425; -980.000; -727.000
307.731;  -16.900; -371.000; -164.000
307.868;    4.725;  -15.000;   20.000
308.006; -114.650; -961.000; -847.000
308.143;  -51.375; -618.000; -330.000
308.281;   80.225;  -37.000; -254.000
308.418;  -36.700; -748.000; -640.000
308.555;  -60.000; -400.000; -250.000
308.693;  -40.400; -577.000; -573.000
308.830;  -69.475; -712.000; -657.000
308.967;    2.875; -215.000;  -95.000
309.105;   -2.925; -507.000; -396.000
309.242;   21.725; -468.000; -367.000
309.379;  103.975; -577.000; -655.000
309.517;  -69.350; -936.000; -948.000
309.654;  -73.800; -910.000; -734.000
309.791;  -55.000; -662.000; -580.000
309.928;  -76.150; -977.000; -914.000
310.065;  164.975;  819.000;  697.000
310.203;  -40.950; -825.000; -850.000
310.340;    2.800; -465.000; -321.000
310.477;  -65.600; -412.000; -516.000
310.614;  -43.925; -383.000; -473.000
310.751;  -38.000; -427.000; -518.000
310.889;    3.700;    1.000;   11.000
311.026; -130.475;-1161.000; -939.000
311.163;  -31.100; -386.000; -380.000
311.300;  -48.700; -512.000; -479.000
311.437;  -34.025; -658.000; -619.000
311.574; -132.825;-1226.000; -985.000
311.711;  -41.500; -595.000; -433.000
311.848;  -18.725; -380.000; -388.000
311.985;   33.250;  270.000;   93.000
312.122; -106.075; -932.000; -762.000
312.259;  -80.925; -941.000; -994.000
312.396;  -49.350; -508.000; -551.000
312.533;  -41.850; -812.000; -790.000
312.670; -103.525;-1070.000; -898.000
312.807;   -0.500; -352.000; -367.000
312.944;  -32.300; -513.000; -611.000
313.081;    9.000; -150.000; -415.000
313.218;  -73.850;-1111.000; -867.000
313.355;   10.275; -531.000; -449.000
313.492;    9.675; -455.000; -292.000
313.629;  154.950;  815.000;  735.000
313.766; -120.850;-1176.000;-1008.000
313.902;   10.175; -186.000;   21.000
314.039;  -23.200; -372.000; -289.000
314.176;   49.225;  286.000;  192.000
314.313;  -64.900; -569.000; -473.000
314.450;  -53.475; -788.000; -684.000
314.587;  -36.425; -468.000; -480.000
314.723;   37.675;  -78.000;  130.000
314.860;   56.850;  318.000;  332.000
314.997;   40.000;  223.000;  142.000
315.134;  -18.975; -385.000; -368.000
315.270;    5.175; -480.000; -496.000
315.407;  -90.250;-1094.000; -967.000
315.544;  -17.750; -657.000; -538.000
315.681;  -43.750; -681.000; -565.000
315.817;   81.075; -133.000; -176.000
315.954;   72.150; -613.000; -392.000
316.091; -101.700;-1045.000;-1023.000
316.227;  -11.550;  -71.000; -179.000
316.364;    8.600;   23.000;    6.000
316.500;  -24.875; -113.000; -300.000
316.637;  -25.925; -181.000; -302.000
316.774;  -87.875; -625.000; -358.000
316.910;  -66.825; -598.000; -629.000
317.047;  -60.900; -487.000; -351.000
317.183;  -40.050; -435.000; -566.000
317.320;   21.425; -367.000; -321.000
317.456;  -28.400; -733.000; -805.000
317.593;  -80.450; -598.000; -641.000
317.729;   -1.850;  168.000;  -67.000
317.866; -174.675;-1434.000;-1285.000
318.002;  -74.300; -708.000; -948.000
318.139;  -95.900; -883.000; -867.000
318.275;  -95.850;-1003.000; -738.000
318.412;  -62.100; -517.000; -336.000
318.548;  -67.900; -751.000; -720.000
318.685;  -85.575; -985.000; -888.000
318.821;  -77.500; -762.000; -735.000
318.957;  -16.650;   34.000;  -23.000
319.094;   27.125;  297.000;  154.000
319.230;  -82.125; -756.000; -742.000
319.367;   22.675; -471.000; -520.000
319.503;  -23.425; -538.000; -436.000
319.639;  -83.950; -877.000; -793.000
319.775;  -86.325; -750.000; -685.000
319.912;  -59.775; -424.000; -519.000
320.048;  -92.625;-1184.000;-1184.000
320.184;   81.650;   59.000;   70.000
320.321;  -52.950; -497.000; -467.000
320.457;   75.025;  475.000;  662.000
320.593;  -73.050; -375.000; -382.000
320.729;  -89.100; -732.000; -734.000
320.866;  -66.275; -577.000; -635.000
321.002;  -90.775; -759.000; -809.000
321.138;  -26.100; -135.000; -211.000
321.274;   20.150; -148.000; -115.000
321.410;  -57.100; -585.000; -353.000
321.546;  -89.375;-1011.000; -911.000
321.683;   30.525;  400.000;  185.000
321.819;  -10.475;  -48.000; -117.000
321.955; -110.650; -743.000; -722.000
322.091;  -50.775; -585.000; -540.000
322.227;  -34.125; -382.000; -202.000
322.363;  -47.650; -320.000; -215.000
322.499;  -54.800; -343.000; -331.000
322.635;  111.400;  636.000;  443.000
322.771;  -10.250; -139.000;   12.000
322.907;   65.575;  129.000;  327.000
323.043;  -44.125; -115.000; -206.000
323.179;  -49.300; -394.000; -363.000
323.315;  -36.125; -401.000; -371.000
323.451;   38.425; -328.000; -236.000
323.587;   49.000;  -60.000;  -77.000
323.723;  -53.825; -682.000; -601.000
323.859;  -11.450; -258.000;  -76.000
323.995;  -53.250; -467.000; -409.000
324.131; -121.350; -967.000; -892.000
324.267;  -28.050; -254.000; -276.000
324.402; -131.825; -960.000; -983.000
324.538;  -26.550; -279.000; -104.000
324.674;    2.575;  164.000;   77.000
324.810;   57.900;  226.000;  308.000
324.946;  -28.975; -810.000; -658.000
325.082;  -61.325; -568.000; -475.000
325.217;  -29.250;  -62.000;   16.000
325.353;  -99.875; -764.000; -659.000
325.489;  -79.525; -540.000; -506.000
325.625;  -66.400; -579.000; -525.000
325.760;   68.300;  517.000;  376.000
325.896;   11.550; -515.000; -702.000
326.032;  -39.275; -403.000; -352.000
326.168;  -54.475; -462.000; -369.000
326.303;  -56.200; -352.000; -461.000
326.439;   -3.525; -336.000; -276.000
326.575;   -8.900; -190.000;  -29.000
326.710;  -16.875; -156.000;  -30.000
326.846;  -11.025;  146.000;  103.000
326.982;  -80.425; -530.000; -548.000
327.117;  -79.475; -481.000; -442.000
327.253;  -77.275; -745.000; -742.000
327.388; -136.825;-1137.000;-1153.000
327.524;  -61.625; -811.000; -578.000
327.659;  -17.425;  -58.000;  -22.000
327.795;    3.950;   69.000;   45.000
327.931;  -78.675; -723.000; -499.000
328.066;  -12.075; -417.000; -276.000
328.202;  -37.400;   12.000; -129.000
328.337;   99.275;  957.000;  713.000
328.473;   43.250;  -12.000;  -74.000
328.608;  -14.075; -256.000; -267.000
328.743; -102.125; -799.000; -664.000
328.879;   18.050;  214.000;  114.000
329.014;  -25.275; -102.000; -122.000
329.150;  -82.550; -358.000; -483.000
329.285;  -62.200; -465.000; -466.000
329.421;  -42.975; -548.000; -246.000
329.556;   -2.525;  -36.000;   85.000
329.691;  -84.000; -633.000; -615.000
329.827;  -61.000; -626.000; -480.000
329.962;  -23.250;  131.000; -301.000
330.097;  -84.600; -673.000; -585.000
330.233;  -31.825; -410.000; -223.000
330.368; -110.900; -839.000; -628.000
330.503;  -17.525;    3.000;   98.000
330.638;  -11.250;  -93.000; -125.000
330.774;  -66.300; -609.000; -530.000
330.909;  -49.850; -434.000; -244.000
331.044;  -93.475; -714.000; -708.000
331.179; -162.100;-1217.000;-1109.000
331.315;   23.075;   77.000;   20.000
331.450;   14.275;  157.000;  285.000
331.585;  -74.750; -805.000; -706.000
331.720;  -94.600; -510.000; -460.000
331.855;    9.525;  -35.000; -102.000
331.990;  390.950;   62.000;  138.000
332.126;  194.700; -110.000;   71.000
332.261;   -8.700; -379.000; -265.000
332.396;   16.575; -135.000; -242.000
332.531;  -61.925;-1074.000;-1031.000
332.666;   91.575; -519.000; -363.000
332.801;  -89.475; -726.000; -807.000
332.936;   -7.950; -192.000; -122.000
333.071; -118.600; -870.000; -817.000
333.206;   17.600;  307.000;  379.000
333.341;   34.300;  344.000;  418.000
333.476;  -73.550; -627.000; -623.000
333.611;  -35.275; -251.000; -173.000
333.746;  -38.925; -381.000; -464.000
333.881; -112.975; -973.000; -935.000
334.016; -117.900; -936.000; -917.000
334.151; -111.200; -746.000; -702.000
334.286;   20.700;  152.000;  186.000
334.421;    1.300; -125.000; -178.000
334.556;  -52.975; -611.000; -567.000
334.690;  -73.725; -631.000; -577.000
334.825;   66.825;  381.000;   83.000
334.960;  -32.100; -285.000; -413.000
335.095;   20.125;  135.000;  -91.000
335.230;  -71.775; -722.000; -738.000
335.365;  -99.500;-1084.000; -990.000
335.499; -107.475;-1108.000;-1037.000
335.634;   35.650;    9.000;  534.000
335.769;  -81.400; -755.000; -720.000
335.904;  -27.800; -603.000; -561.000
336.038;  -20.475; -735.000; -657.000
336.173;  -67.450;-1206.000;-1194.000
336.308;   45.200; -116.000; -189.000
336.443;   87.825; -544.000; -634.000
336.577;  -15.025; -936.000; -787.000
336.712;  115.600;   -4.000;  -12.000
336.847;   13.225; -724.000; -607.000
336.981;   97.650; -272.000; -208.000
337.116;  361.675;  615.000;  501.000
337.250;  176.050; -434.000; -421.000
337.385;  400.200; -297.000; -208.000
337.520;  177.900; -632.000; -603.000
337.654;  -28.025; -215.000; -126.000
337.789; -118.750; -989.000; -933.000
337.923;  -34.325; -104.000; -205.000
338.058;  -93.425; -673.000; -738.000
338.192;  -57.300; -611.000; -488.000
338.327;   -5.225;  -18.000; -155.000
338.461;  -60.100; -299.000; -469.000
338.596;  -79.350; -780.000; -638.000
338.730;  -78.000; -767.000; -803.000
338.865;  155.750;  -46.000; -140.000
338.999;   -1.825; -846.000; -702.000
339.134;    0.625; -634.000; -536.000
339.268;   33.850; -741.000; -603.000
339.403;  508.025; -740.000; -775.000
339.537;  216.675; -894.000; -820.000
339.671;  -86.925; -829.000; -813.000
339.806;  -35.950; -556.000; -512.000
339.940;   28.500; -261.000; -235.000
340.074;  -99.375; -685.000; -510.000
340.209;  -41.000; -351.000; -230.000
340.343;  -97.500; -517.000; -573.000
340.477;  132.450;  998.000; 1036.000
340.612;  -19.675;-1033.000; -900.000
340.746;  185.575; -199.000; -243.000
340.880;  -89.675; -924.000; -785.000
341.014;  -25.675;  -45.000; -154.000
341.149; -113.900; -756.000; -718.000
341.283; -112.175; -839.000; -754.000
341.417; -128.525;-1124.000; -938.000
341.551;  -10.775; -768.000; -708.000
341.685;  -62.975; -633.000; -611.000
341.820;  -33.775; -562.000; -493.000
341.954;  -65.075; -218.000; -349.000
342.088; -131.750;-1102.000;-1019.000
342.222;   46.400;  565.000;  618.000
342.356;  -65.375; -395.000; -335.000
342.490; -117.350; -880.000; -841.000
342.624;  -39.850; -339.000; -242.000
342.758;  -45.825; -364.000; -312.000
342.892;  -73.750; -710.000; -585.000
343.026;  -37.500;  -58.000; -116.000
343.160;  -48.075; -426.000; -376.000
343.294;  -83.800; -474.000; -337.000
343.428;  -57.650; -488.000; -448.000
343.562;  -32.675; -172.000;  -23.000
343.696;  -37.200; -385.000; -314.000
343.830;  -42.925; -362.000; -356.000
343.964;  -14.625; -231.000; -168.000
344.098;  369.675;  199.000;   70.000
344.232;  312.425; -266.000; -127.000
344.366;   60.600; -567.000; -453.000
344.500;  -19.950; -665.000; -744.000
344.634;  -32.300; -324.000; -164.000
344.768;  -60.425; -531.000; -341.000
344.902;    7.150;  278.000;  256.000
345.035;  -64.750; -556.000; -496.000
345.169; -123.275; -933.000; -656.000
345.303;  -43.025; -308.000; -482.000
345.437;  -99.900; -826.000; -717.000
345.571;  -57.475; -675.000; -594.000
345.704;  -52.900; -309.000; -532.000
345.838;  -12.125; -331.000; -284.000
345.972;  -52.550; -543.000; -495.000
346.106;  215.525; -179.000; -190.000
346.239;  443.050; -312.000; -243.000
346.373;   -3.475; -343.000; -302.000
346.507; -133.750; -950.000; -962.000
346.640;   46.775;  -30.000;   13.000
346.774;  -76.625; -650.000; -797.000
346.908;  -12.175; -138.000;  -11.000
347.041;  -90.575; -646.000; -593.000
347.175;    6.925;  259.000;   27.000
347.309;  -91.975; -698.000; -628.000
347.442; -101.600; -883.000; -732.000
347.576;  138.825;  670.000;  668.000
347.709;   61.600; -123.000;  -52.000
347.843; -104.450; -933.000; -825.000
347.976;   31.325;  235.000;  294.000
348.110; -164.900;-1268.000;-1186.000
348.243; -102.850; -679.000; -772.000
348.377;    0.550;  -26.000;   60.000
348.510;   56.375;  403.000;  540.000
348.644;  -38.025;  -37.000; -159.000
348.777;    7.150;  180.000;  191.000
348.911;  -40.475; -142.000; -112.000
349.044;  100.550;  471.000;  448.000
349.178;  -10.925;-1069.000;-1006.000
349.311;   94.650;  141.000;  255.000
349.444;   17.325; -927.000; -813.000
349.578;  -22.850; -347.000; -200.000
349.711; -110.600; -959.000; -862.000
349.845;  -43.700; -661.000; -591.000
349.978; -140.650;-1224.000;-1137.000
350.111;  -72.375; -546.000; -612.000
350.244;  -88.500; -596.000; -700.000
350.378;  -43.600; -392.000; -393.000
350.511;  -73.350; -393.000; -426.000
350.644;  -83.050; -808.000; -806.000
350.778;   15.950;  168.000;  104.000
350.911;   11.275;  134.000;  140.000
351.044;  -84.700; -685.000; -615.000
351.177;  -32.775; -321.000; -281.000
351.310;  -18.325;    3.000; -131.000
351.444;  -93.200; -888.000; -788.000
351.577;   53.475;  140.000;   90.000
351.710;   78.225;  593.000;  417.000
351.843;  -35.400; -165.000;  -77.000
351.976;    6.600;  149.000;  -79.000
352.109;  -94.825; -621.000; -612.000
352.242;  -39.100; -464.000; -419.000
352.376;  -83.775; -580.000; -636.000
352.509;   41.150; -437.000; -356.000
352.642;  -75.500; -654.000; -604.000
352.775;   13.600; -141.000;  -98.000
352.908; -107.850; -933.000; -904.000
353.041;  -76.500; -814.000; -824.000
353.174;  -42.150; -551.000; -424.000
353.307;  -64.375; -753.000; -764.000
353.440;   70.325;  541.000;  453.000
353.573;  -79.875; -957.000;-1008.000
353.706;  -38.850; -384.000; -558.000
353.839;  -21.850; -264.000; -220.000
353.971;  -93.550; -657.000; -512.000
354.104; -101.100; -896.000; -835.000
354.237;  -64.600; -627.000; -662.000
354.370;  -80.625; -846.000; -879.000
354.503; -166.350;-1231.000;-1308.000
354.636;   -1.175; -529.000; -348.000
354.769; -105.000; -937.000; -860.000
354.902;   -5.050; -230.000; -139.000
355.034;  -10.300; -164.000; -220.000
355.167;    4.425; -262.000; -162.000
355.300;  -64.075;-1061.000; -880.000
355.433; 1395.450;  -71.000;  -14.000
355.565; 2185.650; -402.000; -384.000
355.698;  580.500; -356.000; -296.000
355.831;   -2.700; -882.000; -801.000
355.964;   53.125; -285.000; -170.000
356.096;  -50.550; -856.000; -843.000
356.229;   47.900; -523.000; -530.000
356.362;  510.925; -373.000; -266.000
356.494;  861.200; -229.000; -162.000
356.627;  349.925;  269.000;  377.000
356.760;  856.150;  120.000;   53.000
356.892; 1445.825; -286.000; -601.000
357.025;  402.875;  403.000;  389.000
357.157;  281.650; -167.000; -179.000
357.290; 1002.600; -856.000; -713.000
357.423;  330.500; -667.000; -556.000
357.555;  136.650; -217.000; -228.000
357.688;  169.025; -483.000; -364.000
357.820;  230.175; -870.000; -877.000
357.953; 1694.725; -563.000; -589.000
358.085;  326.900; -632.000; -612.000
358.218;  260.275;-1131.000; -932.000
358.350;   84.575;  -58.000;  312.000
358.483; -155.125;-1300.000;-1187.000
358.615; -101.100;-1182.000;-1078.000
358.747; -125.700;-1187.000;-1058.000
358.880;  -31.050; -810.000; -744.000
359.012;  -41.250; -376.000; -202.000
359.145;  -60.525; -480.000; -511.000
359.277;  -42.800; -962.000; -913.000
359.409; 1460.875;  536.000;  231.000
359.542;  327.675; -738.000; -688.000
359.674;   33.350;   46.000;   13.000
359.806;  -78.375; -565.000; -438.000
359.939;  -31.525; -617.000; -516.000
360.071;    8.400; -583.000; -579.000
360.203;  -22.200; -411.000; -364.000
360.335;   22.775;  164.000;  -16.000
360.468;  104.875; -249.000; -307.000
360.600; 1384.325; -547.000; -454.000
360.732; 3784.600; -546.000; -423.000
360.864;  578.375;-1216.000;-1044.000
360.996;   94.200; -516.000; -554.000
361.129;  -31.350; -389.000; -598.000
361.261;  -11.375;  110.000; -113.000
361.393;  -54.375; -252.000; -214.000
361.525;    1.250;   94.000;  244.000
361.657;  -96.725; -821.000; -703.000
361.789;  -16.800; -139.000; -155.000
361.921;   -4.550; -642.000; -593.000
362.053;  114.900;  524.000;  541.000
362.185;   12.100;  288.000;   72.000
362.318; -112.450; -709.000; -705.000
362.450;   35.050;  294.000;  444.000
362.582;  -44.425; -913.000; -870.000
362.714;  -58.950; -353.000; -332.000
362.846;  -83.875; -606.000; -490.000
362.978; -132.900; -941.000; -811.000
363.109;    1.950; -161.000; -260.000
363.241;  187.250; -739.000; -749.000
363.373;  611.150; -649.000; -564.000
363.505;  926.875; -186.000;  -91.000
363.637;  227.250; -787.000; -601.000
363.769; -114.900;-1067.000;-1080.000
363.901;  -61.000; -596.000; -654.000
364.033; -145.200;-1103.000;-1062.000
364.165;  -25.425; -283.000; -283.000
364.296;  100.975; -316.000; -177.000
364.428;  184.825;-1344.000;-1220.000
364.560;  -74.450; -679.000; -661.000
364.692;  -60.250; -738.000; -835.000
364.824;   18.950; -588.000; -456.000
364.955;  444.600; -402.000; -564.000
365.087; 1431.300;-1097.000; -852.000
365.219;   94.575; -686.000; -816.000
365.351;  -81.200; -526.000; -572.000
365.482;   15.100;  300.000;  240.000
365.614;  -66.350; -402.000; -314.000
365.746; -101.750; -729.000; -752.000
365.877;  -79.275; -706.000; -672.000
366.009;  388.975;  -35.000;  -62.000
366.141;  -28.025;-1249.000;-1134.000
366.272; -101.875; -803.000; -719.000
366.404; -131.425;-1005.000; -874.000
366.535;    3.425; -139.000;  -12.000
366.667; -109.250; -644.000; -649.000
366.799;   29.600;  353.000;  203.000
366.930; -120.950; -862.000; -996.000
367.062;  182.250; -639.000; -613.000
367.193;  308.775; -872.000; -842.000
367.325;  -52.500; -580.000; -684.000
367.456;    6.775; -246.000;   31.000
367.588;  231.150; -371.000; -318.000
367.719;   43.525;  -44.000;  -45.000
367.851;  -32.775; -222.000; -241.000
367.982; -113.600; -875.000; -732.000
368.113;   11.400; -475.000; -358.000
368.245; -136.750; -960.000; -841.000
368.376;  -38.975; -254.000; -302.000
368.508;  -47.825; -188.000; -263.000
368.639; -149.525;-1166.000;-1034.000
368.770;  -68.975; -670.000; -589.000
368.902;  -93.150; -836.000; -926.000
369.033; -131.675; -906.000; -855.000
369.164;  -24.075; -720.000; -653.000
369.296;  -89.950; -452.000; -601.000
369.427;  -18.125; -209.000; -144.000
369.558;  -75.425; -593.000; -377.000
369.689;  -70.900; -721.000; -569.000
369.821; -120.175; -951.000; -845.000
369.952;  -13.525;   42.000; -108.000
370.083;  -52.325; -229.000; -108.000
370.214; -101.525; -735.000; -650.000
370.345;   -9.375;   65.000;   81.000
370.477; -104.400; -810.000; -790.000
370.608;   54.775; -328.000; -264.000
370.739; -111.125;-1233.000;-1292.000
370.870; -111.150;-1102.000; -923.000
371.001;   13.250; -378.000; -467.000
371.132;  -98.925; -754.000; -735.000
371.263;  -24.200;  -42.000; -148.000
371.394; -124.775; -841.000; -748.000
371.525;   24.800;  345.000;  225.000
371.657; -117.650; -808.000; -670.000
371.788;   38.400;  103.000;  199.000
371.919;   26.550; -384.000; -304.000
372.050; 1513.925;  -91.000; -156.000
372.181;  468.650; -188.000; -294.000
372.311;  138.475;   42.000; -127.000
372.442;  -34.550; -457.000; -451.000
372.573;  -42.575; -444.000; -340.000
372.704; -138.150;-1008.000; -980.000
372.835;    3.875; -228.000; -289.000
372.966;  -81.375; -646.000; -554.000
373.097;  -75.625; -575.000; -711.000
373.228;  -84.800; -717.000; -542.000
373.359;  -15.500; -824.000; -536.000
373.490;  246.550; -881.000; -727.000
373.620;  355.175;-1001.000; -803.000
373.751;  689.150; -332.000; -396.000
373.882;  317.600; -663.000; -733.000
374.013;  -10.050; -449.000; -262.000
374.143;  -63.075; -581.000; -659.000
374.274; -124.425; -987.000; -908.000
374.405;   83.550; -388.000; -276.000
374.536;  168.650; -526.000; -387.000
374.666;  422.800; -759.000; -807.000
374.797;   39.500; -817.000; -868.000
374.928;  282.350; -710.000; -560.000
375.058;  281.800; -535.000; -500.000
375.189;   20.850;  -59.000;  -93.000
375.320; -111.775; -928.000;-1034.000
375.450;  -29.300; -625.000; -616.000
375.581;  -43.725; -526.000; -436.000
375.712;  -49.400; -574.000; -250.000
375.842;   44.400; -438.000; -415.000
375.973;   19.700; -554.000; -513.000
376.103;  -92.875; -665.000; -648.000
376.234;  -80.100; -531.000; -552.000
376.364; -107.325; -944.000; -867.000
376.495;  177.700;  925.000;  529.000
376.625;  -46.900; -472.000; -485.000
376.756;  -39.025; -709.000; -678.000
376.886; -119.575;-1178.000;-1026.000
377.017;  116.700;-1048.000;-1061.000
377.147;  615.175; -786.000; -782.000
377.278;  108.225;  174.000;  228.000
377.408; -109.725; -801.000; -815.000
377.538;  -84.050; -707.000; -693.000
377.669;  -68.800; -537.000; -613.000
377.799;  -82.875; -645.000; -635.000
377.929;  -80.750; -610.000; -428.000
378.060; -108.675; -781.000; -847.000
378.190;  -23.975; -726.000; -531.000
378.320;  -37.875; -401.000; -406.000
378.451;  -26.475; -131.000;  -22.000
378.581;   -3.250;  -67.000; -110.000
378.711;  105.950; 1035.000;  866.000
378.841;  -46.400; -533.000; -675.000
378.972;  -98.825; -871.000; -751.000
379.102;  -47.125; -652.000; -579.000
379.232;  -34.375; -126.000;  -73.000
379.362; -101.400;-1001.000; -885.000
379.492;  -46.100; -373.000; -424.000
379.623;   58.325;    0.000;  111.000
379.753; -110.425;-1107.000; -974.000
379.883;  100.175;   59.000;  156.000
380.013;  -65.100;-1081.000;-1017.000
380.143;  -95.275;-1097.000;-1056.000
380.273; -100.475; -985.000; -861.000
380.403;   22.200; -344.000; -257.000
380.533;  -25.725; -651.000; -664.000
380.663;   38.875;  173.000;  128.000
380.793; -135.800;-1027.000;-1074.000
380.923;  -26.900; -103.000;  -34.000
381.053; -104.250; -613.000; -623.000
381.183;  -41.200; -106.000; -248.000
381.313;  -49.350; -656.000; -470.000
381.443;  -30.200; -692.000; -473.000
381.573;   -4.775; -402.000; -409.000
381.703;  -48.500;-1249.000;-1095.000
381.833; -153.775;-1454.000;-1336.000
381.963;   49.000; -134.000;  -87.000
382.093;  457.725; -925.000; -909.000
382.223;  141.600; -713.000; -602.000
382.353;  -86.025; -801.000; -608.000
382.482;   63.025;-1091.000; -964.000
382.612;  225.125; -872.000; -644.000
382.742;  121.500; -695.000; -622.000
382.872;   17.525; -565.000; -551.000
383.002;   38.225;  347.000; -132.000
383.131;  -23.300; -226.000; -160.000
383.261;  -48.825; -706.000; -768.000
383.391;  306.150; -552.000; -377.000
383.521; 4410.675;  451.000;  263.000
383.650; 1324.100; -947.000; -904.000
383.780;   30.650; -783.000; -656.000
383.910;   91.675;  880.000;  802.000
384.039;  -47.225; -794.000; -656.000
384.169;  -58.950;-1205.000;-1017.000
384.299;  -69.925; -650.000; -662.000
384.428; -113.125; -764.000; -680.000
384.558;  -38.675; -308.000; -275.000
384.687;  -67.625; -414.000; -334.000
384.817;   -0.500;   75.000;   -2.000
384.947;  -25.175; -234.000; -141.000
385.076;  175.450;  982.000;  912.000
385.206;   72.025;  369.000;  480.000
385.335;  -61.725; -549.000; -417.000
385.465;  -92.025; -655.000; -663.000
385.594;   28.750;  -53.000;  -44.000
385.724;   79.750; -868.000; -838.000
385.853;   12.825; -296.000; -270.000
385.982;  456.250; -743.000; -787.000
386.112;  855.425;-1052.000; -871.000
386.241;   29.725; -307.000; -312.000
386.371;  -15.800; -174.000;  -87.000
386.500;  -48.475; -825.000; -789.000
386.629;    5.425; -874.000; -817.000
386.759;   89.050;  -43.000;   68.000
386.888;  -11.500; -170.000; -250.000
387.017;  -86.750; -648.000; -620.000
387.147;  -89.075; -771.000; -798.000
387.276;  -45.300; -410.000; -397.000
387.405;  -30.950; -398.000; -342.000
387.535;  -61.300; -452.000; -361.000
387.664;  -74.250; -692.000; -620.000
387.793;  -19.950; -198.000; -113.000
387.922;  205.300;  255.000;  200.000
388.052;  -41.875; -576.000; -423.000
388.181;  -31.325; -342.000; -472.000
388.310;  -69.175; -889.000; -710.000
388.439;  -92.650; -749.000; -742.000
388.568;   61.025;  365.000;  244.000
388.697;  364.725; -756.000; -653.000
388.826;   31.100; -768.000; -666.000
388.956;  -10.400; -285.000; -307.000
389.085;  -40.500; -347.000; -287.000
389.214; -112.575; -842.000; -872.000
389.343;  -44.700; -645.000; -413.000
389.472;  516.225;  126.000;  149.000
389.601;  628.950;   91.000;    0.000
389.730;   -7.800; -568.000; -687.000
389.859;   43.125;  226.000;   46.000
389.988;   48.100; -423.000; -408.000
390.117;   49.150; -168.000; -146.000
390.246;  -41.475; -331.000; -320.000
390.375;  -43.175; -673.000; -626.000
390.504;  -83.775; -703.000; -621.000
390.633; -108.150; -672.000; -726.000
390.761;  -85.625; -732.000; -645.000
390.890;  -16.275;   -4.000; -130.000
391.019;  -62.550; -421.000; -441.000
391.148; -128.375; -826.000; -855.000
391.277;  -89.800; -576.000; -493.000
391.406; -104.700; -821.000; -805.000
391.534;   19.325;  574.000; -301.000
391.663;  -82.900; -583.000; -645.000
391.792;  -92.100; -673.000; -701.000
391.921;    5.925;   -3.000;   15.000
392.050;   35.150; -287.000; -228.000
392.178; -124.400;-1206.000;-1061.000
392.307;  -23.650; -758.000; -712.000
392.436;  -35.325; -427.000; -641.000
392.564;    6.225;  166.000;   -6.000
392.693;  -83.550; -860.000; -682.000
392.822;   44.125; -529.000; -534.000
392.950;  -26.550; -880.000; -714.000
393.079;   93.325; -188.000; -328.000
393.208;  -47.375; -488.000; -511.000
393.336;   -1.200; -170.000; -145.000
393.465;  -30.425; -317.000; -199.000
393.593;    1.325;   62.000;   79.000
393.722; -140.650;-1121.000; -916.000
393.850;  -23.075; -188.000;  -61.000
393.979; -140.650; -926.000; -805.000
394.107;  -49.300; -517.000; -537.000
394.236;  -56.700; -570.000; -507.000
394.364;  121.125;  383.000;  206.000
394.493;  108.850; -911.000; -767.000
394.621;   10.225; -955.000; -916.000
394.750; 1126.050; -873.000; -923.000
394.878; 4324.475; -247.000; -149.000
395.007; 6388.550; -721.000; -807.000
395.135;  587.700; -790.000; -721.000
395.263;  -49.725;-1038.000;-1040.000
395.392;   16.900;  -25.000; -107.000
395.520; -116.600; -818.000; -679.000
395.648; -115.425; -865.000; -915.000
395.777;  -66.575; -366.000; -405.000
395.905;  -60.500; -449.000; -564.000
396.033;   -3.700;  217.000;  172.000
396.162;  147.625; -399.000; -453.000
396.290;  183.300;  -17.000;   -2.000
396.418;  -25.525; -555.000; -514.000
396.546;  -74.200; -571.000; -466.000
396.674; -111.975; -850.000; -878.000
396.803;  -20.175;  -72.000;  -23.000
396.931;   -4.925; -179.000; -199.000
397.059; -104.375;-1026.000; -989.000
397.187; -134.450;-1026.000; -975.000
397.315; -124.150; -884.000; -649.000
397.443;  -85.700; -592.000; -443.000
397.572;  -84.775; -578.000; -424.000
397.700;  -81.600; -607.000; -614.000
397.828;  -23.225;  120.000;  -90.000
397.956;  -47.375; -508.000; -478.000
398.084;  -23.800; -767.000; -626.000
398.212;   13.325;  137.000;  124.000
398.340;  -26.500;  -56.000;  159.000
398.468;  -37.825; -390.000; -169.000
398.596; -142.125; -993.000; -953.000
398.724; -120.925; -762.000; -767.000
398.852; -163.825;-1024.000; -976.000
398.980;  -81.825; -560.000; -560.000
399.108;  -89.300; -982.000; -735.000
399.236;    4.200;   13.000;    8.000
399.363;  -13.375;  222.000;  196.000
399.491;  -62.850; -404.000; -398.000
399.619; -108.750; -829.000; -800.000
399.747;  -94.400; -859.000; -771.000
399.875;   52.700;  220.000;  234.000
400.003;  -58.700; -359.000; -284.000
400.130;  -94.125; -421.000; -341.000
400.258;  -27.200;  -83.000;   38.000
400.386;  -70.775; -352.000; -168.000
400.514;  -74.975; -526.000; -587.000
400.641; -130.425; -928.000; -802.000
400.769; -147.625; -979.000; -888.000
400.897;  -96.100; -838.000; -793.000
401.025;  -40.975; -166.000; -152.000
401.152;   -1.975;  220.000;   38.000
401.280;  -71.450; -430.000; -429.000
401.408; -124.600; -712.000; -576.000
401.535; -102.650; -735.000; -758.000
401.663; -187.550;-1134.000;-1054.000
401.790;  -88.475; -514.000; -525.000
401.918;   25.925;  436.000;  405.000
402.046;  -20.650;  134.000;  122.000
402.173;  -43.650;  -18.000;    7.000
402.301;  -66.375; -519.000; -397.000
402.428;   25.150;  528.000;  383.000
402.556; -148.450;-1188.000; -913.000
402.683;  -38.500;  -20.000;   -1.000
402.811;  -19.675;  -37.000; -206.000
402.938;  -23.575;   20.000;   27.000
403.066;   15.175; -574.000; -558.000
403.193;  138.325;  299.000;  239.000
403.321;   76.225; -396.000; -574.000
403.448;  143.425;   83.000;   27.000
403.575;   65.025;  -90.000;  -46.000
403.703;  -76.975; -732.000; -557.000
403.830;  -49.775; -531.000; -496.000
403.957; -118.950;-1117.000;-1023.000
404.085;   20.875;  -61.000; -172.000
404.212;  119.025;  -50.000;   63.000
404.339;  456.600; -566.000; -306.000
404.467; 8605.050; -612.000; -524.000
404.594; 5418.950; -287.000; -227.000
404.721; 1005.675; -869.000; -764.000
404.848;   95.375; -113.000; -202.000
404.976;  -89.425; -856.000; -783.000
405.103;    1.725;  -14.000;  -82.000
405.230;    3.100;  190.000;  226.000
405.357;   57.775;  117.000;   44.000
405.484;  429.475;  -49.000;    5.000
405.612;  122.900; -548.000; -563.000
405.739;  -59.375; -488.000; -243.000
405.866;   81.500;  669.000;  385.000
405.993;  -50.050; -398.000; -102.000
406.120; -138.025; -801.000; -887.000
406.247;  -75.950; -323.000; -342.000
406.374;  142.625;  540.000;  629.000
406.501;  -48.900; -632.000; -702.000
406.628;  -93.575; -621.000; -589.000
406.755; -115.925; -803.000; -620.000
406.882;  -56.725; -228.000; -277.000
407.009; -110.450; -719.000; -628.000
407.136;  -45.375; -480.000; -401.000
407.263;  -12.025; -939.000; -829.000
407.390;  -96.450; -692.000; -614.000
407.517; -156.375;-1139.000;-1187.000
407.644;  -58.450; -332.000; -256.000
407.771; -110.275; -249.000; -287.000
407.898;    7.075;  168.000;  328.000
408.025;  -81.175; -421.000; -313.000
408.151;    0.225;   82.000;  153.000
408.278;  -59.800; -267.000; -216.000
408.405; -129.725; -931.000; -899.000
408.532; -104.750; -549.000; -542.000
408.659; -114.750; -677.000; -648.000
408.785; -194.700;-1298.000;-1170.000
408.912;  -63.575; -412.000; -296.000
409.039; -103.700; -610.000; -686.000
409.166;  -96.100; -591.000; -555.000
409.292; -106.625; -571.000; -534.000
409.419;  -95.250; -665.000; -649.000
409.546;  -84.500; -431.000; -192.000
409.672;  -99.400; -713.000; -545.000
409.799;  -37.025;  -36.000;   34.000
409.926;  -32.775; -180.000; -179.000
410.052; -176.900;-1127.000;-1091.000
410.179;  -70.225; -368.000; -392.000
410.305;  -91.550; -375.000; -493.000
410.432;  -26.550; -220.000; -333.000
410.558;  -64.975; -305.000; -380.000
410.685; -110.325; -688.000; -431.000
410.812; -106.275; -409.000; -588.000
410.938; -121.925; -964.000; -808.000
411.065; -109.925; -671.000; -645.000
411.191;  -32.725; -189.000; -174.000
411.317; -129.075; -823.000; -742.000
411.444;  -60.725; -317.000; -246.000
411.570;  -73.675; -339.000; -294.000
411.697; -113.200; -758.000; -752.000
411.823; -161.650; -989.000; -999.000
411.949;  -41.525;  -56.000;   17.000
412.076; -114.000; -539.000; -519.000
412.202; -121.775; -758.000; -757.000
412.329; -132.750; -798.000; -752.000
412.455; -103.000; -821.000; -657.000
412.581;  -42.025;  -15.000;  172.000
412.707;  -82.500; -540.000; -457.000
412.834;   -8.100;  156.000;  219.000
412.960; -100.675; -785.000; -784.000
413.086; -102.525; -743.000; -701.000
413.212;  129.825;  604.000;  578.000
413.339;  -90.450; -685.000; -701.000
413.465;  -47.400; -364.000; -310.000
413.591; -110.875; -757.000; -474.000
413.717;  -53.075; -358.000; -366.000
413.843; -118.550; -839.000; -861.000
413.969;  -47.525;  -47.000; -292.000
414.096;  -93.800; -679.000; -679.000
414.222;   -9.225;  -33.000;   85.000
414.348;  -74.900; -652.000; -385.000
414.474;   15.150;   38.000;  -52.000
414.600;   -9.525; -126.000; -144.000
414.726;    9.375;  -96.000;  -55.000
414.852;  -42.300; -365.000; -342.000
414.978;   52.900;  104.000;  -18.000
415.104;   63.175;   38.000;   80.000
415.230;   46.625; -329.000; -330.000
415.356;   70.250; -409.000; -514.000
415.482;  239.525;   13.000;  -35.000
415.608;  429.950; -247.000; -323.000
415.734; 1343.925;   67.000;   38.000
415.860;27800.525; -875.000; -767.000
415.986;23270.650; -685.000; -607.000
416.111; 2208.275; -798.000; -652.000
416.237;  480.350; -424.000; -571.000
416.363; 1591.050; -765.000; -733.000
416.489; 6512.550; -324.000; -251.000
416.615;  936.550; -707.000; -742.000
416.741;   49.825; -677.000; -784.000
416.866;  -53.825; -673.000; -736.000
416.992;  -83.300; -801.000; -818.000
417.118;  -19.075;  -41.000;  -80.000
417.244;  -66.125; -798.000; -531.000
417.369;  -78.450; -801.000; -612.000
417.495;   -1.550; -325.000; -254.000
417.621;  -80.550;-1015.000; -803.000
417.746;   20.450; -579.000; -572.000
417.872;   81.500; -254.000; -144.000
417.998;  130.200; -515.000; -530.000
418.123; 1495.550;-1073.000; -845.000
418.249; 8401.775; -512.000; -601.000
418.374; 1460.825; -916.000; -824.000
418.500;  235.250; -383.000; -482.000
418.626;  180.000;   70.000;  -59.000
418.751;  172.225; -549.000; -448.000
418.877;  314.050; -637.000; -643.000
419.002; 2485.250; -688.000; -560.000
419.128;18889.900; -930.000; -721.000
419.253; 5419.800; -967.000; -837.000
419.379;  749.750; -391.000; -338.000
419.504;  544.900;  325.000;  415.000
419.629;  788.875; -393.000; -212.000
419.755; 4991.225; -317.000; -254.000
419.880;32661.150;  -98.000;   67.000
420.006;16847.675; -280.000; -221.000
420.131;42678.900; -662.000; -775.000
420.256; 7025.400; -315.000; -316.000
420.382;  939.925; -665.000; -687.000
420.507;  173.525; -649.000; -778.000
420.632;   67.250; -337.000; -339.000
420.758;   88.875; -251.000; -425.000
420.883;  -89.200; -876.000; -672.000
421.008;  -90.100; -775.000; -619.000
421.133;  -78.975; -509.000; -467.000
421.259;  -49.225; -325.000; -259.000
421.384; -123.175; -834.000; -693.000
421.509;  -99.275;-1052.000; -862.000
421.634;  360.900; -936.000; -820.000
421.759;  191.725; -359.000; -327.000
421.885;  -94.725; -717.000; -656.000
422.010;  -89.425; -673.000; -542.000
422.135; -162.800; -695.000; -727.000
422.260;   23.875;  340.000;  280.000
422.385;  -37.075;   12.000;  -98.000
422.510;   16.950;  151.000;  -26.000
422.635;   -2.850;  -87.000;  -43.000
422.760;   -9.475; -766.000; -791.000
422.885;   31.175;  -57.000;  -80.000
423.010;  -19.625; -112.000; -169.000
423.135;  -83.450; -481.000; -561.000
423.260;  -26.550; -150.000; -245.000
423.385;   28.450;  476.000;  222.000
423.510;   13.325;   71.000;  -22.000
423.635;    8.325;  133.000;   45.000
423.760;   54.075;  383.000;  328.000
423.885;   30.450;  336.000;  391.000
424.010;   -1.550;  -68.000;  -13.000
424.135;  -25.025;    5.000;  -33.000
424.259;  -87.025; -654.000; -457.000
424.384;  -29.225; -279.000; -272.000
424.509;    0.225; -260.000; -186.000
424.634;  -94.400; -761.000; -623.000
424.759;  -26.650; -688.000; -544.000
424.883;    3.675; -506.000; -527.000
425.008;  193.675; -502.000; -410.000
425.133; 2768.050; -679.000; -653.000
425.258; 1543.475; -517.000; -381.000
425.382;  565.475; -867.000; -774.000
425.507; 1329.425; -487.000; -543.000
425.632;  389.575; -802.000; -663.000
425.756;  633.900; -256.000; -146.000
425.881; 8960.725; -831.000; -857.000
426.006;28155.100; -604.000; -355.000
426.130; 4737.925; -696.000; -508.000
426.255;  669.100; -611.000; -491.000
426.379;  274.575; -189.000; -577.000
426.504;  504.000;  660.000;  544.000
426.629; 5782.725; -519.000; -466.000
426.753; 4629.500;   64.000;  -46.000
426.878;  583.400; -252.000; -288.000
427.002;  308.600; -651.000; -668.000
427.127; 1997.375;  -35.000; -158.000
427.251;16568.075;  372.000;  401.000
427.375; 5515.075; -191.000; -173.000
427.500; 1474.100; -616.000; -610.000
427.624;  492.400; -234.000; -400.000
427.749;  125.300; -216.000; -225.000
427.873;   -7.200; -499.000; -412.000
427.997;  -25.675; -222.000; -230.000
428.122;   63.750;  795.000;  703.000
428.246;   54.150;  433.000;  434.000
428.371; -132.350; -869.000; -773.000
428.495;  -93.200; -624.000; -646.000
428.619;  -34.150; -186.000; -117.000
428.743;   23.500;   65.000;  132.000
428.868;  -65.425; -732.000; -643.000
428.992;  588.000; -219.000; -326.000
429.116;  262.825; -329.000; -357.000
429.240;  144.450;  419.000;  426.000
429.365;  -29.625; -454.000; -574.000
429.489;  -34.600; -638.000; -647.000
429.613;   34.450; -236.000; -177.000
429.737;  100.200; -563.000; -432.000
429.861;  402.025; -247.000; -133.000
429.985; 7764.750; -425.000; -305.000
430.109; 9986.825; -770.000; -908.000
430.234; 1254.400;   76.000;  -50.000
430.358;  164.675; -250.000; -160.000
430.482;  -22.000; -672.000; -564.000
430.606;  -57.300; -655.000; -375.000
430.730;  -26.650; -437.000; -388.000
430.854;  -48.400; -909.000; -835.000
430.978;  -72.175; -795.000; -764.000
431.102;  -80.575; -499.000; -422.000
431.226;  -93.225; -874.000; -815.000
431.350;   28.350;  345.000;  422.000
431.474;  -60.325; -661.000; -373.000
431.597; -161.375;-1060.000; -848.000
431.721;  -74.825; -276.000; -267.000
431.845; -130.525; -704.000; -472.000
431.969;  -83.150; -304.000; -349.000
432.093;  -76.725; -395.000; -317.000
432.217;  -18.400;   32.000;   82.000
432.341;  -70.850; -523.000; -518.000
432.464;   -6.050;   96.000;   40.000
432.588;    1.425; -401.000; -329.000
432.712;   33.875;  -52.000;  -52.000
432.836;   59.125;  213.000;  263.000
432.959;   19.750; -372.000; -311.000
433.083;  173.725;   11.000;    2.000
433.207;  552.100;  285.000;  930.000
433.330; 7276.350; -391.000; -200.000
433.454;10266.900; -654.000; -638.000
433.578; 5730.850;  583.000;  278.000
433.701; 1280.800; -623.000; -675.000
433.825;  184.775; -292.000; -299.000
433.949;   73.000;   28.000;  -72.000
434.072;    4.275; -410.000; -323.000
434.196;    7.025; -309.000; -117.000
434.319; 3418.900;25482.000;25124.000
434.443;  851.600; -656.000; -603.000
434.566; 3894.350;  281.000;   62.000
434.690;  881.900; -637.000; -383.000
434.813;  180.650; -251.000; -173.000
434.937;  -28.450; -569.000; -696.000
435.060;  -64.750; -423.000; -332.000
435.184;   49.550; -492.000; -217.000
435.307;   48.575;  159.000;  102.000
435.431;  -16.750;  -40.000;   24.000
435.554;  -74.125; -399.000; -240.000
435.677;  -76.900; -350.000; -258.000
435.801;  -40.250;  -25.000;   49.000
435.924;  -29.900;    1.000;  -67.000
436.048; -136.600;-1019.000; -732.000
436.171;  -62.750; -240.000;  -66.000
436.294;  -14.150; -248.000; -229.000
436.417;  226.275; -963.000; -849.000
436.541;  -25.375; -814.000; -840.000
436.664;  -51.875; -242.000; -316.000
436.787;   -7.525;   13.000;  113.000
436.910; -121.975; -792.000; -422.000
437.034;  -16.850;  142.000;  143.000
437.157;   34.850;  -11.000;    0.000
437.280;  -76.225; -392.000; -292.000
437.403; -122.775; -982.000; -869.000
437.526;  106.850; -903.000; -865.000
437.649;  834.275; -505.000; -332.000
437.772;   86.850; -692.000; -540.000
437.896;   62.675;  700.000;  544.000
438.019;  -94.925; -758.000; -503.000
438.142;  -90.775; -596.000; -506.000
438.265;  -98.825; -639.000; -670.000
438.388;   73.750; -520.000; -410.000
438.511;  -30.300; -597.000; -394.000
438.634;  -49.550; -247.000; -125.000
438.757; -134.300; -693.000; -619.000
438.880;  -38.375;  -34.000;  -57.000
439.003;  -84.450; -417.000; -437.000
439.126;  -56.850; -287.000; -167.000
439.248;  -76.575;  -98.000; -139.000
439.371;  -47.350;    9.000;  -53.000
439.494;   22.650;  510.000;  439.000
439.617;  -50.525;   65.000;  -88.000
439.740; -167.875; -968.000; -816.000
439.863; -141.450; -755.000; -595.000
439.986; -113.500; -476.000; -431.000
440.108;  -43.550; -161.000; -112.000
440.231; -155.200; -950.000; -836.000
440.354;  -53.975;  -64.000; -150.000
440.477;  -91.175; -566.000; -542.000
440.599;  -77.550; -200.000; -225.000
440.722; -127.750; -709.000; -586.000
440.845;   65.500;  751.000;  928.000
440.968; -112.450; -415.000; -311.000
441.090;  -66.400; -199.000;  -33.000
441.213; -171.175;-1021.000; -825.000
441.336;  -46.350; -159.000;   -5.000
441.458;  -89.950; -549.000; -396.000
441.581; -123.150; -628.000; -629.000
441.703;  -73.050; -152.000;   13.000
441.826; -108.675; -557.000; -400.000
441.948;  -65.900;   56.000;   51.000
442.071;   10.825;  555.000;  424.000
442.193; -115.400; -531.000; -485.000
442.316;    0.075;  152.000;   97.000
442.438;   78.425; -233.000;  -10.000
442.561;   90.225;  272.000;  262.000
442.683;  143.325; -809.000; -522.000
442.806;  454.400;   -8.000;   74.000
442.928;  -72.650; -859.000; -604.000
443.051;  -59.000; -577.000; -373.000
443.173;  -95.175; -341.000; -339.000
443.295;  -89.525; -263.000; -371.000
443.418;  -70.025; -321.000;  -29.000
443.540;  -38.700; -106.000;   -4.000
443.662; -130.000; -563.000; -465.000
443.785;  -30.825;  335.000;  199.000
443.907; -106.275; -362.000; -208.000
444.029; -116.875; -767.000; -494.000
444.152; -150.700; -644.000; -554.000
444.274;  -46.650;  -18.000;  -24.000
444.396; -127.050; -461.000; -221.000
444.518; -129.450; -691.000; -454.000
444.640; -102.450; -268.000; -111.000
444.763;  -18.700;  388.000;  249.000
444.885; -122.975; -432.000; -392.000
445.007;  -28.700;   35.000;   86.000
445.129; -132.400; -610.000; -515.000
445.251;  -95.450; -372.000; -439.000
445.373; -135.050; -537.000; -386.000
445.495;  -11.350;  242.000;  350.000
445.617;   41.025;  853.000;  753.000
445.739;  -72.500; -215.000;  -97.000
445.861;  -70.225; -245.000; -112.000
445.984;  -63.050; -267.000; -101.000
446.105;   -7.825; -418.000; -251.000
446.227;  179.250; -176.000;  -19.000
446.349;  -72.525; -358.000; -249.000
446.471; -109.525; -615.000; -448.000
446.593;  -84.575; -316.000;   19.000
446.715;  -39.750;  -67.000;   41.000
446.837;   32.775;  697.000;  832.000
446.959; -104.600; -457.000; -478.000
447.081; -133.975; -628.000; -518.000
447.203;   47.925;  862.000;  834.000
447.325;  -98.050; -270.000;   42.000
447.446;   -2.525;  286.000;  530.000
447.568; -147.325; -921.000; -803.000
447.690;  -85.675; -236.000; -245.000
447.812; -154.900; -798.000; -519.000
447.933;  -24.900;  155.000;  127.000
448.055;  -72.900; -306.000; -261.000
448.177;   43.475;   31.000;   79.000
448.299;  -67.425; -935.000; -727.000
448.420;   -0.325;  -25.000;  159.000
448.542;  -54.275;   -3.000;   33.000
448.664;  -12.900;  109.000;  322.000
448.785;  -30.525;  265.000;   83.000
448.907;  -93.800; -614.000; -353.000
449.028;  -95.225; -771.000; -471.000
449.150;   37.325;  492.000;  589.000
449.272; -170.475;-1044.000; -913.000
449.393;   25.700;  612.000;  694.000
449.515; -133.600; -634.000; -581.000
449.636;  -63.200; -264.000; -155.000
449.758;   38.375;  763.000;  622.000
449.879;  -86.325; -498.000; -396.000
450.001;  -71.300; -149.000;  -49.000
450.122;  -33.725;  -95.000;  162.000
450.244;  -15.500;   37.000;  364.000
450.365;  -80.750; -495.000; -301.000
450.486;   -5.025;   80.000;  268.000
450.608;   44.400;  393.000;  326.000
450.729;  100.475;  578.000;  645.000
450.850;   79.850; -574.000; -466.000
450.972; 1122.425; -552.000; -389.000
451.093; 7482.750;  190.000;  588.000
451.214; 3932.300; -516.000; -337.000
451.336;  672.150;  773.000;  579.000
451.457;   92.900;  264.000;  393.000
451.578;  -24.500; -118.000;  -74.000
451.699; -105.975; -546.000; -540.000
451.821;  -52.375; -284.000;  -50.000
451.942;   -4.575;  278.000;  285.000
452.063;   63.300;  228.000;  419.000
452.184;  765.975;  -54.000;  -49.000
452.305; 1712.850;  103.000;  170.000
452.427;  345.525; -549.000; -301.000
452.548;   14.950;   23.000;   79.000
452.669;  -72.400; -257.000;  -89.000
452.790;  -54.675;    3.000;  -18.000
452.911;  -26.425;  195.000;  259.000
453.032;  -77.375; -289.000;  -60.000
453.153;  -50.900;  -29.000;   81.000
453.274;   52.325;  737.000;  868.000
453.395;  -57.975;  -51.000;  175.000
453.516;    2.450; 1317.000; 1388.000
453.637;  -91.675; -205.000; -150.000
453.758;  -52.600;   15.000;   69.000
453.879; -114.250; -462.000; -250.000
454.000;   63.100; 1086.000;  948.000
454.121; -130.550; -554.000; -326.000
454.242; -107.925; -599.000; -383.000
454.362;  -65.975;  -99.000;  114.000
454.483;    2.550; -309.000; -229.000
454.604;   76.175;  512.000;  580.000
454.725; -118.700; -627.000; -555.000
454.846; -124.300; -474.000; -406.000
454.967;  -25.050;  230.000;  539.000
455.087;  -44.575;  179.000;  153.000
455.208;   14.600;  554.000;  856.000
455.329;  -72.650;  -22.000;   82.000
455.450;   55.425;  473.000;  633.000
455.570;  -62.225; -234.000; -211.000
455.691;  -52.050;  201.000;  407.000
455.812;  -98.225; -270.000;  -92.000
455.932;  -60.025;  107.000;  -97.000
456.053;  -96.150;   36.000;   24.000
456.173; -105.725; -433.000; -355.000
456.294; -124.650; -476.000; -303.000
456.415;  -59.000;  -73.000;   70.000
456.535;  -29.200;  297.000;  273.000
456.656;  -45.200;  132.000;  240.000
456.776;  -70.250;    3.000;  298.000
456.897;  -11.750;  308.000;  513.000
457.017;  -64.425; -153.000;   -3.000
457.138; -106.575; -402.000; -249.000
457.258;  -40.150;  263.000;  224.000
457.379;    0.950;  509.000;  521.000
457.499;  -31.200;  443.000;  432.000
457.620; -119.000; -407.000; -231.000
457.740;  -95.275; -132.000;  -11.000
457.860;  -50.175;   87.000;   44.000
457.981;  -43.500;  132.000;  124.000
458.101;  -71.525;  -89.000;   40.000
458.221;  -11.925;  336.000;  402.000
458.342;  -55.675;   -4.000;  -37.000
458.462;   34.500;  617.000;  352.000
458.582;   13.475; -302.000; -294.000
458.703;   51.350;  303.000;  154.000
458.823;    6.825;   22.000;  163.000
458.943;   61.675;  341.000;  467.000
459.063;   22.075; 1124.000;  192.000
459.183;   -5.025;  328.000;  313.000
459.304;    9.375;  315.000;  517.000
459.424;  -49.500; -246.000;  -89.000
459.544;  440.175;  388.000;  764.000
459.664; 1235.325;  499.000;  506.000
459.784;  532.200; 1004.000; 1175.000
459.904;   89.750;  867.000;  744.000
460.024;   61.650;  867.000;  684.000
460.144;  -15.125;  449.000;  554.000
460.264;   -9.875;  515.000;  327.000
460.385;  -96.575; -145.000; -119.000
460.505;   45.300;  905.000;  858.000
460.625;  -84.100;  -17.000;  -68.000
460.745;  -19.725;  396.000;  541.000
460.864;  -49.600;  153.000;  469.000
460.984;   55.550;  499.000;  573.000
461.104;  141.475; 1656.000; 1775.000
461.224;   21.925;  657.000;  650.000
461.344;  -22.325;  431.000;  360.000
461.464;  -24.950;  258.000;  513.000
461.584;  -18.250;  283.000;  466.000
461.704;  -56.000;   58.000;  108.000
461.824;  -46.000;  238.000;  259.000
461.943;  -38.325;  191.000;  130.000
462.063;  -74.525;    2.000;  324.000
462.183;   17.075;  639.000;  717.000
462.303;   79.000; 1678.000; 1230.000
462.422;   24.075;  781.000;  840.000
462.542;  -37.525;  271.000;  391.000
462.662;   37.950;  353.000;  380.000
462.782;  347.675;  833.000;  572.000
462.901;  739.350;  545.000;  717.000
463.021;  384.475; 1702.000; 1638.000
463.141;   20.500;  337.000;  770.000
463.260;  -14.625;  614.000;  474.000
463.380;    8.675;  902.000;  884.000
463.499;  -38.600;  342.000;  332.000
463.619;  -28.225;  581.000;  559.000
463.738;   96.750; 1644.000;  903.000
463.858;   15.700;  657.000;  811.000
463.978;  -34.225;  542.000;  396.000
464.097;   46.250;  921.000; 1114.000
464.217;  137.675; 1196.000; 1143.000
464.336;  150.800; 1068.000; 1130.000
464.455;  -28.200;  328.000;  659.000
464.575;   21.050;  597.000;  602.000
464.694;  136.225; 1204.000; 1179.000
464.814;  148.450; 1190.000; 1138.000
464.933;   73.375; 1095.000; 1027.000
465.052;   98.725; 1412.000; 1054.000
465.172;   70.700;  922.000;  799.000
465.291;  130.325; 1376.000; 1320.000
465.410;    9.500;  462.000;  735.000
465.530;   73.350; 1355.000; 1310.000
465.649;   52.725; 1209.000; 1273.000
465.768;  151.750; 1673.000; 1508.000
465.888;   62.375;  941.000; 1174.000
466.007;   96.775; 1335.000; 1440.000
466.126;  -17.300;  721.000;  641.000
466.245;   44.175; 1176.000; 1187.000
466.364;    8.625;  950.000; 1060.000
466.484;   55.025; 1024.000; 1213.000
466.603;   34.750; 1101.000; 1222.000
466.722;   97.025; 1490.000; 1769.000
466.841;   62.325; 1151.000; 1401.000
466.960;   40.600; 1069.000;  972.000
467.079;  132.250; 1971.000; 1786.000
467.198;   55.650; 1238.000; 1181.000
467.317;   80.225; 1768.000; 1162.000
467.436;   67.075; 1709.000; 1261.000
467.555;  123.175; 1796.000; 1746.000
467.674;   72.775; 1227.000; 1329.000
467.793;   34.800; 1376.000; 1374.000
467.912;   80.475; 1658.000; 1539.000
468.031;  146.625; 2038.000; 1930.000
468.150;  139.225; 1842.000; 1837.000
468.269;  183.400; 2313.000; 2090.000
468.388;  200.875; 2168.000; 2339.000
468.507;  245.575; 2884.000; 2903.000
468.626;  230.875; 2555.000; 2541.000
468.744;  134.500; 2018.000; 2174.000
468.863;  190.275; 2312.000; 2523.000
468.982;  103.100; 1503.000; 1555.000
469.101;  230.750; 2788.000; 2692.000
469.220;  149.075; 2333.000; 2176.000
469.338;  249.725; 2935.000; 3051.000
469.457;  204.450; 2719.000; 2545.000
469.576;  344.075; 3953.000; 3784.000
469.695;  243.425; 2877.000; 3066.000
469.813;  410.450; 4148.000; 4192.000
469.932;  378.125; 4255.000; 4485.000
470.051;  440.750; 4075.000; 4161.000
470.169; 1005.625; 4470.000; 4338.000
470.288; 1956.275; 4700.000; 4809.000
470.406; 1177.825; 5059.000; 5194.000
470.525;  683.975; 6101.000; 5787.000
470.644;  638.500; 6847.000; 6794.000
470.762;  795.800; 8397.000; 7873.000
470.881;  896.275; 8651.000; 8464.000
470.999; 1059.125; 9685.000; 9151.000
471.118; 1116.650;11174.000;10711.000

