
Integration time [ms]: 100.000
Averaging Nr. [scans]: 40
Smoothing Nr. [pixels]: 0
Data measured with spectrometer [name]: 2101012U2
Wave   ;Sample   ;Dark     ;Reference
[nm]   ;[counts] ;[counts] ;[counts] 

197.733;   54.550;  516.000;  404.000
197.879;  -63.025; -610.000; -634.000
198.025;  -42.375; -475.000; -420.000
198.171;  -66.350; -602.000; -612.000
198.317;  -28.950; -401.000; -316.000
198.463;  -64.150; -655.000; -404.000
198.609;   30.075;  181.000; -137.000
198.755;  -70.775; -644.000; -410.000
198.901;  -53.175; -505.000; -424.000
199.047;  -53.025; -615.000; -488.000
199.193;  -21.650; -230.000; -468.000
199.339;  -41.100; -222.000; -369.000
199.485;   50.100;  330.000;  271.000
199.631;   10.500;  227.000;  310.000
199.777;  -36.700; -466.000; -398.000
199.923;  -52.225; -610.000; -424.000
200.069;    5.350; -141.000;  -58.000
200.215;   43.850;  128.000;  453.000
200.361;   50.675;  243.000;  477.000
200.507;  -48.075; -600.000; -373.000
200.653;  -24.750; -371.000; -194.000
200.798;  -35.525; -215.000; -125.000
200.944;   -3.175; -146.000;  -41.000
201.090;   34.250;   61.000;  222.000
201.236;    8.625; -116.000; -158.000
201.382;  107.575;  874.000;  903.000
201.528;   -8.150;  -58.000;  -48.000
201.674;  -51.200; -386.000; -293.000
201.819;  -56.850; -540.000; -439.000
201.965;  -78.650; -699.000; -447.000
202.111;  -16.850; -273.000; -226.000
202.257;  -33.875; -250.000; -238.000
202.402;    3.100;   13.000;  -36.000
202.548;  -29.500; -169.000; -116.000
202.694;   76.550;  410.000; -183.000
202.840;  -66.775; -603.000; -531.000
202.985;  -61.075; -681.000; -639.000
203.131;  -88.850; -832.000; -666.000
203.277;  -15.125; -199.000; -262.000
203.423;  -48.725; -434.000; -520.000
203.568;  -28.125; -462.000; -237.000
203.714;  -45.850; -535.000; -542.000
203.860;  -71.775; -682.000; -641.000
204.005;   17.325;  112.000;  167.000
204.151;   68.825;  561.000;  556.000
204.296;  -43.775; -354.000; -221.000
204.442;  -64.025; -600.000; -547.000
204.588;  -62.675; -592.000; -579.000
204.733;   20.475;  178.000;  168.000
204.879; -121.350;-1018.000; -822.000
205.025;   22.000;  -99.000;  126.000
205.170;   12.225;  -17.000;   94.000
205.316;   65.575;  438.000;  661.000
205.461;  -78.250; -698.000; -554.000
205.607;   90.875;  609.000;  665.000
205.752;  -73.275; -626.000; -551.000
205.898;  -42.900; -501.000; -391.000
206.043;  -61.750; -578.000; -506.000
206.189;  -26.500; -243.000; -285.000
206.334;   77.975;  554.000;  606.000
206.480;   85.975;  409.000;  239.000
206.625;  -80.175; -529.000; -552.000
206.771;  -41.100; -451.000; -373.000
206.916;  -29.500; -210.000; -537.000
207.062;  -61.675; -545.000; -591.000
207.207;  -48.475; -546.000; -443.000
207.353;   54.300;  185.000;  460.000
207.498;   19.975;  196.000;   85.000
207.643;  -54.225; -501.000; -370.000
207.789; -110.875;-1069.000; -910.000
207.934;  -72.425; -665.000; -713.000
208.080;  -38.950; -154.000;   66.000
208.225;   -1.200;  -22.000;  -57.000
208.370;  -76.225; -727.000; -619.000
208.516;  -66.750; -741.000; -487.000
208.661;  -29.225; -127.000;  -69.000
208.806;   -5.775; -165.000; -171.000
208.952; -120.275;-1044.000; -731.000
209.097;   68.925;  378.000;  349.000
209.242;  -26.950; -307.000; -382.000
209.387;   56.650;  392.000;  350.000
209.533;  -34.300; -321.000; -350.000
209.678;   64.500;  472.000;  543.000
209.823;  -40.400; -408.000; -310.000
209.969;  -88.950; -860.000; -757.000
210.114;  -96.150; -907.000; -719.000
210.259;  -95.425; -939.000; -889.000
210.404;   -7.000; -171.000;  103.000
210.549;   23.625;  108.000;    3.000
210.695;  -10.725;   -3.000;  -95.000
210.840;   29.475;   94.000;   67.000
210.985;  -55.700; -484.000; -303.000
211.130;   76.775;  268.000;  406.000
211.275;   12.650;  207.000;  199.000
211.420;  -43.850; -300.000; -289.000
211.566;  -55.125; -536.000; -489.000
211.711;   11.275;  218.000;  157.000
211.856;  -57.850; -545.000; -519.000
212.001;   15.825;  151.000;   44.000
212.146;   22.350;  153.000;   49.000
212.291;  -14.275; -210.000; -186.000
212.436;  -27.150; -280.000;   -6.000
212.581;  -64.100; -685.000; -653.000
212.726;  -82.500; -487.000; -538.000
212.871;  -40.925; -552.000; -217.000
213.016; -132.825;-1172.000;-1029.000
213.161;   61.075;  406.000;  291.000
213.306;  -74.975; -435.000; -577.000
213.451;  -83.650; -778.000; -689.000
213.596;  -37.125; -455.000; -347.000
213.741;  -42.350; -448.000; -538.000
213.886;  -72.125; -498.000; -517.000
214.031;  -30.350; -294.000; -124.000
214.176;  -35.100; -408.000; -341.000
214.321;   -3.875; -296.000; -157.000
214.466;  -16.600; -163.000;  -43.000
214.611;   -3.825;  -61.000;  -10.000
214.756; -102.775; -948.000; -858.000
214.901;  -22.150; -388.000; -226.000
215.046; -104.475; -797.000; -825.000
215.191;   23.975;  128.000;   35.000
215.336;  -22.600; -157.000;  -19.000
215.480;  -59.900; -684.000; -505.000
215.625;  -22.400; -175.000;  -19.000
215.770;  -66.675; -757.000; -662.000
215.915;   -2.350;   -5.000;  -97.000
216.060;   -3.150; -113.000;  -21.000
216.205;  -97.000; -731.000; -779.000
216.349;  -61.350; -470.000; -533.000
216.494; -125.725; -939.000; -867.000
216.639; -101.250; -823.000; -888.000
216.784;  -83.975; -577.000; -525.000
216.929;   51.450;  392.000;  281.000
217.073;   -9.550; -244.000;  -31.000
217.218;    9.700;   78.000;  -47.000
217.363;  -62.925; -656.000; -618.000
217.507;  -84.875; -623.000; -588.000
217.652; -118.975; -845.000; -874.000
217.797;  -82.100; -708.000; -659.000
217.942; -100.975; -856.000; -720.000
218.086;   76.575;  608.000;  539.000
218.231;   -8.525; -174.000;  -26.000
218.376;  -12.925; -337.000; -229.000
218.520;   -1.325;  -41.000;   96.000
218.665;  -23.350; -338.000; -204.000
218.810;  -39.750; -275.000; -233.000
218.954;   13.850;  201.000;   35.000
219.099; -105.075; -713.000; -963.000
219.243;  -61.875; -589.000; -554.000
219.388;  -21.800; -264.000; -136.000
219.532;  -14.875; -116.000; -116.000
219.677;  -65.750; -564.000; -521.000
219.822;   10.025;   33.000;   89.000
219.966;    0.050;   17.000;  -99.000
220.111;  -35.550; -328.000;  -40.000
220.255;  -93.025; -797.000; -750.000
220.400;  -17.000; -180.000; -146.000
220.544;  -72.950; -516.000; -450.000
220.689;  -47.400; -422.000; -451.000
220.833;  -19.600; -123.000;  -58.000
220.978;  -42.700; -393.000; -563.000
221.122;   21.325;  319.000;  307.000
221.267;  -99.425; -906.000; -837.000
221.411;  -59.250; -478.000; -394.000
221.555;   -1.975; -104.000;  -23.000
221.700;  -49.225; -329.000; -222.000
221.844;   38.000;  255.000;  272.000
221.989;  -33.950; -328.000; -311.000
222.133;  -26.850; -289.000; -307.000
222.277;   -8.100;    5.000;   78.000
222.422;   19.050;  227.000;  113.000
222.566;  -36.225; -381.000; -214.000
222.711;  -51.975; -414.000; -479.000
222.855;  -59.850; -643.000; -586.000
222.999;  -83.500; -642.000; -717.000
223.144;  -38.650; -195.000; -194.000
223.288;   73.125;  423.000;  251.000
223.432;   25.025;  184.000;  230.000
223.576;   19.125;  152.000;  -21.000
223.721;   47.425;  364.000;  273.000
223.865;  -40.800; -472.000; -475.000
224.009;  217.775; 1673.000; 1631.000
224.153;  -71.875; -660.000; -671.000
224.298;  -67.650; -531.000; -489.000
224.442;  -22.150;  -74.000;  -33.000
224.586;  -21.425; -169.000; -106.000
224.730;  -87.975; -858.000; -670.000
224.875;  -96.225; -739.000; -688.000
225.019;   24.625;  102.000;  188.000
225.163;   41.100;  208.000;  341.000
225.307;   15.700;   97.000;  -91.000
225.451;   56.375;  360.000;  481.000
225.595;   26.725;  264.000;  176.000
225.739;  -20.000; -170.000;  -94.000
225.884;    2.900;   86.000;    5.000
226.028;  -83.825; -760.000; -626.000
226.172;  -37.400; -260.000; -273.000
226.316; -108.700; -941.000; -902.000
226.460;  -65.550; -645.000; -493.000
226.604;  -56.000; -406.000; -400.000
226.748;  -92.550; -836.000; -733.000
226.892;  -17.275; -227.000; -181.000
227.036;  -44.550; -537.000; -447.000
227.180;  -46.075; -551.000; -375.000
227.324;  -69.325; -561.000; -580.000
227.468; -104.925; -819.000; -717.000
227.612;    9.850;  242.000;  -28.000
227.756;  -85.275; -845.000; -698.000
227.900;   57.300;  342.000;  441.000
228.044;  -49.950; -509.000; -290.000
228.188;   55.275;  448.000;  568.000
228.332;  -76.700; -546.000; -472.000
228.476;  -16.900; -223.000; -149.000
228.620;  -29.125; -210.000; -150.000
228.764;   68.100;  431.000;  349.000
228.908;  -25.175; -155.000;   30.000
229.052;  -61.800; -615.000; -528.000
229.195;  -17.925; -172.000;   13.000
229.339;  -16.725; -235.000; -305.000
229.483;  -11.975;    5.000; -162.000
229.627;   -5.400; -156.000;  139.000
229.771;  -43.325; -218.000; -294.000
229.915;   16.775;  230.000;   79.000
230.059;  -91.500; -648.000; -663.000
230.202;  -40.075; -370.000; -317.000
230.346;  -11.400; -107.000;  107.000
230.490;  -45.925; -489.000; -521.000
230.634;  -94.100; -736.000; -553.000
230.777;   76.950;  478.000;  509.000
230.921;  -50.475; -450.000; -359.000
231.065;  -34.650; -246.000; -286.000
231.209;   33.425;  261.000;  265.000
231.352;   17.625;   54.000;   40.000
231.496;   23.575;  568.000;  188.000
231.640;  -78.175; -693.000; -621.000
231.783;   56.925;  546.000;  525.000
231.927;  -50.525; -294.000; -365.000
232.071; -109.250; -962.000; -736.000
232.214;  -96.650; -980.000; -764.000
232.358;  -87.100; -683.000; -599.000
232.502;   10.075;  -19.000;    7.000
232.645; -129.750;-1090.000; -927.000
232.789;  -21.450; -257.000; -218.000
232.933;  -43.625; -407.000; -224.000
233.076; -112.925;-1038.000; -897.000
233.220;  -90.725; -752.000; -777.000
233.363;  -82.575; -669.000; -477.000
233.507;   49.350;  371.000;  129.000
233.650;  -92.350; -764.000; -834.000
233.794;   49.250;  438.000;  461.000
233.938;  -52.275; -530.000; -362.000
234.081;   -0.475;  -93.000;   31.000
234.225;  -61.075; -631.000; -539.000
234.368;  -77.750; -773.000; -723.000
234.512;  -33.375; -385.000; -299.000
234.655;  -73.200; -582.000; -555.000
234.798;  -57.525; -493.000; -466.000
234.942; -123.825; -884.000;-1002.000
235.085;  -59.775; -651.000; -443.000
235.229;  -71.200; -405.000; -410.000
235.372;  -47.400; -247.000; -191.000
235.516;  -52.300; -397.000; -321.000
235.659;   19.700;   92.000;  121.000
235.802;  -10.875;  -38.000;  -22.000
235.946;   32.375;  335.000;  215.000
236.089;   15.175;  126.000;  250.000
236.233;   45.800;  275.000;  298.000
236.376;  -52.700; -235.000; -378.000
236.519;  -56.575; -297.000; -319.000
236.663;  -28.200; -215.000; -117.000
236.806; -117.200;-1029.000; -999.000
236.949;   53.550;  543.000;  431.000
237.092;   56.350;  412.000;  391.000
237.236;  -78.250; -589.000; -502.000
237.379;   56.150;  352.000;  428.000
237.522; -112.850; -879.000; -768.000
237.666;  -13.325; -271.000;   18.000
237.809; -128.700; -851.000; -823.000
237.952;   20.050;  469.000;  271.000
238.095;  -56.925; -447.000; -442.000
238.238;   81.400;  688.000;  700.000
238.382;    1.500;  166.000;  103.000
238.525;  -68.950; -598.000; -511.000
238.668; -134.000;-1060.000; -985.000
238.811;  -66.825; -638.000; -643.000
238.954;  -53.500; -483.000; -334.000
239.097;   86.100;  617.000;  664.000
239.241;   26.650;  394.000;  326.000
239.384;  -26.100; -254.000; -214.000
239.527;  -51.450; -424.000; -224.000
239.670; -131.225; -994.000;-1091.000
239.813; -105.225; -696.000; -658.000
239.956;   71.325;  579.000;  473.000
240.099; -102.350; -778.000; -725.000
240.242;   58.975;  428.000;  432.000
240.385;   44.575;  466.000;  450.000
240.528;  -66.775; -706.000; -473.000
240.671;   15.025;  189.000;  134.000
240.814;  -34.200; -441.000; -158.000
240.957;  -80.575; -767.000; -578.000
241.100;  -71.725; -779.000; -755.000
241.243; -138.325;-1234.000; -893.000
241.386;  -69.275; -508.000; -379.000
241.529;  -85.975; -735.000; -547.000
241.672;  -51.800; -566.000; -495.000
241.815; -108.825; -832.000; -808.000
241.958;  -21.200; -125.000; -182.000
242.101;  -63.575; -545.000; -390.000
242.244;  -39.225; -270.000; -325.000
242.387;  -44.000; -304.000; -246.000
242.530;   47.025;  470.000;  134.000
242.673;  -31.525; -381.000; -309.000
242.815;  -99.000; -925.000; -899.000
242.958;  -65.550; -482.000; -381.000
243.101;    7.450;  132.000;  187.000
243.244;  -81.600; -564.000; -521.000
243.387;  -36.075; -313.000; -316.000
243.530;  -87.025; -657.000; -674.000
243.672;   -4.200;   43.000;  -92.000
243.815;  -53.525; -355.000; -283.000
243.958;   -5.600;   98.000;  -26.000
244.101;   -7.975;   59.000;  -16.000
244.243;  -20.475;  -47.000;  101.000
244.386; -113.800; -761.000; -630.000
244.529;  -23.075; -132.000; -139.000
244.672; -150.925;-1154.000; -951.000
244.814;  -93.000; -621.000; -794.000
244.957;  -35.075; -380.000; -304.000
245.100;  -68.400; -489.000; -489.000
245.242;  -53.800; -387.000; -374.000
245.385;    0.475;  -59.000;  -39.000
245.528; -115.325; -871.000; -705.000
245.670;   78.975;  612.000;  634.000
245.813;  -86.825; -599.000; -547.000
245.956;  -23.675; -324.000; -275.000
246.098;  -65.200; -508.000; -650.000
246.241;   -5.100;  194.000;   48.000
246.383;  -26.825; -119.000;  -73.000
246.526;  -78.450; -454.000; -525.000
246.669; -112.450; -889.000; -780.000
246.811;   13.625;  172.000;   -1.000
246.954;  -62.825; -512.000; -426.000
247.096;  -30.300;  -84.000;   -6.000
247.239;  -71.600; -482.000; -445.000
247.381;  -72.475; -647.000; -488.000
247.524;   57.675;  645.000;  679.000
247.666;  -12.125;   58.000;   11.000
247.809; -103.325; -887.000; -691.000
247.951;   -0.775;  -75.000;  138.000
248.094;   15.425;  432.000;  308.000
248.236; -148.300;-1262.000;-1238.000
248.378;  -34.625; -356.000;  -81.000
248.521;  -54.975; -334.000; -337.000
248.663;  -39.100; -236.000; -267.000
248.806;  -24.150; -300.000; -266.000
248.948; -121.625; -886.000; -763.000
249.090;  -57.675; -428.000; -398.000
249.233;  -70.450; -344.000; -381.000
249.375;  -73.000; -474.000; -451.000
249.518;  -21.725;  -83.000; -133.000
249.660;   -8.775; -103.000;    3.000
249.802; -169.025;-1303.000;-1189.000
249.945;  -84.125; -612.000; -540.000
250.087; -112.650; -834.000; -768.000
250.229;  -42.125; -362.000; -480.000
250.371;  -80.000; -494.000; -439.000
250.514;  -48.825; -310.000; -244.000
250.656;  -56.150;   69.000;  102.000
250.798; -111.250; -849.000; -800.000
250.940;  -64.375; -322.000; -322.000
251.083;  -29.825; -335.000; -111.000
251.225;   36.275;  338.000;  310.000
251.367;  -39.100; -274.000; -373.000
251.509;  -42.175; -265.000; -210.000
251.651;  -79.525; -731.000; -671.000
251.794;   50.525;  538.000;  632.000
251.936; -101.150; -821.000; -747.000
252.078;  -75.175; -540.000; -461.000
252.220;  -77.300; -645.000; -477.000
252.362;   27.025;  344.000;  462.000
252.504;  -68.200; -677.000; -584.000
252.646; -100.275; -875.000; -722.000
252.788;  -19.350;   14.000; -128.000
252.931;  -37.850; -257.000; -253.000
253.073;  -61.025; -376.000; -317.000
253.215;  -14.950;  141.000;  122.000
253.357;  -18.075;   82.000; -153.000
253.499;  -45.400; -374.000; -234.000
253.641;  -83.900; -749.000; -594.000
253.783;  -88.800; -609.000; -527.000
253.925;  -76.725; -586.000; -591.000
254.067; -100.925; -744.000; -667.000
254.209;  -27.750; -391.000; -259.000
254.351; -125.350; -865.000; -883.000
254.493;  -54.000; -441.000; -417.000
254.635; -135.275; -936.000; -818.000
254.777;  -82.575; -752.000; -687.000
254.918;  -67.150; -512.000; -430.000
255.060;  -76.150; -551.000; -395.000
255.202;  -55.475; -473.000; -261.000
255.344;  -82.850; -658.000; -455.000
255.486;  -70.750; -471.000; -406.000
255.628;  -95.850; -780.000; -781.000
255.770;  -81.150; -676.000; -536.000
255.912;  -47.050; -559.000; -468.000
256.053;  -73.325; -730.000; -508.000
256.195;  130.775; 1008.000;  903.000
256.337;  -97.825; -861.000; -595.000
256.479;   50.700;  532.000;  416.000
256.621;  -53.300; -394.000; -212.000
256.762;  -93.825; -789.000; -742.000
256.904;   29.400;  485.000;  487.000
257.046;  -28.150; -381.000; -271.000
257.188;  -43.950; -351.000; -264.000
257.329;  -67.475; -525.000; -464.000
257.471; -111.150; -939.000; -807.000
257.613;  -74.050; -584.000; -498.000
257.755; -147.550;-1073.000; -982.000
257.896;   22.850;  286.000;  392.000
258.038;  -77.025; -403.000; -352.000
258.180;  -31.150; -354.000; -279.000
258.321;  -86.975; -581.000; -457.000
258.463;  -10.125;  -71.000;  133.000
258.605;  -89.975; -562.000; -570.000
258.746; -102.400; -886.000; -772.000
258.888; -143.825;-1026.000;-1020.000
259.029;    8.525;  121.000;   -8.000
259.171;  -84.600; -614.000; -550.000
259.313;    3.150;  -49.000;  -47.000
259.454;  -62.400; -536.000; -414.000
259.596;  -43.400; -483.000; -390.000
259.737;  -74.600; -590.000; -474.000
259.879;   27.875;  217.000;  311.000
260.020;   73.925;  901.000;  636.000
260.162;  -27.175; -146.000; -253.000
260.303; -112.050; -768.000; -687.000
260.445;  -88.450; -609.000; -613.000
260.586;   15.825;  392.000;  157.000
260.728;  -58.275; -360.000; -248.000
260.869;  -68.300; -350.000; -343.000
261.011;   67.775;  706.000;  537.000
261.152;  -59.050; -479.000; -319.000
261.293;  -69.425; -576.000; -595.000
261.435;  -30.150; -219.000; -184.000
261.576;  -45.825; -455.000; -325.000
261.718;   43.300;  420.000;  470.000
261.859; -126.100; -940.000; -949.000
262.000; -131.625; -951.000;-1016.000
262.142;  -12.075;  -52.000;  -60.000
262.283; -112.725; -808.000; -691.000
262.424;  -87.350; -666.000; -625.000
262.566; -150.950;-1161.000; -983.000
262.707; -105.275; -840.000; -830.000
262.848; -118.075; -769.000; -726.000
262.990;  -46.600; -362.000; -345.000
263.131;   62.350;  650.000;  681.000
263.272;   -2.000;  -61.000;  -41.000
263.413;  -94.650; -589.000; -561.000
263.555;  -64.750; -669.000; -143.000
263.696;  -74.275; -550.000; -641.000
263.837;  -48.150; -449.000; -551.000
263.978;  -13.725;   -5.000;  -77.000
264.119;  -40.175; -283.000; -264.000
264.261; -106.450; -847.000; -630.000
264.402;  -11.800;   33.000;   40.000
264.543;  -66.800; -509.000; -524.000
264.684;  -15.300;   61.000;  -50.000
264.825;  -77.750; -816.000; -538.000
264.966;    0.175;  -84.000;  -67.000
265.107; -106.475; -646.000; -670.000
265.248; -106.950; -825.000; -812.000
265.390;  -14.350;  152.000;   -9.000
265.531;  -19.450; -238.000; -107.000
265.672;  -91.150; -557.000; -630.000
265.813;   43.225;  563.000;  439.000
265.954; -126.950; -959.000; -940.000
266.095;  -30.925; -372.000; -322.000
266.236; -109.350; -686.000; -548.000
266.377;  -40.200; -243.000; -297.000
266.518;  -82.525; -619.000; -547.000
266.659;   13.225;  170.000;  268.000
266.800;   -2.550;   83.000;   85.000
266.941;  -70.275; -487.000; -478.000
267.082;   -0.700;  354.000;   99.000
267.223;  -46.175; -344.000; -273.000
267.364; -112.825; -892.000; -686.000
267.504;   -7.550;    3.000;  135.000
267.645;  -10.100;  160.000;   67.000
267.786;  -32.725; -147.000;  -86.000
267.927;  -75.675; -473.000; -379.000
268.068;  -20.150; -186.000;  -61.000
268.209;  -47.900; -175.000; -413.000
268.350;  -48.725; -388.000; -532.000
268.490;  -98.700; -648.000; -521.000
268.631;   34.850;  127.000;  225.000
268.772;  -93.175; -874.000; -647.000
268.913;  -52.850; -328.000; -476.000
269.054;  -23.825; -117.000;   12.000
269.194;  -54.000; -418.000; -402.000
269.335; -136.750;-1137.000;-1074.000
269.476;  -14.175;   33.000;  -35.000
269.617;  -65.975; -347.000; -392.000
269.757;  -98.650; -713.000; -646.000
269.898; -104.025; -856.000; -613.000
270.039;  -58.875; -415.000; -405.000
270.180; -126.650; -952.000; -816.000
270.320;  -27.900; -190.000; -250.000
270.461;  -53.575; -277.000; -249.000
270.602;  -17.675; -186.000; -156.000
270.742; -130.900; -868.000; -943.000
270.883;  -48.375; -442.000; -390.000
271.023;  -71.900; -358.000; -357.000
271.164;  -77.825; -607.000; -528.000
271.305; -106.250; -666.000; -654.000
271.445;  -88.975; -722.000; -683.000
271.586;  -69.125; -462.000; -283.000
271.726;  -51.225; -397.000; -322.000
271.867;  -91.875; -594.000; -534.000
272.008;  -40.625; -473.000; -285.000
272.148;   37.000;  462.000;  468.000
272.289;  -27.550; -113.000; -181.000
272.429;   -8.575;   19.000;  185.000
272.570; -108.575; -633.000; -737.000
272.710; -101.700; -825.000; -775.000
272.851;  -27.925;  113.000; -130.000
272.991; -163.425;-1173.000;-1077.000
273.131;  -57.075; -419.000; -459.000
273.272;  -97.575; -683.000; -723.000
273.412;  -29.700; -143.000;  -31.000
273.553;  -75.525; -488.000; -507.000
273.693;   91.250;  913.000;  858.000
273.834; -139.675; -894.000; -692.000
273.974;  -86.525; -664.000; -615.000
274.114;  -94.200; -772.000; -560.000
274.255;   30.050;  414.000;  373.000
274.395;  -30.550; -180.000; -125.000
274.535;   16.150;  199.000;  350.000
274.676;    4.975;  225.000;   94.000
274.816;   -2.150;  110.000;   34.000
274.956;  -98.475; -624.000; -690.000
275.097; -123.175;-1014.000; -922.000
275.237; -129.750; -913.000; -803.000
275.377; -103.950; -778.000; -689.000
275.517; -140.625; -878.000; -937.000
275.658;  -80.200; -590.000; -555.000
275.798;  -76.925; -606.000; -413.000
275.938;   14.525;  215.000;  323.000
276.078;  -86.275; -626.000; -395.000
276.218;   -9.150;   99.000;  104.000
276.359; -140.725;-1026.000;-1024.000
276.499;  -85.850; -605.000; -446.000
276.639;  -31.825; -305.000; -151.000
276.779;  -63.200; -475.000; -357.000
276.919; -107.900; -783.000; -624.000
277.059;  -30.075; -261.000; -212.000
277.199;  -58.025; -357.000; -259.000
277.340;   40.700;  287.000;  175.000
277.480; -101.600; -840.000; -693.000
277.620;   11.775;  192.000;   16.000
277.760; -190.250;-1533.000;-1294.000
277.900;   -0.275;  113.000;   33.000
278.040;   -7.700;  137.000;  159.000
278.180;   20.575;  270.000;  170.000
278.320;   -9.725;   21.000;   56.000
278.460;  -80.800; -443.000; -469.000
278.600;  -95.375; -708.000; -598.000
278.740;   25.525;  448.000;  224.000
278.880; -122.100; -768.000; -791.000
279.020;  -34.125; -194.000; -144.000
279.160;  -97.250; -672.000; -595.000
279.300; -113.450; -926.000; -873.000
279.440;  -98.825; -709.000; -622.000
279.579; -120.750;-1014.000; -929.000
279.719;  -80.050; -410.000; -394.000
279.859;   -1.950;   -4.000;   41.000
279.999;  -15.575; -208.000;  101.000
280.139;  -70.025; -435.000; -387.000
280.279; -116.750; -708.000; -745.000
280.419;  -32.425; -229.000; -147.000
280.559;  -38.200; -259.000; -180.000
280.698;  -94.925; -790.000; -639.000
280.838; -111.575; -778.000; -800.000
280.978; -105.200; -846.000; -790.000
281.118; -112.450; -811.000; -704.000
281.257;  -12.900;   24.000;    6.000
281.397; -151.975;-1094.000; -960.000
281.537;  -94.025; -599.000; -712.000
281.677;  -31.725; -150.000; -101.000
281.816;  -90.325; -700.000; -630.000
281.956;  -37.975; -193.000; -257.000
282.096;  -70.875; -539.000; -396.000
282.235; -106.150; -672.000; -638.000
282.375;  -38.675; -243.000;  -98.000
282.515; -107.325; -715.000; -707.000
282.654;   15.025;   29.000;  106.000
282.794;   12.475;  388.000;  244.000
282.934;  -62.250; -530.000; -491.000
283.073; -138.050;-1030.000; -857.000
283.213;  -63.900; -460.000; -467.000
283.353;  -60.725; -408.000; -349.000
283.492;  -34.225; -264.000; -296.000
283.632;  -58.700; -254.000; -168.000
283.771; -105.900; -859.000; -730.000
283.911;  -59.025; -369.000; -260.000
284.050; -117.475; -794.000; -748.000
284.190; -140.950;-1229.000;-1096.000
284.329; -141.450;-1055.000; -964.000
284.469; -106.650; -516.000; -591.000
284.608;  -75.300; -559.000; -598.000
284.748;  -84.900; -614.000; -570.000
284.887;  -11.225;  -87.000;  -20.000
285.027; -134.325; -844.000; -892.000
285.166;  -40.475; -192.000; -249.000
285.306;  -25.500; -116.000;  -33.000
285.445;  -43.475; -229.000; -343.000
285.584;  -94.675; -630.000; -494.000
285.724;  -53.850; -282.000; -322.000
285.863; -101.625; -857.000; -507.000
286.002;  -45.900; -366.000; -276.000
286.142; -101.150; -715.000; -622.000
286.281;  -86.950; -525.000; -493.000
286.420;  -85.650; -554.000; -417.000
286.560;   82.500;  653.000;  623.000
286.699; -137.375; -958.000; -912.000
286.838;  -88.950; -590.000; -591.000
286.978;  -94.375; -533.000; -537.000
287.117; -142.350;-1085.000; -950.000
287.256;  -42.425; -228.000; -211.000
287.395;  -57.750; -197.000; -378.000
287.535;  -65.500; -370.000; -298.000
287.674;  -90.525; -509.000; -484.000
287.813;   37.875;  661.000;  533.000
287.952; -133.500;-1010.000; -871.000
288.091; -145.450;-1049.000; -915.000
288.231;   -4.000;   13.000;   15.000
288.370; -166.950;-1217.000;-1200.000
288.509;  -76.675; -728.000; -645.000
288.648;  -96.725; -770.000; -548.000
288.787;  -41.925; -243.000;  -87.000
288.926;  -73.525; -454.000; -475.000
289.065;   85.200;  859.000;  672.000
289.204;  -62.875; -377.000; -217.000
289.344;  -99.000; -791.000; -690.000
289.483;   -0.875;  416.000;  304.000
289.622;  -30.625; -291.000; -149.000
289.761;  -35.050; -309.000; -166.000
289.900; -115.625; -785.000; -626.000
290.039;  -35.700;  -12.000;  -95.000
290.178;  -45.000; -274.000; -180.000
290.317;  -85.500; -618.000; -479.000
290.456;  -69.650; -463.000; -451.000
290.595; -125.225; -961.000; -833.000
290.734; -135.975; -904.000; -891.000
290.873;  -72.550; -456.000; -420.000
291.011; -116.125; -833.000; -843.000
291.150; -123.950; -770.000; -682.000
291.289;  -38.700; -343.000; -110.000
291.428;  -99.425; -599.000; -480.000
291.567;  -66.300; -370.000; -442.000
291.706;   -8.550;  109.000;  154.000
291.845;  -89.200; -597.000; -505.000
291.984; -165.025;-1234.000;-1061.000
292.122;   44.300;  602.000;  582.000
292.261;   32.575;  620.000;  463.000
292.400;  -14.750; -144.000;  211.000
292.539; -116.650; -959.000; -813.000
292.678;  -49.125; -325.000; -300.000
292.816; -159.525;-1136.000; -965.000
292.955; -119.425; -844.000; -684.000
293.094;  -40.500; -173.000; -337.000
293.233;  -52.475; -556.000; -400.000
293.371;  -34.100; -225.000;  -84.000
293.510; -102.075; -866.000; -780.000
293.649; -143.900; -959.000; -924.000
293.787; -145.650;-1083.000;-1012.000
293.926;  -33.675; -113.000;  -32.000
294.065;  -59.375; -379.000; -290.000
294.203;   13.850;  298.000;  406.000
294.342;   -6.475;   74.000;  156.000
294.481; 5093.975;51180.000; -836.000
294.619;  -44.475; -425.000; -582.000
294.758; -162.325;-1230.000;-1137.000
294.896;   -6.500; -125.000;    5.000
295.035; -148.750;-1040.000;-1006.000
295.174; -128.725;-1082.000; -954.000
295.312;  -63.700; -323.000; -203.000
295.451;  -55.300; -307.000; -428.000
295.589;  -76.575; -389.000; -518.000
295.728;   -1.675; -292.000; -165.000
295.866;  -37.450;  -36.000;  -51.000
296.005;  -78.500; -584.000; -341.000
296.143;  -91.250; -558.000; -596.000
296.282; -126.775; -957.000; -881.000
296.420;  -97.300; -657.000; -557.000
296.559;  -99.250; -892.000; -633.000
296.697; -111.100; -847.000; -665.000
296.835; -154.175;-1141.000;-1002.000
296.974;  -25.075;  -23.000;   39.000
297.112;  -79.950; -443.000; -504.000
297.251; -107.275; -815.000; -755.000
297.389;  -70.075; -576.000; -438.000
297.527;  -22.575; -145.000;  -83.000
297.666;  -85.350; -486.000; -438.000
297.804;  -77.425; -404.000; -264.000
297.942;  -38.000; -136.000; -161.000
298.081;  -25.000; -183.000;   63.000
298.219;  -17.725;  -17.000;  -19.000
298.357;  -44.175; -144.000;  -71.000
298.495; -123.275; -810.000; -812.000
298.634;   -7.075;  245.000;  219.000
298.772;  -46.150; -220.000; -338.000
298.910;  -67.925; -309.000; -182.000
299.048;  -18.950; -130.000; -153.000
299.187;  -61.150; -350.000; -250.000
299.325;   -8.550;   52.000;  122.000
299.463;  -72.625; -389.000; -299.000
299.601;  -46.575; -327.000; -271.000
299.739; -137.150; -908.000; -883.000
299.877; -101.050; -791.000; -703.000
300.016; -149.250;-1095.000; -935.000
300.154;  -13.925;  -19.000; -161.000
300.292;  -83.125; -428.000; -348.000
300.430;  -52.075; -408.000; -291.000
300.568; -122.050; -940.000; -874.000
300.706;  -76.850; -366.000; -469.000
300.844; -152.875;-1108.000; -979.000
300.982;   25.850;  246.000;  282.000
301.120; -147.225; -965.000; -866.000
301.258; -104.625; -812.000; -705.000
301.396;  -10.150;  104.000;  -41.000
301.534;  -54.150; -218.000; -293.000
301.672;  -94.525; -664.000; -521.000
301.810;  -86.400; -613.000; -545.000
301.948;  -14.825;   53.000;  149.000
302.086;  -32.950; -250.000;  -32.000
302.224; -102.725; -610.000; -585.000
302.362; -104.250; -558.000; -622.000
302.500; -122.400; -923.000; -893.000
302.638;  -10.800;  128.000;  245.000
302.776;  -46.875; -352.000; -408.000
302.913;   20.600;  447.000;  236.000
303.051;  -57.950;  -86.000;  -23.000
303.189;   -1.500;   90.000;  118.000
303.327;  -65.100; -341.000; -256.000
303.465;  -97.950; -832.000; -588.000
303.603; -104.350; -805.000; -604.000
303.740;   28.300;  417.000;  241.000
303.878; -115.475; -800.000; -759.000
304.016; -112.625; -915.000; -790.000
304.154; -167.200;-1123.000;-1152.000
304.291;  -78.025; -505.000; -554.000
304.429;  -11.375;  102.000;   74.000
304.567; -140.500; -908.000; -893.000
304.705;  -79.875; -408.000; -515.000
304.842;  -87.875; -616.000; -540.000
304.980;   -9.150;  215.000;   35.000
305.118;  -60.400; -367.000; -365.000
305.255; -133.850; -945.000; -927.000
305.393;   17.550;  178.000;  239.000
305.531; -142.025;-1173.000; -956.000
305.668;  -88.900; -663.000; -582.000
305.806;  -77.300; -358.000; -439.000
305.943;  -95.825; -629.000; -637.000
306.081;  -49.875; -378.000; -267.000
306.219; -107.250; -863.000; -748.000
306.356;  -20.525;  158.000;   27.000
306.494;   70.225;  981.000;  761.000
306.631;  -28.175;  -11.000;  -55.000
306.769;  -35.025; -613.000; -485.000
306.906;  -76.800; -284.000; -258.000
307.044;  -74.600; -473.000; -488.000
307.181;  -78.275; -410.000; -332.000
307.319;   -3.525;  112.000;   87.000
307.456; -170.775;-1191.000;-1153.000
307.594; -126.375; -980.000; -727.000
307.731;  -47.625; -371.000; -164.000
307.868;  -10.325;  -15.000;   20.000
308.006; -132.025; -961.000; -847.000
308.143;  -87.700; -618.000; -330.000
308.281;  -47.750;  -37.000; -254.000
308.418; -100.675; -748.000; -640.000
308.555;  -96.650; -400.000; -250.000
308.693;  -90.375; -577.000; -573.000
308.830; -119.725; -712.000; -657.000
308.967;  -38.475; -215.000;  -95.000
309.105;  -77.150; -507.000; -396.000
309.242;  -58.875; -468.000; -367.000
309.379; -104.125; -577.000; -655.000
309.517; -129.625; -936.000; -948.000
309.654; -134.750; -910.000; -734.000
309.791;  -92.075; -662.000; -580.000
309.928; -144.800; -977.000; -914.000
310.065;   66.200;  819.000;  697.000
310.203; -132.725; -825.000; -850.000
310.340;  -88.400; -465.000; -321.000
310.477; -100.300; -412.000; -516.000
310.614;  -73.475; -383.000; -473.000
310.751;  -89.225; -427.000; -518.000
310.889;  -37.775;    1.000;   11.000
311.026; -160.175;-1161.000; -939.000
311.163;  -66.550; -386.000; -380.000
311.300;  -91.100; -512.000; -479.000
311.437;  -95.075; -658.000; -619.000
311.574; -168.625;-1226.000; -985.000
311.711;  -83.250; -595.000; -433.000
311.848;  -59.125; -380.000; -388.000
311.985;    5.800;  270.000;   93.000
312.122; -153.100; -932.000; -762.000
312.259; -132.925; -941.000; -994.000
312.396;  -98.075; -508.000; -551.000
312.533; -106.400; -812.000; -790.000
312.670; -154.350;-1070.000; -898.000
312.807;  -54.075; -352.000; -367.000
312.944; -105.800; -513.000; -611.000
313.081;  -62.725; -150.000; -415.000
313.218; -147.975;-1111.000; -867.000
313.355;  -78.575; -531.000; -449.000
313.492;  -69.275; -455.000; -292.000
313.629;   56.375;  815.000;  735.000
313.766; -174.850;-1176.000;-1008.000
313.902;  -39.900; -186.000;   21.000
314.039;  -69.025; -372.000; -289.000
314.176;    5.650;  286.000;  192.000
314.313;  -98.200; -569.000; -473.000
314.450; -105.325; -788.000; -684.000
314.587;  -92.600; -468.000; -480.000
314.723;  -26.775;  -78.000;  130.000
314.860;  -13.475;  318.000;  332.000
314.997;    0.150;  223.000;  142.000
315.134;  -80.575; -385.000; -368.000
315.270;  -77.425; -480.000; -496.000
315.407; -157.450;-1094.000; -967.000
315.544;  -96.125; -657.000; -538.000
315.681; -109.100; -681.000; -565.000
315.817;  -40.575; -133.000; -176.000
315.954;  -96.025; -613.000; -392.000
316.091; -150.900;-1045.000;-1023.000
316.227;  -56.675;  -71.000; -179.000
316.364;  -31.950;   23.000;    6.000
316.500;  -55.975; -113.000; -300.000
316.637;  -56.675; -181.000; -302.000
316.774;  -99.000; -625.000; -358.000
316.910; -108.600; -598.000; -629.000
317.047;  -92.875; -487.000; -351.000
317.183;  -90.125; -435.000; -566.000
317.320;  -64.875; -367.000; -321.000
317.456; -121.125; -733.000; -805.000
317.593; -118.225; -598.000; -641.000
317.729;  -18.450;  168.000;  -67.000
317.866; -208.775;-1434.000;-1285.000
318.002;  -88.575; -708.000; -948.000
318.139; -129.475; -883.000; -867.000
318.275; -133.575;-1003.000; -738.000
318.412;  -90.975; -517.000; -336.000
318.548; -100.375; -751.000; -720.000
318.685; -137.550; -985.000; -888.000
318.821; -109.650; -762.000; -735.000
318.957;  -52.775;   34.000;  -23.000
319.094;   14.075;  297.000;  154.000
319.230; -126.925; -756.000; -742.000
319.367;  -67.000; -471.000; -520.000
319.503;  -86.150; -538.000; -436.000
319.639; -115.525; -877.000; -793.000
319.775; -112.475; -750.000; -685.000
319.912;  -70.600; -424.000; -519.000
320.048; -163.275;-1184.000;-1184.000
320.184;   -8.500;   59.000;   70.000
320.321;  -86.000; -497.000; -467.000
320.457;   37.125;  475.000;  662.000
320.593;  -85.625; -375.000; -382.000
320.729; -110.700; -732.000; -734.000
320.866; -100.875; -577.000; -635.000
321.002; -119.025; -759.000; -809.000
321.138;  -78.250; -135.000; -211.000
321.274;  -41.925; -148.000; -115.000
321.410;  -94.275; -585.000; -353.000
321.546; -142.225;-1011.000; -911.000
321.683;    3.550;  400.000;  185.000
321.819;  -43.400;  -48.000; -117.000
321.955; -124.625; -743.000; -722.000
322.091;  -92.450; -585.000; -540.000
322.227;  -62.150; -382.000; -202.000
322.363;  -57.400; -320.000; -215.000
322.499;  -73.250; -343.000; -331.000
322.635;   37.075;  636.000;  443.000
322.771;  -47.750; -139.000;   12.000
322.907;   26.375;  129.000;  327.000
323.043;  -59.675; -115.000; -206.000
323.179;  -72.650; -394.000; -363.000
323.315;  -83.075; -401.000; -371.000
323.451;  -69.625; -328.000; -236.000
323.587;  -50.300;  -60.000;  -77.000
323.723;  -97.975; -682.000; -601.000
323.859;  -51.975; -258.000;  -76.000
323.995;  -63.175; -467.000; -409.000
324.131; -142.625; -967.000; -892.000
324.267;  -48.925; -254.000; -276.000
324.402; -154.575; -960.000; -983.000
324.538;  -54.350; -279.000; -104.000
324.674;  -18.250;  164.000;   77.000
324.810;   -9.150;  226.000;  308.000
324.946;  -95.675; -810.000; -658.000
325.082;  -82.775; -568.000; -475.000
325.217;  -33.025;  -62.000;   16.000
325.353; -118.050; -764.000; -659.000
325.489;  -96.875; -540.000; -506.000
325.625;  -87.550; -579.000; -525.000
325.760;   14.325;  517.000;  376.000
325.896;  -90.150; -515.000; -702.000
326.032;  -70.775; -403.000; -352.000
326.168;  -71.875; -462.000; -369.000
326.303;  -81.425; -352.000; -461.000
326.439;  -49.875; -336.000; -276.000
326.575;  -40.375; -190.000;  -29.000
326.710;  -34.775; -156.000;  -30.000
326.846;  -29.425;  146.000;  103.000
326.982;  -99.450; -530.000; -548.000
327.117;  -90.525; -481.000; -442.000
327.253; -122.475; -745.000; -742.000
327.388; -163.975;-1137.000;-1153.000
327.524; -113.450; -811.000; -578.000
327.659;  -32.800;  -58.000;  -22.000
327.795;  -16.350;   69.000;   45.000
327.931; -110.000; -723.000; -499.000
328.066;  -67.350; -417.000; -276.000
328.202;  -58.050;   12.000; -129.000
328.337;   72.150;  957.000;  713.000
328.473;    9.175;  -12.000;  -74.000
328.608;  -35.000; -256.000; -267.000
328.743; -123.500; -799.000; -664.000
328.879;   -3.350;  214.000;  114.000
329.014;  -36.600; -102.000; -122.000
329.150;  -99.475; -358.000; -483.000
329.285;  -97.600; -465.000; -466.000
329.421;  -61.275; -548.000; -246.000
329.556;  -42.975;  -36.000;   85.000
329.691; -103.575; -633.000; -615.000
329.827; -102.575; -626.000; -480.000
329.962;  -56.500;  131.000; -301.000
330.097; -104.075; -673.000; -585.000
330.233;  -64.975; -410.000; -223.000
330.368; -128.900; -839.000; -628.000
330.503;  -43.550;    3.000;   98.000
330.638;  -41.950;  -93.000; -125.000
330.774; -114.000; -609.000; -530.000
330.909;  -68.825; -434.000; -244.000
331.044; -113.225; -714.000; -708.000
331.179; -180.625;-1217.000;-1109.000
331.315;   -4.075;   77.000;   20.000
331.450;   -5.000;  157.000;  285.000
331.585; -115.925; -805.000; -706.000
331.720; -104.275; -510.000; -460.000
331.855;  -38.650;  -35.000; -102.000
331.990;  -31.175;   62.000;  138.000
332.126;  -13.700; -110.000;   71.000
332.261;  -66.325; -379.000; -265.000
332.396;  -51.800; -135.000; -242.000
332.531; -150.175;-1074.000;-1031.000
332.666;  -65.100; -519.000; -363.000
332.801; -128.475; -726.000; -807.000
332.936;  -51.900; -192.000; -122.000
333.071; -142.425; -870.000; -817.000
333.206;   -2.325;  307.000;  379.000
333.341;    3.175;  344.000;  418.000
333.476;  -97.100; -627.000; -623.000
333.611;  -63.800; -251.000; -173.000
333.746;  -59.675; -381.000; -464.000
333.881; -136.700; -973.000; -935.000
334.016; -138.100; -936.000; -917.000
334.151; -135.150; -746.000; -702.000
334.286;  -12.225;  152.000;  186.000
334.421;  -53.300; -125.000; -178.000
334.556;  -80.375; -611.000; -567.000
334.690; -112.375; -631.000; -577.000
334.825;    8.775;  381.000;   83.000
334.960;  -88.225; -285.000; -413.000
335.095;  -26.950;  135.000;  -91.000
335.230; -119.250; -722.000; -738.000
335.365; -148.000;-1084.000; -990.000
335.499; -167.950;-1108.000;-1037.000
335.634;  -24.950;    9.000;  534.000
335.769; -124.150; -755.000; -720.000
335.904; -110.050; -603.000; -561.000
336.038; -119.850; -735.000; -657.000
336.173; -174.375;-1206.000;-1194.000
336.308;  -60.550; -116.000; -189.000
336.443;  -61.950; -544.000; -634.000
336.577; -152.500; -936.000; -787.000
336.712;  -30.875;   -4.000;  -12.000
336.847; -119.525; -724.000; -607.000
336.981;  -58.825; -272.000; -208.000
337.116;   25.700;  615.000;  501.000
337.250;  -87.750; -434.000; -421.000
337.385;  -76.575; -297.000; -208.000
337.520; -100.100; -632.000; -603.000
337.654;  -61.975; -215.000; -126.000
337.789; -142.200; -989.000; -933.000
337.923;  -65.625; -104.000; -205.000
338.058; -122.750; -673.000; -738.000
338.192; -104.900; -611.000; -488.000
338.327;  -42.100;  -18.000; -155.000
338.461;  -91.875; -299.000; -469.000
338.596; -123.675; -780.000; -638.000
338.730; -132.375; -767.000; -803.000
338.865;  -40.575;  -46.000; -140.000
338.999; -137.725; -846.000; -702.000
339.134;  -96.600; -634.000; -536.000
339.268; -118.425; -741.000; -603.000
339.403; -117.325; -740.000; -775.000
339.537; -133.550; -894.000; -820.000
339.671; -137.300; -829.000; -813.000
339.806;  -96.850; -556.000; -512.000
339.940;  -49.650; -261.000; -235.000
340.074; -109.450; -685.000; -510.000
340.209;  -50.700; -351.000; -230.000
340.343; -111.375; -517.000; -573.000
340.477;  106.025;  998.000; 1036.000
340.612; -144.700;-1033.000; -900.000
340.746;  -66.100; -199.000; -243.000
340.880; -144.650; -924.000; -785.000
341.014;  -41.350;  -45.000; -154.000
341.149; -120.725; -756.000; -718.000
341.283; -113.550; -839.000; -754.000
341.417; -156.000;-1124.000; -938.000
341.551; -110.600; -768.000; -708.000
341.685; -103.850; -633.000; -611.000
341.820;  -97.825; -562.000; -493.000
341.954;  -87.475; -218.000; -349.000
342.088; -146.950;-1102.000;-1019.000
342.222;   25.475;  565.000;  618.000
342.356;  -94.725; -395.000; -335.000
342.490; -136.825; -880.000; -841.000
342.624;  -74.850; -339.000; -242.000
342.758;  -82.200; -364.000; -312.000
342.892; -105.525; -710.000; -585.000
343.026;  -44.225;  -58.000; -116.000
343.160;  -71.575; -426.000; -376.000
343.294; -108.800; -474.000; -337.000
343.428; -106.500; -488.000; -448.000
343.562;  -42.275; -172.000;  -23.000
343.696;  -64.350; -385.000; -314.000
343.830;  -65.150; -362.000; -356.000
343.964;  -47.375; -231.000; -168.000
344.098;  -36.550;  199.000;   70.000
344.232;  -46.425; -266.000; -127.000
344.366; -105.425; -567.000; -453.000
344.500; -110.600; -665.000; -744.000
344.634;  -68.375; -324.000; -164.000
344.768;  -98.250; -531.000; -341.000
344.902;   -1.250;  278.000;  256.000
345.035;  -83.675; -556.000; -496.000
345.169; -140.125; -933.000; -656.000
345.303;  -81.075; -308.000; -482.000
345.437; -138.600; -826.000; -717.000
345.571; -103.700; -675.000; -594.000
345.704;  -87.700; -309.000; -532.000
345.838;  -66.175; -331.000; -284.000
345.972; -104.200; -543.000; -495.000
346.106;  -22.800; -179.000; -190.000
346.239;  -63.800; -312.000; -243.000
346.373;  -82.150; -343.000; -302.000
346.507; -162.125; -950.000; -962.000
346.640;  -40.925;  -30.000;   13.000
346.774; -121.775; -650.000; -797.000
346.908;  -44.025; -138.000;  -11.000
347.041; -113.025; -646.000; -593.000
347.175;  -21.750;  259.000;   27.000
347.309; -117.625; -698.000; -628.000
347.442; -136.525; -883.000; -732.000
347.576;   41.975;  670.000;  668.000
347.709;  -38.550; -123.000;  -52.000
347.843; -152.625; -933.000; -825.000
347.976;    4.275;  235.000;  294.000
348.110; -198.250;-1268.000;-1186.000
348.243; -119.900; -679.000; -772.000
348.377;  -23.550;  -26.000;   60.000
348.510;   30.150;  403.000;  540.000
348.644;  -53.800;  -37.000; -159.000
348.777;  -22.850;  180.000;  191.000
348.911;  -67.975; -142.000; -112.000
349.044;   25.775;  471.000;  448.000
349.178; -168.950;-1069.000;-1006.000
349.311;  -22.875;  141.000;  255.000
349.444; -148.950; -927.000; -813.000
349.578;  -56.550; -347.000; -200.000
349.711; -153.150; -959.000; -862.000
349.845;  -99.025; -661.000; -591.000
349.978; -178.175;-1224.000;-1137.000
350.111; -104.900; -546.000; -612.000
350.244; -126.425; -596.000; -700.000
350.378;  -94.525; -392.000; -393.000
350.511;  -82.650; -393.000; -426.000
350.644; -126.950; -808.000; -806.000
350.778;  -40.475;  168.000;  104.000
350.911;  -29.625;  134.000;  140.000
351.044; -117.575; -685.000; -615.000
351.177;  -72.050; -321.000; -281.000
351.310;  -41.700;    3.000; -131.000
351.444; -130.925; -888.000; -788.000
351.577;  -35.125;  140.000;   90.000
351.710;   48.825;  593.000;  417.000
351.843;  -43.200; -165.000;  -77.000
351.976;  -22.950;  149.000;  -79.000
352.109; -122.875; -621.000; -612.000
352.242;  -78.825; -464.000; -419.000
352.376; -100.100; -580.000; -636.000
352.509;  -78.375; -437.000; -356.000
352.642; -159.500; -654.000; -604.000
352.775;  -50.600; -141.000;  -98.000
352.908; -153.550; -933.000; -904.000
353.041; -121.875; -814.000; -824.000
353.174;  -94.825; -551.000; -424.000
353.307; -115.275; -753.000; -764.000
353.440;   11.325;  541.000;  453.000
353.573; -153.400; -957.000;-1008.000
353.706; -129.925; -384.000; -558.000
353.839;  -56.250; -264.000; -220.000
353.971; -107.750; -657.000; -512.000
354.104; -136.850; -896.000; -835.000
354.237; -123.300; -627.000; -662.000
354.370; -123.275; -846.000; -879.000
354.503; -179.250;-1231.000;-1308.000
354.636;  -73.150; -529.000; -348.000
354.769; -159.050; -937.000; -860.000
354.902;  -49.750; -230.000; -139.000
355.034;  -68.275; -164.000; -220.000
355.167;  -62.200; -262.000; -162.000
355.300; -148.025;-1061.000; -880.000
355.433;  -28.825;  -71.000;  -14.000
355.565;  -95.400; -402.000; -384.000
355.698;  -63.075; -356.000; -296.000
355.831; -147.400; -882.000; -801.000
355.964;  -52.800; -285.000; -170.000
356.096; -151.500; -856.000; -843.000
356.229;  -87.600; -523.000; -530.000
356.362;  -68.275; -373.000; -266.000
356.494;  -76.350; -229.000; -162.000
356.627;  -19.575;  269.000;  377.000
356.760;  -30.000;  120.000;   53.000
356.892;  -76.125; -286.000; -601.000
357.025;   24.400;  403.000;  389.000
357.157;  -60.225; -167.000; -179.000
357.290; -140.300; -856.000; -713.000
357.423; -123.725; -667.000; -556.000
357.555;  -41.825; -217.000; -228.000
357.688; -101.650; -483.000; -364.000
357.820; -144.875; -870.000; -877.000
357.953; -111.750; -563.000; -589.000
358.085; -125.175; -632.000; -612.000
358.218; -161.350;-1131.000; -932.000
358.350;  -35.575;  -58.000;  312.000
358.483; -184.075;-1300.000;-1187.000
358.615; -161.025;-1182.000;-1078.000
358.747; -176.350;-1187.000;-1058.000
358.880; -111.775; -810.000; -744.000
359.012;  -94.350; -376.000; -202.000
359.145;  -83.075; -480.000; -511.000
359.277; -152.650; -962.000; -913.000
359.409;   13.875;  536.000;  231.000
359.542; -131.500; -738.000; -688.000
359.674;  -25.900;   46.000;   13.000
359.806; -111.150; -565.000; -438.000
359.939;  -82.250; -617.000; -516.000
360.071;  -99.550; -583.000; -579.000
360.203;  -61.150; -411.000; -364.000
360.335;  -23.050;  164.000;  -16.000
360.468;  -64.675; -249.000; -307.000
360.600; -109.825; -547.000; -454.000
360.732; -110.775; -546.000; -423.000
360.864; -185.200;-1216.000;-1044.000
360.996;  -79.350; -516.000; -554.000
361.129;  -99.500; -389.000; -598.000
361.261;  -46.100;  110.000; -113.000
361.393;  -72.075; -252.000; -214.000
361.525;  -13.350;   94.000;  244.000
361.657; -149.450; -821.000; -703.000
361.789;  -54.725; -139.000; -155.000
361.921; -116.500; -642.000; -593.000
362.053;   19.350;  524.000;  541.000
362.185;  -24.800;  288.000;   72.000
362.318; -135.850; -709.000; -705.000
362.450;    4.550;  294.000;  444.000
362.582; -153.175; -913.000; -870.000
362.714;  -78.900; -353.000; -332.000
362.846; -101.975; -606.000; -490.000
362.978; -158.275; -941.000; -811.000
363.109;  -65.675; -161.000; -260.000
363.241; -135.475; -739.000; -749.000
363.373; -105.100; -649.000; -564.000
363.505;  -39.850; -186.000;  -91.000
363.637; -115.550; -787.000; -601.000
363.769; -178.350;-1067.000;-1080.000
363.901; -110.050; -596.000; -654.000
364.033; -175.350;-1103.000;-1062.000
364.165;  -59.125; -283.000; -283.000
364.296;  -79.850; -316.000; -177.000
364.428; -190.675;-1344.000;-1220.000
364.560; -118.375; -679.000; -661.000
364.692; -107.125; -738.000; -835.000
364.824; -112.575; -588.000; -456.000
364.955;  -76.775; -402.000; -564.000
365.087; -170.250;-1097.000; -852.000
365.219; -128.125; -686.000; -816.000
365.351; -109.975; -526.000; -572.000
365.482;  -16.800;  300.000;  240.000
365.614;  -83.625; -402.000; -314.000
365.746; -122.000; -729.000; -752.000
365.877; -130.875; -706.000; -672.000
366.009;  -43.200;  -35.000;  -62.000
366.141; -192.875;-1249.000;-1134.000
366.272; -132.500; -803.000; -719.000
366.404; -147.300;-1005.000; -874.000
366.535;  -39.100; -139.000;  -12.000
366.667; -128.525; -644.000; -649.000
366.799;   11.675;  353.000;  203.000
366.930; -167.975; -862.000; -996.000
367.062; -104.450; -639.000; -613.000
367.193; -155.575; -872.000; -842.000
367.325;  -91.850; -580.000; -684.000
367.456;  -74.825; -246.000;   31.000
367.588;  -76.250; -371.000; -318.000
367.719;  -56.275;  -44.000;  -45.000
367.851;  -62.675; -222.000; -241.000
367.982; -148.150; -875.000; -732.000
368.113;  -79.075; -475.000; -358.000
368.245; -160.425; -960.000; -841.000
368.376;  -77.425; -254.000; -302.000
368.508;  -70.775; -188.000; -263.000
368.639; -173.850;-1166.000;-1034.000
368.770; -128.300; -670.000; -589.000
368.902; -135.450; -836.000; -926.000
369.033; -158.300; -906.000; -855.000
369.164; -122.350; -720.000; -653.000
369.296; -131.475; -452.000; -601.000
369.427;  -55.000; -209.000; -144.000
369.558; -107.150; -593.000; -377.000
369.689; -114.200; -721.000; -569.000
369.821; -162.350; -951.000; -845.000
369.952;  -51.650;   42.000; -108.000
370.083;  -67.975; -229.000; -108.000
370.214; -109.300; -735.000; -650.000
370.345;  -30.850;   65.000;   81.000
370.477; -134.100; -810.000; -790.000
370.608;  -78.750; -328.000; -264.000
370.739; -169.625;-1233.000;-1292.000
370.870; -172.525;-1102.000; -923.000
371.001;  -81.725; -378.000; -467.000
371.132; -118.275; -754.000; -735.000
371.263;  -49.350;  -42.000; -148.000
371.394; -149.875; -841.000; -748.000
371.525;  -12.100;  345.000;  225.000
371.657; -145.350; -808.000; -670.000
371.788;  -10.850;  103.000;  199.000
371.919;  -84.325; -384.000; -304.000
372.050;  -50.575;  -91.000; -156.000
372.181;  -53.150; -188.000; -294.000
372.311;  -36.875;   42.000; -127.000
372.442;  -95.125; -457.000; -451.000
372.573;  -70.200; -444.000; -340.000
372.704; -156.175;-1008.000; -980.000
372.835;  -75.325; -228.000; -289.000
372.966; -127.700; -646.000; -554.000
373.097; -125.825; -575.000; -711.000
373.228; -124.825; -717.000; -542.000
373.359; -127.800; -824.000; -536.000
373.490; -144.225; -881.000; -727.000
373.620; -153.100;-1001.000; -803.000
373.751;  -96.850; -332.000; -396.000
373.882; -117.950; -663.000; -733.000
374.013;  -79.225; -449.000; -262.000
374.143; -114.850; -581.000; -659.000
374.274; -166.425; -987.000; -908.000
374.405;  -67.600; -388.000; -276.000
374.536;  -95.425; -526.000; -387.000
374.666; -129.350; -759.000; -807.000
374.797; -127.250; -817.000; -868.000
374.928; -111.450; -710.000; -560.000
375.058; -115.325; -535.000; -500.000
375.189;  -48.425;  -59.000;  -93.000
375.320; -156.325; -928.000;-1034.000
375.450; -114.525; -625.000; -616.000
375.581; -102.225; -526.000; -436.000
375.712;  -65.775; -574.000; -250.000
375.842; -107.275; -438.000; -415.000
375.973; -115.125; -554.000; -513.000
376.103; -119.175; -665.000; -648.000
376.234; -101.275; -531.000; -552.000
376.364; -154.875; -944.000; -867.000
376.495;   62.300;  925.000;  529.000
376.625; -108.575; -472.000; -485.000
376.756; -124.700; -709.000; -678.000
376.886; -186.050;-1178.000;-1026.000
377.017; -160.225;-1048.000;-1061.000
377.147; -155.600; -786.000; -782.000
377.278;  -20.550;  174.000;  228.000
377.408; -147.650; -801.000; -815.000
377.538; -124.800; -707.000; -693.000
377.669; -124.875; -537.000; -613.000
377.799; -120.650; -645.000; -635.000
377.929; -100.400; -610.000; -428.000
378.060; -150.800; -781.000; -847.000
378.190; -143.750; -726.000; -531.000
378.320;  -82.075; -401.000; -406.000
378.451;  -34.025; -131.000;  -22.000
378.581;  -47.525;  -67.000; -110.000
378.711;   50.775; 1035.000;  866.000
378.841; -114.325; -533.000; -675.000
378.972; -147.825; -871.000; -751.000
379.102; -116.525; -652.000; -579.000
379.232;  -68.625; -126.000;  -73.000
379.362; -160.150;-1001.000; -885.000
379.492; -111.475; -373.000; -424.000
379.623;  -11.700;    0.000;  111.000
379.753; -175.775;-1107.000; -974.000
379.883;  -30.525;   59.000;  156.000
380.013; -169.175;-1081.000;-1017.000
380.143; -168.825;-1097.000;-1056.000
380.273; -159.800; -985.000; -861.000
380.403;  -64.525; -344.000; -257.000
380.533; -128.150; -651.000; -664.000
380.663;  -21.325;  173.000;  128.000
380.793; -184.525;-1027.000;-1074.000
380.923;  -53.050; -103.000;  -34.000
381.053; -119.725; -613.000; -623.000
381.183;  -57.100; -106.000; -248.000
381.313; -115.300; -656.000; -470.000
381.443; -108.100; -692.000; -473.000
381.573;  -99.875; -402.000; -409.000
381.703; -169.525;-1249.000;-1095.000
381.833; -221.975;-1454.000;-1336.000
381.963;  -26.575; -134.000;  -87.000
382.093; -157.875; -925.000; -909.000
382.223; -118.300; -713.000; -602.000
382.353; -128.125; -801.000; -608.000
382.482; -171.050;-1091.000; -964.000
382.612; -132.750; -872.000; -644.000
382.742; -119.425; -695.000; -622.000
382.872; -115.300; -565.000; -551.000
383.002;  -31.675;  347.000; -132.000
383.131;  -83.850; -226.000; -160.000
383.261; -125.775; -706.000; -768.000
383.391; -109.150; -552.000; -377.000
383.521;   11.050;  451.000;  263.000
383.650; -164.025; -947.000; -904.000
383.780; -114.725; -783.000; -656.000
383.910;   40.475;  880.000;  802.000
384.039; -138.800; -794.000; -656.000
384.169; -183.775;-1205.000;-1017.000
384.299; -115.700; -650.000; -662.000
384.428; -129.150; -764.000; -680.000
384.558;  -84.350; -308.000; -275.000
384.687;  -76.800; -414.000; -334.000
384.817;  -16.825;   75.000;   -2.000
384.947;  -75.125; -234.000; -141.000
385.076;   80.500;  982.000;  912.000
385.206;   -1.225;  369.000;  480.000
385.335;  -95.750; -549.000; -417.000
385.465; -125.975; -655.000; -663.000
385.594;  -47.275;  -53.000;  -44.000
385.724; -143.525; -868.000; -838.000
385.853;  -69.750; -296.000; -270.000
385.982; -136.950; -743.000; -787.000
386.112; -146.600;-1052.000; -871.000
386.241;  -97.650; -307.000; -312.000
386.371;  -83.125; -174.000;  -87.000
386.500; -147.475; -825.000; -789.000
386.629; -140.800; -874.000; -817.000
386.759;  -52.850;  -43.000;   68.000
386.888;  -58.200; -170.000; -250.000
387.017; -123.975; -648.000; -620.000
387.147; -132.250; -771.000; -798.000
387.276; -110.725; -410.000; -397.000
387.405;  -88.000; -398.000; -342.000
387.535; -104.225; -452.000; -361.000
387.664; -110.950; -692.000; -620.000
387.793;  -87.900; -198.000; -113.000
387.922;  -27.525;  255.000;  200.000
388.052; -119.325; -576.000; -423.000
388.181;  -84.550; -342.000; -472.000
388.310; -145.650; -889.000; -710.000
388.439; -141.375; -749.000; -742.000
388.568;  -19.450;  365.000;  244.000
388.697; -124.800; -756.000; -653.000
388.826; -118.100; -768.000; -666.000
388.956;  -84.400; -285.000; -307.000
389.085;  -88.325; -347.000; -287.000
389.214; -139.900; -842.000; -872.000
389.343; -139.550; -645.000; -413.000
389.472;   -7.475;  126.000;  149.000
389.601;  -37.400;   91.000;    0.000
389.730; -111.550; -568.000; -687.000
389.859;  -24.300;  226.000;   46.000
389.988;  -85.525; -423.000; -408.000
390.117;  -73.800; -168.000; -146.000
390.246;  -87.350; -331.000; -320.000
390.375; -137.050; -673.000; -626.000
390.504; -106.800; -703.000; -621.000
390.633; -148.875; -672.000; -726.000
390.761; -130.275; -732.000; -645.000
390.890;  -47.650;   -4.000; -130.000
391.019;  -89.375; -421.000; -441.000
391.148; -154.250; -826.000; -855.000
391.277; -113.675; -576.000; -493.000
391.406; -144.875; -821.000; -805.000
391.534;  -27.875;  574.000; -301.000
391.663; -116.250; -583.000; -645.000
391.792; -134.525; -673.000; -701.000
391.921;  -37.900;   -3.000;   15.000
392.050;  -73.175; -287.000; -228.000
392.178; -195.725;-1206.000;-1061.000
392.307; -127.575; -758.000; -712.000
392.436; -140.475; -427.000; -641.000
392.564;  -25.775;  166.000;   -6.000
392.693; -150.950; -860.000; -682.000
392.822; -122.100; -529.000; -534.000
392.950; -148.025; -880.000; -714.000
393.079;  -87.275; -188.000; -328.000
393.208; -104.550; -488.000; -511.000
393.336;  -53.375; -170.000; -145.000
393.465;  -84.450; -317.000; -199.000
393.593;  -23.200;   62.000;   79.000
393.722; -172.075;-1121.000; -916.000
393.850;  -58.625; -188.000;  -61.000
393.979; -174.700; -926.000; -805.000
394.107; -106.250; -517.000; -537.000
394.236; -119.225; -570.000; -507.000
394.364;   14.250;  383.000;  206.000
394.493; -145.400; -911.000; -767.000
394.621; -146.725; -955.000; -916.000
394.750; -170.800; -873.000; -923.000
394.878;  -65.400; -247.000; -149.000
395.007; -143.225; -721.000; -807.000
395.135; -129.150; -790.000; -721.000
395.263; -169.325;-1038.000;-1040.000
395.392;  -58.825;  -25.000; -107.000
395.520; -155.950; -818.000; -679.000
395.648; -142.200; -865.000; -915.000
395.777;  -95.975; -366.000; -405.000
395.905; -116.000; -449.000; -564.000
396.033;  -43.575;  217.000;  172.000
396.162;  -88.075; -399.000; -453.000
396.290;  -79.350;  -17.000;   -2.000
396.418; -105.275; -555.000; -514.000
396.546; -109.575; -571.000; -466.000
396.674; -146.050; -850.000; -878.000
396.803;  -48.375;  -72.000;  -23.000
396.931;  -70.700; -179.000; -199.000
397.059; -173.175;-1026.000; -989.000
397.187; -160.275;-1026.000; -975.000
397.315; -140.675; -884.000; -649.000
397.443; -116.675; -592.000; -443.000
397.572; -111.825; -578.000; -424.000
397.700; -115.625; -607.000; -614.000
397.828;  -57.225;  120.000;  -90.000
397.956;  -96.975; -508.000; -478.000
398.084; -136.400; -767.000; -626.000
398.212;  -25.975;  137.000;  124.000
398.340;  -52.025;  -56.000;  159.000
398.468;  -81.450; -390.000; -169.000
398.596; -166.675; -993.000; -953.000
398.724; -138.075; -762.000; -767.000
398.852; -166.400;-1024.000; -976.000
398.980; -100.475; -560.000; -560.000
399.108; -135.775; -982.000; -735.000
399.236;  -44.275;   13.000;    8.000
399.363;  -35.725;  222.000;  196.000
399.491;  -99.225; -404.000; -398.000
399.619; -165.175; -829.000; -800.000
399.747; -139.800; -859.000; -771.000
399.875;  -18.450;  220.000;  234.000
400.003;  -88.325; -359.000; -284.000
400.130;  -99.700; -421.000; -341.000
400.258;  -47.025;  -83.000;   38.000
400.386;  -77.825; -352.000; -168.000
400.514; -114.325; -526.000; -587.000
400.641; -166.575; -928.000; -802.000
400.769; -156.675; -979.000; -888.000
400.897; -140.800; -838.000; -793.000
401.025;  -67.325; -166.000; -152.000
401.152;  -30.225;  220.000;   38.000
401.280;  -91.625; -430.000; -429.000
401.408; -129.925; -712.000; -576.000
401.535; -129.575; -735.000; -758.000
401.663; -198.325;-1134.000;-1054.000
401.790; -106.125; -514.000; -525.000
401.918;    4.575;  436.000;  405.000
402.046;  -34.100;  134.000;  122.000
402.173;  -65.675;  -18.000;    7.000
402.301; -100.825; -519.000; -397.000
402.428;    4.225;  528.000;  383.000
402.556; -176.000;-1188.000; -913.000
402.683;  -58.700;  -20.000;   -1.000
402.811;  -54.325;  -37.000; -206.000
402.938;  -57.575;   20.000;   27.000
403.066; -111.450; -574.000; -558.000
403.193;  -55.375;  299.000;  239.000
403.321;  -95.500; -396.000; -574.000
403.448;  -28.025;   83.000;   27.000
403.575;  -60.825;  -90.000;  -46.000
403.703; -139.950; -732.000; -557.000
403.830; -101.625; -531.000; -496.000
403.957; -175.175;-1117.000;-1023.000
404.085;  -74.000;  -61.000; -172.000
404.212;  -39.525;  -50.000;   63.000
404.339;  -88.775; -566.000; -306.000
404.467; -114.625; -612.000; -524.000
404.594;  -71.625; -287.000; -227.000
404.721; -147.525; -869.000; -764.000
404.848;  -55.950; -113.000; -202.000
404.976; -149.275; -856.000; -783.000
405.103;  -36.075;  -14.000;  -82.000
405.230;  -48.950;  190.000;  226.000
405.357;  -50.750;  117.000;   44.000
405.484;  -69.050;  -49.000;    5.000
405.612; -106.925; -548.000; -563.000
405.739; -101.250; -488.000; -243.000
405.866;   32.675;  669.000;  385.000
405.993;  -94.275; -398.000; -102.000
406.120; -137.500; -801.000; -887.000
406.247;  -99.250; -323.000; -342.000
406.374;   19.925;  540.000;  629.000
406.501; -127.125; -632.000; -702.000
406.628; -111.175; -621.000; -589.000
406.755; -147.925; -803.000; -620.000
406.882;  -76.575; -228.000; -277.000
407.009; -123.075; -719.000; -628.000
407.136;  -84.925; -480.000; -401.000
407.263; -157.950; -939.000; -829.000
407.390; -126.775; -692.000; -614.000
407.517; -187.825;-1139.000;-1187.000
407.644;  -97.300; -332.000; -256.000
407.771; -171.375; -249.000; -287.000
407.898;  -33.075;  168.000;  328.000
408.025;  -97.775; -421.000; -313.000
408.151;  -29.750;   82.000;  153.000
408.278;  -93.850; -267.000; -216.000
408.405; -161.700; -931.000; -899.000
408.532; -129.175; -549.000; -542.000
408.659; -133.050; -677.000; -648.000
408.785; -196.775;-1298.000;-1170.000
408.912;  -77.275; -412.000; -296.000
409.039; -132.100; -610.000; -686.000
409.166; -118.625; -591.000; -555.000
409.292; -124.850; -571.000; -534.000
409.419; -129.850; -665.000; -649.000
409.546;  -97.675; -431.000; -192.000
409.672; -122.775; -713.000; -545.000
409.799;  -71.075;  -36.000;   34.000
409.926;  -75.325; -180.000; -179.000
410.052; -198.550;-1127.000;-1091.000
410.179;  -96.075; -368.000; -392.000
410.305; -105.525; -375.000; -493.000
410.432;  -84.375; -220.000; -333.000
410.558; -111.775; -305.000; -380.000
410.685; -111.225; -688.000; -431.000
410.812; -112.850; -409.000; -588.000
410.938; -149.700; -964.000; -808.000
411.065; -130.900; -671.000; -645.000
411.191;  -60.300; -189.000; -174.000
411.317; -146.900; -823.000; -742.000
411.444;  -85.775; -317.000; -246.000
411.570;  -98.850; -339.000; -294.000
411.697; -132.975; -758.000; -752.000
411.823; -186.975; -989.000; -999.000
411.949;  -58.125;  -56.000;   17.000
412.076; -123.900; -539.000; -519.000
412.202; -132.675; -758.000; -757.000
412.329; -149.325; -798.000; -752.000
412.455; -133.650; -821.000; -657.000
412.581;  -46.450;  -15.000;  172.000
412.707; -102.825; -540.000; -457.000
412.834;  -31.050;  156.000;  219.000
412.960; -137.925; -785.000; -784.000
413.086; -146.225; -743.000; -701.000
413.212;   22.000;  604.000;  578.000
413.339; -136.725; -685.000; -701.000
413.465;  -88.175; -364.000; -310.000
413.591; -136.350; -757.000; -474.000
413.717;  -90.600; -358.000; -366.000
413.843; -152.950; -839.000; -861.000
413.969;  -97.375;  -47.000; -292.000
414.096; -135.675; -679.000; -679.000
414.222;  -44.350;  -33.000;   85.000
414.348; -121.975; -652.000; -385.000
414.474;  -63.600;   38.000;  -52.000
414.600;  -59.975; -126.000; -144.000
414.726;  -60.600;  -96.000;  -55.000
414.852; -115.200; -365.000; -342.000
414.978;  -31.275;  104.000;  -18.000
415.104;  -48.425;   38.000;   80.000
415.230;  -91.975; -329.000; -330.000
415.356; -116.700; -409.000; -514.000
415.482;  -49.125;   13.000;  -35.000
415.608;  -94.025; -247.000; -323.000
415.734;  -46.000;   67.000;   38.000
415.860; -159.725; -875.000; -767.000
415.986; -136.425; -685.000; -607.000
416.111; -150.025; -798.000; -652.000
416.237; -103.725; -424.000; -571.000
416.363; -151.925; -765.000; -733.000
416.489; -105.150; -324.000; -251.000
416.615; -150.300; -707.000; -742.000
416.741; -132.800; -677.000; -784.000
416.866; -146.400; -673.000; -736.000
416.992; -154.175; -801.000; -818.000
417.118;  -78.225;  -41.000;  -80.000
417.244; -137.800; -798.000; -531.000
417.369; -151.000; -801.000; -612.000
417.495;  -89.250; -325.000; -254.000
417.621; -173.575;-1015.000; -803.000
417.746; -109.925; -579.000; -572.000
417.872;  -70.800; -254.000; -144.000
417.998; -114.400; -515.000; -530.000
418.123; -181.250;-1073.000; -845.000
418.249; -118.175; -512.000; -601.000
418.374; -163.525; -916.000; -824.000
418.500; -116.825; -383.000; -482.000
418.626;  -43.375;   70.000;  -59.000
418.751; -108.925; -549.000; -448.000
418.877; -128.250; -637.000; -643.000
419.002; -130.325; -688.000; -560.000
419.128; -161.425; -930.000; -721.000
419.253; -159.200; -967.000; -837.000
419.379; -114.050; -391.000; -338.000
419.504;  -13.050;  325.000;  415.000
419.629;  -85.775; -393.000; -212.000
419.755;  -81.900; -317.000; -254.000
419.880;  -76.850;  -98.000;   67.000
420.006;  -90.075; -280.000; -221.000
420.131; -143.400; -662.000; -775.000
420.256;  -93.550; -315.000; -316.000
420.382; -128.650; -665.000; -687.000
420.507; -133.450; -649.000; -778.000
420.632;  -84.025; -337.000; -339.000
420.758;  -73.200; -251.000; -425.000
420.883; -159.550; -876.000; -672.000
421.008; -131.450; -775.000; -619.000
421.133; -126.350; -509.000; -467.000
421.259;  -79.350; -325.000; -259.000
421.384; -143.725; -834.000; -693.000
421.509; -152.225;-1052.000; -862.000
421.634; -178.900; -936.000; -820.000
421.759; -104.025; -359.000; -327.000
421.885; -132.925; -717.000; -656.000
422.010; -111.375; -673.000; -542.000
422.135; -169.450; -695.000; -727.000
422.260;   -3.750;  340.000;  280.000
422.385;  -78.800;   12.000;  -98.000
422.510;  -49.175;  151.000;  -26.000
422.635;  -80.975;  -87.000;  -43.000
422.760; -140.225; -766.000; -791.000
422.885;  -62.175;  -57.000;  -80.000
423.010;  -61.525; -112.000; -169.000
423.135; -126.750; -481.000; -561.000
423.260;  -74.225; -150.000; -245.000
423.385;  -31.600;  476.000;  222.000
423.510;  -30.775;   71.000;  -22.000
423.635;  -53.525;  133.000;   45.000
423.760;    2.850;  383.000;  328.000
423.885;  -27.475;  336.000;  391.000
424.010;  -36.825;  -68.000;  -13.000
424.135;  -70.900;    5.000;  -33.000
424.259; -124.700; -654.000; -457.000
424.384; -120.575; -279.000; -272.000
424.509;  -66.175; -260.000; -186.000
424.634; -150.375; -761.000; -623.000
424.759; -134.350; -688.000; -544.000
424.883; -114.700; -506.000; -527.000
425.008; -122.850; -502.000; -410.000
425.133; -140.550; -679.000; -653.000
425.258; -114.000; -517.000; -381.000
425.382; -147.500; -867.000; -774.000
425.507; -115.950; -487.000; -543.000
425.632; -157.875; -802.000; -663.000
425.756;  -85.625; -256.000; -146.000
425.881; -153.000; -831.000; -857.000
426.006; -109.725; -604.000; -355.000
426.130; -148.050; -696.000; -508.000
426.255; -112.950; -611.000; -491.000
426.379;  -80.875; -189.000; -577.000
426.504;   18.075;  660.000;  544.000
426.629; -138.775; -519.000; -466.000
426.753;  -51.325;   64.000;  -46.000
426.878;  -93.675; -252.000; -288.000
427.002; -116.700; -651.000; -668.000
427.127;  -78.475;  -35.000; -158.000
427.251;  -16.450;  372.000;  401.000
427.375;  -92.900; -191.000; -173.000
427.500; -139.650; -616.000; -610.000
427.624; -107.250; -234.000; -400.000
427.749;  -89.000; -216.000; -225.000
427.873; -131.075; -499.000; -412.000
427.997;  -85.825; -222.000; -230.000
428.122;   16.375;  795.000;  703.000
428.246;   -5.375;  433.000;  434.000
428.371; -161.200; -869.000; -773.000
428.495; -140.150; -624.000; -646.000
428.619;  -85.175; -186.000; -117.000
428.743;  -48.525;   65.000;  132.000
428.868; -149.850; -732.000; -643.000
428.992;  -77.625; -219.000; -326.000
429.116; -108.975; -329.000; -357.000
429.240;  -17.600;  419.000;  426.000
429.365; -120.000; -454.000; -574.000
429.489; -128.125; -638.000; -647.000
429.613;  -72.025; -236.000; -177.000
429.737; -114.000; -563.000; -432.000
429.861;  -93.275; -247.000; -133.000
429.985; -112.750; -425.000; -305.000
430.109; -170.025; -770.000; -908.000
430.234;  -39.550;   76.000;  -50.000
430.358; -105.675; -250.000; -160.000
430.482; -148.575; -672.000; -564.000
430.606; -127.750; -655.000; -375.000
430.730; -112.350; -437.000; -388.000
430.854; -170.550; -909.000; -835.000
430.978; -160.375; -795.000; -764.000
431.102; -129.300; -499.000; -422.000
431.226; -154.150; -874.000; -815.000
431.350;  -17.625;  345.000;  422.000
431.474; -123.050; -661.000; -373.000
431.597; -186.025;-1060.000; -848.000
431.721;  -86.725; -276.000; -267.000
431.845; -148.675; -704.000; -472.000
431.969;  -82.375; -304.000; -349.000
432.093; -117.500; -395.000; -317.000
432.217;  -39.725;   32.000;   82.000
432.341; -124.400; -523.000; -518.000
432.464;  -56.775;   96.000;   40.000
432.588; -123.625; -401.000; -329.000
432.712;  -57.650;  -52.000;  -52.000
432.836;  -16.350;  213.000;  263.000
432.959; -101.450; -372.000; -311.000
433.083;  -53.200;   11.000;    2.000
433.207;    1.275;  285.000;  930.000
433.330;  -96.175; -391.000; -200.000
433.454; -101.600; -654.000; -638.000
433.578;    7.400;  583.000;  278.000
433.701; -132.350; -623.000; -675.000
433.825; -105.925; -292.000; -299.000
433.949;  -62.525;   28.000;  -72.000
434.072;  -96.525; -410.000; -323.000
434.196;  -76.275; -309.000; -117.000
434.319; 3263.600;25482.000;25124.000
434.443; -134.625; -656.000; -603.000
434.566;  -45.000;  281.000;   62.000
434.690; -119.275; -637.000; -383.000
434.813; -104.450; -251.000; -173.000
434.937; -125.825; -569.000; -696.000
435.060; -110.700; -423.000; -332.000
435.184; -100.200; -492.000; -217.000
435.307;  -42.775;  159.000;  102.000
435.431;  -55.075;  -40.000;   24.000
435.554;  -99.500; -399.000; -240.000
435.677; -101.900; -350.000; -258.000
435.801;  -67.175;  -25.000;   49.000
435.924;  -51.650;    1.000;  -67.000
436.048; -155.000;-1019.000; -732.000
436.171;  -98.575; -240.000;  -66.000
436.294; -102.750; -248.000; -229.000
436.417; -180.450; -963.000; -849.000
436.541; -143.600; -814.000; -840.000
436.664;  -77.900; -242.000; -316.000
436.787;  -65.750;   13.000;  113.000
436.910; -130.975; -792.000; -422.000
437.034;  -42.300;  142.000;  143.000
437.157;  -40.175;  -11.000;    0.000
437.280; -114.800; -392.000; -292.000
437.403; -167.150; -982.000; -869.000
437.526; -171.550; -903.000; -865.000
437.649; -108.250; -505.000; -332.000
437.772; -158.550; -692.000; -540.000
437.896;    9.575;  700.000;  544.000
438.019; -147.475; -758.000; -503.000
438.142; -112.500; -596.000; -506.000
438.265; -141.925; -639.000; -670.000
438.388;  -99.800; -520.000; -410.000
438.511; -127.575; -597.000; -394.000
438.634;  -92.975; -247.000; -125.000
438.757; -156.375; -693.000; -619.000
438.880;  -56.175;  -34.000;  -57.000
439.003; -120.375; -417.000; -437.000
439.126;  -87.075; -287.000; -167.000
439.248;  -82.400;  -98.000; -139.000
439.371;  -55.025;    9.000;  -53.000
439.494;   -1.125;  510.000;  439.000
439.617;  -69.850;   65.000;  -88.000
439.740; -182.875; -968.000; -816.000
439.863; -137.200; -755.000; -595.000
439.986; -133.650; -476.000; -431.000
440.108;  -78.175; -161.000; -112.000
440.231; -190.600; -950.000; -836.000
440.354;  -81.075;  -64.000; -150.000
440.477; -146.575; -566.000; -542.000
440.599; -124.550; -200.000; -225.000
440.722; -146.550; -709.000; -586.000
440.845;   42.475;  751.000;  928.000
440.968; -108.275; -415.000; -311.000
441.090;  -79.650; -199.000;  -33.000
441.213; -176.650;-1021.000; -825.000
441.336;  -67.025; -159.000;   -5.000
441.458; -114.300; -549.000; -396.000
441.581; -143.125; -628.000; -629.000
441.703;  -95.025; -152.000;   13.000
441.826; -123.175; -557.000; -400.000
441.948;  -59.800;   56.000;   51.000
442.071;    8.175;  555.000;  424.000
442.193; -135.325; -531.000; -485.000
442.316;  -46.475;  152.000;   97.000
442.438;  -88.575; -233.000;  -10.000
442.561;  -34.050;  272.000;  262.000
442.683; -149.675; -809.000; -522.000
442.806;  -57.275;   -8.000;   74.000
442.928; -174.925; -859.000; -604.000
443.051; -127.750; -577.000; -373.000
443.173; -106.825; -341.000; -339.000
443.295; -107.925; -263.000; -371.000
443.418;  -88.800; -321.000;  -29.000
443.540;  -73.875; -106.000;   -4.000
443.662; -135.700; -563.000; -465.000
443.785;  -26.075;  335.000;  199.000
443.907; -105.300; -362.000; -208.000
444.029; -133.925; -767.000; -494.000
444.152; -151.875; -644.000; -554.000
444.274;  -51.150;  -18.000;  -24.000
444.396; -131.125; -461.000; -221.000
444.518; -145.400; -691.000; -454.000
444.640; -114.700; -268.000; -111.000
444.763;  -38.525;  388.000;  249.000
444.885; -131.525; -432.000; -392.000
445.007;  -49.550;   35.000;   86.000
445.129; -122.725; -610.000; -515.000
445.251; -116.700; -372.000; -439.000
445.373; -143.725; -537.000; -386.000
445.495;  -26.525;  242.000;  350.000
445.617;    7.300;  853.000;  753.000
445.739;  -88.850; -215.000;  -97.000
445.861;  -77.575; -245.000; -112.000
445.984;  -92.875; -267.000; -101.000
446.105; -121.725; -418.000; -251.000
446.227;  -77.975; -176.000;  -19.000
446.349; -134.150; -358.000; -249.000
446.471; -132.850; -615.000; -448.000
446.593; -110.650; -316.000;   19.000
446.715;  -73.700;  -67.000;   41.000
446.837;   38.775;  697.000;  832.000
446.959; -124.925; -457.000; -478.000
447.081; -143.525; -628.000; -518.000
447.203;   20.550;  862.000;  834.000
447.325;  -93.725; -270.000;   42.000
447.446;  -27.775;  286.000;  530.000
447.568; -174.450; -921.000; -803.000
447.690;  -95.775; -236.000; -245.000
447.812; -150.225; -798.000; -519.000
447.933;  -53.900;  155.000;  127.000
448.055; -105.250; -306.000; -261.000
448.177;  -43.825;   31.000;   79.000
448.299; -181.325; -935.000; -727.000
448.420;  -47.500;  -25.000;  159.000
448.542;  -69.675;   -3.000;   33.000
448.664;  -45.350;  109.000;  322.000
448.785;  -65.700;  265.000;   83.000
448.907; -120.175; -614.000; -353.000
449.028; -154.850; -771.000; -471.000
449.150;    7.300;  492.000;  589.000
449.272; -172.550;-1044.000; -913.000
449.393;    5.925;  612.000;  694.000
449.515; -152.700; -634.000; -581.000
449.636;  -96.650; -264.000; -155.000
449.758;   16.950;  763.000;  622.000
449.879; -105.300; -498.000; -396.000
450.001; -103.025; -149.000;  -49.000
450.122;  -71.375;  -95.000;  162.000
450.244;  -47.625;   37.000;  364.000
450.365; -127.275; -495.000; -301.000
450.486;  -67.875;   80.000;  268.000
450.608;  -30.075;  393.000;  326.000
450.729;   -1.150;  578.000;  645.000
450.850; -129.975; -574.000; -466.000
450.972; -158.050; -552.000; -389.000
451.093;  -26.225;  190.000;  588.000
451.214; -117.675; -516.000; -337.000
451.336;   23.300;  773.000;  579.000
451.457;  -33.575;  264.000;  393.000
451.578;  -81.425; -118.000;  -74.000
451.699; -148.525; -546.000; -540.000
451.821;  -89.425; -284.000;  -50.000
451.942;  -42.100;  278.000;  285.000
452.063;  -32.600;  228.000;  419.000
452.184;  -98.425;  -54.000;  -49.000
452.305;  -42.375;  103.000;  170.000
452.427; -134.650; -549.000; -301.000
452.548;  -75.325;   23.000;   79.000
452.669;  -85.900; -257.000;  -89.000
452.790;  -95.400;    3.000;  -18.000
452.911;  -49.900;  195.000;  259.000
453.032; -102.975; -289.000;  -60.000
453.153;  -77.375;  -29.000;   81.000
453.274;   38.425;  737.000;  868.000
453.395;  -77.300;  -51.000;  175.000
453.516;   63.525; 1317.000; 1388.000
453.637; -114.450; -205.000; -150.000
453.758;  -72.050;   15.000;   69.000
453.879; -128.575; -462.000; -250.000
454.000;   57.925; 1086.000;  948.000
454.121; -148.075; -554.000; -326.000
454.242; -138.025; -599.000; -383.000
454.362;  -74.550;  -99.000;  114.000
454.483;  -91.425; -309.000; -229.000
454.604;  -23.400;  512.000;  580.000
454.725; -145.800; -627.000; -555.000
454.846; -117.775; -474.000; -406.000
454.967;  -32.450;  230.000;  539.000
455.087;  -60.175;  179.000;  153.000
455.208;    0.475;  554.000;  856.000
455.329;  -75.950;  -22.000;   82.000
455.450;   -0.925;  473.000;  633.000
455.570; -111.100; -234.000; -211.000
455.691;  -60.200;  201.000;  407.000
455.812; -110.050; -270.000;  -92.000
455.932;  -68.700;  107.000;  -97.000
456.053;  -91.450;   36.000;   24.000
456.173; -107.125; -433.000; -355.000
456.294; -138.200; -476.000; -303.000
456.415;  -75.725;  -73.000;   70.000
456.535;  -40.875;  297.000;  273.000
456.656;  -63.150;  132.000;  240.000
456.776;  -76.350;    3.000;  298.000
456.897;  -18.425;  308.000;  513.000
457.017;  -90.350; -153.000;   -3.000
457.138; -111.625; -402.000; -249.000
457.258;  -36.950;  263.000;  224.000
457.379;  -22.275;  509.000;  521.000
457.499;  -45.225;  443.000;  432.000
457.620; -117.725; -407.000; -231.000
457.740;  -96.800; -132.000;  -11.000
457.860;  -65.675;   87.000;   44.000
457.981;  -69.725;  132.000;  124.000
458.101;  -88.975;  -89.000;   40.000
458.221;  -25.600;  336.000;  402.000
458.342;  -61.925;   -4.000;  -37.000
458.462;  -19.500;  617.000;  352.000
458.582; -107.625; -302.000; -294.000
458.703;  -76.225;  303.000;  154.000
458.823;  -61.150;   22.000;  163.000
458.943;  -38.625;  341.000;  467.000
459.063;  -62.150; 1124.000;  192.000
459.183;  -58.825;  328.000;  313.000
459.304;  -20.125;  315.000;  517.000
459.424;  -95.950; -246.000;  -89.000
459.544;   -4.125;  388.000;  764.000
459.664;  -34.175;  499.000;  506.000
459.784;   52.950; 1004.000; 1175.000
459.904;   -4.050;  867.000;  744.000
460.024;   20.500;  867.000;  684.000
460.144;  -27.725;  449.000;  554.000
460.264;  -24.700;  515.000;  327.000
460.385;  -97.650; -145.000; -119.000
460.505;   26.675;  905.000;  858.000
460.625;  -88.975;  -17.000;  -68.000
460.745;  -10.650;  396.000;  541.000
460.864;  -64.200;  153.000;  469.000
460.984;  -18.375;  499.000;  573.000
461.104;  111.700; 1656.000; 1775.000
461.224;    6.150;  657.000;  650.000
461.344;  -51.875;  431.000;  360.000
461.464;  -54.975;  258.000;  513.000
461.584;  -47.275;  283.000;  466.000
461.704;  -65.800;   58.000;  108.000
461.824;  -78.550;  238.000;  259.000
461.943;  -40.675;  191.000;  130.000
462.063;  -80.975;    2.000;  324.000
462.183;    5.225;  639.000;  717.000
462.303;   85.625; 1678.000; 1230.000
462.422;    3.275;  781.000;  840.000
462.542;  -64.450;  271.000;  391.000
462.662;  -31.800;  353.000;  380.000
462.782;  -15.500;  833.000;  572.000
462.901;   -5.275;  545.000;  717.000
463.021;   86.625; 1702.000; 1638.000
463.141;  -30.975;  337.000;  770.000
463.260;  -28.650;  614.000;  474.000
463.380;   11.575;  902.000;  884.000
463.499;  -43.450;  342.000;  332.000
463.619;  -35.775;  581.000;  559.000
463.738;   84.875; 1644.000;  903.000
463.858;   -8.675;  657.000;  811.000
463.978;  -25.575;  542.000;  396.000
464.097;   41.650;  921.000; 1114.000
464.217;   53.200; 1196.000; 1143.000
464.336;   60.750; 1068.000; 1130.000
464.455;  -30.950;  328.000;  659.000
464.575;    3.875;  597.000;  602.000
464.694;   49.200; 1204.000; 1179.000
464.814;   20.950; 1190.000; 1138.000
464.933;   41.825; 1095.000; 1027.000
465.052;   65.975; 1412.000; 1054.000
465.172;   15.900;  922.000;  799.000
465.291;   78.300; 1376.000; 1320.000
465.410;  -15.700;  462.000;  735.000
465.530;   62.350; 1355.000; 1310.000
465.649;   40.850; 1209.000; 1273.000
465.768;  120.200; 1673.000; 1508.000
465.888;   24.700;  941.000; 1174.000
466.007;   71.575; 1335.000; 1440.000
466.126;   -9.600;  721.000;  641.000
466.245;   30.450; 1176.000; 1187.000
466.364;    9.625;  950.000; 1060.000
466.484;   38.750; 1024.000; 1213.000
466.603;   20.275; 1101.000; 1222.000
466.722;   84.500; 1490.000; 1769.000
466.841;   55.950; 1151.000; 1401.000
466.960;   29.000; 1069.000;  972.000
467.079;  111.775; 1971.000; 1786.000
467.198;   30.300; 1238.000; 1181.000
467.317;   78.225; 1768.000; 1162.000
467.436;   53.625; 1709.000; 1261.000
467.555;  106.025; 1796.000; 1746.000
467.674;   54.050; 1227.000; 1329.000
467.793;   43.375; 1376.000; 1374.000
467.912;   67.850; 1658.000; 1539.000
468.031;  118.500; 2038.000; 1930.000
468.150;  116.425; 1842.000; 1837.000
468.269;  154.875; 2313.000; 2090.000
468.388;  168.425; 2168.000; 2339.000
468.507;  229.575; 2884.000; 2903.000
468.626;  215.900; 2555.000; 2541.000
468.744;  129.875; 2018.000; 2174.000
468.863;  210.225; 2312.000; 2523.000
468.982;   84.125; 1503.000; 1555.000
469.101;  211.525; 2788.000; 2692.000
469.220;  148.150; 2333.000; 2176.000
469.338;  230.700; 2935.000; 3051.000
469.457;  182.225; 2719.000; 2545.000
469.576;  333.150; 3953.000; 3784.000
469.695;  235.250; 2877.000; 3066.000
469.813;  399.425; 4148.000; 4192.000
469.932;  373.750; 4255.000; 4485.000
470.051;  340.175; 4075.000; 4161.000
470.169;  393.450; 4470.000; 4338.000
470.288;  418.850; 4700.000; 4809.000
470.406;  433.175; 5059.000; 5194.000
470.525;  560.700; 6101.000; 5787.000
470.644;  618.575; 6847.000; 6794.000
470.762;  787.975; 8397.000; 7873.000
470.881;  813.000; 8651.000; 8464.000
470.999;  936.700; 9685.000; 9151.000
471.118; 1068.275;11174.000;10711.000

