
Integration time [ms]: 100.000
Averaging Nr. [scans]: 40
Smoothing Nr. [pixels]: 0
Data measured with spectrometer [name]: 2101012U2
Wave   ;Sample   ;Dark     ;Reference
[nm]   ;[counts] ;[counts] ;[counts] 

197.733;   50.575;  516.000;  404.000
197.879;  -82.300; -610.000; -634.000
198.025;  -55.500; -475.000; -420.000
198.171;  -73.875; -602.000; -612.000
198.317;  -27.675; -401.000; -316.000
198.463;  -53.250; -655.000; -404.000
198.609;   26.850;  181.000; -137.000
198.755;  -80.500; -644.000; -410.000
198.901;  -56.000; -505.000; -424.000
199.047;  -74.575; -615.000; -488.000
199.193;  -30.850; -230.000; -468.000
199.339;  -43.000; -222.000; -369.000
199.485;   26.475;  330.000;  271.000
199.631;   27.950;  227.000;  310.000
199.777;  -55.075; -466.000; -398.000
199.923;  -53.650; -610.000; -424.000
200.069;    0.400; -141.000;  -58.000
200.215;   61.750;  128.000;  453.000
200.361;   22.300;  243.000;  477.000
200.507;  -59.275; -600.000; -373.000
200.653;  -25.675; -371.000; -194.000
200.798;  -36.875; -215.000; -125.000
200.944;   -6.675; -146.000;  -41.000
201.090;   40.250;   61.000;  222.000
201.236;    0.975; -116.000; -158.000
201.382;  105.475;  874.000;  903.000
201.528;   -2.100;  -58.000;  -48.000
201.674;  -58.125; -386.000; -293.000
201.819;  -57.800; -540.000; -439.000
201.965;  -87.900; -699.000; -447.000
202.111;  -24.875; -273.000; -226.000
202.257;  -28.150; -250.000; -238.000
202.402;    1.375;   13.000;  -36.000
202.548;  -22.975; -169.000; -116.000
202.694;   74.575;  410.000; -183.000
202.840;  -68.175; -603.000; -531.000
202.985;  -68.600; -681.000; -639.000
203.131; -102.700; -832.000; -666.000
203.277;  -30.925; -199.000; -262.000
203.423;  -45.600; -434.000; -520.000
203.568;  -39.375; -462.000; -237.000
203.714;  -59.900; -535.000; -542.000
203.860;  -76.100; -682.000; -641.000
204.005;   17.600;  112.000;  167.000
204.151;   77.925;  561.000;  556.000
204.296;  -38.100; -354.000; -221.000
204.442;  -69.525; -600.000; -547.000
204.588;  -74.175; -592.000; -579.000
204.733;    6.925;  178.000;  168.000
204.879; -131.625;-1018.000; -822.000
205.025;   23.550;  -99.000;  126.000
205.170;   14.425;  -17.000;   94.000
205.316;   92.075;  438.000;  661.000
205.461;  -87.625; -698.000; -554.000
205.607;   87.800;  609.000;  665.000
205.752;  -88.675; -626.000; -551.000
205.898;  -56.200; -501.000; -391.000
206.043;  -58.125; -578.000; -506.000
206.189;  -35.150; -243.000; -285.000
206.334;   65.900;  554.000;  606.000
206.480;   66.475;  409.000;  239.000
206.625;  -83.425; -529.000; -552.000
206.771;  -42.000; -451.000; -373.000
206.916;  -35.700; -210.000; -537.000
207.062;  -72.575; -545.000; -591.000
207.207;  -56.650; -546.000; -443.000
207.353;   67.150;  185.000;  460.000
207.498;   13.225;  196.000;   85.000
207.643;  -62.050; -501.000; -370.000
207.789; -129.075;-1069.000; -910.000
207.934; -106.800; -665.000; -713.000
208.080;  -30.575; -154.000;   66.000
208.225;  -20.350;  -22.000;  -57.000
208.370;  -89.125; -727.000; -619.000
208.516;  -78.975; -741.000; -487.000
208.661;  -28.600; -127.000;  -69.000
208.806;  -22.450; -165.000; -171.000
208.952; -137.325;-1044.000; -731.000
209.097;   65.450;  378.000;  349.000
209.242;  -51.950; -307.000; -382.000
209.387;   65.950;  392.000;  350.000
209.533;  -57.825; -321.000; -350.000
209.678;   74.325;  472.000;  543.000
209.823;  -52.700; -408.000; -310.000
209.969;  -96.525; -860.000; -757.000
210.114;  -98.900; -907.000; -719.000
210.259; -120.125; -939.000; -889.000
210.404;  -15.175; -171.000;  103.000
210.549;    3.775;  108.000;    3.000
210.695;  -11.025;   -3.000;  -95.000
210.840;   37.925;   94.000;   67.000
210.985;  -69.150; -484.000; -303.000
211.130;   70.300;  268.000;  406.000
211.275;   17.950;  207.000;  199.000
211.420;  -58.350; -300.000; -289.000
211.566;  -63.050; -536.000; -489.000
211.711;   20.525;  218.000;  157.000
211.856;  -73.975; -545.000; -519.000
212.001;    3.750;  151.000;   44.000
212.146;   19.925;  153.000;   49.000
212.291;  -40.375; -210.000; -186.000
212.436;  -33.075; -280.000;   -6.000
212.581;  -81.950; -685.000; -653.000
212.726;  -82.200; -487.000; -538.000
212.871;  -46.450; -552.000; -217.000
213.016; -157.675;-1172.000;-1029.000
213.161;   76.725;  406.000;  291.000
213.306;  -67.800; -435.000; -577.000
213.451;  -94.500; -778.000; -689.000
213.596;  -44.575; -455.000; -347.000
213.741;  -63.050; -448.000; -538.000
213.886;  -88.175; -498.000; -517.000
214.031;  -24.725; -294.000; -124.000
214.176;  -43.150; -408.000; -341.000
214.321;  -15.000; -296.000; -157.000
214.466;  -31.250; -163.000;  -43.000
214.611;  -11.825;  -61.000;  -10.000
214.756; -119.525; -948.000; -858.000
214.901;  -18.600; -388.000; -226.000
215.046; -120.400; -797.000; -825.000
215.191;    9.275;  128.000;   35.000
215.336;  -15.025; -157.000;  -19.000
215.480;  -65.775; -684.000; -505.000
215.625;  -19.600; -175.000;  -19.000
215.770;  -74.750; -757.000; -662.000
215.915;  -20.300;   -5.000;  -97.000
216.060;   -6.200; -113.000;  -21.000
216.205; -130.650; -731.000; -779.000
216.349;  -74.800; -470.000; -533.000
216.494; -138.775; -939.000; -867.000
216.639; -125.650; -823.000; -888.000
216.784;  -85.975; -577.000; -525.000
216.929;   50.825;  392.000;  281.000
217.073;  -15.950; -244.000;  -31.000
217.218;    6.075;   78.000;  -47.000
217.363;  -86.725; -656.000; -618.000
217.507;  -79.200; -623.000; -588.000
217.652; -122.800; -845.000; -874.000
217.797;  -85.900; -708.000; -659.000
217.942;  -97.050; -856.000; -720.000
218.086;   75.275;  608.000;  539.000
218.231;  -19.100; -174.000;  -26.000
218.376;  -38.625; -337.000; -229.000
218.520;   -0.100;  -41.000;   96.000
218.665;  -17.550; -338.000; -204.000
218.810;  -60.650; -275.000; -233.000
218.954;   12.300;  201.000;   35.000
219.099; -104.300; -713.000; -963.000
219.243;  -67.975; -589.000; -554.000
219.388;  -33.225; -264.000; -136.000
219.532;  -12.175; -116.000; -116.000
219.677;  -78.500; -564.000; -521.000
219.822;   -4.525;   33.000;   89.000
219.966;    5.950;   17.000;  -99.000
220.111;  -29.425; -328.000;  -40.000
220.255;  -95.325; -797.000; -750.000
220.400;  -13.225; -180.000; -146.000
220.544;  -61.375; -516.000; -450.000
220.689;  -55.775; -422.000; -451.000
220.833;  -20.400; -123.000;  -58.000
220.978;  -43.250; -393.000; -563.000
221.122;   26.775;  319.000;  307.000
221.267; -116.500; -906.000; -837.000
221.411;  -62.825; -478.000; -394.000
221.555;  -15.550; -104.000;  -23.000
221.700;  -54.450; -329.000; -222.000
221.844;   18.925;  255.000;  272.000
221.989;  -46.700; -328.000; -311.000
222.133;  -36.175; -289.000; -307.000
222.277;    8.875;    5.000;   78.000
222.422;    4.650;  227.000;  113.000
222.566;  -41.200; -381.000; -214.000
222.711;  -55.100; -414.000; -479.000
222.855;  -73.550; -643.000; -586.000
222.999;  -83.025; -642.000; -717.000
223.144;  -21.300; -195.000; -194.000
223.288;   52.600;  423.000;  251.000
223.432;   23.975;  184.000;  230.000
223.576;    9.650;  152.000;  -21.000
223.721;   24.125;  364.000;  273.000
223.865;  -48.825; -472.000; -475.000
224.009;  261.650; 1673.000; 1631.000
224.153;  -73.550; -660.000; -671.000
224.298;  -70.775; -531.000; -489.000
224.442;   -6.325;  -74.000;  -33.000
224.586;   -8.200; -169.000; -106.000
224.730; -102.550; -858.000; -670.000
224.875; -105.975; -739.000; -688.000
225.019;    4.025;  102.000;  188.000
225.163;   53.575;  208.000;  341.000
225.307;   14.050;   97.000;  -91.000
225.451;   46.225;  360.000;  481.000
225.595;    5.525;  264.000;  176.000
225.739;  -21.300; -170.000;  -94.000
225.884;   21.050;   86.000;    5.000
226.028; -110.675; -760.000; -626.000
226.172;  -43.600; -260.000; -273.000
226.316; -127.625; -941.000; -902.000
226.460;  -75.375; -645.000; -493.000
226.604;  -58.575; -406.000; -400.000
226.748; -105.325; -836.000; -733.000
226.892;  -24.400; -227.000; -181.000
227.036;  -37.625; -537.000; -447.000
227.180;  -51.675; -551.000; -375.000
227.324;  -69.950; -561.000; -580.000
227.468; -114.425; -819.000; -717.000
227.612;    4.250;  242.000;  -28.000
227.756; -105.725; -845.000; -698.000
227.900;   51.700;  342.000;  441.000
228.044;  -56.325; -509.000; -290.000
228.188;   57.200;  448.000;  568.000
228.332;  -78.850; -546.000; -472.000
228.476;  -20.450; -223.000; -149.000
228.620;  -37.225; -210.000; -150.000
228.764;   70.875;  431.000;  349.000
228.908;  -13.575; -155.000;   30.000
229.052;  -59.600; -615.000; -528.000
229.195;  -16.675; -172.000;   13.000
229.339;  -35.425; -235.000; -305.000
229.483;  -17.400;    5.000; -162.000
229.627;   -4.325; -156.000;  139.000
229.771;  -44.050; -218.000; -294.000
229.915;   15.325;  230.000;   79.000
230.059;  -94.850; -648.000; -663.000
230.202;  -50.775; -370.000; -317.000
230.346;  -22.225; -107.000;  107.000
230.490;  -59.925; -489.000; -521.000
230.634; -112.175; -736.000; -553.000
230.777;   68.350;  478.000;  509.000
230.921;  -58.050; -450.000; -359.000
231.065;  -40.550; -246.000; -286.000
231.209;   25.200;  261.000;  265.000
231.352;   15.900;   54.000;   40.000
231.496;    8.625;  568.000;  188.000
231.640;  -87.350; -693.000; -621.000
231.783;   57.200;  546.000;  525.000
231.927;  -45.650; -294.000; -365.000
232.071; -122.350; -962.000; -736.000
232.214; -118.550; -980.000; -764.000
232.358; -107.375; -683.000; -599.000
232.502;    8.475;  -19.000;    7.000
232.645; -141.025;-1090.000; -927.000
232.789;  -29.675; -257.000; -218.000
232.933;  -40.100; -407.000; -224.000
233.076; -125.500;-1038.000; -897.000
233.220; -109.800; -752.000; -777.000
233.363;  -80.250; -669.000; -477.000
233.507;   58.425;  371.000;  129.000
233.650; -104.700; -764.000; -834.000
233.794;   44.225;  438.000;  461.000
233.938;  -63.450; -530.000; -362.000
234.081;  -25.950;  -93.000;   31.000
234.225;  -72.400; -631.000; -539.000
234.368; -115.375; -773.000; -723.000
234.512;  -52.425; -385.000; -299.000
234.655;  -96.100; -582.000; -555.000
234.798;  -74.625; -493.000; -466.000
234.942; -127.375; -884.000;-1002.000
235.085;  -76.100; -651.000; -443.000
235.229;  -76.475; -405.000; -410.000
235.372;  -51.025; -247.000; -191.000
235.516;  -62.200; -397.000; -321.000
235.659;   15.900;   92.000;  121.000
235.802;  -13.250;  -38.000;  -22.000
235.946;   36.425;  335.000;  215.000
236.089;   20.650;  126.000;  250.000
236.233;   38.550;  275.000;  298.000
236.376;  -46.150; -235.000; -378.000
236.519;  -48.425; -297.000; -319.000
236.663;  -21.750; -215.000; -117.000
236.806; -140.025;-1029.000; -999.000
236.949;   63.650;  543.000;  431.000
237.092;   49.550;  412.000;  391.000
237.236;  -88.925; -589.000; -502.000
237.379;   65.950;  352.000;  428.000
237.522; -122.250; -879.000; -768.000
237.666;  -18.500; -271.000;   18.000
237.809; -125.775; -851.000; -823.000
237.952;   31.025;  469.000;  271.000
238.095;  -71.575; -447.000; -442.000
238.238;   83.525;  688.000;  700.000
238.382;    3.225;  166.000;  103.000
238.525;  -64.975; -598.000; -511.000
238.668; -157.275;-1060.000; -985.000
238.811;  -72.700; -638.000; -643.000
238.954;  -62.000; -483.000; -334.000
239.097;   90.850;  617.000;  664.000
239.241;   13.525;  394.000;  326.000
239.384;  -27.675; -254.000; -214.000
239.527;  -75.600; -424.000; -224.000
239.670; -137.150; -994.000;-1091.000
239.813; -114.525; -696.000; -658.000
239.956;   75.800;  579.000;  473.000
240.099; -109.800; -778.000; -725.000
240.242;   64.075;  428.000;  432.000
240.385;   34.675;  466.000;  450.000
240.528;  -70.075; -706.000; -473.000
240.671;   15.875;  189.000;  134.000
240.814;  -49.200; -441.000; -158.000
240.957; -106.700; -767.000; -578.000
241.100; -106.100; -779.000; -755.000
241.243; -142.550;-1234.000; -893.000
241.386;  -72.125; -508.000; -379.000
241.529;  -92.225; -735.000; -547.000
241.672;  -58.775; -566.000; -495.000
241.815; -117.525; -832.000; -808.000
241.958;  -34.500; -125.000; -182.000
242.101;  -78.650; -545.000; -390.000
242.244;  -46.000; -270.000; -325.000
242.387;  -40.700; -304.000; -246.000
242.530;   42.800;  470.000;  134.000
242.673;  -41.025; -381.000; -309.000
242.815; -119.100; -925.000; -899.000
242.958;  -76.875; -482.000; -381.000
243.101;   17.125;  132.000;  187.000
243.244;  -87.075; -564.000; -521.000
243.387;  -49.725; -313.000; -316.000
243.530; -100.450; -657.000; -674.000
243.672;    7.550;   43.000;  -92.000
243.815;  -57.875; -355.000; -283.000
243.958;   -2.950;   98.000;  -26.000
244.101;  -11.750;   59.000;  -16.000
244.243;  -16.100;  -47.000;  101.000
244.386; -110.325; -761.000; -630.000
244.529;  -24.950; -132.000; -139.000
244.672; -155.900;-1154.000; -951.000
244.814;  -97.750; -621.000; -794.000
244.957;  -42.575; -380.000; -304.000
245.100;  -75.300; -489.000; -489.000
245.242;  -57.350; -387.000; -374.000
245.385;   -5.300;  -59.000;  -39.000
245.528; -119.175; -871.000; -705.000
245.670;   86.575;  612.000;  634.000
245.813;  -97.400; -599.000; -547.000
245.956;  -25.725; -324.000; -275.000
246.098;  -71.950; -508.000; -650.000
246.241;   -0.425;  194.000;   48.000
246.383;  -22.550; -119.000;  -73.000
246.526;  -75.425; -454.000; -525.000
246.669; -109.450; -889.000; -780.000
246.811;   -1.600;  172.000;   -1.000
246.954;  -65.875; -512.000; -426.000
247.096;  -28.725;  -84.000;   -6.000
247.239;  -69.025; -482.000; -445.000
247.381;  -60.400; -647.000; -488.000
247.524;   83.550;  645.000;  679.000
247.666;   -7.775;   58.000;   11.000
247.809; -122.775; -887.000; -691.000
247.951;  -15.700;  -75.000;  138.000
248.094;   17.200;  432.000;  308.000
248.236; -159.575;-1262.000;-1238.000
248.378;    6.075; -356.000;  -81.000
248.521;  -30.000; -334.000; -337.000
248.663;  -43.200; -236.000; -267.000
248.806;  -27.050; -300.000; -266.000
248.948;  -85.225; -886.000; -763.000
249.090;  -36.125; -428.000; -398.000
249.233;  -43.250; -344.000; -381.000
249.375;  -70.250; -474.000; -451.000
249.518;  -10.800;  -83.000; -133.000
249.660;    7.700; -103.000;    3.000
249.802; -172.700;-1303.000;-1189.000
249.945;  -80.625; -612.000; -540.000
250.087; -114.325; -834.000; -768.000
250.229;  -54.250; -362.000; -480.000
250.371;  -72.700; -494.000; -439.000
250.514;  -36.100; -310.000; -244.000
250.656;   -7.450;   69.000;  102.000
250.798; -119.475; -849.000; -800.000
250.940;  -66.700; -322.000; -322.000
251.083;  -22.575; -335.000; -111.000
251.225;   57.200;  338.000;  310.000
251.367;  -40.575; -274.000; -373.000
251.509;  -38.100; -265.000; -210.000
251.651;  -89.375; -731.000; -671.000
251.794;   44.250;  538.000;  632.000
251.936;  -99.850; -821.000; -747.000
252.078;  -76.000; -540.000; -461.000
252.220;  -74.100; -645.000; -477.000
252.362;   75.725;  344.000;  462.000
252.504;  -71.950; -677.000; -584.000
252.646; -116.100; -875.000; -722.000
252.788;    0.375;   14.000; -128.000
252.931;  -38.825; -257.000; -253.000
253.073;  -38.800; -376.000; -317.000
253.215;  -11.100;  141.000;  122.000
253.357;  -18.875;   82.000; -153.000
253.499;  -38.850; -374.000; -234.000
253.641;  -86.000; -749.000; -594.000
253.783;  -94.025; -609.000; -527.000
253.925;  -88.850; -586.000; -591.000
254.067;  -95.675; -744.000; -667.000
254.209;  -23.150; -391.000; -259.000
254.351; -121.150; -865.000; -883.000
254.493;  -57.900; -441.000; -417.000
254.635; -118.250; -936.000; -818.000
254.777;  -81.350; -752.000; -687.000
254.918;  -63.550; -512.000; -430.000
255.060;  -63.125; -551.000; -395.000
255.202;  -58.650; -473.000; -261.000
255.344;  -73.725; -658.000; -455.000
255.486;  -71.850; -471.000; -406.000
255.628; -101.775; -780.000; -781.000
255.770;  -89.775; -676.000; -536.000
255.912;  -65.925; -559.000; -468.000
256.053;  -91.950; -730.000; -508.000
256.195;  148.075; 1008.000;  903.000
256.337; -105.400; -861.000; -595.000
256.479;   75.425;  532.000;  416.000
256.621;  -53.275; -394.000; -212.000
256.762;  -90.075; -789.000; -742.000
256.904;   51.775;  485.000;  487.000
257.046;  -48.525; -381.000; -271.000
257.188;  -54.450; -351.000; -264.000
257.329;  -76.550; -525.000; -464.000
257.471; -117.475; -939.000; -807.000
257.613;  -72.600; -584.000; -498.000
257.755; -156.325;-1073.000; -982.000
257.896;   40.075;  286.000;  392.000
258.038;  -65.775; -403.000; -352.000
258.180;  -47.000; -354.000; -279.000
258.321;  -86.925; -581.000; -457.000
258.463;  -11.050;  -71.000;  133.000
258.605;  -87.650; -562.000; -570.000
258.746; -105.100; -886.000; -772.000
258.888; -155.825;-1026.000;-1020.000
259.029;   15.900;  121.000;   -8.000
259.171;  -93.050; -614.000; -550.000
259.313;  -15.275;  -49.000;  -47.000
259.454;  -89.950; -536.000; -414.000
259.596;  -71.850; -483.000; -390.000
259.737;  -79.575; -590.000; -474.000
259.879;   34.100;  217.000;  311.000
260.020;   86.975;  901.000;  636.000
260.162;  -35.575; -146.000; -253.000
260.303; -109.500; -768.000; -687.000
260.445;  -95.500; -609.000; -613.000
260.586;   29.775;  392.000;  157.000
260.728;  -40.125; -360.000; -248.000
260.869; -123.850; -350.000; -343.000
261.011;   76.675;  706.000;  537.000
261.152;  -71.200; -479.000; -319.000
261.293;  -73.300; -576.000; -595.000
261.435;  -38.275; -219.000; -184.000
261.576;  -44.500; -455.000; -325.000
261.718;   58.375;  420.000;  470.000
261.859; -130.650; -940.000; -949.000
262.000; -134.550; -951.000;-1016.000
262.142;  -24.325;  -52.000;  -60.000
262.283; -132.525; -808.000; -691.000
262.424;  -82.425; -666.000; -625.000
262.566; -160.075;-1161.000; -983.000
262.707; -119.425; -840.000; -830.000
262.848; -113.825; -769.000; -726.000
262.990;  -53.375; -362.000; -345.000
263.131;   83.500;  650.000;  681.000
263.272;   -8.025;  -61.000;  -41.000
263.413; -108.425; -589.000; -561.000
263.555;  -64.000; -669.000; -143.000
263.696;  -85.475; -550.000; -641.000
263.837;  -46.950; -449.000; -551.000
263.978;   -3.975;   -5.000;  -77.000
264.119;  -57.925; -283.000; -264.000
264.261; -116.500; -847.000; -630.000
264.402;   -4.575;   33.000;   40.000
264.543;  -82.375; -509.000; -524.000
264.684;  -23.025;   61.000;  -50.000
264.825;  -65.850; -816.000; -538.000
264.966;    4.000;  -84.000;  -67.000
265.107; -124.125; -646.000; -670.000
265.248; -112.775; -825.000; -812.000
265.390;  -16.750;  152.000;   -9.000
265.531;  -23.100; -238.000; -107.000
265.672;  -84.025; -557.000; -630.000
265.813;   58.125;  563.000;  439.000
265.954; -136.225; -959.000; -940.000
266.095;  -29.575; -372.000; -322.000
266.236; -100.700; -686.000; -548.000
266.377;  -55.775; -243.000; -297.000
266.518;  -75.225; -619.000; -547.000
266.659;   16.525;  170.000;  268.000
266.800;    6.125;   83.000;   85.000
266.941;  -75.600; -487.000; -478.000
267.082;   18.400;  354.000;   99.000
267.223;  -61.575; -344.000; -273.000
267.364;  -96.375; -892.000; -686.000
267.504;  -12.275;    3.000;  135.000
267.645;   -7.675;  160.000;   67.000
267.786;  -29.700; -147.000;  -86.000
267.927;  -85.100; -473.000; -379.000
268.068;  -11.350; -186.000;  -61.000
268.209;  -56.125; -175.000; -413.000
268.350;  -52.750; -388.000; -532.000
268.490;  -84.725; -648.000; -521.000
268.631;   29.300;  127.000;  225.000
268.772; -116.725; -874.000; -647.000
268.913;  -52.300; -328.000; -476.000
269.054;  -13.500; -117.000;   12.000
269.194;  -54.025; -418.000; -402.000
269.335; -168.850;-1137.000;-1074.000
269.476;  -24.775;   33.000;  -35.000
269.617;  -52.325; -347.000; -392.000
269.757;  -89.950; -713.000; -646.000
269.898; -107.575; -856.000; -613.000
270.039;  -53.550; -415.000; -405.000
270.180; -132.200; -952.000; -816.000
270.320;  -17.875; -190.000; -250.000
270.461;  -40.000; -277.000; -249.000
270.602;  -20.750; -186.000; -156.000
270.742; -116.425; -868.000; -943.000
270.883;  -48.000; -442.000; -390.000
271.023;  -61.600; -358.000; -357.000
271.164;  -76.000; -607.000; -528.000
271.305; -106.100; -666.000; -654.000
271.445;  -86.775; -722.000; -683.000
271.586;  -67.400; -462.000; -283.000
271.726;  -54.450; -397.000; -322.000
271.867;  -54.850; -594.000; -534.000
272.008;  209.200; -473.000; -285.000
272.148;  150.375;  462.000;  468.000
272.289;    6.175; -113.000; -181.000
272.429;   15.675;   19.000;  185.000
272.570;  -90.950; -633.000; -737.000
272.710; -106.825; -825.000; -775.000
272.851;  -38.375;  113.000; -130.000
272.991; -164.225;-1173.000;-1077.000
273.131;  -65.500; -419.000; -459.000
273.272;  -92.825; -683.000; -723.000
273.412;   16.025; -143.000;  -31.000
273.553;  -45.375; -488.000; -507.000
273.693;  140.075;  913.000;  858.000
273.834;  -73.125; -894.000; -692.000
273.974;  -69.125; -664.000; -615.000
274.114; -110.725; -772.000; -560.000
274.255;   74.200;  414.000;  373.000
274.395;   16.325; -180.000; -125.000
274.535;   42.000;  199.000;  350.000
274.676;   29.525;  225.000;   94.000
274.816;    6.875;  110.000;   34.000
274.956;  -79.000; -624.000; -690.000
275.097;  -61.925;-1014.000; -922.000
275.237; -110.550; -913.000; -803.000
275.377;  -97.550; -778.000; -689.000
275.517; -143.700; -878.000; -937.000
275.658;  -47.850; -590.000; -555.000
275.798;  -65.675; -606.000; -413.000
275.938;   29.225;  215.000;  323.000
276.078; -102.200; -626.000; -395.000
276.218;    5.200;   99.000;  104.000
276.359; -139.025;-1026.000;-1024.000
276.499;  -80.025; -605.000; -446.000
276.639;  -29.600; -305.000; -151.000
276.779;  -50.975; -475.000; -357.000
276.919; -109.025; -783.000; -624.000
277.059;  -19.075; -261.000; -212.000
277.199;  -43.625; -357.000; -259.000
277.340;   38.850;  287.000;  175.000
277.480; -100.025; -840.000; -693.000
277.620;   27.400;  192.000;   16.000
277.760; -192.500;-1533.000;-1294.000
277.900;   20.225;  113.000;   33.000
278.040;   24.275;  137.000;  159.000
278.180;   34.925;  270.000;  170.000
278.320;    1.750;   21.000;   56.000
278.460;  -67.275; -443.000; -469.000
278.600;  -93.000; -708.000; -598.000
278.740;   47.825;  448.000;  224.000
278.880;  -32.150; -768.000; -791.000
279.020;    0.100; -194.000; -144.000
279.160; -116.825; -672.000; -595.000
279.300; -122.800; -926.000; -873.000
279.440;  -98.975; -709.000; -622.000
279.579;   -7.050;-1014.000; -929.000
279.719;  -52.475; -410.000; -394.000
279.859;   68.725;   -4.000;   41.000
279.999;   23.525; -208.000;  101.000
280.139;   -4.900; -435.000; -387.000
280.279;  -62.125; -708.000; -745.000
280.419;  -28.750; -229.000; -147.000
280.559;  -29.925; -259.000; -180.000
280.698;  -88.500; -790.000; -639.000
280.838; -100.075; -778.000; -800.000
280.978; -102.975; -846.000; -790.000
281.118; -104.800; -811.000; -704.000
281.257;    2.200;   24.000;    6.000
281.397;  -97.700;-1094.000; -960.000
281.537;  -91.275; -599.000; -712.000
281.677;  -17.800; -150.000; -101.000
281.816;  -90.650; -700.000; -630.000
281.956;  -27.600; -193.000; -257.000
282.096;  -53.575; -539.000; -396.000
282.235; -101.625; -672.000; -638.000
282.375;  -19.975; -243.000;  -98.000
282.515; -106.100; -715.000; -707.000
282.654;   36.350;   29.000;  106.000
282.794;   20.500;  388.000;  244.000
282.934;  -57.825; -530.000; -491.000
283.073; -138.950;-1030.000; -857.000
283.213;  -43.300; -460.000; -467.000
283.353;  -37.475; -408.000; -349.000
283.492;  -27.900; -264.000; -296.000
283.632;  -35.450; -254.000; -168.000
283.771;  -93.950; -859.000; -730.000
283.911;  -51.750; -369.000; -260.000
284.050; -113.775; -794.000; -748.000
284.190; -160.125;-1229.000;-1096.000
284.329; -159.250;-1055.000; -964.000
284.469;  -57.450; -516.000; -591.000
284.608;  -64.550; -559.000; -598.000
284.748;  -85.625; -614.000; -570.000
284.887;   -3.925;  -87.000;  -20.000
285.027; -116.750; -844.000; -892.000
285.166;  -35.500; -192.000; -249.000
285.306;   12.350; -116.000;  -33.000
285.445;  -46.250; -229.000; -343.000
285.584;  -82.050; -630.000; -494.000
285.724;  -37.550; -282.000; -322.000
285.863; -111.300; -857.000; -507.000
286.002;  -49.250; -366.000; -276.000
286.142; -114.375; -715.000; -622.000
286.281;  -74.825; -525.000; -493.000
286.420;  -83.325; -554.000; -417.000
286.560;   97.725;  653.000;  623.000
286.699; -137.325; -958.000; -912.000
286.838;  -85.500; -590.000; -591.000
286.978;  -83.525; -533.000; -537.000
287.117; -137.050;-1085.000; -950.000
287.256;  -29.200; -228.000; -211.000
287.395;  -62.125; -197.000; -378.000
287.535;  -49.300; -370.000; -298.000
287.674;  -76.800; -509.000; -484.000
287.813;   46.500;  661.000;  533.000
287.952; -125.600;-1010.000; -871.000
288.091; -142.075;-1049.000; -915.000
288.231;   -1.700;   13.000;   15.000
288.370; -162.650;-1217.000;-1200.000
288.509;  -89.525; -728.000; -645.000
288.648; -106.175; -770.000; -548.000
288.787;  -20.375; -243.000;  -87.000
288.926;  -52.925; -454.000; -475.000
289.065;  127.425;  859.000;  672.000
289.204;  -50.350; -377.000; -217.000
289.344; -101.800; -791.000; -690.000
289.483;   20.300;  416.000;  304.000
289.622;  -16.875; -291.000; -149.000
289.761;   -9.775; -309.000; -166.000
289.900; -107.300; -785.000; -626.000
290.039;  -19.775;  -12.000;  -95.000
290.178;  -37.300; -274.000; -180.000
290.317;  -70.575; -618.000; -479.000
290.456;  -69.275; -463.000; -451.000
290.595; -128.825; -961.000; -833.000
290.734; -133.825; -904.000; -891.000
290.873;  -81.250; -456.000; -420.000
291.011; -111.075; -833.000; -843.000
291.150;  -95.550; -770.000; -682.000
291.289;  -36.175; -343.000; -110.000
291.428;  -95.325; -599.000; -480.000
291.567;  -60.975; -370.000; -442.000
291.706;    6.050;  109.000;  154.000
291.845;  -72.100; -597.000; -505.000
291.984; -168.875;-1234.000;-1061.000
292.122;   76.825;  602.000;  582.000
292.261;   43.100;  620.000;  463.000
292.400;    7.600; -144.000;  211.000
292.539; -125.000; -959.000; -813.000
292.678;  -30.250; -325.000; -300.000
292.816; -160.550;-1136.000; -965.000
292.955;  -71.225; -844.000; -684.000
293.094;  -12.325; -173.000; -337.000
293.233;  -62.250; -556.000; -400.000
293.371;  -26.450; -225.000;  -84.000
293.510; -109.475; -866.000; -780.000
293.649; -131.700; -959.000; -924.000
293.787;  -50.875;-1083.000;-1012.000
293.926;   -6.900; -113.000;  -32.000
294.065;  -51.425; -379.000; -290.000
294.203;   61.650;  298.000;  406.000
294.342;   23.600;   74.000;  156.000
294.481; 6101.875;51180.000; -836.000
294.619;  -35.650; -425.000; -582.000
294.758; -138.900;-1230.000;-1137.000
294.896;   84.750; -125.000;    5.000
295.035; -111.925;-1040.000;-1006.000
295.174; -121.500;-1082.000; -954.000
295.312;  -42.775; -323.000; -203.000
295.451;    7.800; -307.000; -428.000
295.589;  -42.100; -389.000; -518.000
295.728;   27.375; -292.000; -165.000
295.866;   15.525;  -36.000;  -51.000
296.005;  -58.300; -584.000; -341.000
296.143;  -80.350; -558.000; -596.000
296.282; -102.375; -957.000; -881.000
296.420;  -75.700; -657.000; -557.000
296.559;  -90.825; -892.000; -633.000
296.697;   46.475; -847.000; -665.000
296.835;  108.400;-1141.000;-1002.000
296.974;   67.550;  -23.000;   39.000
297.112;   25.250; -443.000; -504.000
297.251;  -72.400; -815.000; -755.000
297.389;  130.025; -576.000; -438.000
297.527;   70.575; -145.000;  -83.000
297.666;  -46.275; -486.000; -438.000
297.804;  -59.025; -404.000; -264.000
297.942;   -2.000; -136.000; -161.000
298.081;   -8.300; -183.000;   63.000
298.219;   81.925;  -17.000;  -19.000
298.357;   52.850; -144.000;  -71.000
298.495;   62.400; -810.000; -812.000
298.634;  100.125;  245.000;  219.000
298.772;   99.925; -220.000; -338.000
298.910;  -33.700; -309.000; -182.000
299.048;   -9.225; -130.000; -153.000
299.187;  -18.900; -350.000; -250.000
299.325;   18.075;   52.000;  122.000
299.463;   90.175; -389.000; -299.000
299.601;  144.400; -327.000; -271.000
299.739;  -98.675; -908.000; -883.000
299.877;  -79.325; -791.000; -703.000
300.016;  -30.950;-1095.000; -935.000
300.154;  206.100;  -19.000; -161.000
300.292;   75.525; -428.000; -348.000
300.430;   36.200; -408.000; -291.000
300.568;  -83.400; -940.000; -874.000
300.706;  -36.950; -366.000; -469.000
300.844;  -54.975;-1108.000; -979.000
300.982;  137.450;  246.000;  282.000
301.120; -113.900; -965.000; -866.000
301.258;  -61.975; -812.000; -705.000
301.396;   41.575;  104.000;  -41.000
301.534;  118.775; -218.000; -293.000
301.672;   10.025; -664.000; -521.000
301.810;   66.500; -613.000; -545.000
301.948;  141.425;   53.000;  149.000
302.086;  728.225; -250.000;  -32.000
302.224; 1133.650; -610.000; -585.000
302.362;   63.750; -558.000; -622.000
302.500;   13.825; -923.000; -893.000
302.638;  130.125;  128.000;  245.000
302.776;    6.575; -352.000; -408.000
302.913;   53.525;  447.000;  236.000
303.051;    1.925;  -86.000;  -23.000
303.189;   50.100;   90.000;  118.000
303.327;  -43.525; -341.000; -256.000
303.465;  -71.425; -832.000; -588.000
303.603;  -97.275; -805.000; -604.000
303.740;  109.000;  417.000;  241.000
303.878;   47.000; -800.000; -759.000
304.016;  -87.275; -915.000; -790.000
304.154; -106.725;-1123.000;-1152.000
304.291;  -37.975; -505.000; -554.000
304.429;   12.450;  102.000;   74.000
304.567; -121.600; -908.000; -893.000
304.705;  -46.925; -408.000; -515.000
304.842;  154.700; -616.000; -540.000
304.980;   54.575;  215.000;   35.000
305.118;   67.325; -367.000; -365.000
305.255;  -50.075; -945.000; -927.000
305.393;   60.450;  178.000;  239.000
305.531;  -86.325;-1173.000; -956.000
305.668;  -67.350; -663.000; -582.000
305.806;  135.650; -358.000; -439.000
305.943;  132.525; -629.000; -637.000
306.081;   71.125; -378.000; -267.000
306.219;  -99.000; -863.000; -748.000
306.356;   11.175;  158.000;   27.000
306.494;  116.525;  981.000;  761.000
306.631;    4.200;  -11.000;  -55.000
306.769;   15.350; -613.000; -485.000
306.906;  -10.400; -284.000; -258.000
307.044;  -76.825; -473.000; -488.000
307.181;  -59.650; -410.000; -332.000
307.319;    3.000;  112.000;   87.000
307.456; -177.200;-1191.000;-1153.000
307.594;  -98.300; -980.000; -727.000
307.731;   -9.625; -371.000; -164.000
307.868;   10.425;  -15.000;   20.000
308.006; -124.100; -961.000; -847.000
308.143;  -55.975; -618.000; -330.000
308.281;  177.500;  -37.000; -254.000
308.418;   -3.300; -748.000; -640.000
308.555;  -66.925; -400.000; -250.000
308.693;  -73.100; -577.000; -573.000
308.830; -101.425; -712.000; -657.000
308.967;   -0.775; -215.000;  -95.000
309.105;  -42.250; -507.000; -396.000
309.242;   36.275; -468.000; -367.000
309.379;  333.275; -577.000; -655.000
309.517;  -63.625; -936.000; -948.000
309.654; -116.775; -910.000; -734.000
309.791;  -71.150; -662.000; -580.000
309.928; -118.150; -977.000; -914.000
310.065;  194.900;  819.000;  697.000
310.203;   12.225; -825.000; -850.000
310.340;   15.075; -465.000; -321.000
310.477;  -80.200; -412.000; -516.000
310.614;  -59.425; -383.000; -473.000
310.751;  -77.950; -427.000; -518.000
310.889;  -24.700;    1.000;   11.000
311.026; -148.825;-1161.000; -939.000
311.163;  -38.475; -386.000; -380.000
311.300;  -66.700; -512.000; -479.000
311.437;  -74.375; -658.000; -619.000
311.574; -161.225;-1226.000; -985.000
311.711;  -44.675; -595.000; -433.000
311.848;  -34.900; -380.000; -388.000
311.985;    8.525;  270.000;   93.000
312.122; -116.325; -932.000; -762.000
312.259; -116.325; -941.000; -994.000
312.396;  -74.525; -508.000; -551.000
312.533;  -95.750; -812.000; -790.000
312.670; -131.475;-1070.000; -898.000
312.807;  -49.200; -352.000; -367.000
312.944;  -71.400; -513.000; -611.000
313.081;  -31.950; -150.000; -415.000
313.218;  -94.500;-1111.000; -867.000
313.355;   23.050; -531.000; -449.000
313.492;   14.175; -455.000; -292.000
313.629;  140.125;  815.000;  735.000
313.766; -158.000;-1176.000;-1008.000
313.902;  -23.625; -186.000;   21.000
314.039;  -52.975; -372.000; -289.000
314.176;   26.750;  286.000;  192.000
314.313;  -71.575; -569.000; -473.000
314.450;  -73.475; -788.000; -684.000
314.587;  -55.925; -468.000; -480.000
314.723;   -2.900;  -78.000;  130.000
314.860;   40.550;  318.000;  332.000
314.997;   31.475;  223.000;  142.000
315.134;  -47.075; -385.000; -368.000
315.270;  -23.800; -480.000; -496.000
315.407; -117.575;-1094.000; -967.000
315.544;  -53.350; -657.000; -538.000
315.681;  -53.525; -681.000; -565.000
315.817;   35.500; -133.000; -176.000
315.954;   27.575; -613.000; -392.000
316.091; -117.300;-1045.000;-1023.000
316.227;  -33.075;  -71.000; -179.000
316.364;   -5.775;   23.000;    6.000
316.500;  -41.650; -113.000; -300.000
316.637;  -29.000; -181.000; -302.000
316.774;  -80.975; -625.000; -358.000
316.910;  -87.725; -598.000; -629.000
317.047;  -74.875; -487.000; -351.000
317.183;  -61.525; -435.000; -566.000
317.320;  -23.675; -367.000; -321.000
317.456;  -78.375; -733.000; -805.000
317.593;  -90.450; -598.000; -641.000
317.729;    7.750;  168.000;  -67.000
317.866; -187.250;-1434.000;-1285.000
318.002;  -82.675; -708.000; -948.000
318.139;  -79.200; -883.000; -867.000
318.275; -108.625;-1003.000; -738.000
318.412;  -58.025; -517.000; -336.000
318.548;  -11.150; -751.000; -720.000
318.685;  -98.350; -985.000; -888.000
318.821;  -95.800; -762.000; -735.000
318.957;   -8.900;   34.000;  -23.000
319.094;   37.500;  297.000;  154.000
319.230;  -52.050; -756.000; -742.000
319.367;  165.025; -471.000; -520.000
319.503;   62.775; -538.000; -436.000
319.639;  -91.350; -877.000; -793.000
319.775;  -55.025; -750.000; -685.000
319.912;  -47.500; -424.000; -519.000
320.048;  -82.650;-1184.000;-1184.000
320.184;   67.125;   59.000;   70.000
320.321;  -67.325; -497.000; -467.000
320.457;   66.275;  475.000;  662.000
320.593;  -59.900; -375.000; -382.000
320.729; -100.400; -732.000; -734.000
320.866;  -78.600; -577.000; -635.000
321.002;  -75.600; -759.000; -809.000
321.138;  -16.575; -135.000; -211.000
321.274;   82.900; -148.000; -115.000
321.410;  -26.775; -585.000; -353.000
321.546;  -14.225;-1011.000; -911.000
321.683;   55.950;  400.000;  185.000
321.819;   17.600;  -48.000; -117.000
321.955; -103.675; -743.000; -722.000
322.091;  -48.975; -585.000; -540.000
322.227;   -2.875; -382.000; -202.000
322.363;  -25.400; -320.000; -215.000
322.499;  -37.450; -343.000; -331.000
322.635;  179.125;  636.000;  443.000
322.771;   33.075; -139.000;   12.000
322.907;  102.000;  129.000;  327.000
323.043;   -3.725; -115.000; -206.000
323.179;  -32.875; -394.000; -363.000
323.315;   57.150; -401.000; -371.000
323.451;  128.750; -328.000; -236.000
323.587;   78.300;  -60.000;  -77.000
323.723;   37.300; -682.000; -601.000
323.859;  -15.350; -258.000;  -76.000
323.995;  -36.425; -467.000; -409.000
324.131; -121.300; -967.000; -892.000
324.267;  -35.475; -254.000; -276.000
324.402; -119.550; -960.000; -983.000
324.538;  -16.075; -279.000; -104.000
324.674;   30.975;  164.000;   77.000
324.810;  170.200;  226.000;  308.000
324.946;   21.475; -810.000; -658.000
325.082;  -70.300; -568.000; -475.000
325.217;  -19.000;  -62.000;   16.000
325.353; -102.500; -764.000; -659.000
325.489;  -88.400; -540.000; -506.000
325.625;  -71.725; -579.000; -525.000
325.760;   54.250;  517.000;  376.000
325.896;  -35.775; -515.000; -702.000
326.032;  -52.425; -403.000; -352.000
326.168;  -56.875; -462.000; -369.000
326.303;  -67.625; -352.000; -461.000
326.439;  -20.150; -336.000; -276.000
326.575;    8.400; -190.000;  -29.000
326.710;   -3.625; -156.000;  -30.000
326.846;   -5.875;  146.000;  103.000
326.982;  -85.400; -530.000; -548.000
327.117;  -75.225; -481.000; -442.000
327.253;  -90.450; -745.000; -742.000
327.388; -130.500;-1137.000;-1153.000
327.524;  -25.100; -811.000; -578.000
327.659;  -17.625;  -58.000;  -22.000
327.795;  -25.775;   69.000;   45.000
327.931;  -87.125; -723.000; -499.000
328.066;  -22.950; -417.000; -276.000
328.202;  -21.275;   12.000; -129.000
328.337;  108.150;  957.000;  713.000
328.473;   36.475;  -12.000;  -74.000
328.608;  -19.450; -256.000; -267.000
328.743;  -72.425; -799.000; -664.000
328.879;   20.450;  214.000;  114.000
329.014;  -36.875; -102.000; -122.000
329.150;  -81.800; -358.000; -483.000
329.285;  -61.025; -465.000; -466.000
329.421;  -36.150; -548.000; -246.000
329.556;  -25.400;  -36.000;   85.000
329.691;  -90.375; -633.000; -615.000
329.827;  -97.050; -626.000; -480.000
329.962;  -45.175;  131.000; -301.000
330.097;  -84.425; -673.000; -585.000
330.233;  -57.500; -410.000; -223.000
330.368; -127.475; -839.000; -628.000
330.503;   -9.200;    3.000;   98.000
330.638;   12.950;  -93.000; -125.000
330.774;  -58.300; -609.000; -530.000
330.909;  -42.050; -434.000; -244.000
331.044;  -94.800; -714.000; -708.000
331.179; -171.625;-1217.000;-1109.000
331.315;   15.650;   77.000;   20.000
331.450;   18.650;  157.000;  285.000
331.585;  -80.400; -805.000; -706.000
331.720;  -76.600; -510.000; -460.000
331.855;  -13.850;  -35.000; -102.000
331.990;  214.900;   62.000;  138.000
332.126;  122.150; -110.000;   71.000
332.261;  -18.950; -379.000; -265.000
332.396;  -13.600; -135.000; -242.000
332.531; -103.175;-1074.000;-1031.000
332.666;   25.425; -519.000; -363.000
332.801;  -99.975; -726.000; -807.000
332.936;  -17.500; -192.000; -122.000
333.071; -153.225; -870.000; -817.000
333.206;   22.775;  307.000;  379.000
333.341;   28.075;  344.000;  418.000
333.476;  -79.600; -627.000; -623.000
333.611;  -39.725; -251.000; -173.000
333.746;  -41.650; -381.000; -464.000
333.881; -103.275; -973.000; -935.000
334.016; -118.925; -936.000; -917.000
334.151; -114.550; -746.000; -702.000
334.286;   45.875;  152.000;  186.000
334.421;  -17.625; -125.000; -178.000
334.556;  -67.800; -611.000; -567.000
334.690;  -77.025; -631.000; -577.000
334.825;   57.275;  381.000;   83.000
334.960;  -48.375; -285.000; -413.000
335.095;    8.675;  135.000;  -91.000
335.230; -103.225; -722.000; -738.000
335.365; -129.625;-1084.000; -990.000
335.499; -124.050;-1108.000;-1037.000
335.634;   26.900;    9.000;  534.000
335.769;  -93.200; -755.000; -720.000
335.904;  -47.450; -603.000; -561.000
336.038;  -48.175; -735.000; -657.000
336.173; -104.325;-1206.000;-1194.000
336.308;   14.900; -116.000; -189.000
336.443;   33.400; -544.000; -634.000
336.577;  -63.975; -936.000; -787.000
336.712;   84.450;   -4.000;  -12.000
336.847;   -0.750; -724.000; -607.000
336.981;   93.525; -272.000; -208.000
337.116;  323.275;  615.000;  501.000
337.250;  201.825; -434.000; -421.000
337.385;  215.375; -297.000; -208.000
337.520;   47.575; -632.000; -603.000
337.654;  -43.325; -215.000; -126.000
337.789; -127.575; -989.000; -933.000
337.923;  -43.100; -104.000; -205.000
338.058;  -74.525; -673.000; -738.000
338.192;  -23.075; -611.000; -488.000
338.327;    1.625;  -18.000; -155.000
338.461;  -70.400; -299.000; -469.000
338.596;  -75.150; -780.000; -638.000
338.730; -103.300; -767.000; -803.000
338.865;   66.225;  -46.000; -140.000
338.999;  -66.300; -846.000; -702.000
339.134;  -34.900; -634.000; -536.000
339.268;   12.675; -741.000; -603.000
339.403;  320.250; -740.000; -775.000
339.537;   99.875; -894.000; -820.000
339.671; -117.725; -829.000; -813.000
339.806;  -65.775; -556.000; -512.000
339.940;    7.175; -261.000; -235.000
340.074;  -93.050; -685.000; -510.000
340.209;  -44.000; -351.000; -230.000
340.343;  -94.225; -517.000; -573.000
340.477;  151.175;  998.000; 1036.000
340.612;  -63.425;-1033.000; -900.000
340.746;  124.475; -199.000; -243.000
340.880;  -60.400; -924.000; -785.000
341.014;   -3.925;  -45.000; -154.000
341.149; -129.675; -756.000; -718.000
341.283; -106.550; -839.000; -754.000
341.417;  -75.650;-1124.000; -938.000
341.551;  188.150; -768.000; -708.000
341.685;  -27.400; -633.000; -611.000
341.820;  -44.500; -562.000; -493.000
341.954;  -53.975; -218.000; -349.000
342.088; -141.825;-1102.000;-1019.000
342.222;   56.725;  565.000;  618.000
342.356;  -58.875; -395.000; -335.000
342.490;  -81.050; -880.000; -841.000
342.624;  -40.925; -339.000; -242.000
342.758;    9.350; -364.000; -312.000
342.892;  -57.525; -710.000; -585.000
343.026;  -37.250;  -58.000; -116.000
343.160;  -70.250; -426.000; -376.000
343.294;  -85.225; -474.000; -337.000
343.428;   -9.250; -488.000; -448.000
343.562;  -13.250; -172.000;  -23.000
343.696;  -26.375; -385.000; -314.000
343.830;    1.250; -362.000; -356.000
343.964;   13.225; -231.000; -168.000
344.098; 1142.925;  199.000;   70.000
344.232;  928.975; -266.000; -127.000
344.366;   90.500; -567.000; -453.000
344.500;  119.600; -665.000; -744.000
344.634;   65.925; -324.000; -164.000
344.768;    0.025; -531.000; -341.000
344.902;   21.900;  278.000;  256.000
345.035;  -68.950; -556.000; -496.000
345.169; -131.850; -933.000; -656.000
345.303;  -14.425; -308.000; -482.000
345.437;  -52.900; -826.000; -717.000
345.571;  -76.775; -675.000; -594.000
345.704;  -67.550; -309.000; -532.000
345.838;  -14.300; -331.000; -284.000
345.972;  -24.700; -543.000; -495.000
346.106;  138.925; -179.000; -190.000
346.239;  440.125; -312.000; -243.000
346.373;   12.425; -343.000; -302.000
346.507; -140.625; -950.000; -962.000
346.640;  195.525;  -30.000;   13.000
346.774;  -30.075; -650.000; -797.000
346.908;  -10.400; -138.000;  -11.000
347.041;  -97.975; -646.000; -593.000
347.175;    2.800;  259.000;   27.000
347.309;  -59.200; -698.000; -628.000
347.442;  -94.150; -883.000; -732.000
347.576;  346.425;  670.000;  668.000
347.709;  252.650; -123.000;  -52.000
347.843;  -90.675; -933.000; -825.000
347.976;   35.450;  235.000;  294.000
348.110; -176.750;-1268.000;-1186.000
348.243;  -87.300; -679.000; -772.000
348.377;    1.575;  -26.000;   60.000
348.510;   46.500;  403.000;  540.000
348.644;  -31.750;  -37.000; -159.000
348.777;  -16.775;  180.000;  191.000
348.911;  -47.050; -142.000; -112.000
349.044;  194.200;  471.000;  448.000
349.178;  210.300;-1069.000;-1006.000
349.311;  123.650;  141.000;  255.000
349.444;  -24.675; -927.000; -813.000
349.578;   -4.575; -347.000; -200.000
349.711;  -88.925; -959.000; -862.000
349.845;   13.050; -661.000; -591.000
349.978; -139.925;-1224.000;-1137.000
350.111;  -82.550; -546.000; -612.000
350.244;  -62.025; -596.000; -700.000
350.378;   13.500; -392.000; -393.000
350.511;  -66.150; -393.000; -426.000
350.644; -108.225; -808.000; -806.000
350.778;    8.650;  168.000;  104.000
350.911;    7.450;  134.000;  140.000
351.044;  -95.475; -685.000; -615.000
351.177;  -20.600; -321.000; -281.000
351.310;  -31.850;    3.000; -131.000
351.444;  -63.725; -888.000; -788.000
351.577;  150.525;  140.000;   90.000
351.710;  118.775;  593.000;  417.000
351.843;  -31.125; -165.000;  -77.000
351.976;    1.225;  149.000;  -79.000
352.109;  -93.150; -621.000; -612.000
352.242;   -9.325; -464.000; -419.000
352.376;  -37.400; -580.000; -636.000
352.509;  233.800; -437.000; -356.000
352.642;   41.000; -654.000; -604.000
352.775;   73.950; -141.000;  -98.000
352.908; -109.175; -933.000; -904.000
353.041;  -93.050; -814.000; -824.000
353.174;  -55.000; -551.000; -424.000
353.307;  -83.600; -753.000; -764.000
353.440;   85.775;  541.000;  453.000
353.573; -118.925; -957.000;-1008.000
353.706;  -40.175; -384.000; -558.000
353.839;  -31.075; -264.000; -220.000
353.971;  -90.125; -657.000; -512.000
354.104;  -90.725; -896.000; -835.000
354.237;  -18.825; -627.000; -662.000
354.370;  -78.375; -846.000; -879.000
354.503; -180.300;-1231.000;-1308.000
354.636;  -38.150; -529.000; -348.000
354.769; -119.625; -937.000; -860.000
354.902;  -10.125; -230.000; -139.000
355.034;  -25.450; -164.000; -220.000
355.167;  -26.825; -262.000; -162.000
355.300;  -83.100;-1061.000; -880.000
355.433;  888.325;  -71.000;  -14.000
355.565; 1361.950; -402.000; -384.000
355.698;  339.025; -356.000; -296.000
355.831;   21.800; -882.000; -801.000
355.964;  114.475; -285.000; -170.000
356.096;  -78.675; -856.000; -843.000
356.229;   20.150; -523.000; -530.000
356.362;  276.550; -373.000; -266.000
356.494;  531.250; -229.000; -162.000
356.627;  540.950;  269.000;  377.000
356.760;  629.225;  120.000;   53.000
356.892;  851.325; -286.000; -601.000
357.025;  793.025;  403.000;  389.000
357.157;  748.225; -167.000; -179.000
357.290;  562.075; -856.000; -713.000
357.423;  187.850; -667.000; -556.000
357.555;  139.250; -217.000; -228.000
357.688;  154.475; -483.000; -364.000
357.820;  537.250; -870.000; -877.000
357.953; 4215.125; -563.000; -589.000
358.085;  968.925; -632.000; -612.000
358.218; 1538.250;-1131.000; -932.000
358.350;  278.450;  -58.000;  312.000
358.483;  -97.350;-1300.000;-1187.000
358.615;   20.850;-1182.000;-1078.000
358.747;  -15.900;-1187.000;-1058.000
358.880;   44.500; -810.000; -744.000
359.012;    1.825; -376.000; -202.000
359.145;  -36.225; -480.000; -511.000
359.277;   95.950; -962.000; -913.000
359.409; 3494.500;  536.000;  231.000
359.542;  952.325; -738.000; -688.000
359.674;   85.950;   46.000;   13.000
359.806;  -50.050; -565.000; -438.000
359.939;  -47.900; -617.000; -516.000
360.071;  -30.825; -583.000; -579.000
360.203;  -25.125; -411.000; -364.000
360.335;   56.450;  164.000;  -16.000
360.468;  223.900; -249.000; -307.000
360.600; 2750.225; -547.000; -454.000
360.732; 2529.375; -546.000; -423.000
360.864;  352.700;-1216.000;-1044.000
360.996;  361.675; -516.000; -554.000
361.129;   74.075; -389.000; -598.000
361.261;   26.950;  110.000; -113.000
361.393;  -26.050; -252.000; -214.000
361.525;   35.425;   94.000;  244.000
361.657;  -21.425; -821.000; -703.000
361.789;    8.975; -139.000; -155.000
361.921;  307.600; -642.000; -593.000
362.053;  329.850;  524.000;  541.000
362.185;   76.725;  288.000;   72.000
362.318;  -71.600; -709.000; -705.000
362.450;  165.725;  294.000;  444.000
362.582;  218.175; -913.000; -870.000
362.714;  -23.725; -353.000; -332.000
362.846;  -77.550; -606.000; -490.000
362.978; -132.750; -941.000; -811.000
363.109;   67.650; -161.000; -260.000
363.241;  542.175; -739.000; -749.000
363.373;  411.600; -649.000; -564.000
363.505;  570.625; -186.000;  -91.000
363.637;  135.750; -787.000; -601.000
363.769; -106.825;-1067.000;-1080.000
363.901;  -70.275; -596.000; -654.000
364.033; -104.925;-1103.000;-1062.000
364.165;    5.675; -283.000; -283.000
364.296;   75.650; -316.000; -177.000
364.428;   36.975;-1344.000;-1220.000
364.560;  -78.150; -679.000; -661.000
364.692;  -46.800; -738.000; -835.000
364.824;  370.450; -588.000; -456.000
364.955;  450.850; -402.000; -564.000
365.087;  753.275;-1097.000; -852.000
365.219;    7.175; -686.000; -816.000
365.351;  -72.800; -526.000; -572.000
365.482;   56.575;  300.000;  240.000
365.614;  -34.050; -402.000; -314.000
365.746;  -94.150; -729.000; -752.000
365.877;  -90.450; -706.000; -672.000
366.009;  221.850;  -35.000;  -62.000
366.141;  -91.600;-1249.000;-1134.000
366.272; -116.825; -803.000; -719.000
366.404; -115.700;-1005.000; -874.000
366.535;  -14.300; -139.000;  -12.000
366.667;  -93.450; -644.000; -649.000
366.799;   42.125;  353.000;  203.000
366.930; -107.750; -862.000; -996.000
367.062;  116.475; -639.000; -613.000
367.193;  111.700; -872.000; -842.000
367.325;  -67.575; -580.000; -684.000
367.456;  100.650; -246.000;   31.000
367.588;  160.575; -371.000; -318.000
367.719;   25.950;  -44.000;  -45.000
367.851;  -14.475; -222.000; -241.000
367.982;  -38.400; -875.000; -732.000
368.113;  132.000; -475.000; -358.000
368.245; -112.625; -960.000; -841.000
368.376;   -8.175; -254.000; -302.000
368.508;  -39.650; -188.000; -263.000
368.639; -125.375;-1166.000;-1034.000
368.770;    8.000; -670.000; -589.000
368.902;  -55.175; -836.000; -926.000
369.033;  -96.125; -906.000; -855.000
369.164;  -46.700; -720.000; -653.000
369.296; -100.625; -452.000; -601.000
369.427;    8.875; -209.000; -144.000
369.558;  -41.800; -593.000; -377.000
369.689;  -75.550; -721.000; -569.000
369.821; -126.275; -951.000; -845.000
369.952;  -19.800;   42.000; -108.000
370.083;  -55.500; -229.000; -108.000
370.214;  -91.900; -735.000; -650.000
370.345;    4.000;   65.000;   81.000
370.477;  -73.200; -810.000; -790.000
370.608;  308.800; -328.000; -264.000
370.739;  -24.550;-1233.000;-1292.000
370.870;  -17.500;-1102.000; -923.000
371.001;  127.875; -378.000; -467.000
371.132;  -73.075; -754.000; -735.000
371.263;  -11.600;  -42.000; -148.000
371.394; -135.325; -841.000; -748.000
371.525;   34.875;  345.000;  225.000
371.657;  -83.450; -808.000; -670.000
371.788;   90.850;  103.000;  199.000
371.919;  207.275; -384.000; -304.000
372.050; 4322.575;  -91.000; -156.000
372.181; 1306.475; -188.000; -294.000
372.311;  452.075;   42.000; -127.000
372.442;   59.875; -457.000; -451.000
372.573;   -4.150; -444.000; -340.000
372.704; -108.275;-1008.000; -980.000
372.835;  110.625; -228.000; -289.000
372.966;  -55.275; -646.000; -554.000
373.097;  -65.900; -575.000; -711.000
373.228;  -26.325; -717.000; -542.000
373.359;  189.975; -824.000; -536.000
373.490; 1158.575; -881.000; -727.000
373.620; 1456.725;-1001.000; -803.000
373.751; 2211.875; -332.000; -396.000
373.882; 1020.300; -663.000; -733.000
374.013;  101.200; -449.000; -262.000
374.143;  -27.775; -581.000; -659.000
374.274;  -93.675; -987.000; -908.000
374.405;  187.825; -388.000; -276.000
374.536;  560.525; -526.000; -387.000
374.666; 1425.200; -759.000; -807.000
374.797;  297.475; -817.000; -868.000
374.928; 1098.850; -710.000; -560.000
375.058; 1133.200; -535.000; -500.000
375.189;   91.075;  -59.000;  -93.000
375.320;  -98.325; -928.000;-1034.000
375.450;  -43.100; -625.000; -616.000
375.581;  -48.975; -526.000; -436.000
375.712;  -15.325; -574.000; -250.000
375.842;  390.250; -438.000; -415.000
375.973;  290.900; -554.000; -513.000
376.103;  -13.675; -665.000; -648.000
376.234;  -65.425; -531.000; -552.000
376.364;  -14.300; -944.000; -867.000
376.495;  379.025;  925.000;  529.000
376.625;   22.175; -472.000; -485.000
376.756;  101.400; -709.000; -678.000
376.886;  -61.000;-1178.000;-1026.000
377.017;   35.575;-1048.000;-1061.000
377.147;  298.650; -786.000; -782.000
377.278;   49.650;  174.000;  228.000
377.408; -121.925; -801.000; -815.000
377.538; -100.850; -707.000; -693.000
377.669;  -76.175; -537.000; -613.000
377.799;  -74.300; -645.000; -635.000
377.929;  -46.175; -610.000; -428.000
378.060; -121.825; -781.000; -847.000
378.190;  -50.850; -726.000; -531.000
378.320;  -58.575; -401.000; -406.000
378.451;    1.875; -131.000;  -22.000
378.581;    2.825;  -67.000; -110.000
378.711;  159.775; 1035.000;  866.000
378.841;    6.100; -533.000; -675.000
378.972;  -45.475; -871.000; -751.000
379.102;   10.300; -652.000; -579.000
379.232;  -11.425; -126.000;  -73.000
379.362;  -78.825;-1001.000; -885.000
379.492;   38.775; -373.000; -424.000
379.623;  136.175;    0.000;  111.000
379.753;  -76.300;-1107.000; -974.000
379.883;  245.275;   59.000;  156.000
380.013;   45.675;-1081.000;-1017.000
380.143;  -86.325;-1097.000;-1056.000
380.273;  -90.375; -985.000; -861.000
380.403;    2.325; -344.000; -257.000
380.533;   -2.500; -651.000; -664.000
380.663;   91.650;  173.000;  128.000
380.793;  -85.050;-1027.000;-1074.000
380.923;  -24.225; -103.000;  -34.000
381.053;  -87.525; -613.000; -623.000
381.183;  -26.625; -106.000; -248.000
381.313;   67.875; -656.000; -470.000
381.443;   58.850; -692.000; -473.000
381.573;  271.575; -402.000; -409.000
381.703;  410.500;-1249.000;-1095.000
381.833; -103.525;-1454.000;-1336.000
381.963;  126.400; -134.000;  -87.000
382.093; 1637.500; -925.000; -909.000
382.223;  523.575; -713.000; -602.000
382.353;   19.350; -801.000; -608.000
382.482;  525.275;-1091.000; -964.000
382.612;  939.450; -872.000; -644.000
382.742;  528.175; -695.000; -622.000
382.872;  368.575; -565.000; -551.000
383.002;   88.850;  347.000; -132.000
383.131;  -10.775; -226.000; -160.000
383.261;  -42.875; -706.000; -768.000
383.391;  293.300; -552.000; -377.000
383.521; 2798.650;  451.000;  263.000
383.650;  643.050; -947.000; -904.000
383.780;  -23.500; -783.000; -656.000
383.910;  118.300;  880.000;  802.000
384.039;   33.500; -794.000; -656.000
384.169;  313.125;-1205.000;-1017.000
384.299;    3.900; -650.000; -662.000
384.428;  -93.175; -764.000; -680.000
384.558;  -22.850; -308.000; -275.000
384.687;  -39.250; -414.000; -334.000
384.817;   23.500;   75.000;   -2.000
384.947;   33.325; -234.000; -141.000
385.076;  331.275;  982.000;  912.000
385.206;  129.825;  369.000;  480.000
385.335;  -16.300; -549.000; -417.000
385.465;  -63.800; -655.000; -663.000
385.594;  158.950;  -53.000;  -44.000
385.724;  587.025; -868.000; -838.000
385.853;  163.525; -296.000; -270.000
385.982; 1666.675; -743.000; -787.000
386.112; 2648.225;-1052.000; -871.000
386.241;  198.225; -307.000; -312.000
386.371;   33.100; -174.000;  -87.000
386.500;   23.850; -825.000; -789.000
386.629;   43.625; -874.000; -817.000
386.759;   64.075;  -43.000;   68.000
386.888;   -6.925; -170.000; -250.000
387.017;  -66.400; -648.000; -620.000
387.147;  -82.575; -771.000; -798.000
387.276;   24.150; -410.000; -397.000
387.405;   32.950; -398.000; -342.000
387.535;  -41.125; -452.000; -361.000
387.664;  -45.450; -692.000; -620.000
387.793;   84.500; -198.000; -113.000
387.922;  648.100;  255.000;  200.000
388.052;   50.050; -576.000; -423.000
388.181;   54.250; -342.000; -472.000
388.310;   53.350; -889.000; -710.000
388.439;  -12.500; -749.000; -742.000
388.568;  217.750;  365.000;  244.000
388.697; 1335.850; -756.000; -653.000
388.826;  289.950; -768.000; -666.000
388.956;   93.225; -285.000; -307.000
389.085;  -25.725; -347.000; -287.000
389.214;  -95.750; -842.000; -872.000
389.343;  -55.400; -645.000; -413.000
389.472;  360.625;  126.000;  149.000
389.601;  529.750;   91.000;    0.000
389.730;   33.600; -568.000; -687.000
389.859;   78.250;  226.000;   46.000
389.988;  239.125; -423.000; -408.000
390.117;  187.450; -168.000; -146.000
390.246;    7.425; -331.000; -320.000
390.375;  151.975; -673.000; -626.000
390.504;  -47.925; -703.000; -621.000
390.633;  -88.525; -672.000; -726.000
390.761;  -56.250; -732.000; -645.000
390.890;   42.575;   -4.000; -130.000
391.019;   -8.325; -421.000; -441.000
391.148; -125.975; -826.000; -855.000
391.277;  -54.075; -576.000; -493.000
391.406;  -66.525; -821.000; -805.000
391.534;   34.625;  574.000; -301.000
391.663;  -56.275; -583.000; -645.000
391.792;  -73.250; -673.000; -701.000
391.921;  130.000;   -3.000;   15.000
392.050;  254.625; -287.000; -228.000
392.178;  -11.350;-1206.000;-1061.000
392.307;  192.075; -758.000; -712.000
392.436;  113.325; -427.000; -641.000
392.564;   27.525;  166.000;   -6.000
392.693;  -82.400; -860.000; -682.000
392.822;  270.850; -529.000; -534.000
392.950;  150.625; -880.000; -714.000
393.079;  421.400; -188.000; -328.000
393.208;   48.575; -488.000; -511.000
393.336;  -15.600; -170.000; -145.000
393.465;  -54.675; -317.000; -199.000
393.593;    2.000;   62.000;   79.000
393.722; -139.275;-1121.000; -916.000
393.850;  -32.725; -188.000;  -61.000
393.979; -162.100; -926.000; -805.000
394.107;  -71.325; -517.000; -537.000
394.236;  -16.375; -570.000; -507.000
394.364;  208.025;  383.000;  206.000
394.493;  373.025; -911.000; -767.000
394.621;  -17.500; -955.000; -916.000
394.750;  614.750; -873.000; -923.000
394.878; 2650.125; -247.000; -149.000
395.007; 3613.725; -721.000; -807.000
395.135;  273.750; -790.000; -721.000
395.263;  -78.825;-1038.000;-1040.000
395.392;    5.850;  -25.000; -107.000
395.520; -138.150; -818.000; -679.000
395.648;  -79.250; -865.000; -915.000
395.777;   -4.775; -366.000; -405.000
395.905;  -46.275; -449.000; -564.000
396.033;   13.100;  217.000;  172.000
396.162;  616.550; -399.000; -453.000
396.290;  552.650;  -17.000;   -2.000
396.418;  158.050; -555.000; -514.000
396.546;  -66.950; -571.000; -466.000
396.674;  -96.925; -850.000; -878.000
396.803;    9.725;  -72.000;  -23.000
396.931;  125.425; -179.000; -199.000
397.059;  101.325;-1026.000; -989.000
397.187;  -94.950;-1026.000; -975.000
397.315; -135.975; -884.000; -649.000
397.443;  -99.400; -592.000; -443.000
397.572;  -83.000; -578.000; -424.000
397.700;   16.075; -607.000; -614.000
397.828;   39.250;  120.000;  -90.000
397.956;  -56.325; -508.000; -478.000
398.084;  -70.275; -767.000; -626.000
398.212;   52.500;  137.000;  124.000
398.340;   15.925;  -56.000;  159.000
398.468;   53.800; -390.000; -169.000
398.596; -117.250; -993.000; -953.000
398.724; -114.900; -762.000; -767.000
398.852; -168.325;-1024.000; -976.000
398.980;  -71.600; -560.000; -560.000
399.108;  -35.500; -982.000; -735.000
399.236;   43.275;   13.000;    8.000
399.363;    2.025;  222.000;  196.000
399.491;  -59.850; -404.000; -398.000
399.619; -122.800; -829.000; -800.000
399.747;  -95.100; -859.000; -771.000
399.875;   84.175;  220.000;  234.000
400.003;  -45.350; -359.000; -284.000
400.130;  -90.075; -421.000; -341.000
400.258;  -37.250;  -83.000;   38.000
400.386;  -72.375; -352.000; -168.000
400.514;  -37.375; -526.000; -587.000
400.641;  -72.975; -928.000; -802.000
400.769; -147.400; -979.000; -888.000
400.897; -108.225; -838.000; -793.000
401.025;  -10.875; -166.000; -152.000
401.152;  -14.525;  220.000;   38.000
401.280;  -84.800; -430.000; -429.000
401.408; -123.425; -712.000; -576.000
401.535; -109.800; -735.000; -758.000
401.663; -180.750;-1134.000;-1054.000
401.790;  -84.775; -514.000; -525.000
401.918;   45.825;  436.000;  405.000
402.046;  -23.525;  134.000;  122.000
402.173;  -32.050;  -18.000;    7.000
402.301;  -56.375; -519.000; -397.000
402.428;   37.550;  528.000;  383.000
402.556; -142.550;-1188.000; -913.000
402.683;  -26.800;  -20.000;   -1.000
402.811;   -7.925;  -37.000; -206.000
402.938;   -8.850;   20.000;   27.000
403.066;  269.250; -574.000; -558.000
403.193;  410.350;  299.000;  239.000
403.321;  334.575; -396.000; -574.000
403.448;  404.450;   83.000;   27.000
403.575;  179.150;  -90.000;  -46.000
403.703;  -87.325; -732.000; -557.000
403.830;  -63.125; -531.000; -496.000
403.957; -150.500;-1117.000;-1023.000
404.085;    0.750;  -61.000; -172.000
404.212;  113.625;  -50.000;   63.000
404.339;  230.450; -566.000; -306.000
404.467; 5225.575; -612.000; -524.000
404.594; 3717.375; -287.000; -227.000
404.721;  979.150; -869.000; -764.000
404.848;   87.950; -113.000; -202.000
404.976; -101.250; -856.000; -783.000
405.103;   12.575;  -14.000;  -82.000
405.230;    2.900;  190.000;  226.000
405.357;   14.175;  117.000;   44.000
405.484;  227.500;  -49.000;    5.000
405.612;   38.550; -548.000; -563.000
405.739;  -72.175; -488.000; -243.000
405.866;   84.275;  669.000;  385.000
405.993;  -56.950; -398.000; -102.000
406.120; -132.400; -801.000; -887.000
406.247;  -53.675; -323.000; -342.000
406.374;  540.575;  540.000;  629.000
406.501;  187.275; -632.000; -702.000
406.628;  -73.500; -621.000; -589.000
406.755;  -77.675; -803.000; -620.000
406.882;  -44.250; -228.000; -277.000
407.009; -107.425; -719.000; -628.000
407.136;   77.025; -480.000; -401.000
407.263;  205.850; -939.000; -829.000
407.390;  -63.325; -692.000; -614.000
407.517; -158.675;-1139.000;-1187.000
407.644;  -63.300; -332.000; -256.000
407.771;  -76.300; -249.000; -287.000
407.898;   17.350;  168.000;  328.000
408.025;  -59.975; -421.000; -313.000
408.151;  -14.050;   82.000;  153.000
408.278;  -62.650; -267.000; -216.000
408.405; -107.525; -931.000; -899.000
408.532;  -68.375; -549.000; -542.000
408.659; -122.300; -677.000; -648.000
408.785; -208.275;-1298.000;-1170.000
408.912;  -69.850; -412.000; -296.000
409.039; -117.675; -610.000; -686.000
409.166; -107.950; -591.000; -555.000
409.292; -107.700; -571.000; -534.000
409.419; -126.950; -665.000; -649.000
409.546;  -92.025; -431.000; -192.000
409.672; -120.600; -713.000; -545.000
409.799;  -13.950;  -36.000;   34.000
409.926;  -27.075; -180.000; -179.000
410.052; -170.925;-1127.000;-1091.000
410.179;  -63.275; -368.000; -392.000
410.305;  -87.275; -375.000; -493.000
410.432;  -44.775; -220.000; -333.000
410.558;  -99.800; -305.000; -380.000
410.685; -104.950; -688.000; -431.000
410.812; -100.450; -409.000; -588.000
410.938; -124.775; -964.000; -808.000
411.065;  -91.425; -671.000; -645.000
411.191;  -21.475; -189.000; -174.000
411.317; -112.850; -823.000; -742.000
411.444;  -55.625; -317.000; -246.000
411.570;  -80.075; -339.000; -294.000
411.697; -121.750; -758.000; -752.000
411.823; -169.000; -989.000; -999.000
411.949;  -14.000;  -56.000;   17.000
412.076; -128.375; -539.000; -519.000
412.202; -117.800; -758.000; -757.000
412.329; -134.500; -798.000; -752.000
412.455; -110.125; -821.000; -657.000
412.581;  -19.125;  -15.000;  172.000
412.707;  -61.025; -540.000; -457.000
412.834;   14.200;  156.000;  219.000
412.960;  -86.250; -785.000; -784.000
413.086; -100.375; -743.000; -701.000
413.212;  190.225;  604.000;  578.000
413.339;  -41.750; -685.000; -701.000
413.465;   24.700; -364.000; -310.000
413.591;  -91.600; -757.000; -474.000
413.717;  -58.050; -358.000; -366.000
413.843; -135.550; -839.000; -861.000
413.969;  -63.350;  -47.000; -292.000
414.096;  -99.600; -679.000; -679.000
414.222;  -13.325;  -33.000;   85.000
414.348;   -5.325; -652.000; -385.000
414.474;  125.675;   38.000;  -52.000
414.600;   -8.350; -126.000; -144.000
414.726;  -12.650;  -96.000;  -55.000
414.852;  -69.350; -365.000; -342.000
414.978;   16.075;  104.000;  -18.000
415.104;   53.225;   38.000;   80.000
415.230;    3.925; -329.000; -330.000
415.356;   38.250; -409.000; -514.000
415.482;  210.900;   13.000;  -35.000
415.608;  269.500; -247.000; -323.000
415.734;  899.150;   67.000;   38.000
415.860;18663.575; -875.000; -767.000
415.986;13655.850; -685.000; -607.000
416.111; 1189.825; -798.000; -652.000
416.237;  228.700; -424.000; -571.000
416.363;  992.350; -765.000; -733.000
416.489; 3775.075; -324.000; -251.000
416.615;  390.975; -707.000; -742.000
416.741;  -21.075; -677.000; -784.000
416.866; -104.825; -673.000; -736.000
416.992; -144.950; -801.000; -818.000
417.118;  -23.100;  -41.000;  -80.000
417.244;  -61.600; -798.000; -531.000
417.369;  -91.800; -801.000; -612.000
417.495;   -3.450; -325.000; -254.000
417.621;  -77.350;-1015.000; -803.000
417.746;    4.000; -579.000; -572.000
417.872;   27.850; -254.000; -144.000
417.998;   34.400; -515.000; -530.000
418.123;  920.250;-1073.000; -845.000
418.249; 4916.550; -512.000; -601.000
418.374;  679.150; -916.000; -824.000
418.500;  113.275; -383.000; -482.000
418.626;  106.100;   70.000;  -59.000
418.751;  124.975; -549.000; -448.000
418.877;  184.750; -637.000; -643.000
419.002; 1623.100; -688.000; -560.000
419.128;11519.775; -930.000; -721.000
419.253; 2830.875; -967.000; -837.000
419.379;  357.050; -391.000; -338.000
419.504;  351.550;  325.000;  415.000
419.629;  456.175; -393.000; -212.000
419.755; 3107.800; -317.000; -254.000
419.880;18694.900;  -98.000;   67.000
420.006;10338.800; -280.000; -221.000
420.131;27113.975; -662.000; -775.000
420.256; 4005.925; -315.000; -316.000
420.382;  530.125; -665.000; -687.000
420.507;   64.675; -649.000; -778.000
420.632;  188.775; -337.000; -339.000
420.758;  345.975; -251.000; -425.000
420.883;  -78.475; -876.000; -672.000
421.008;  -96.075; -775.000; -619.000
421.133;  -80.975; -509.000; -467.000
421.259;  -43.550; -325.000; -259.000
421.384; -123.925; -834.000; -693.000
421.509;  -30.450;-1052.000; -862.000
421.634; 1556.500; -936.000; -820.000
421.759;  704.925; -359.000; -327.000
421.885;  -46.425; -717.000; -656.000
422.010;  -82.850; -673.000; -542.000
422.135; -144.375; -695.000; -727.000
422.260;   38.950;  340.000;  280.000
422.385;  -37.125;   12.000;  -98.000
422.510;   -3.575;  151.000;  -26.000
422.635;   17.925;  -87.000;  -43.000
422.760;  121.800; -766.000; -791.000
422.885;   56.000;  -57.000;  -80.000
423.010;  -32.200; -112.000; -169.000
423.135;  -96.050; -481.000; -561.000
423.260;   -4.875; -150.000; -245.000
423.385;   85.725;  476.000;  222.000
423.510;   38.925;   71.000;  -22.000
423.635;   93.175;  133.000;   45.000
423.760;   64.525;  383.000;  328.000
423.885;   68.025;  336.000;  391.000
424.010;   12.650;  -68.000;  -13.000
424.135;  -14.375;    5.000;  -33.000
424.259;  -91.250; -654.000; -457.000
424.384;  -67.975; -279.000; -272.000
424.509;  -32.075; -260.000; -186.000
424.634;  -95.450; -761.000; -623.000
424.759;  -34.025; -688.000; -544.000
424.883;  -15.875; -506.000; -527.000
425.008;  165.800; -502.000; -410.000
425.133; 1833.850; -679.000; -653.000
425.258;  867.675; -517.000; -381.000
425.382; 1194.050; -867.000; -774.000
425.507; 3114.500; -487.000; -543.000
425.632;  488.300; -802.000; -663.000
425.756;  414.200; -256.000; -146.000
425.881; 5616.525; -831.000; -857.000
426.006;15217.150; -604.000; -355.000
426.130; 2468.050; -696.000; -508.000
426.255;  300.500; -611.000; -491.000
426.379;  151.175; -189.000; -577.000
426.504;  346.675;  660.000;  544.000
426.629; 3773.975; -519.000; -466.000
426.753; 2670.300;   64.000;  -46.000
426.878;  299.375; -252.000; -288.000
427.002;  132.900; -651.000; -668.000
427.127; 1459.000;  -35.000; -158.000
427.251;10325.925;  372.000;  401.000
427.375; 3051.525; -191.000; -173.000
427.500; 2673.025; -616.000; -610.000
427.624;  927.525; -234.000; -400.000
427.749;  120.275; -216.000; -225.000
427.873;  -36.350; -499.000; -412.000
427.997;  -50.225; -222.000; -230.000
428.122;   80.775;  795.000;  703.000
428.246;   83.475;  433.000;  434.000
428.371; -132.750; -869.000; -773.000
428.495; -103.225; -624.000; -646.000
428.619;  -38.450; -186.000; -117.000
428.743;   38.575;   65.000;  132.000
428.868;   35.925; -732.000; -643.000
428.992; 1693.550; -219.000; -326.000
429.116;  719.900; -329.000; -357.000
429.240;  332.650;  419.000;  426.000
429.365;  -18.600; -454.000; -574.000
429.489;  -27.600; -638.000; -647.000
429.613;   22.775; -236.000; -177.000
429.737;   26.500; -563.000; -432.000
429.861;  247.625; -247.000; -133.000
429.985; 5150.675; -425.000; -305.000
430.109; 5641.250; -770.000; -908.000
430.234;  663.350;   76.000;  -50.000
430.358;   65.925; -250.000; -160.000
430.482;  -79.725; -672.000; -564.000
430.606;  -59.400; -655.000; -375.000
430.730;   31.825; -437.000; -388.000
430.854;  202.525; -909.000; -835.000
430.978;  -64.550; -795.000; -764.000
431.102;  -79.300; -499.000; -422.000
431.226; -124.725; -874.000; -815.000
431.350;   21.950;  345.000;  422.000
431.474;  -78.750; -661.000; -373.000
431.597; -137.275;-1060.000; -848.000
431.721;  -68.925; -276.000; -267.000
431.845; -142.550; -704.000; -472.000
431.969;  -81.250; -304.000; -349.000
432.093; -108.025; -395.000; -317.000
432.217;  -14.025;   32.000;   82.000
432.341;  -92.200; -523.000; -518.000
432.464;    1.975;   96.000;   40.000
432.588;  274.700; -401.000; -329.000
432.712;  127.675;  -52.000;  -52.000
432.836;   39.425;  213.000;  263.000
432.959;  -21.100; -372.000; -311.000
433.083;   70.275;   11.000;    2.000
433.207;  347.050;  285.000;  930.000
433.330; 4534.525; -391.000; -200.000
433.454; 5656.825; -654.000; -638.000
433.578; 3288.975;  583.000;  278.000
433.701;  635.375; -623.000; -675.000
433.825;  178.300; -292.000; -299.000
433.949;  251.475;   28.000;  -72.000
434.072;   93.475; -410.000; -323.000
434.196;   -9.525; -309.000; -117.000
434.319; 3698.225;25482.000;25124.000
434.443;  741.550; -656.000; -603.000
434.566; 2435.125;  281.000;   62.000
434.690;  398.800; -637.000; -383.000
434.813;   39.275; -251.000; -173.000
434.937;  -79.050; -569.000; -696.000
435.060;  -27.525; -423.000; -332.000
435.184;  466.625; -492.000; -217.000
435.307;  243.300;  159.000;  102.000
435.431;   14.800;  -40.000;   24.000
435.554;  -83.725; -399.000; -240.000
435.677;  -79.875; -350.000; -258.000
435.801;  -45.925;  -25.000;   49.000
435.924;    2.800;    1.000;  -67.000
436.048;  -92.850;-1019.000; -732.000
436.171;  -80.625; -240.000;  -66.000
436.294;  -32.300; -248.000; -229.000
436.417;   70.125; -963.000; -849.000
436.541; -108.450; -814.000; -840.000
436.664;  -55.775; -242.000; -316.000
436.787;  -20.025;   13.000;  113.000
436.910; -108.700; -792.000; -422.000
437.034;    3.725;  142.000;  143.000
437.157;   70.800;  -11.000;    0.000
437.280;  -33.725; -392.000; -292.000
437.403;  -71.650; -982.000; -869.000
437.526;  903.950; -903.000; -865.000
437.649; 3107.850; -505.000; -332.000
437.772;  507.900; -692.000; -540.000
437.896;  152.425;  700.000;  544.000
438.019;  -93.375; -758.000; -503.000
438.142;  -80.600; -596.000; -506.000
438.265;    9.475; -639.000; -670.000
438.388;  729.650; -520.000; -410.000
438.511;  154.600; -597.000; -394.000
438.634;  -30.750; -247.000; -125.000
438.757; -132.050; -693.000; -619.000
438.880;  -28.875;  -34.000;  -57.000
439.003;  -82.925; -417.000; -437.000
439.126;  -56.300; -287.000; -167.000
439.248;  -61.800;  -98.000; -139.000
439.371;  -47.950;    9.000;  -53.000
439.494;    9.875;  510.000;  439.000
439.617;  -68.925;   65.000;  -88.000
439.740; -183.825; -968.000; -816.000
439.863; -139.600; -755.000; -595.000
439.986; -124.650; -476.000; -431.000
440.108;  -48.250; -161.000; -112.000
440.231; -174.825; -950.000; -836.000
440.354;  -31.850;  -64.000; -150.000
440.477;   59.575; -566.000; -542.000
440.599;   22.600; -200.000; -225.000
440.722; -119.600; -709.000; -586.000
440.845;   59.975;  751.000;  928.000
440.968; -116.975; -415.000; -311.000
441.090;  -67.100; -199.000;  -33.000
441.213; -166.725;-1021.000; -825.000
441.336;  -48.500; -159.000;   -5.000
441.458;  -75.375; -549.000; -396.000
441.581;  -65.600; -628.000; -629.000
441.703;  -74.700; -152.000;   13.000
441.826; -105.275; -557.000; -400.000
441.948;  -70.000;   56.000;   51.000
442.071;   26.300;  555.000;  424.000
442.193; -124.800; -531.000; -485.000
442.316;    6.450;  152.000;   97.000
442.438;   30.850; -233.000;  -10.000
442.561;   82.900;  272.000;  262.000
442.683;  743.300; -809.000; -522.000
442.806; 1547.300;   -8.000;   74.000
442.928;   78.750; -859.000; -604.000
443.051;  -66.975; -577.000; -373.000
443.173;  -92.850; -341.000; -339.000
443.295;  -99.850; -263.000; -371.000
443.418;  -68.375; -321.000;  -29.000
443.540;   -0.375; -106.000;   -4.000
443.662; -116.650; -563.000; -465.000
443.785;   -8.975;  335.000;  199.000
443.907;  -97.375; -362.000; -208.000
444.029; -126.750; -767.000; -494.000
444.152; -150.550; -644.000; -554.000
444.274;  -19.500;  -18.000;  -24.000
444.396; -128.325; -461.000; -221.000
444.518; -135.425; -691.000; -454.000
444.640; -107.375; -268.000; -111.000
444.763;   -3.025;  388.000;  249.000
444.885; -111.600; -432.000; -392.000
445.007;  -44.125;   35.000;   86.000
445.129; -113.975; -610.000; -515.000
445.251;  -98.575; -372.000; -439.000
445.373; -135.875; -537.000; -386.000
445.495;   -7.425;  242.000;  350.000
445.617;   55.975;  853.000;  753.000
445.739;  -70.300; -215.000;  -97.000
445.861;  -32.075; -245.000; -112.000
445.984;  -38.125; -267.000; -101.000
446.105;  284.175; -418.000; -251.000
446.227;  796.450; -176.000;  -19.000
446.349;   43.225; -358.000; -249.000
446.471;  -92.825; -615.000; -448.000
446.593;  -71.975; -316.000;   19.000
446.715;   -5.125;  -67.000;   41.000
446.837;   62.850;  697.000;  832.000
446.959;  -98.300; -457.000; -478.000
447.081; -134.550; -628.000; -518.000
447.203;   55.750;  862.000;  834.000
447.325;  -95.500; -270.000;   42.000
447.446;   -0.425;  286.000;  530.000
447.568; -147.050; -921.000; -803.000
447.690;  -75.575; -236.000; -245.000
447.812; -156.125; -798.000; -519.000
447.933;  -27.800;  155.000;  127.000
448.055;  -62.825; -306.000; -261.000
448.177;  163.475;   31.000;   79.000
448.299;  141.225; -935.000; -727.000
448.420;   28.350;  -25.000;  159.000
448.542;  -45.875;   -3.000;   33.000
448.664;  -20.875;  109.000;  322.000
448.785;  -37.600;  265.000;   83.000
448.907;  -83.250; -614.000; -353.000
449.028;  -11.925; -771.000; -471.000
449.150;   72.525;  492.000;  589.000
449.272; -182.150;-1044.000; -913.000
449.393;   33.475;  612.000;  694.000
449.515; -150.650; -634.000; -581.000
449.636;  -47.000; -264.000; -155.000
449.758;   95.000;  763.000;  622.000
449.879;  -98.425; -498.000; -396.000
450.001;  -97.375; -149.000;  -49.000
450.122;  -22.850;  -95.000;  162.000
450.244;  -20.675;   37.000;  364.000
450.365; -104.750; -495.000; -301.000
450.486;  -48.925;   80.000;  268.000
450.608;   13.375;  393.000;  326.000
450.729;   51.325;  578.000;  645.000
450.850;  -18.325; -574.000; -466.000
450.972;  620.350; -552.000; -389.000
451.093; 4305.350;  190.000;  588.000
451.214; 1897.575; -516.000; -337.000
451.336;  326.575;  773.000;  579.000
451.457;   58.325;  264.000;  393.000
451.578;  -48.100; -118.000;  -74.000
451.699; -126.475; -546.000; -540.000
451.821;  -76.750; -284.000;  -50.000
451.942;  -13.225;  278.000;  285.000
452.063;   19.475;  228.000;  419.000
452.184;  471.600;  -54.000;  -49.000
452.305;  993.625;  103.000;  170.000
452.427;  115.600; -549.000; -301.000
452.548;  -12.100;   23.000;   79.000
452.669;  -47.200; -257.000;  -89.000
452.790;  -47.625;    3.000;  -18.000
452.911;  -19.275;  195.000;  259.000
453.032;  -65.050; -289.000;  -60.000
453.153;  -43.150;  -29.000;   81.000
453.274;   65.125;  737.000;  868.000
453.395;  -66.150;  -51.000;  175.000
453.516;  105.525; 1317.000; 1388.000
453.637;  -61.700; -205.000; -150.000
453.758;  -51.700;   15.000;   69.000
453.879; -121.125; -462.000; -250.000
454.000;   74.650; 1086.000;  948.000
454.121; -110.500; -554.000; -326.000
454.242; -129.100; -599.000; -383.000
454.362;  -52.425;  -99.000;  114.000
454.483;  -48.550; -309.000; -229.000
454.604;   56.850;  512.000;  580.000
454.725; -130.225; -627.000; -555.000
454.846; -128.175; -474.000; -406.000
454.967;  -28.625;  230.000;  539.000
455.087;  -50.950;  179.000;  153.000
455.208;   22.625;  554.000;  856.000
455.329;  -62.950;  -22.000;   82.000
455.450;   20.350;  473.000;  633.000
455.570;  -78.150; -234.000; -211.000
455.691;  -43.425;  201.000;  407.000
455.812; -112.100; -270.000;  -92.000
455.932;  -82.225;  107.000;  -97.000
456.053;  -80.025;   36.000;   24.000
456.173; -119.850; -433.000; -355.000
456.294; -128.150; -476.000; -303.000
456.415;  -64.625;  -73.000;   70.000
456.535;  -45.575;  297.000;  273.000
456.656;  -52.925;  132.000;  240.000
456.776;  -77.525;    3.000;  298.000
456.897;    0.700;  308.000;  513.000
457.017;  -75.500; -153.000;   -3.000
457.138; -118.025; -402.000; -249.000
457.258;  -26.575;  263.000;  224.000
457.379;  -12.475;  509.000;  521.000
457.499;  -21.150;  443.000;  432.000
457.620; -135.850; -407.000; -231.000
457.740; -108.150; -132.000;  -11.000
457.860;  -73.825;   87.000;   44.000
457.981;  -46.350;  132.000;  124.000
458.101;  -72.875;  -89.000;   40.000
458.221;  -13.750;  336.000;  402.000
458.342;  -75.950;   -4.000;  -37.000
458.462;    5.025;  617.000;  352.000
458.582;  -48.450; -302.000; -294.000
458.703;   -5.975;  303.000;  154.000
458.823;  -21.675;   22.000;  163.000
458.943;   16.350;  341.000;  467.000
459.063;  -11.375; 1124.000;  192.000
459.183;  -24.550;  328.000;  313.000
459.304;   -6.300;  315.000;  517.000
459.424;  -60.975; -246.000;  -89.000
459.544;  293.900;  388.000;  764.000
459.664;  738.700;  499.000;  506.000
459.784;  285.375; 1004.000; 1175.000
459.904;   50.500;  867.000;  744.000
460.024;   92.500;  867.000;  684.000
460.144;   14.350;  449.000;  554.000
460.264;  -12.800;  515.000;  327.000
460.385;  -93.900; -145.000; -119.000
460.505;   24.050;  905.000;  858.000
460.625; -100.575;  -17.000;  -68.000
460.745;  -22.850;  396.000;  541.000
460.864;  -53.900;  153.000;  469.000
460.984;   22.875;  499.000;  573.000
461.104;  133.075; 1656.000; 1775.000
461.224;   12.725;  657.000;  650.000
461.344;  -31.150;  431.000;  360.000
461.464;  -38.825;  258.000;  513.000
461.584;  -26.375;  283.000;  466.000
461.704;  -43.975;   58.000;  108.000
461.824;  -63.750;  238.000;  259.000
461.943;  -44.625;  191.000;  130.000
462.063;  -78.325;    2.000;  324.000
462.183;   41.325;  639.000;  717.000
462.303;   97.375; 1678.000; 1230.000
462.422;   33.975;  781.000;  840.000
462.542;  -38.225;  271.000;  391.000
462.662;   46.375;  353.000;  380.000
462.782;  207.000;  833.000;  572.000
462.901;  449.825;  545.000;  717.000
463.021;  255.175; 1702.000; 1638.000
463.141;  -12.425;  337.000;  770.000
463.260;  -15.750;  614.000;  474.000
463.380;    3.825;  902.000;  884.000
463.499;  -43.725;  342.000;  332.000
463.619;  -24.675;  581.000;  559.000
463.738;  116.200; 1644.000;  903.000
463.858;   18.550;  657.000;  811.000
463.978;  -24.850;  542.000;  396.000
464.097;   39.975;  921.000; 1114.000
464.217;   99.325; 1196.000; 1143.000
464.336;   96.550; 1068.000; 1130.000
464.455;  -39.400;  328.000;  659.000
464.575;   57.325;  597.000;  602.000
464.694;  179.775; 1204.000; 1179.000
464.814;  117.700; 1190.000; 1138.000
464.933;   82.475; 1095.000; 1027.000
465.052;   93.425; 1412.000; 1054.000
465.172;   75.225;  922.000;  799.000
465.291;  157.575; 1376.000; 1320.000
465.410;   10.300;  462.000;  735.000
465.530;   99.325; 1355.000; 1310.000
465.649;   70.375; 1209.000; 1273.000
465.768;  146.450; 1673.000; 1508.000
465.888;   35.100;  941.000; 1174.000
466.007;   88.325; 1335.000; 1440.000
466.126;  -22.675;  721.000;  641.000
466.245;   29.300; 1176.000; 1187.000
466.364;   29.650;  950.000; 1060.000
466.484;   56.600; 1024.000; 1213.000
466.603;   40.750; 1101.000; 1222.000
466.722;  111.250; 1490.000; 1769.000
466.841;   73.150; 1151.000; 1401.000
466.960;   40.625; 1069.000;  972.000
467.079;  143.350; 1971.000; 1786.000
467.198;   48.975; 1238.000; 1181.000
467.317;   89.750; 1768.000; 1162.000
467.436;   61.525; 1709.000; 1261.000
467.555;  123.275; 1796.000; 1746.000
467.674;   47.525; 1227.000; 1329.000
467.793;   49.500; 1376.000; 1374.000
467.912;   80.975; 1658.000; 1539.000
468.031;  153.850; 2038.000; 1930.000
468.150;  151.925; 1842.000; 1837.000
468.269;  193.275; 2313.000; 2090.000
468.388;  184.325; 2168.000; 2339.000
468.507;  251.050; 2884.000; 2903.000
468.626;  246.275; 2555.000; 2541.000
468.744;  141.450; 2018.000; 2174.000
468.863;  185.725; 2312.000; 2523.000
468.982;   88.950; 1503.000; 1555.000
469.101;  220.700; 2788.000; 2692.000
469.220;  147.825; 2333.000; 2176.000
469.338;  249.025; 2935.000; 3051.000
469.457;  183.775; 2719.000; 2545.000
469.576;  349.450; 3953.000; 3784.000
469.695;  243.825; 2877.000; 3066.000
469.813;  423.850; 4148.000; 4192.000
469.932;  404.850; 4255.000; 4485.000
470.051;  426.950; 4075.000; 4161.000
470.169;  813.575; 4470.000; 4338.000
470.288; 1395.000; 4700.000; 4809.000
470.406;  839.750; 5059.000; 5194.000
470.525;  608.975; 6101.000; 5787.000
470.644;  647.000; 6847.000; 6794.000
470.762;  826.850; 8397.000; 7873.000
470.881;  917.875; 8651.000; 8464.000
470.999; 1028.700; 9685.000; 9151.000
471.118; 1113.400;11174.000;10711.000

