
Integration time [ms]: 100.000
Averaging Nr. [scans]: 40
Smoothing Nr. [pixels]: 0
Data measured with spectrometer [name]: 2101012U2
Wave   ;Sample   ;Dark     ;Reference
[nm]   ;[counts] ;[counts] ;[counts] 

197.733;   56.800;  516.000;  404.000
197.879;  -85.850; -610.000; -634.000
198.025;  -38.350; -475.000; -420.000
198.171;  -72.650; -602.000; -612.000
198.317;  -29.325; -401.000; -316.000
198.463;  -51.650; -655.000; -404.000
198.609;   19.925;  181.000; -137.000
198.755;  -71.750; -644.000; -410.000
198.901;  -64.600; -505.000; -424.000
199.047;  -62.675; -615.000; -488.000
199.193;  -35.000; -230.000; -468.000
199.339;  -33.725; -222.000; -369.000
199.485;   47.800;  330.000;  271.000
199.631;   25.400;  227.000;  310.000
199.777;  -49.925; -466.000; -398.000
199.923;  -59.900; -610.000; -424.000
200.069;    8.500; -141.000;  -58.000
200.215;   54.300;  128.000;  453.000
200.361;   55.400;  243.000;  477.000
200.507;  -61.050; -600.000; -373.000
200.653;  -29.700; -371.000; -194.000
200.798;  -39.725; -215.000; -125.000
200.944;  -10.650; -146.000;  -41.000
201.090;   45.575;   61.000;  222.000
201.236;   -5.100; -116.000; -158.000
201.382;  122.550;  874.000;  903.000
201.528;    3.325;  -58.000;  -48.000
201.674;  -36.750; -386.000; -293.000
201.819;  -62.775; -540.000; -439.000
201.965;  -82.725; -699.000; -447.000
202.111;  -12.650; -273.000; -226.000
202.257;  -35.650; -250.000; -238.000
202.402;    7.350;   13.000;  -36.000
202.548;  -28.275; -169.000; -116.000
202.694;   76.975;  410.000; -183.000
202.840;  -83.950; -603.000; -531.000
202.985;  -69.050; -681.000; -639.000
203.131; -101.450; -832.000; -666.000
203.277;  -18.450; -199.000; -262.000
203.423;  -38.675; -434.000; -520.000
203.568;  -38.750; -462.000; -237.000
203.714;  -56.400; -535.000; -542.000
203.860;  -75.600; -682.000; -641.000
204.005;   23.925;  112.000;  167.000
204.151;   80.550;  561.000;  556.000
204.296;  -46.175; -354.000; -221.000
204.442;  -64.225; -600.000; -547.000
204.588;  -65.550; -592.000; -579.000
204.733;   17.250;  178.000;  168.000
204.879; -116.100;-1018.000; -822.000
205.025;   -6.175;  -99.000;  126.000
205.170;    3.100;  -17.000;   94.000
205.316;   77.550;  438.000;  661.000
205.461;  -77.125; -698.000; -554.000
205.607;   85.575;  609.000;  665.000
205.752;  -81.225; -626.000; -551.000
205.898;  -42.875; -501.000; -391.000
206.043;  -61.200; -578.000; -506.000
206.189;  -33.975; -243.000; -285.000
206.334;   77.375;  554.000;  606.000
206.480;   75.400;  409.000;  239.000
206.625;  -74.625; -529.000; -552.000
206.771;  -39.950; -451.000; -373.000
206.916;  -41.650; -210.000; -537.000
207.062;  -74.175; -545.000; -591.000
207.207;  -54.275; -546.000; -443.000
207.353;   60.250;  185.000;  460.000
207.498;   26.475;  196.000;   85.000
207.643;  -57.150; -501.000; -370.000
207.789; -130.000;-1069.000; -910.000
207.934;  -90.475; -665.000; -713.000
208.080;  -13.275; -154.000;   66.000
208.225;   -2.575;  -22.000;  -57.000
208.370;  -82.350; -727.000; -619.000
208.516;  -71.950; -741.000; -487.000
208.661;  -16.350; -127.000;  -69.000
208.806;  -20.125; -165.000; -171.000
208.952; -106.125;-1044.000; -731.000
209.097;   78.000;  378.000;  349.000
209.242;  -54.425; -307.000; -382.000
209.387;   60.400;  392.000;  350.000
209.533;  -33.700; -321.000; -350.000
209.678;   69.200;  472.000;  543.000
209.823;  -54.050; -408.000; -310.000
209.969; -106.925; -860.000; -757.000
210.114; -105.800; -907.000; -719.000
210.259; -117.350; -939.000; -889.000
210.404;   -2.925; -171.000;  103.000
210.549;   16.100;  108.000;    3.000
210.695;  -12.150;   -3.000;  -95.000
210.840;   26.625;   94.000;   67.000
210.985;  -69.400; -484.000; -303.000
211.130;   75.750;  268.000;  406.000
211.275;   26.525;  207.000;  199.000
211.420;  -51.425; -300.000; -289.000
211.566;  -68.975; -536.000; -489.000
211.711;   31.275;  218.000;  157.000
211.856;  -58.875; -545.000; -519.000
212.001;    8.175;  151.000;   44.000
212.146;   39.175;  153.000;   49.000
212.291;  -32.250; -210.000; -186.000
212.436;  -16.200; -280.000;   -6.000
212.581;  -87.425; -685.000; -653.000
212.726;  -79.550; -487.000; -538.000
212.871;  -34.025; -552.000; -217.000
213.016; -154.550;-1172.000;-1029.000
213.161;   64.875;  406.000;  291.000
213.306;  -64.600; -435.000; -577.000
213.451;  -95.200; -778.000; -689.000
213.596;  -49.300; -455.000; -347.000
213.741;  -63.650; -448.000; -538.000
213.886;  -77.450; -498.000; -517.000
214.031;  -27.650; -294.000; -124.000
214.176;  -54.750; -408.000; -341.000
214.321;  -14.800; -296.000; -157.000
214.466;  -27.250; -163.000;  -43.000
214.611;   -1.225;  -61.000;  -10.000
214.756; -118.925; -948.000; -858.000
214.901;  -35.650; -388.000; -226.000
215.046; -108.000; -797.000; -825.000
215.191;   11.100;  128.000;   35.000
215.336;  -11.600; -157.000;  -19.000
215.480;  -71.125; -684.000; -505.000
215.625;  -11.425; -175.000;  -19.000
215.770;  -94.650; -757.000; -662.000
215.915;    2.550;   -5.000;  -97.000
216.060;  -12.025; -113.000;  -21.000
216.205;  -99.325; -731.000; -779.000
216.349;  -59.425; -470.000; -533.000
216.494; -128.525; -939.000; -867.000
216.639; -101.200; -823.000; -888.000
216.784;  -94.625; -577.000; -525.000
216.929;   46.500;  392.000;  281.000
217.073;   -6.050; -244.000;  -31.000
217.218;    2.450;   78.000;  -47.000
217.363;  -80.150; -656.000; -618.000
217.507;  -80.650; -623.000; -588.000
217.652; -124.900; -845.000; -874.000
217.797;  -81.325; -708.000; -659.000
217.942; -107.775; -856.000; -720.000
218.086;   74.900;  608.000;  539.000
218.231;  -15.875; -174.000;  -26.000
218.376;  -33.175; -337.000; -229.000
218.520;   -7.500;  -41.000;   96.000
218.665;  -39.525; -338.000; -204.000
218.810;  -52.225; -275.000; -233.000
218.954;   19.500;  201.000;   35.000
219.099; -111.075; -713.000; -963.000
219.243;  -70.400; -589.000; -554.000
219.388;  -26.525; -264.000; -136.000
219.532;   -5.425; -116.000; -116.000
219.677;  -74.000; -564.000; -521.000
219.822;   16.125;   33.000;   89.000
219.966;    2.500;   17.000;  -99.000
220.111;  -34.725; -328.000;  -40.000
220.255;  -86.100; -797.000; -750.000
220.400;  -15.725; -180.000; -146.000
220.544;  -64.550; -516.000; -450.000
220.689;  -55.750; -422.000; -451.000
220.833;  -13.600; -123.000;  -58.000
220.978;  -48.775; -393.000; -563.000
221.122;   33.225;  319.000;  307.000
221.267; -115.400; -906.000; -837.000
221.411;  -56.600; -478.000; -394.000
221.555;   -7.650; -104.000;  -23.000
221.700;  -41.300; -329.000; -222.000
221.844;   28.050;  255.000;  272.000
221.989;  -47.250; -328.000; -311.000
222.133;  -35.250; -289.000; -307.000
222.277;  -10.550;    5.000;   78.000
222.422;   16.375;  227.000;  113.000
222.566;  -38.425; -381.000; -214.000
222.711;  -53.150; -414.000; -479.000
222.855;  -73.300; -643.000; -586.000
222.999;  -73.650; -642.000; -717.000
223.144;  -15.875; -195.000; -194.000
223.288;   47.775;  423.000;  251.000
223.432;   16.075;  184.000;  230.000
223.576;    9.175;  152.000;  -21.000
223.721;   28.325;  364.000;  273.000
223.865;  -49.450; -472.000; -475.000
224.009;  227.775; 1673.000; 1631.000
224.153;  -80.275; -660.000; -671.000
224.298;  -72.375; -531.000; -489.000
224.442;  -24.200;  -74.000;  -33.000
224.586;  -10.675; -169.000; -106.000
224.730;  -94.925; -858.000; -670.000
224.875; -111.400; -739.000; -688.000
225.019;   19.300;  102.000;  188.000
225.163;   58.450;  208.000;  341.000
225.307;    8.800;   97.000;  -91.000
225.451;   54.250;  360.000;  481.000
225.595;   33.675;  264.000;  176.000
225.739;  -17.475; -170.000;  -94.000
225.884;   -5.750;   86.000;    5.000
226.028;  -98.575; -760.000; -626.000
226.172;  -46.925; -260.000; -273.000
226.316; -120.625; -941.000; -902.000
226.460;  -70.975; -645.000; -493.000
226.604;  -66.825; -406.000; -400.000
226.748;  -85.800; -836.000; -733.000
226.892;  -31.400; -227.000; -181.000
227.036;  -60.575; -537.000; -447.000
227.180;  -56.200; -551.000; -375.000
227.324;  -60.750; -561.000; -580.000
227.468; -114.825; -819.000; -717.000
227.612;    2.325;  242.000;  -28.000
227.756;  -98.850; -845.000; -698.000
227.900;   50.300;  342.000;  441.000
228.044;  -51.200; -509.000; -290.000
228.188;   58.075;  448.000;  568.000
228.332;  -81.625; -546.000; -472.000
228.476;  -31.250; -223.000; -149.000
228.620;  -40.850; -210.000; -150.000
228.764;   57.825;  431.000;  349.000
228.908;  -17.675; -155.000;   30.000
229.052;  -62.400; -615.000; -528.000
229.195;  -18.700; -172.000;   13.000
229.339;  -26.150; -235.000; -305.000
229.483;  -32.875;    5.000; -162.000
229.627;   -0.150; -156.000;  139.000
229.771;  -47.800; -218.000; -294.000
229.915;   13.075;  230.000;   79.000
230.059;  -80.225; -648.000; -663.000
230.202;  -40.250; -370.000; -317.000
230.346;  -17.400; -107.000;  107.000
230.490;  -66.400; -489.000; -521.000
230.634; -109.650; -736.000; -553.000
230.777;   72.175;  478.000;  509.000
230.921;  -55.250; -450.000; -359.000
231.065;  -40.675; -246.000; -286.000
231.209;   20.225;  261.000;  265.000
231.352;   21.125;   54.000;   40.000
231.496;   22.825;  568.000;  188.000
231.640;  -74.450; -693.000; -621.000
231.783;   61.675;  546.000;  525.000
231.927;  -45.350; -294.000; -365.000
232.071; -118.525; -962.000; -736.000
232.214; -112.400; -980.000; -764.000
232.358;  -88.425; -683.000; -599.000
232.502;   11.025;  -19.000;    7.000
232.645; -137.375;-1090.000; -927.000
232.789;  -25.700; -257.000; -218.000
232.933;  -50.500; -407.000; -224.000
233.076; -124.750;-1038.000; -897.000
233.220;  -96.075; -752.000; -777.000
233.363;  -87.450; -669.000; -477.000
233.507;   57.725;  371.000;  129.000
233.650; -104.675; -764.000; -834.000
233.794;   30.250;  438.000;  461.000
233.938;  -52.325; -530.000; -362.000
234.081;  -14.350;  -93.000;   31.000
234.225;  -72.325; -631.000; -539.000
234.368; -100.450; -773.000; -723.000
234.512;  -35.875; -385.000; -299.000
234.655;  -84.750; -582.000; -555.000
234.798;  -59.775; -493.000; -466.000
234.942; -132.050; -884.000;-1002.000
235.085;  -73.775; -651.000; -443.000
235.229;  -69.425; -405.000; -410.000
235.372;  -51.075; -247.000; -191.000
235.516;  -54.475; -397.000; -321.000
235.659;   20.300;   92.000;  121.000
235.802;  -19.475;  -38.000;  -22.000
235.946;   27.275;  335.000;  215.000
236.089;   18.975;  126.000;  250.000
236.233;   48.425;  275.000;  298.000
236.376;  -54.925; -235.000; -378.000
236.519;  -34.400; -297.000; -319.000
236.663;  -25.875; -215.000; -117.000
236.806; -137.600;-1029.000; -999.000
236.949;   47.000;  543.000;  431.000
237.092;   54.400;  412.000;  391.000
237.236;  -81.125; -589.000; -502.000
237.379;   62.275;  352.000;  428.000
237.522; -110.125; -879.000; -768.000
237.666;  -20.825; -271.000;   18.000
237.809; -116.875; -851.000; -823.000
237.952;   30.025;  469.000;  271.000
238.095;  -67.725; -447.000; -442.000
238.238;   84.525;  688.000;  700.000
238.382;   -2.500;  166.000;  103.000
238.525;  -48.275; -598.000; -511.000
238.668; -135.200;-1060.000; -985.000
238.811;  -78.975; -638.000; -643.000
238.954;  -60.250; -483.000; -334.000
239.097;   80.300;  617.000;  664.000
239.241;   31.525;  394.000;  326.000
239.384;  -25.250; -254.000; -214.000
239.527;  -69.050; -424.000; -224.000
239.670; -138.675; -994.000;-1091.000
239.813; -111.550; -696.000; -658.000
239.956;   69.025;  579.000;  473.000
240.099; -113.050; -778.000; -725.000
240.242;   48.425;  428.000;  432.000
240.385;   49.375;  466.000;  450.000
240.528;  -85.825; -706.000; -473.000
240.671;   19.575;  189.000;  134.000
240.814;  -39.400; -441.000; -158.000
240.957; -100.600; -767.000; -578.000
241.100;  -83.050; -779.000; -755.000
241.243; -147.300;-1234.000; -893.000
241.386;  -64.850; -508.000; -379.000
241.529;  -93.825; -735.000; -547.000
241.672;  -67.750; -566.000; -495.000
241.815; -118.875; -832.000; -808.000
241.958;  -28.275; -125.000; -182.000
242.101;  -76.725; -545.000; -390.000
242.244;  -38.850; -270.000; -325.000
242.387;  -34.950; -304.000; -246.000
242.530;   42.750;  470.000;  134.000
242.673;  -52.350; -381.000; -309.000
242.815; -117.200; -925.000; -899.000
242.958;  -64.250; -482.000; -381.000
243.101;    6.475;  132.000;  187.000
243.244;  -74.825; -564.000; -521.000
243.387;  -51.925; -313.000; -316.000
243.530;  -98.750; -657.000; -674.000
243.672;    6.325;   43.000;  -92.000
243.815;  -65.750; -355.000; -283.000
243.958;   -2.675;   98.000;  -26.000
244.101;   -8.525;   59.000;  -16.000
244.243;  -17.175;  -47.000;  101.000
244.386;  -96.800; -761.000; -630.000
244.529;  -17.900; -132.000; -139.000
244.672; -151.575;-1154.000; -951.000
244.814;  -99.650; -621.000; -794.000
244.957;  -60.025; -380.000; -304.000
245.100;  -74.800; -489.000; -489.000
245.242;  -63.025; -387.000; -374.000
245.385;   -6.125;  -59.000;  -39.000
245.528; -122.525; -871.000; -705.000
245.670;   90.975;  612.000;  634.000
245.813;  -92.000; -599.000; -547.000
245.956;  -22.900; -324.000; -275.000
246.098;  -70.450; -508.000; -650.000
246.241;    0.275;  194.000;   48.000
246.383;  -20.325; -119.000;  -73.000
246.526;  -67.375; -454.000; -525.000
246.669; -116.525; -889.000; -780.000
246.811;   14.900;  172.000;   -1.000
246.954;  -52.825; -512.000; -426.000
247.096;  -26.425;  -84.000;   -6.000
247.239;  -77.250; -482.000; -445.000
247.381;  -75.775; -647.000; -488.000
247.524;   89.175;  645.000;  679.000
247.666;  -11.175;   58.000;   11.000
247.809; -117.000; -887.000; -691.000
247.951;  -14.850;  -75.000;  138.000
248.094;   33.625;  432.000;  308.000
248.236; -154.725;-1262.000;-1238.000
248.378;    3.375; -356.000;  -81.000
248.521;  -30.150; -334.000; -337.000
248.663;  -33.375; -236.000; -267.000
248.806;  -19.850; -300.000; -266.000
248.948;  -79.125; -886.000; -763.000
249.090;  -51.225; -428.000; -398.000
249.233;  -53.375; -344.000; -381.000
249.375;  -59.325; -474.000; -451.000
249.518;  -23.375;  -83.000; -133.000
249.660;  -13.675; -103.000;    3.000
249.802; -171.650;-1303.000;-1189.000
249.945;  -80.275; -612.000; -540.000
250.087; -105.800; -834.000; -768.000
250.229;  -42.050; -362.000; -480.000
250.371;  -82.550; -494.000; -439.000
250.514;  -44.350; -310.000; -244.000
250.656;  -59.100;   69.000;  102.000
250.798; -120.225; -849.000; -800.000
250.940;  -56.475; -322.000; -322.000
251.083;  -13.075; -335.000; -111.000
251.225;   57.850;  338.000;  310.000
251.367;  -47.875; -274.000; -373.000
251.509;  -48.775; -265.000; -210.000
251.651;  -95.625; -731.000; -671.000
251.794;   88.950;  538.000;  632.000
251.936;  -87.625; -821.000; -747.000
252.078;  -80.075; -540.000; -461.000
252.220;  -63.900; -645.000; -477.000
252.362;   74.125;  344.000;  462.000
252.504;  -74.800; -677.000; -584.000
252.646; -117.700; -875.000; -722.000
252.788;   -2.950;   14.000; -128.000
252.931;  -42.625; -257.000; -253.000
253.073;  -31.650; -376.000; -317.000
253.215;  -17.175;  141.000;  122.000
253.357;  -13.050;   82.000; -153.000
253.499;  -47.375; -374.000; -234.000
253.641;  -81.700; -749.000; -594.000
253.783;  -94.300; -609.000; -527.000
253.925;  -93.675; -586.000; -591.000
254.067; -102.075; -744.000; -667.000
254.209;  -28.875; -391.000; -259.000
254.351; -125.375; -865.000; -883.000
254.493;  -60.950; -441.000; -417.000
254.635; -109.250; -936.000; -818.000
254.777;  -93.025; -752.000; -687.000
254.918;  -69.925; -512.000; -430.000
255.060;  -55.150; -551.000; -395.000
255.202;  -53.550; -473.000; -261.000
255.344;  -90.850; -658.000; -455.000
255.486;  -78.600; -471.000; -406.000
255.628; -105.825; -780.000; -781.000
255.770;  -81.150; -676.000; -536.000
255.912;  -62.125; -559.000; -468.000
256.053;  -85.775; -730.000; -508.000
256.195;  143.150; 1008.000;  903.000
256.337;  -96.025; -861.000; -595.000
256.479;   57.325;  532.000;  416.000
256.621;  -57.525; -394.000; -212.000
256.762;  -91.425; -789.000; -742.000
256.904;   48.550;  485.000;  487.000
257.046;  -41.150; -381.000; -271.000
257.188;  -51.625; -351.000; -264.000
257.329;  -76.275; -525.000; -464.000
257.471; -116.700; -939.000; -807.000
257.613;  -75.525; -584.000; -498.000
257.755; -154.175;-1073.000; -982.000
257.896;   26.450;  286.000;  392.000
258.038;  -69.075; -403.000; -352.000
258.180;  -42.350; -354.000; -279.000
258.321;  -93.475; -581.000; -457.000
258.463;   -4.375;  -71.000;  133.000
258.605;  -95.450; -562.000; -570.000
258.746; -106.925; -886.000; -772.000
258.888; -156.150;-1026.000;-1020.000
259.029;    6.675;  121.000;   -8.000
259.171;  -80.500; -614.000; -550.000
259.313;    0.000;  -49.000;  -47.000
259.454;  -60.550; -536.000; -414.000
259.596;  -67.500; -483.000; -390.000
259.737;  -71.075; -590.000; -474.000
259.879;   25.600;  217.000;  311.000
260.020;   80.925;  901.000;  636.000
260.162;  -28.125; -146.000; -253.000
260.303; -115.200; -768.000; -687.000
260.445;  -75.975; -609.000; -613.000
260.586;   22.150;  392.000;  157.000
260.728;  -32.650; -360.000; -248.000
260.869; -111.550; -350.000; -343.000
261.011;   77.000;  706.000;  537.000
261.152;  -65.450; -479.000; -319.000
261.293;  -76.875; -576.000; -595.000
261.435;  -35.675; -219.000; -184.000
261.576;  -52.650; -455.000; -325.000
261.718;   58.150;  420.000;  470.000
261.859; -134.550; -940.000; -949.000
262.000; -131.375; -951.000;-1016.000
262.142;  -20.775;  -52.000;  -60.000
262.283; -117.975; -808.000; -691.000
262.424;  -87.750; -666.000; -625.000
262.566; -146.175;-1161.000; -983.000
262.707; -118.450; -840.000; -830.000
262.848; -129.175; -769.000; -726.000
262.990;  -46.100; -362.000; -345.000
263.131;   64.875;  650.000;  681.000
263.272;   -8.150;  -61.000;  -41.000
263.413;  -86.900; -589.000; -561.000
263.555;  -69.300; -669.000; -143.000
263.696;  -77.575; -550.000; -641.000
263.837;  -66.550; -449.000; -551.000
263.978;   -6.775;   -5.000;  -77.000
264.119;  -47.250; -283.000; -264.000
264.261; -113.150; -847.000; -630.000
264.402;    4.325;   33.000;   40.000
264.543;  -77.675; -509.000; -524.000
264.684;  -13.250;   61.000;  -50.000
264.825;  -74.025; -816.000; -538.000
264.966;   -3.025;  -84.000;  -67.000
265.107; -115.875; -646.000; -670.000
265.248; -116.125; -825.000; -812.000
265.390;   -2.175;  152.000;   -9.000
265.531;  -28.725; -238.000; -107.000
265.672;  -90.150; -557.000; -630.000
265.813;   56.675;  563.000;  439.000
265.954; -148.925; -959.000; -940.000
266.095;  -26.175; -372.000; -322.000
266.236;  -97.475; -686.000; -548.000
266.377;  -47.825; -243.000; -297.000
266.518;  -71.400; -619.000; -547.000
266.659;   27.275;  170.000;  268.000
266.800;    4.975;   83.000;   85.000
266.941;  -74.600; -487.000; -478.000
267.082;   20.475;  354.000;   99.000
267.223;  -56.425; -344.000; -273.000
267.364; -112.950; -892.000; -686.000
267.504;   -6.150;    3.000;  135.000
267.645;  -13.375;  160.000;   67.000
267.786;  -43.050; -147.000;  -86.000
267.927;  -63.000; -473.000; -379.000
268.068;  -22.700; -186.000;  -61.000
268.209;  -43.025; -175.000; -413.000
268.350;  -53.100; -388.000; -532.000
268.490;  -85.000; -648.000; -521.000
268.631;   35.700;  127.000;  225.000
268.772; -119.475; -874.000; -647.000
268.913;  -56.900; -328.000; -476.000
269.054;  -26.800; -117.000;   12.000
269.194;  -50.175; -418.000; -402.000
269.335; -149.250;-1137.000;-1074.000
269.476;  -26.800;   33.000;  -35.000
269.617;  -60.175; -347.000; -392.000
269.757;  -93.300; -713.000; -646.000
269.898; -100.550; -856.000; -613.000
270.039;  -64.250; -415.000; -405.000
270.180; -129.150; -952.000; -816.000
270.320;  -34.400; -190.000; -250.000
270.461;  -35.750; -277.000; -249.000
270.602;  -33.575; -186.000; -156.000
270.742; -118.900; -868.000; -943.000
270.883;  -51.700; -442.000; -390.000
271.023;  -62.800; -358.000; -357.000
271.164;  -64.075; -607.000; -528.000
271.305;  -98.075; -666.000; -654.000
271.445;  -86.550; -722.000; -683.000
271.586;  -70.300; -462.000; -283.000
271.726;  -33.775; -397.000; -322.000
271.867;  -57.675; -594.000; -534.000
272.008;  158.150; -473.000; -285.000
272.148;  119.700;  462.000;  468.000
272.289;   13.400; -113.000; -181.000
272.429;    8.650;   19.000;  185.000
272.570;  -89.500; -633.000; -737.000
272.710;  -89.100; -825.000; -775.000
272.851;  -25.250;  113.000; -130.000
272.991; -172.650;-1173.000;-1077.000
273.131;  -49.875; -419.000; -459.000
273.272;  -88.700; -683.000; -723.000
273.412;    0.700; -143.000;  -31.000
273.553;  -64.050; -488.000; -507.000
273.693;  134.975;  913.000;  858.000
273.834;  -86.600; -894.000; -692.000
273.974;  -70.500; -664.000; -615.000
274.114; -105.625; -772.000; -560.000
274.255;   72.725;  414.000;  373.000
274.395;    0.475; -180.000; -125.000
274.535;   36.150;  199.000;  350.000
274.676;    9.675;  225.000;   94.000
274.816;   -4.900;  110.000;   34.000
274.956;  -95.625; -624.000; -690.000
275.097;  -74.450;-1014.000; -922.000
275.237; -104.525; -913.000; -803.000
275.377; -114.425; -778.000; -689.000
275.517; -148.800; -878.000; -937.000
275.658;  -58.850; -590.000; -555.000
275.798;  -63.150; -606.000; -413.000
275.938;   31.250;  215.000;  323.000
276.078; -101.300; -626.000; -395.000
276.218;    1.875;   99.000;  104.000
276.359; -141.700;-1026.000;-1024.000
276.499;  -66.850; -605.000; -446.000
276.639;  -41.475; -305.000; -151.000
276.779;  -50.125; -475.000; -357.000
276.919; -111.500; -783.000; -624.000
277.059;  -32.800; -261.000; -212.000
277.199;  -40.350; -357.000; -259.000
277.340;   31.325;  287.000;  175.000
277.480; -106.275; -840.000; -693.000
277.620;   19.025;  192.000;   16.000
277.760; -200.400;-1533.000;-1294.000
277.900;    0.275;  113.000;   33.000
278.040;   10.425;  137.000;  159.000
278.180;   37.275;  270.000;  170.000
278.320;  -13.925;   21.000;   56.000
278.460;  -62.500; -443.000; -469.000
278.600;  -88.850; -708.000; -598.000
278.740;   40.175;  448.000;  224.000
278.880;  -75.525; -768.000; -791.000
279.020;  -12.900; -194.000; -144.000
279.160;  -92.200; -672.000; -595.000
279.300; -116.275; -926.000; -873.000
279.440;  -77.150; -709.000; -622.000
279.579;  -13.300;-1014.000; -929.000
279.719;  -34.050; -410.000; -394.000
279.859;   52.125;   -4.000;   41.000
279.999;   20.650; -208.000;  101.000
280.139;  -40.975; -435.000; -387.000
280.279;  -69.075; -708.000; -745.000
280.419;  -10.425; -229.000; -147.000
280.559;  -51.925; -259.000; -180.000
280.698;  -91.675; -790.000; -639.000
280.838; -113.575; -778.000; -800.000
280.978;  -96.650; -846.000; -790.000
281.118; -116.050; -811.000; -704.000
281.257;   -4.625;   24.000;    6.000
281.397; -117.350;-1094.000; -960.000
281.537;  -90.625; -599.000; -712.000
281.677;  -19.325; -150.000; -101.000
281.816;  -94.250; -700.000; -630.000
281.956;  -32.625; -193.000; -257.000
282.096;  -65.950; -539.000; -396.000
282.235;  -97.175; -672.000; -638.000
282.375;  -14.500; -243.000;  -98.000
282.515; -111.400; -715.000; -707.000
282.654;   16.600;   29.000;  106.000
282.794;   17.225;  388.000;  244.000
282.934;  -59.675; -530.000; -491.000
283.073; -132.850;-1030.000; -857.000
283.213;  -68.875; -460.000; -467.000
283.353;  -36.500; -408.000; -349.000
283.492;  -45.275; -264.000; -296.000
283.632;  -56.700; -254.000; -168.000
283.771;  -94.600; -859.000; -730.000
283.911;  -69.400; -369.000; -260.000
284.050; -100.375; -794.000; -748.000
284.190; -162.975;-1229.000;-1096.000
284.329; -144.400;-1055.000; -964.000
284.469;  -65.450; -516.000; -591.000
284.608;  -61.325; -559.000; -598.000
284.748;  -86.050; -614.000; -570.000
284.887;   -4.400;  -87.000;  -20.000
285.027; -120.800; -844.000; -892.000
285.166;  -47.475; -192.000; -249.000
285.306;   17.825; -116.000;  -33.000
285.445;  -44.725; -229.000; -343.000
285.584; -105.700; -630.000; -494.000
285.724;  -42.225; -282.000; -322.000
285.863; -115.975; -857.000; -507.000
286.002;  -59.575; -366.000; -276.000
286.142; -116.000; -715.000; -622.000
286.281;  -69.050; -525.000; -493.000
286.420;  -67.625; -554.000; -417.000
286.560;   86.775;  653.000;  623.000
286.699; -142.025; -958.000; -912.000
286.838;  -91.850; -590.000; -591.000
286.978;  -94.825; -533.000; -537.000
287.117; -130.625;-1085.000; -950.000
287.256;  -23.725; -228.000; -211.000
287.395;  -58.300; -197.000; -378.000
287.535;  -58.325; -370.000; -298.000
287.674;  -82.000; -509.000; -484.000
287.813;   56.350;  661.000;  533.000
287.952; -122.650;-1010.000; -871.000
288.091; -148.775;-1049.000; -915.000
288.231;    1.675;   13.000;   15.000
288.370; -182.575;-1217.000;-1200.000
288.509;  -87.325; -728.000; -645.000
288.648;  -96.775; -770.000; -548.000
288.787;  -29.550; -243.000;  -87.000
288.926;  -70.350; -454.000; -475.000
289.065;  105.575;  859.000;  672.000
289.204;  -38.325; -377.000; -217.000
289.344; -100.525; -791.000; -690.000
289.483;   21.150;  416.000;  304.000
289.622;  -20.975; -291.000; -149.000
289.761;  -26.125; -309.000; -166.000
289.900; -117.675; -785.000; -626.000
290.039;  -20.550;  -12.000;  -95.000
290.178;  -43.100; -274.000; -180.000
290.317;  -78.925; -618.000; -479.000
290.456;  -55.975; -463.000; -451.000
290.595; -120.200; -961.000; -833.000
290.734; -139.875; -904.000; -891.000
290.873;  -64.850; -456.000; -420.000
291.011; -116.525; -833.000; -843.000
291.150; -103.225; -770.000; -682.000
291.289;  -23.025; -343.000; -110.000
291.428; -104.575; -599.000; -480.000
291.567;  -59.200; -370.000; -442.000
291.706;   -0.200;  109.000;  154.000
291.845;  -80.625; -597.000; -505.000
291.984; -174.475;-1234.000;-1061.000
292.122;   66.700;  602.000;  582.000
292.261;   38.175;  620.000;  463.000
292.400;    3.175; -144.000;  211.000
292.539; -115.625; -959.000; -813.000
292.678;  -30.100; -325.000; -300.000
292.816; -144.550;-1136.000; -965.000
292.955;  -92.325; -844.000; -684.000
293.094;  -23.225; -173.000; -337.000
293.233;  -47.675; -556.000; -400.000
293.371;  -52.000; -225.000;  -84.000
293.510;  -97.125; -866.000; -780.000
293.649; -128.950; -959.000; -924.000
293.787;  -70.050;-1083.000;-1012.000
293.926;  -10.125; -113.000;  -32.000
294.065;  -51.225; -379.000; -290.000
294.203;   38.200;  298.000;  406.000
294.342;   16.025;   74.000;  156.000
294.481; 6127.950;51180.000; -836.000
294.619;  -27.125; -425.000; -582.000
294.758; -152.275;-1230.000;-1137.000
294.896;   56.150; -125.000;    5.000
295.035; -120.175;-1040.000;-1006.000
295.174; -122.600;-1082.000; -954.000
295.312;  -48.700; -323.000; -203.000
295.451;  -15.150; -307.000; -428.000
295.589;  -57.775; -389.000; -518.000
295.728;   -1.075; -292.000; -165.000
295.866;   -0.775;  -36.000;  -51.000
296.005;  -70.850; -584.000; -341.000
296.143;  -69.525; -558.000; -596.000
296.282; -110.775; -957.000; -881.000
296.420;  -76.825; -657.000; -557.000
296.559;  -79.550; -892.000; -633.000
296.697;   14.725; -847.000; -665.000
296.835;   28.700;-1141.000;-1002.000
296.974;   28.950;  -23.000;   39.000
297.112;    0.525; -443.000; -504.000
297.251;  -82.650; -815.000; -755.000
297.389;   61.600; -576.000; -438.000
297.527;   29.275; -145.000;  -83.000
297.666;  -50.725; -486.000; -438.000
297.804;  -57.800; -404.000; -264.000
297.942;  -13.850; -136.000; -161.000
298.081;   -8.650; -183.000;   63.000
298.219;   48.325;  -17.000;  -19.000
298.357;   47.950; -144.000;  -71.000
298.495;   21.575; -810.000; -812.000
298.634;   61.525;  245.000;  219.000
298.772;   40.125; -220.000; -338.000
298.910;  -53.675; -309.000; -182.000
299.048;    0.125; -130.000; -153.000
299.187;  -43.100; -350.000; -250.000
299.325;   11.000;   52.000;  122.000
299.463;   36.075; -389.000; -299.000
299.601;   84.225; -327.000; -271.000
299.739; -116.650; -908.000; -883.000
299.877;  -84.575; -791.000; -703.000
300.016;  -46.200;-1095.000; -935.000
300.154;  143.350;  -19.000; -161.000
300.292;   27.300; -428.000; -348.000
300.430;   23.450; -408.000; -291.000
300.568; -111.100; -940.000; -874.000
300.706;  -39.575; -366.000; -469.000
300.844;  -87.900;-1108.000; -979.000
300.982;  103.925;  246.000;  282.000
301.120;  -97.875; -965.000; -866.000
301.258;  -66.025; -812.000; -705.000
301.396;   29.750;  104.000;  -41.000
301.534;   62.725; -218.000; -293.000
301.672;  -22.150; -664.000; -521.000
301.810;   16.475; -613.000; -545.000
301.948;   94.600;   53.000;  149.000
302.086;  566.550; -250.000;  -32.000
302.224;  837.525; -610.000; -585.000
302.362;   23.925; -558.000; -622.000
302.500;  -38.600; -923.000; -893.000
302.638;  104.925;  128.000;  245.000
302.776;   -9.800; -352.000; -408.000
302.913;   34.900;  447.000;  236.000
303.051;  -10.325;  -86.000;  -23.000
303.189;   41.750;   90.000;  118.000
303.327;  -37.975; -341.000; -256.000
303.465;  -91.250; -832.000; -588.000
303.603; -110.500; -805.000; -604.000
303.740;   95.525;  417.000;  241.000
303.878;    4.900; -800.000; -759.000
304.016;  -93.175; -915.000; -790.000
304.154; -117.750;-1123.000;-1152.000
304.291;  -39.575; -505.000; -554.000
304.429;    9.925;  102.000;   74.000
304.567; -139.600; -908.000; -893.000
304.705;  -58.325; -408.000; -515.000
304.842;   75.375; -616.000; -540.000
304.980;   54.075;  215.000;   35.000
305.118;   34.700; -367.000; -365.000
305.255;  -86.450; -945.000; -927.000
305.393;   37.775;  178.000;  239.000
305.531; -116.850;-1173.000; -956.000
305.668;  -75.950; -663.000; -582.000
305.806;   98.525; -358.000; -439.000
305.943;  104.000; -629.000; -637.000
306.081;   45.150; -378.000; -267.000
306.219; -124.550; -863.000; -748.000
306.356;    0.675;  158.000;   27.000
306.494;  100.575;  981.000;  761.000
306.631;   -7.200;  -11.000;  -55.000
306.769;   -5.300; -613.000; -485.000
306.906;  -19.600; -284.000; -258.000
307.044;  -57.525; -473.000; -488.000
307.181;  -58.625; -410.000; -332.000
307.319;   -1.125;  112.000;   87.000
307.456; -168.900;-1191.000;-1153.000
307.594; -107.300; -980.000; -727.000
307.731;  -20.200; -371.000; -164.000
307.868;   -8.600;  -15.000;   20.000
308.006; -146.775; -961.000; -847.000
308.143;  -56.625; -618.000; -330.000
308.281;  146.425;  -37.000; -254.000
308.418;  -11.000; -748.000; -640.000
308.555;  -82.350; -400.000; -250.000
308.693;  -70.700; -577.000; -573.000
308.830; -120.950; -712.000; -657.000
308.967;  -21.400; -215.000;  -95.000
309.105;  -53.200; -507.000; -396.000
309.242;   37.275; -468.000; -367.000
309.379;  309.775; -577.000; -655.000
309.517;  -71.725; -936.000; -948.000
309.654; -116.150; -910.000; -734.000
309.791;  -71.875; -662.000; -580.000
309.928; -132.475; -977.000; -914.000
310.065;  184.375;  819.000;  697.000
310.203;  -21.025; -825.000; -850.000
310.340;  -28.575; -465.000; -321.000
310.477;  -82.275; -412.000; -516.000
310.614;  -65.475; -383.000; -473.000
310.751;  -81.975; -427.000; -518.000
310.889;  -39.350;    1.000;   11.000
311.026; -153.425;-1161.000; -939.000
311.163;  -48.525; -386.000; -380.000
311.300;  -84.625; -512.000; -479.000
311.437;  -77.625; -658.000; -619.000
311.574; -161.425;-1226.000; -985.000
311.711;  -61.325; -595.000; -433.000
311.848;  -33.650; -380.000; -388.000
311.985;   -0.800;  270.000;   93.000
312.122; -114.400; -932.000; -762.000
312.259; -119.475; -941.000; -994.000
312.396;  -92.725; -508.000; -551.000
312.533;  -88.025; -812.000; -790.000
312.670; -125.775;-1070.000; -898.000
312.807;  -45.350; -352.000; -367.000
312.944;  -83.350; -513.000; -611.000
313.081;  -46.175; -150.000; -415.000
313.218; -115.050;-1111.000; -867.000
313.355;    8.850; -531.000; -449.000
313.492;    1.650; -455.000; -292.000
313.629;  123.750;  815.000;  735.000
313.766; -148.250;-1176.000;-1008.000
313.902;  -18.375; -186.000;   21.000
314.039;  -55.400; -372.000; -289.000
314.176;   21.400;  286.000;  192.000
314.313;  -70.425; -569.000; -473.000
314.450;  -96.550; -788.000; -684.000
314.587;  -64.150; -468.000; -480.000
314.723;    9.850;  -78.000;  130.000
314.860;   14.775;  318.000;  332.000
314.997;   26.725;  223.000;  142.000
315.134;  -42.075; -385.000; -368.000
315.270;  -21.575; -480.000; -496.000
315.407; -128.475;-1094.000; -967.000
315.544;  -53.225; -657.000; -538.000
315.681;  -75.100; -681.000; -565.000
315.817;   30.075; -133.000; -176.000
315.954;   11.125; -613.000; -392.000
316.091; -116.850;-1045.000;-1023.000
316.227;  -26.950;  -71.000; -179.000
316.364;   -4.550;   23.000;    6.000
316.500;  -53.175; -113.000; -300.000
316.637;  -51.650; -181.000; -302.000
316.774;  -91.000; -625.000; -358.000
316.910;  -91.625; -598.000; -629.000
317.047;  -68.950; -487.000; -351.000
317.183;  -55.700; -435.000; -566.000
317.320;  -13.350; -367.000; -321.000
317.456;  -73.100; -733.000; -805.000
317.593;  -97.400; -598.000; -641.000
317.729;    7.075;  168.000;  -67.000
317.866; -195.675;-1434.000;-1285.000
318.002;  -96.925; -708.000; -948.000
318.139; -107.575; -883.000; -867.000
318.275; -106.750;-1003.000; -738.000
318.412;  -57.550; -517.000; -336.000
318.548;  -36.750; -751.000; -720.000
318.685; -111.475; -985.000; -888.000
318.821; -103.300; -762.000; -735.000
318.957;  -23.450;   34.000;  -23.000
319.094;   26.300;  297.000;  154.000
319.230;  -71.125; -756.000; -742.000
319.367;   98.025; -471.000; -520.000
319.503;   37.825; -538.000; -436.000
319.639;  -91.800; -877.000; -793.000
319.775;  -69.700; -750.000; -685.000
319.912;  -55.550; -424.000; -519.000
320.048;  -81.350;-1184.000;-1184.000
320.184;   61.150;   59.000;   70.000
320.321;  -59.425; -497.000; -467.000
320.457;   64.600;  475.000;  662.000
320.593;  -60.700; -375.000; -382.000
320.729;  -95.225; -732.000; -734.000
320.866;  -62.525; -577.000; -635.000
321.002;  -86.325; -759.000; -809.000
321.138;   -1.200; -135.000; -211.000
321.274;   70.325; -148.000; -115.000
321.410;  -31.175; -585.000; -353.000
321.546;  -41.025;-1011.000; -911.000
321.683;   31.775;  400.000;  185.000
321.819;    7.050;  -48.000; -117.000
321.955; -117.450; -743.000; -722.000
322.091;  -50.775; -585.000; -540.000
322.227;  -21.575; -382.000; -202.000
322.363;  -13.475; -320.000; -215.000
322.499;  -47.575; -343.000; -331.000
322.635;  146.375;  636.000;  443.000
322.771;   22.675; -139.000;   12.000
322.907;   72.725;  129.000;  327.000
323.043;  -27.500; -115.000; -206.000
323.179;  -48.850; -394.000; -363.000
323.315;  -11.175; -401.000; -371.000
323.451;   64.600; -328.000; -236.000
323.587;   49.850;  -60.000;  -77.000
323.723;   12.900; -682.000; -601.000
323.859;  -19.525; -258.000;  -76.000
323.995;  -17.675; -467.000; -409.000
324.131; -137.775; -967.000; -892.000
324.267;  -55.450; -254.000; -276.000
324.402; -119.600; -960.000; -983.000
324.538;   -5.875; -279.000; -104.000
324.674;   16.400;  164.000;   77.000
324.810;  115.525;  226.000;  308.000
324.946;   -6.475; -810.000; -658.000
325.082;  -69.150; -568.000; -475.000
325.217;   -6.175;  -62.000;   16.000
325.353; -100.925; -764.000; -659.000
325.489;  -86.100; -540.000; -506.000
325.625;  -73.500; -579.000; -525.000
325.760;   50.750;  517.000;  376.000
325.896;  -12.850; -515.000; -702.000
326.032;  -58.325; -403.000; -352.000
326.168;  -66.375; -462.000; -369.000
326.303;  -65.150; -352.000; -461.000
326.439;  -23.550; -336.000; -276.000
326.575;    4.250; -190.000;  -29.000
326.710;  -28.225; -156.000;  -30.000
326.846;   -6.675;  146.000;  103.000
326.982;  -96.475; -530.000; -548.000
327.117;  -90.625; -481.000; -442.000
327.253;  -88.825; -745.000; -742.000
327.388; -165.125;-1137.000;-1153.000
327.524;  -54.800; -811.000; -578.000
327.659;  -31.050;  -58.000;  -22.000
327.795;  -16.225;   69.000;   45.000
327.931;  -96.300; -723.000; -499.000
328.066;  -35.000; -417.000; -276.000
328.202;  -11.650;   12.000; -129.000
328.337;   92.200;  957.000;  713.000
328.473;   33.500;  -12.000;  -74.000
328.608;  -28.175; -256.000; -267.000
328.743;  -91.675; -799.000; -664.000
328.879;    8.650;  214.000;  114.000
329.014;  -37.825; -102.000; -122.000
329.150;  -80.325; -358.000; -483.000
329.285;  -78.400; -465.000; -466.000
329.421;  -45.225; -548.000; -246.000
329.556;  -41.275;  -36.000;   85.000
329.691; -105.075; -633.000; -615.000
329.827;  -74.075; -626.000; -480.000
329.962;  -53.475;  131.000; -301.000
330.097;  -95.600; -673.000; -585.000
330.233;  -54.400; -410.000; -223.000
330.368; -130.950; -839.000; -628.000
330.503;  -12.575;    3.000;   98.000
330.638;    8.475;  -93.000; -125.000
330.774;  -53.800; -609.000; -530.000
330.909;  -52.150; -434.000; -244.000
331.044;  -91.050; -714.000; -708.000
331.179; -173.475;-1217.000;-1109.000
331.315;   12.900;   77.000;   20.000
331.450;   16.100;  157.000;  285.000
331.585;  -89.525; -805.000; -706.000
331.720;  -83.425; -510.000; -460.000
331.855;   -7.950;  -35.000; -102.000
331.990;  260.200;   62.000;  138.000
332.126;  125.600; -110.000;   71.000
332.261;  -16.100; -379.000; -265.000
332.396;    7.500; -135.000; -242.000
332.531;  -91.000;-1074.000;-1031.000
332.666;   45.875; -519.000; -363.000
332.801;  -98.400; -726.000; -807.000
332.936;  -25.100; -192.000; -122.000
333.071; -161.125; -870.000; -817.000
333.206;   20.775;  307.000;  379.000
333.341;   23.725;  344.000;  418.000
333.476; -100.875; -627.000; -623.000
333.611;  -55.325; -251.000; -173.000
333.746;  -49.450; -381.000; -464.000
333.881; -124.125; -973.000; -935.000
334.016; -116.025; -936.000; -917.000
334.151; -129.825; -746.000; -702.000
334.286;   15.450;  152.000;  186.000
334.421;  -17.350; -125.000; -178.000
334.556;  -89.650; -611.000; -567.000
334.690;  -97.875; -631.000; -577.000
334.825;   48.700;  381.000;   83.000
334.960;  -56.375; -285.000; -413.000
335.095;    3.025;  135.000;  -91.000
335.230; -103.900; -722.000; -738.000
335.365; -145.300;-1084.000; -990.000
335.499; -139.550;-1108.000;-1037.000
335.634;   17.825;    9.000;  534.000
335.769; -101.000; -755.000; -720.000
335.904;  -60.100; -603.000; -561.000
336.038;  -71.300; -735.000; -657.000
336.173; -131.275;-1206.000;-1194.000
336.308;  -10.075; -116.000; -189.000
336.443;   21.450; -544.000; -634.000
336.577;  -74.700; -936.000; -787.000
336.712;   44.925;   -4.000;  -12.000
336.847;  -40.750; -724.000; -607.000
336.981;   57.550; -272.000; -208.000
337.116;  258.625;  615.000;  501.000
337.250;  136.875; -434.000; -421.000
337.385;  286.625; -297.000; -208.000
337.520;   92.225; -632.000; -603.000
337.654;  -50.975; -215.000; -126.000
337.789; -131.950; -989.000; -933.000
337.923;  -52.675; -104.000; -205.000
338.058;  -84.700; -673.000; -738.000
338.192;  -52.050; -611.000; -488.000
338.327;   -9.075;  -18.000; -155.000
338.461;  -75.475; -299.000; -469.000
338.596;  -96.075; -780.000; -638.000
338.730; -109.900; -767.000; -803.000
338.865;   88.700;  -46.000; -140.000
338.999;  -52.375; -846.000; -702.000
339.134;  -19.725; -634.000; -536.000
339.268;    0.875; -741.000; -603.000
339.403;  375.450; -740.000; -775.000
339.537;  129.625; -894.000; -820.000
339.671; -122.500; -829.000; -813.000
339.806;  -50.050; -556.000; -512.000
339.940;   10.850; -261.000; -235.000
340.074; -101.250; -685.000; -510.000
340.209;  -45.575; -351.000; -230.000
340.343; -100.475; -517.000; -573.000
340.477;  149.750;  998.000; 1036.000
340.612;  -53.150;-1033.000; -900.000
340.746;  143.325; -199.000; -243.000
340.880;  -71.350; -924.000; -785.000
341.014;  -23.925;  -45.000; -154.000
341.149; -104.950; -756.000; -718.000
341.283; -122.950; -839.000; -754.000
341.417; -105.275;-1124.000; -938.000
341.551;  106.175; -768.000; -708.000
341.685;  -33.875; -633.000; -611.000
341.820;  -56.925; -562.000; -493.000
341.954;  -69.100; -218.000; -349.000
342.088; -142.725;-1102.000;-1019.000
342.222;   44.225;  565.000;  618.000
342.356;  -60.475; -395.000; -335.000
342.490; -114.500; -880.000; -841.000
342.624;  -47.375; -339.000; -242.000
342.758;  -20.750; -364.000; -312.000
342.892;  -72.425; -710.000; -585.000
343.026;  -47.800;  -58.000; -116.000
343.160;  -55.175; -426.000; -376.000
343.294;  -73.625; -474.000; -337.000
343.428;  -40.150; -488.000; -448.000
343.562;  -16.925; -172.000;  -23.000
343.696;  -26.500; -385.000; -314.000
343.830;  -30.800; -362.000; -356.000
343.964;   -1.825; -231.000; -168.000
344.098;  818.275;  199.000;   70.000
344.232;  689.250; -266.000; -127.000
344.366;   68.800; -567.000; -453.000
344.500;   43.825; -665.000; -744.000
344.634;   22.575; -324.000; -164.000
344.768;  -23.150; -531.000; -341.000
344.902;   16.975;  278.000;  256.000
345.035;  -78.300; -556.000; -496.000
345.169; -132.750; -933.000; -656.000
345.303;  -43.425; -308.000; -482.000
345.437;  -81.675; -826.000; -717.000
345.571;  -74.150; -675.000; -594.000
345.704;  -73.375; -309.000; -532.000
345.838;  -21.425; -331.000; -284.000
345.972;  -40.875; -543.000; -495.000
346.106;  176.725; -179.000; -190.000
346.239;  399.100; -312.000; -243.000
346.373;    0.150; -343.000; -302.000
346.507; -137.450; -950.000; -962.000
346.640;  116.725;  -30.000;   13.000
346.774;  -54.000; -650.000; -797.000
346.908;  -20.650; -138.000;  -11.000
347.041;  -96.625; -646.000; -593.000
347.175;   -8.450;  259.000;   27.000
347.309;  -67.275; -698.000; -628.000
347.442;  -93.150; -883.000; -732.000
347.576;  248.475;  670.000;  668.000
347.709;  193.900; -123.000;  -52.000
347.843;  -91.300; -933.000; -825.000
347.976;   25.825;  235.000;  294.000
348.110; -181.500;-1268.000;-1186.000
348.243; -105.350; -679.000; -772.000
348.377;   -6.775;  -26.000;   60.000
348.510;   46.850;  403.000;  540.000
348.644;  -49.000;  -37.000; -159.000
348.777;   -2.050;  180.000;  191.000
348.911;  -45.325; -142.000; -112.000
349.044;  152.200;  471.000;  448.000
349.178;  127.375;-1069.000;-1006.000
349.311;  107.625;  141.000;  255.000
349.444;   -5.075; -927.000; -813.000
349.578;  -22.775; -347.000; -200.000
349.711; -112.000; -959.000; -862.000
349.845;  -11.750; -661.000; -591.000
349.978; -156.650;-1224.000;-1137.000
350.111;  -91.300; -546.000; -612.000
350.244;  -74.075; -596.000; -700.000
350.378;  -20.425; -392.000; -393.000
350.511;  -67.575; -393.000; -426.000
350.644;  -99.525; -808.000; -806.000
350.778;   13.300;  168.000;  104.000
350.911;    2.150;  134.000;  140.000
351.044;  -92.050; -685.000; -615.000
351.177;  -40.700; -321.000; -281.000
351.310;  -23.950;    3.000; -131.000
351.444;  -94.150; -888.000; -788.000
351.577;   92.650;  140.000;   90.000
351.710;  101.325;  593.000;  417.000
351.843;  -52.675; -165.000;  -77.000
351.976;   -2.350;  149.000;  -79.000
352.109; -102.575; -621.000; -612.000
352.242;  -31.300; -464.000; -419.000
352.376;  -70.625; -580.000; -636.000
352.509;  144.150; -437.000; -356.000
352.642;   -8.675; -654.000; -604.000
352.775;   58.875; -141.000;  -98.000
352.908; -118.975; -933.000; -904.000
353.041; -107.100; -814.000; -824.000
353.174;  -46.475; -551.000; -424.000
353.307;  -96.625; -753.000; -764.000
353.440;   51.525;  541.000;  453.000
353.573; -112.850; -957.000;-1008.000
353.706;  -64.475; -384.000; -558.000
353.839;  -29.125; -264.000; -220.000
353.971;  -95.975; -657.000; -512.000
354.104;  -99.400; -896.000; -835.000
354.237;  -47.150; -627.000; -662.000
354.370;  -85.550; -846.000; -879.000
354.503; -185.300;-1231.000;-1308.000
354.636;  -53.925; -529.000; -348.000
354.769; -140.325; -937.000; -860.000
354.902;  -28.150; -230.000; -139.000
355.034;  -28.350; -164.000; -220.000
355.167;  -20.375; -262.000; -162.000
355.300;  -97.325;-1061.000; -880.000
355.433; 1021.025;  -71.000;  -14.000
355.565; 1574.325; -402.000; -384.000
355.698;  403.100; -356.000; -296.000
355.831;   -6.075; -882.000; -801.000
355.964;   60.925; -285.000; -170.000
356.096;  -91.050; -856.000; -843.000
356.229;    8.000; -523.000; -530.000
356.362;  326.325; -373.000; -266.000
356.494;  621.975; -229.000; -162.000
356.627;  446.350;  269.000;  377.000
356.760;  676.750;  120.000;   53.000
356.892; 1014.425; -286.000; -601.000
357.025;  582.225;  403.000;  389.000
357.157;  521.825; -167.000; -179.000
357.290;  723.975; -856.000; -713.000
357.423;  211.950; -667.000; -556.000
357.555;  108.525; -217.000; -228.000
357.688;  115.525; -483.000; -364.000
357.820;  433.600; -870.000; -877.000
357.953; 3489.475; -563.000; -589.000
358.085;  741.300; -632.000; -612.000
358.218;  932.625;-1131.000; -932.000
358.350;  168.175;  -58.000;  312.000
358.483; -126.450;-1300.000;-1187.000
358.615;  -30.625;-1182.000;-1078.000
358.747;  -70.700;-1187.000;-1058.000
358.880;    2.450; -810.000; -744.000
359.012;   -7.250; -376.000; -202.000
359.145;  -51.375; -480.000; -511.000
359.277;   46.150; -962.000; -913.000
359.409; 2835.725;  536.000;  231.000
359.542;  738.450; -738.000; -688.000
359.674;   63.575;   46.000;   13.000
359.806;  -60.450; -565.000; -438.000
359.939;  -46.525; -617.000; -516.000
360.071;  -16.575; -583.000; -579.000
360.203;  -23.650; -411.000; -364.000
360.335;   42.575;  164.000;  -16.000
360.468;  174.400; -249.000; -307.000
360.600; 2370.650; -547.000; -454.000
360.732; 3041.850; -546.000; -423.000
360.864;  429.700;-1216.000;-1044.000
360.996;  237.325; -516.000; -554.000
361.129;   22.575; -389.000; -598.000
361.261;   21.600;  110.000; -113.000
361.393;  -50.150; -252.000; -214.000
361.525;   31.500;   94.000;  244.000
361.657;  -38.025; -821.000; -703.000
361.789;    5.050; -139.000; -155.000
361.921;  177.075; -642.000; -593.000
362.053;  231.025;  524.000;  541.000
362.185;   28.000;  288.000;   72.000
362.318;  -86.475; -709.000; -705.000
362.450;  109.175;  294.000;  444.000
362.582;   62.425; -913.000; -870.000
362.714;  -54.475; -353.000; -332.000
362.846;  -89.575; -606.000; -490.000
362.978; -135.800; -941.000; -811.000
363.109;   13.950; -161.000; -260.000
363.241;  379.450; -739.000; -749.000
363.373;  443.925; -649.000; -564.000
363.505;  701.900; -186.000;  -91.000
363.637;  171.675; -787.000; -601.000
363.769; -121.100;-1067.000;-1080.000
363.901;  -73.175; -596.000; -654.000
364.033; -119.775;-1103.000;-1062.000
364.165;   -7.750; -283.000; -283.000
364.296;   75.825; -316.000; -177.000
364.428;   89.675;-1344.000;-1220.000
364.560;  -78.525; -679.000; -661.000
364.692;  -76.850; -738.000; -835.000
364.824;  206.725; -588.000; -456.000
364.955;  440.450; -402.000; -564.000
365.087; 1047.500;-1097.000; -852.000
365.219;   48.750; -686.000; -816.000
365.351;  -66.400; -526.000; -572.000
365.482;   39.475;  300.000;  240.000
365.614;  -47.150; -402.000; -314.000
365.746; -102.400; -729.000; -752.000
365.877;  -97.075; -706.000; -672.000
366.009;  279.075;  -35.000;  -62.000
366.141;  -67.525;-1249.000;-1134.000
366.272; -110.725; -803.000; -719.000
366.404; -114.650;-1005.000; -874.000
366.535;  -22.675; -139.000;  -12.000
366.667;  -90.725; -644.000; -649.000
366.799;   40.225;  353.000;  203.000
366.930; -135.050; -862.000; -996.000
367.062;  117.400; -639.000; -613.000
367.193;  166.250; -872.000; -842.000
367.325;  -63.150; -580.000; -684.000
367.456;   26.375; -246.000;   31.000
367.588;  168.775; -371.000; -318.000
367.719;   23.800;  -44.000;  -45.000
367.851;  -20.725; -222.000; -241.000
367.982;  -63.400; -875.000; -732.000
368.113;   76.825; -475.000; -358.000
368.245; -130.250; -960.000; -841.000
368.376;  -37.475; -254.000; -302.000
368.508;  -39.850; -188.000; -263.000
368.639; -144.450;-1166.000;-1034.000
368.770;  -27.250; -670.000; -589.000
368.902;  -67.625; -836.000; -926.000
369.033; -117.775; -906.000; -855.000
369.164;  -54.900; -720.000; -653.000
369.296; -100.275; -452.000; -601.000
369.427;  -15.700; -209.000; -144.000
369.558;  -59.700; -593.000; -377.000
369.689;  -87.375; -721.000; -569.000
369.821; -141.325; -951.000; -845.000
369.952;  -17.075;   42.000; -108.000
370.083;  -61.325; -229.000; -108.000
370.214;  -90.100; -735.000; -650.000
370.345;    6.125;   65.000;   81.000
370.477;  -93.225; -810.000; -790.000
370.608;  179.700; -328.000; -264.000
370.739;  -52.450;-1233.000;-1292.000
370.870;  -65.775;-1102.000; -923.000
371.001;   72.175; -378.000; -467.000
371.132;  -82.575; -754.000; -735.000
371.263;  -18.025;  -42.000; -148.000
371.394; -122.975; -841.000; -748.000
371.525;   19.350;  345.000;  225.000
371.657;  -83.825; -808.000; -670.000
371.788;   64.775;  103.000;  199.000
371.919;  134.825; -384.000; -304.000
372.050; 3308.300;  -91.000; -156.000
372.181; 1028.100; -188.000; -294.000
372.311;  317.675;   42.000; -127.000
372.442;   22.450; -457.000; -451.000
372.573;  -23.750; -444.000; -340.000
372.704; -137.825;-1008.000; -980.000
372.835;   58.875; -228.000; -289.000
372.966;  -65.400; -646.000; -554.000
373.097;  -62.625; -575.000; -711.000
373.228;  -51.700; -717.000; -542.000
373.359;   87.250; -824.000; -536.000
373.490;  825.100; -881.000; -727.000
373.620; 1049.175;-1001.000; -803.000
373.751; 1574.650; -332.000; -396.000
373.882;  745.375; -663.000; -733.000
374.013;   51.025; -449.000; -262.000
374.143;  -44.650; -581.000; -659.000
374.274; -109.600; -987.000; -908.000
374.405;  154.575; -388.000; -276.000
374.536;  383.300; -526.000; -387.000
374.666;  983.300; -759.000; -807.000
374.797;  191.575; -817.000; -868.000
374.928;  742.175; -710.000; -560.000
375.058;  772.775; -535.000; -500.000
375.189;   71.450;  -59.000;  -93.000
375.320; -115.050; -928.000;-1034.000
375.450;  -45.450; -625.000; -616.000
375.581;  -56.700; -526.000; -436.000
375.712;  -49.175; -574.000; -250.000
375.842;  249.250; -438.000; -415.000
375.973;  185.850; -554.000; -513.000
376.103;  -50.575; -665.000; -648.000
376.234;  -78.250; -531.000; -552.000
376.364;  -58.925; -944.000; -867.000
376.495;  301.775;  925.000;  529.000
376.625;  -25.200; -472.000; -485.000
376.756;   31.525; -709.000; -678.000
376.886;  -83.950;-1178.000;-1026.000
377.017;   49.800;-1048.000;-1061.000
377.147;  381.175; -786.000; -782.000
377.278;   70.350;  174.000;  228.000
377.408; -131.350; -801.000; -815.000
377.538;  -95.200; -707.000; -693.000
377.669;  -84.550; -537.000; -613.000
377.799;  -99.125; -645.000; -635.000
377.929;  -65.175; -610.000; -428.000
378.060; -131.025; -781.000; -847.000
378.190;  -69.275; -726.000; -531.000
378.320;  -57.625; -401.000; -406.000
378.451;  -16.500; -131.000;  -22.000
378.581;  -11.025;  -67.000; -110.000
378.711;  138.800; 1035.000;  866.000
378.841;  -34.000; -533.000; -675.000
378.972;  -88.500; -871.000; -751.000
379.102;   -6.500; -652.000; -579.000
379.232;  -36.425; -126.000;  -73.000
379.362; -118.300;-1001.000; -885.000
379.492;  -16.300; -373.000; -424.000
379.623;   99.800;    0.000;  111.000
379.753; -105.475;-1107.000; -974.000
379.883;  173.050;   59.000;  156.000
380.013;  -14.500;-1081.000;-1017.000
380.143; -114.800;-1097.000;-1056.000
380.273; -113.900; -985.000; -861.000
380.403;   -7.825; -344.000; -257.000
380.533;  -38.700; -651.000; -664.000
380.663;   38.675;  173.000;  128.000
380.793;  -96.625;-1027.000;-1074.000
380.923;  -32.075; -103.000;  -34.000
381.053; -110.150; -613.000; -623.000
381.183;  -36.000; -106.000; -248.000
381.313;   17.375; -656.000; -470.000
381.443;   19.800; -692.000; -473.000
381.573;  141.075; -402.000; -409.000
381.703;  214.400;-1249.000;-1095.000
381.833; -130.425;-1454.000;-1336.000
381.963;   97.950; -134.000;  -87.000
382.093; 1279.525; -925.000; -909.000
382.223;  399.000; -713.000; -602.000
382.353;  -24.500; -801.000; -608.000
382.482;  314.475;-1091.000; -964.000
382.612;  688.775; -872.000; -644.000
382.742;  396.200; -695.000; -622.000
382.872;  214.950; -565.000; -551.000
383.002;   56.175;  347.000; -132.000
383.131;  -31.550; -226.000; -160.000
383.261;  -46.475; -706.000; -768.000
383.391;  264.100; -552.000; -377.000
383.521; 3387.725;  451.000;  263.000
383.650;  876.900; -947.000; -904.000
383.780;   -5.025; -783.000; -656.000
383.910;  103.975;  880.000;  802.000
384.039;    5.225; -794.000; -656.000
384.169;  153.950;-1205.000;-1017.000
384.299;  -42.400; -650.000; -662.000
384.428; -109.775; -764.000; -680.000
384.558;  -43.875; -308.000; -275.000
384.687;  -49.175; -414.000; -334.000
384.817;   -4.925;   75.000;   -2.000
384.947;    7.675; -234.000; -141.000
385.076;  247.525;  982.000;  912.000
385.206;   83.650;  369.000;  480.000
385.335;  -50.350; -549.000; -417.000
385.465;  -85.425; -655.000; -663.000
385.594;  124.300;  -53.000;  -44.000
385.724;  347.175; -868.000; -838.000
385.853;   83.100; -296.000; -270.000
385.982; 1187.200; -743.000; -787.000
386.112; 1957.825;-1052.000; -871.000
386.241;  128.425; -307.000; -312.000
386.371;   22.775; -174.000;  -87.000
386.500;  -21.475; -825.000; -789.000
386.629;   24.875; -874.000; -817.000
386.759;   57.750;  -43.000;   68.000
386.888;  -22.975; -170.000; -250.000
387.017;  -81.325; -648.000; -620.000
387.147; -107.025; -771.000; -798.000
387.276;   -8.050; -410.000; -397.000
387.405;   -7.075; -398.000; -342.000
387.535;  -48.325; -452.000; -361.000
387.664;  -71.500; -692.000; -620.000
387.793;   33.250; -198.000; -113.000
387.922;  440.500;  255.000;  200.000
388.052;   10.675; -576.000; -423.000
388.181;   -9.025; -342.000; -472.000
388.310;  -29.150; -889.000; -710.000
388.439;  -64.800; -749.000; -742.000
388.568;  138.325;  365.000;  244.000
388.697;  923.225; -756.000; -653.000
388.826;  177.100; -768.000; -666.000
388.956;   28.450; -285.000; -307.000
389.085;  -31.625; -347.000; -287.000
389.214; -106.125; -842.000; -872.000
389.343;  -70.600; -645.000; -413.000
389.472;  412.950;  126.000;  149.000
389.601;  508.125;   91.000;    0.000
389.730;    8.650; -568.000; -687.000
389.859;   47.450;  226.000;   46.000
389.988;  137.325; -423.000; -408.000
390.117;  128.275; -168.000; -146.000
390.246;  -21.400; -331.000; -320.000
390.375;   73.450; -673.000; -626.000
390.504;  -79.400; -703.000; -621.000
390.633;  -98.125; -672.000; -726.000
390.761;  -83.325; -732.000; -645.000
390.890;   13.025;   -4.000; -130.000
391.019;  -48.075; -421.000; -441.000
391.148; -119.200; -826.000; -855.000
391.277;  -71.575; -576.000; -493.000
391.406;  -99.800; -821.000; -805.000
391.534;    7.325;  574.000; -301.000
391.663;  -79.750; -583.000; -645.000
391.792; -100.975; -673.000; -701.000
391.921;   73.950;   -3.000;   15.000
392.050;  150.775; -287.000; -228.000
392.178;  -50.800;-1206.000;-1061.000
392.307;  107.325; -758.000; -712.000
392.436;   50.600; -427.000; -641.000
392.564;   14.050;  166.000;   -6.000
392.693;  -97.400; -860.000; -682.000
392.822;  158.550; -529.000; -534.000
392.950;   48.325; -880.000; -714.000
393.079;  280.900; -188.000; -328.000
393.208;   14.625; -488.000; -511.000
393.336;  -26.725; -170.000; -145.000
393.465;  -59.375; -317.000; -199.000
393.593;   -2.175;   62.000;   79.000
393.722; -140.875;-1121.000; -916.000
393.850;  -38.750; -188.000;  -61.000
393.979; -153.875; -926.000; -805.000
394.107;  -69.000; -517.000; -537.000
394.236;  -47.825; -570.000; -507.000
394.364;  202.525;  383.000;  206.000
394.493;  328.925; -911.000; -767.000
394.621;   -5.125; -955.000; -916.000
394.750;  744.075; -873.000; -923.000
394.878; 3054.425; -247.000; -149.000
395.007; 4300.825; -721.000; -807.000
395.135;  345.675; -790.000; -721.000
395.263;  -98.675;-1038.000;-1040.000
395.392;  -17.250;  -25.000; -107.000
395.520; -140.875; -818.000; -679.000
395.648;  -97.950; -865.000; -915.000
395.777;  -19.675; -366.000; -405.000
395.905;  -44.050; -449.000; -564.000
396.033;    3.825;  217.000;  172.000
396.162;  525.450; -399.000; -453.000
396.290;  480.775;  -17.000;   -2.000
396.418;   76.250; -555.000; -514.000
396.546;  -74.450; -571.000; -466.000
396.674; -100.175; -850.000; -878.000
396.803;   -9.400;  -72.000;  -23.000
396.931;   62.075; -179.000; -199.000
397.059;   21.625;-1026.000; -989.000
397.187; -113.650;-1026.000; -975.000
397.315; -139.825; -884.000; -649.000
397.443;  -97.050; -592.000; -443.000
397.572;  -95.800; -578.000; -424.000
397.700;  -40.250; -607.000; -614.000
397.828;   -7.350;  120.000;  -90.000
397.956;  -48.350; -508.000; -478.000
398.084;  -67.200; -767.000; -626.000
398.212;   29.275;  137.000;  124.000
398.340;   -3.200;  -56.000;  159.000
398.468;   14.225; -390.000; -169.000
398.596; -140.575; -993.000; -953.000
398.724; -118.425; -762.000; -767.000
398.852; -159.475;-1024.000; -976.000
398.980;  -79.125; -560.000; -560.000
399.108;  -65.075; -982.000; -735.000
399.236;   22.225;   13.000;    8.000
399.363;   10.000;  222.000;  196.000
399.491;  -87.200; -404.000; -398.000
399.619; -125.550; -829.000; -800.000
399.747; -115.825; -859.000; -771.000
399.875;   71.750;  220.000;  234.000
400.003;  -65.100; -359.000; -284.000
400.130; -101.100; -421.000; -341.000
400.258;  -35.725;  -83.000;   38.000
400.386;  -66.200; -352.000; -168.000
400.514;  -53.425; -526.000; -587.000
400.641;  -95.300; -928.000; -802.000
400.769; -144.200; -979.000; -888.000
400.897; -110.350; -838.000; -793.000
401.025;  -37.425; -166.000; -152.000
401.152;  -23.650;  220.000;   38.000
401.280;  -82.425; -430.000; -429.000
401.408; -117.250; -712.000; -576.000
401.535; -101.975; -735.000; -758.000
401.663; -185.400;-1134.000;-1054.000
401.790;  -78.150; -514.000; -525.000
401.918;   34.650;  436.000;  405.000
402.046;  -34.800;  134.000;  122.000
402.173;  -44.075;  -18.000;    7.000
402.301;  -74.525; -519.000; -397.000
402.428;   30.625;  528.000;  383.000
402.556; -137.725;-1188.000; -913.000
402.683;  -37.600;  -20.000;   -1.000
402.811;  -26.250;  -37.000; -206.000
402.938;  -20.025;   20.000;   27.000
403.066;  155.425; -574.000; -558.000
403.193;  299.450;  299.000;  239.000
403.321;  228.275; -396.000; -574.000
403.448;  288.925;   83.000;   27.000
403.575;  130.200;  -90.000;  -46.000
403.703; -100.375; -732.000; -557.000
403.830;  -60.425; -531.000; -496.000
403.957; -140.650;-1117.000;-1023.000
404.085;    7.425;  -61.000; -172.000
404.212;   80.775;  -50.000;   63.000
404.339;  268.525; -566.000; -306.000
404.467; 6100.225; -612.000; -524.000
404.594; 4024.450; -287.000; -227.000
404.721;  906.875; -869.000; -764.000
404.848;   71.500; -113.000; -202.000
404.976; -101.975; -856.000; -783.000
405.103;  -14.425;  -14.000;  -82.000
405.230;  -15.075;  190.000;  226.000
405.357;   13.900;  117.000;   44.000
405.484;  261.025;  -49.000;    5.000
405.612;   64.675; -548.000; -563.000
405.739;  -66.750; -488.000; -243.000
405.866;   72.125;  669.000;  385.000
405.993;  -55.000; -398.000; -102.000
406.120; -144.250; -801.000; -887.000
406.247;  -68.450; -323.000; -342.000
406.374;  379.050;  540.000;  629.000
406.501;   67.600; -632.000; -702.000
406.628;  -76.550; -621.000; -589.000
406.755; -108.800; -803.000; -620.000
406.882;  -40.000; -228.000; -277.000
407.009; -107.200; -719.000; -628.000
407.136;   17.025; -480.000; -401.000
407.263;  104.550; -939.000; -829.000
407.390;  -94.475; -692.000; -614.000
407.517; -174.300;-1139.000;-1187.000
407.644;  -51.675; -332.000; -256.000
407.771;  -85.625; -249.000; -287.000
407.898;   12.400;  168.000;  328.000
408.025;  -82.375; -421.000; -313.000
408.151;  -17.475;   82.000;  153.000
408.278;  -79.900; -267.000; -216.000
408.405; -114.550; -931.000; -899.000
408.532;  -81.200; -549.000; -542.000
408.659; -117.900; -677.000; -648.000
408.785; -208.675;-1298.000;-1170.000
408.912;  -73.750; -412.000; -296.000
409.039; -101.525; -610.000; -686.000
409.166; -106.350; -591.000; -555.000
409.292; -115.000; -571.000; -534.000
409.419; -122.200; -665.000; -649.000
409.546;  -93.900; -431.000; -192.000
409.672; -122.400; -713.000; -545.000
409.799;  -17.800;  -36.000;   34.000
409.926;  -46.575; -180.000; -179.000
410.052; -183.700;-1127.000;-1091.000
410.179;  -59.825; -368.000; -392.000
410.305; -103.425; -375.000; -493.000
410.432;  -48.825; -220.000; -333.000
410.558;  -90.300; -305.000; -380.000
410.685; -123.450; -688.000; -431.000
410.812; -100.000; -409.000; -588.000
410.938; -140.500; -964.000; -808.000
411.065; -103.200; -671.000; -645.000
411.191;  -21.825; -189.000; -174.000
411.317; -127.975; -823.000; -742.000
411.444;  -70.350; -317.000; -246.000
411.570;  -78.575; -339.000; -294.000
411.697; -126.350; -758.000; -752.000
411.823; -176.225; -989.000; -999.000
411.949;  -50.525;  -56.000;   17.000
412.076; -116.650; -539.000; -519.000
412.202; -125.975; -758.000; -757.000
412.329; -129.050; -798.000; -752.000
412.455; -113.350; -821.000; -657.000
412.581;  -18.500;  -15.000;  172.000
412.707;  -68.775; -540.000; -457.000
412.834;   -1.800;  156.000;  219.000
412.960;  -87.775; -785.000; -784.000
413.086; -115.200; -743.000; -701.000
413.212;  130.025;  604.000;  578.000
413.339;  -79.375; -685.000; -701.000
413.465;   -7.775; -364.000; -310.000
413.591; -101.125; -757.000; -474.000
413.717;  -72.400; -358.000; -366.000
413.843; -148.250; -839.000; -861.000
413.969;  -61.625;  -47.000; -292.000
414.096; -106.625; -679.000; -679.000
414.222;  -15.750;  -33.000;   85.000
414.348;  -38.850; -652.000; -385.000
414.474;   75.725;   38.000;  -52.000
414.600;  -19.725; -126.000; -144.000
414.726;  -19.300;  -96.000;  -55.000
414.852;  -62.550; -365.000; -342.000
414.978;   30.400;  104.000;  -18.000
415.104;   44.575;   38.000;   80.000
415.230;   18.200; -329.000; -330.000
415.356;   28.875; -409.000; -514.000
415.482;  193.275;   13.000;  -35.000
415.608;  272.850; -247.000; -323.000
415.734;  970.975;   67.000;   38.000
415.860;20288.975; -875.000; -767.000
415.986;15754.975; -685.000; -607.000
416.111; 1365.200; -798.000; -652.000
416.237;  294.825; -424.000; -571.000
416.363; 1150.300; -765.000; -733.000
416.489; 4524.175; -324.000; -251.000
416.615;  512.175; -707.000; -742.000
416.741;   -6.300; -677.000; -784.000
416.866; -101.275; -673.000; -736.000
416.992; -114.750; -801.000; -818.000
417.118;  -34.475;  -41.000;  -80.000
417.244;  -65.600; -798.000; -531.000
417.369;  -81.425; -801.000; -612.000
417.495;   -9.950; -325.000; -254.000
417.621;  -97.675;-1015.000; -803.000
417.746;  -17.075; -579.000; -572.000
417.872;   36.425; -254.000; -144.000
417.998;   60.700; -515.000; -530.000
418.123; 1065.175;-1073.000; -845.000
418.249; 5775.700; -512.000; -601.000
418.374;  837.150; -916.000; -824.000
418.500;  125.000; -383.000; -482.000
418.626;  110.450;   70.000;  -59.000
418.751;  129.575; -549.000; -448.000
418.877;  207.775; -637.000; -643.000
419.002; 1829.500; -688.000; -560.000
419.128;13271.625; -930.000; -721.000
419.253; 3477.075; -967.000; -837.000
419.379;  455.200; -391.000; -338.000
419.504;  413.950;  325.000;  415.000
419.629;  554.450; -393.000; -212.000
419.755; 3626.575; -317.000; -254.000
419.880;22789.325;  -98.000;   67.000
420.006;12120.825; -280.000; -221.000
420.131;31349.425; -662.000; -775.000
420.256; 4793.475; -315.000; -316.000
420.382;  638.825; -665.000; -687.000
420.507;   85.450; -649.000; -778.000
420.632;  112.175; -337.000; -339.000
420.758;  200.025; -251.000; -425.000
420.883;  -97.900; -876.000; -672.000
421.008;  -86.925; -775.000; -619.000
421.133;  -96.000; -509.000; -467.000
421.259;  -56.825; -325.000; -259.000
421.384; -125.450; -834.000; -693.000
421.509;  -60.425;-1052.000; -862.000
421.634;  916.475; -936.000; -820.000
421.759;  448.250; -359.000; -327.000
421.885;  -75.750; -717.000; -656.000
422.010;  -71.950; -673.000; -542.000
422.135; -144.500; -695.000; -727.000
422.260;   25.575;  340.000;  280.000
422.385;  -41.425;   12.000;  -98.000
422.510;   -7.725;  151.000;  -26.000
422.635;   22.675;  -87.000;  -43.000
422.760;  100.525; -766.000; -791.000
422.885;   45.100;  -57.000;  -80.000
423.010;  -44.850; -112.000; -169.000
423.135; -102.900; -481.000; -561.000
423.260;  -17.225; -150.000; -245.000
423.385;   65.300;  476.000;  222.000
423.510;   20.550;   71.000;  -22.000
423.635;   62.050;  133.000;   45.000
423.760;   41.550;  383.000;  328.000
423.885;   41.575;  336.000;  391.000
424.010;   10.125;  -68.000;  -13.000
424.135;  -24.725;    5.000;  -33.000
424.259;  -85.275; -654.000; -457.000
424.384;  -74.200; -279.000; -272.000
424.509;  -23.200; -260.000; -186.000
424.634; -106.975; -761.000; -623.000
424.759;  -18.825; -688.000; -544.000
424.883;   -7.450; -506.000; -527.000
425.008;  151.575; -502.000; -410.000
425.133; 2057.725; -679.000; -653.000
425.258; 1041.175; -517.000; -381.000
425.382;  906.050; -867.000; -774.000
425.507; 2435.600; -487.000; -543.000
425.632;  437.075; -802.000; -663.000
425.756;  487.675; -256.000; -146.000
425.881; 6770.075; -831.000; -857.000
426.006;19733.125; -604.000; -355.000
426.130; 3217.600; -696.000; -508.000
426.255;  421.100; -611.000; -491.000
426.379;  170.925; -189.000; -577.000
426.504;  378.100;  660.000;  544.000
426.629; 4101.275; -519.000; -466.000
426.753; 3053.775;   64.000;  -46.000
426.878;  355.775; -252.000; -288.000
427.002;  188.250; -651.000; -668.000
427.127; 1587.475;  -35.000; -158.000
427.251;12034.675;  372.000;  401.000
427.375; 3657.800; -191.000; -173.000
427.500; 2143.425; -616.000; -610.000
427.624;  764.800; -234.000; -400.000
427.749;   74.800; -216.000; -225.000
427.873;  -55.800; -499.000; -412.000
427.997;  -51.425; -222.000; -230.000
428.122;   70.125;  795.000;  703.000
428.246;   54.975;  433.000;  434.000
428.371; -134.250; -869.000; -773.000
428.495; -110.275; -624.000; -646.000
428.619;  -42.925; -186.000; -117.000
428.743;   -3.000;   65.000;  132.000
428.868;   -2.875; -732.000; -643.000
428.992; 1243.225; -219.000; -326.000
429.116;  520.400; -329.000; -357.000
429.240;  236.400;  419.000;  426.000
429.365;  -42.075; -454.000; -574.000
429.489;  -54.550; -638.000; -647.000
429.613;   19.575; -236.000; -177.000
429.737;   32.525; -563.000; -432.000
429.861;  280.100; -247.000; -133.000
429.985; 5710.250; -425.000; -305.000
430.109; 6713.900; -770.000; -908.000
430.234;  788.550;   76.000;  -50.000
430.358;   63.775; -250.000; -160.000
430.482;  -66.300; -672.000; -564.000
430.606;  -81.375; -655.000; -375.000
430.730;  -18.875; -437.000; -388.000
430.854;  102.125; -909.000; -835.000
430.978; -106.075; -795.000; -764.000
431.102;  -84.975; -499.000; -422.000
431.226; -122.250; -874.000; -815.000
431.350;    9.150;  345.000;  422.000
431.474;  -75.800; -661.000; -373.000
431.597; -154.850;-1060.000; -848.000
431.721;  -83.450; -276.000; -267.000
431.845; -140.350; -704.000; -472.000
431.969;  -78.925; -304.000; -349.000
432.093;  -90.350; -395.000; -317.000
432.217;  -27.500;   32.000;   82.000
432.341; -106.975; -523.000; -518.000
432.464;    4.500;   96.000;   40.000
432.588;  157.350; -401.000; -329.000
432.712;   77.625;  -52.000;  -52.000
432.836;   37.575;  213.000;  263.000
432.959;  -13.200; -372.000; -311.000
433.083;   86.325;   11.000;    2.000
433.207;  376.950;  285.000;  930.000
433.330; 5205.875; -391.000; -200.000
433.454; 6809.950; -654.000; -638.000
433.578; 3859.175;  583.000;  278.000
433.701;  760.100; -623.000; -675.000
433.825;  123.350; -292.000; -299.000
433.949;  147.925;   28.000;  -72.000
434.072;   26.775; -410.000; -323.000
434.196;  -26.775; -309.000; -117.000
434.319; 3649.400;25482.000;25124.000
434.443;  686.400; -656.000; -603.000
434.566; 2811.350;  281.000;   62.000
434.690;  523.525; -637.000; -383.000
434.813;   46.500; -251.000; -173.000
434.937;  -89.800; -569.000; -696.000
435.060;  -63.050; -423.000; -332.000
435.184;  193.950; -492.000; -217.000
435.307;  123.800;  159.000;  102.000
435.431;  -23.600;  -40.000;   24.000
435.554;  -75.325; -399.000; -240.000
435.677;  -87.300; -350.000; -258.000
435.801;  -58.900;  -25.000;   49.000
435.924;  -19.025;    1.000;  -67.000
436.048; -126.075;-1019.000; -732.000
436.171;  -74.675; -240.000;  -66.000
436.294;  -37.825; -248.000; -229.000
436.417;  104.225; -963.000; -849.000
436.541;  -76.100; -814.000; -840.000
436.664;  -51.650; -242.000; -316.000
436.787;  -44.675;   13.000;  113.000
436.910; -127.275; -792.000; -422.000
437.034;  -12.625;  142.000;  143.000
437.157;   26.325;  -11.000;    0.000
437.280;  -65.375; -392.000; -292.000
437.403;  -92.625; -982.000; -869.000
437.526;  429.400; -903.000; -865.000
437.649; 1871.250; -505.000; -332.000
437.772;  282.525; -692.000; -540.000
437.896;   93.750;  700.000;  544.000
438.019; -104.000; -758.000; -503.000
438.142;  -84.050; -596.000; -506.000
438.265;  -45.125; -639.000; -670.000
438.388;  447.850; -520.000; -410.000
438.511;   63.400; -597.000; -394.000
438.634;  -56.050; -247.000; -125.000
438.757; -139.175; -693.000; -619.000
438.880;  -43.575;  -34.000;  -57.000
439.003;  -76.100; -417.000; -437.000
439.126;  -72.350; -287.000; -167.000
439.248;  -71.975;  -98.000; -139.000
439.371;  -52.075;    9.000;  -53.000
439.494;   10.700;  510.000;  439.000
439.617;  -61.075;   65.000;  -88.000
439.740; -192.325; -968.000; -816.000
439.863; -151.300; -755.000; -595.000
439.986; -121.550; -476.000; -431.000
440.108;  -59.600; -161.000; -112.000
440.231; -171.875; -950.000; -836.000
440.354;  -40.725;  -64.000; -150.000
440.477;   -5.700; -566.000; -542.000
440.599;  -13.500; -200.000; -225.000
440.722; -120.300; -709.000; -586.000
440.845;   58.925;  751.000;  928.000
440.968; -119.425; -415.000; -311.000
441.090;  -68.850; -199.000;  -33.000
441.213; -169.850;-1021.000; -825.000
441.336;  -51.825; -159.000;   -5.000
441.458;  -77.625; -549.000; -396.000
441.581;  -89.325; -628.000; -629.000
441.703;  -69.150; -152.000;   13.000
441.826; -117.125; -557.000; -400.000
441.948;  -54.950;   56.000;   51.000
442.071;   26.575;  555.000;  424.000
442.193; -119.400; -531.000; -485.000
442.316;    8.350;  152.000;   97.000
442.438;   31.650; -233.000;  -10.000
442.561;   62.000;  272.000;  262.000
442.683;  408.675; -809.000; -522.000
442.806;  947.375;   -8.000;   74.000
442.928;   -9.825; -859.000; -604.000
443.051;  -81.625; -577.000; -373.000
443.173; -100.950; -341.000; -339.000
443.295;  -92.475; -263.000; -371.000
443.418;  -80.625; -321.000;  -29.000
443.540;  -17.325; -106.000;   -4.000
443.662; -114.475; -563.000; -465.000
443.785;   -6.000;  335.000;  199.000
443.907; -111.925; -362.000; -208.000
444.029; -130.950; -767.000; -494.000
444.152; -158.925; -644.000; -554.000
444.274;  -38.775;  -18.000;  -24.000
444.396; -107.025; -461.000; -221.000
444.518; -146.950; -691.000; -454.000
444.640;  -99.225; -268.000; -111.000
444.763;  -28.775;  388.000;  249.000
444.885; -131.325; -432.000; -392.000
445.007;  -40.850;   35.000;   86.000
445.129; -114.975; -610.000; -515.000
445.251; -101.350; -372.000; -439.000
445.373; -149.125; -537.000; -386.000
445.495;  -21.425;  242.000;  350.000
445.617;   51.375;  853.000;  753.000
445.739;  -73.650; -215.000;  -97.000
445.861;  -52.975; -245.000; -112.000
445.984;  -21.850; -267.000; -101.000
446.105;  138.750; -418.000; -251.000
446.227;  507.275; -176.000;  -19.000
446.349;   -4.850; -358.000; -249.000
446.471; -104.575; -615.000; -448.000
446.593;  -74.750; -316.000;   19.000
446.715;  -25.975;  -67.000;   41.000
446.837;   55.925;  697.000;  832.000
446.959; -112.950; -457.000; -478.000
447.081; -144.425; -628.000; -518.000
447.203;   66.775;  862.000;  834.000
447.325; -102.900; -270.000;   42.000
447.446;  -13.300;  286.000;  530.000
447.568; -149.325; -921.000; -803.000
447.690;  -77.925; -236.000; -245.000
447.812; -150.250; -798.000; -519.000
447.933;  -27.475;  155.000;  127.000
448.055;  -78.125; -306.000; -261.000
448.177;  113.250;   31.000;   79.000
448.299;   39.325; -935.000; -727.000
448.420;    1.225;  -25.000;  159.000
448.542;  -60.450;   -3.000;   33.000
448.664;  -16.675;  109.000;  322.000
448.785;  -50.100;  265.000;   83.000
448.907;  -79.350; -614.000; -353.000
449.028;  -61.300; -771.000; -471.000
449.150;   57.425;  492.000;  589.000
449.272; -176.875;-1044.000; -913.000
449.393;   24.925;  612.000;  694.000
449.515; -138.800; -634.000; -581.000
449.636;  -77.750; -264.000; -155.000
449.758;   48.750;  763.000;  622.000
449.879;  -85.100; -498.000; -396.000
450.001;  -86.100; -149.000;  -49.000
450.122;  -34.825;  -95.000;  162.000
450.244;  -23.650;   37.000;  364.000
450.365; -105.275; -495.000; -301.000
450.486;  -32.550;   80.000;  268.000
450.608;   13.700;  393.000;  326.000
450.729;   61.500;  578.000;  645.000
450.850;   27.850; -574.000; -466.000
450.972;  771.100; -552.000; -389.000
451.093; 5228.050;  190.000;  588.000
451.214; 2461.250; -516.000; -337.000
451.336;  429.000;  773.000;  579.000
451.457;   59.825;  264.000;  393.000
451.578;  -41.600; -118.000;  -74.000
451.699; -116.775; -546.000; -540.000
451.821;  -67.425; -284.000;  -50.000
451.942;  -16.375;  278.000;  285.000
452.063;   26.925;  228.000;  419.000
452.184;  567.325;  -54.000;  -49.000
452.305; 1182.975;  103.000;  170.000
452.427;  163.125; -549.000; -301.000
452.548;  -21.300;   23.000;   79.000
452.669;  -56.350; -257.000;  -89.000
452.790;  -43.975;    3.000;  -18.000
452.911;  -12.800;  195.000;  259.000
453.032;  -71.325; -289.000;  -60.000
453.153;  -56.575;  -29.000;   81.000
453.274;   57.800;  737.000;  868.000
453.395;  -58.375;  -51.000;  175.000
453.516;  106.550; 1317.000; 1388.000
453.637;  -91.000; -205.000; -150.000
453.758;  -62.700;   15.000;   69.000
453.879; -118.700; -462.000; -250.000
454.000;   81.000; 1086.000;  948.000
454.121; -119.425; -554.000; -326.000
454.242; -123.700; -599.000; -383.000
454.362;  -55.425;  -99.000;  114.000
454.483;  -32.300; -309.000; -229.000
454.604;   47.125;  512.000;  580.000
454.725; -135.900; -627.000; -555.000
454.846; -120.850; -474.000; -406.000
454.967;  -36.250;  230.000;  539.000
455.087;  -61.100;  179.000;  153.000
455.208;   11.875;  554.000;  856.000
455.329;  -77.275;  -22.000;   82.000
455.450;   38.900;  473.000;  633.000
455.570;  -89.600; -234.000; -211.000
455.691;  -37.075;  201.000;  407.000
455.812; -116.250; -270.000;  -92.000
455.932;  -63.600;  107.000;  -97.000
456.053;  -89.100;   36.000;   24.000
456.173; -108.675; -433.000; -355.000
456.294; -142.400; -476.000; -303.000
456.415;  -62.725;  -73.000;   70.000
456.535;  -45.950;  297.000;  273.000
456.656;  -33.600;  132.000;  240.000
456.776;  -64.425;    3.000;  298.000
456.897;  -13.400;  308.000;  513.000
457.017;  -76.225; -153.000;   -3.000
457.138; -111.225; -402.000; -249.000
457.258;  -42.225;  263.000;  224.000
457.379;  -14.325;  509.000;  521.000
457.499;  -38.450;  443.000;  432.000
457.620; -130.375; -407.000; -231.000
457.740; -102.850; -132.000;  -11.000
457.860;  -53.525;   87.000;   44.000
457.981;  -63.875;  132.000;  124.000
458.101;  -75.400;  -89.000;   40.000
458.221;  -15.925;  336.000;  402.000
458.342;  -50.900;   -4.000;  -37.000
458.462;   24.700;  617.000;  352.000
458.582;  -28.250; -302.000; -294.000
458.703;   23.475;  303.000;  154.000
458.823;  -19.825;   22.000;  163.000
458.943;   21.250;  341.000;  467.000
459.063;  -15.375; 1124.000;  192.000
459.183;  -26.225;  328.000;  313.000
459.304;   -2.650;  315.000;  517.000
459.424;  -84.400; -246.000;  -89.000
459.544;  337.450;  388.000;  764.000
459.664;  869.525;  499.000;  506.000
459.784;  327.700; 1004.000; 1175.000
459.904;   52.725;  867.000;  744.000
460.024;   58.250;  867.000;  684.000
460.144;   -6.575;  449.000;  554.000
460.264;  -29.900;  515.000;  327.000
460.385;  -99.875; -145.000; -119.000
460.505;   22.375;  905.000;  858.000
460.625;  -84.250;  -17.000;  -68.000
460.745;  -30.650;  396.000;  541.000
460.864;  -53.000;  153.000;  469.000
460.984;    1.375;  499.000;  573.000
461.104;  122.950; 1656.000; 1775.000
461.224;   12.475;  657.000;  650.000
461.344;  -29.925;  431.000;  360.000
461.464;  -54.625;  258.000;  513.000
461.584;  -25.200;  283.000;  466.000
461.704;  -39.500;   58.000;  108.000
461.824;  -64.500;  238.000;  259.000
461.943;  -52.000;  191.000;  130.000
462.063;  -71.325;    2.000;  324.000
462.183;   15.225;  639.000;  717.000
462.303;   85.575; 1678.000; 1230.000
462.422;   33.450;  781.000;  840.000
462.542;  -45.425;  271.000;  391.000
462.662;   30.875;  353.000;  380.000
462.782;  218.875;  833.000;  572.000
462.901;  503.125;  545.000;  717.000
463.021;  287.425; 1702.000; 1638.000
463.141;    1.100;  337.000;  770.000
463.260;  -26.750;  614.000;  474.000
463.380;    3.075;  902.000;  884.000
463.499;  -51.825;  342.000;  332.000
463.619;  -35.225;  581.000;  559.000
463.738;  105.000; 1644.000;  903.000
463.858;   14.575;  657.000;  811.000
463.978;  -35.050;  542.000;  396.000
464.097;   58.075;  921.000; 1114.000
464.217;   91.475; 1196.000; 1143.000
464.336;  116.975; 1068.000; 1130.000
464.455;  -31.825;  328.000;  659.000
464.575;   30.700;  597.000;  602.000
464.694;  159.875; 1204.000; 1179.000
464.814;  127.675; 1190.000; 1138.000
464.933;   62.375; 1095.000; 1027.000
465.052;   97.475; 1412.000; 1054.000
465.172;   81.900;  922.000;  799.000
465.291;  126.550; 1376.000; 1320.000
465.410;   13.775;  462.000;  735.000
465.530;   87.900; 1355.000; 1310.000
465.649;   64.950; 1209.000; 1273.000
465.768;  140.325; 1673.000; 1508.000
465.888;   38.275;  941.000; 1174.000
466.007;   84.950; 1335.000; 1440.000
466.126;  -20.375;  721.000;  641.000
466.245;   39.575; 1176.000; 1187.000
466.364;   17.625;  950.000; 1060.000
466.484;   50.850; 1024.000; 1213.000
466.603;   31.075; 1101.000; 1222.000
466.722;  120.325; 1490.000; 1769.000
466.841;   81.300; 1151.000; 1401.000
466.960;   42.725; 1069.000;  972.000
467.079;  120.150; 1971.000; 1786.000
467.198;   58.975; 1238.000; 1181.000
467.317;   68.050; 1768.000; 1162.000
467.436;   66.250; 1709.000; 1261.000
467.555;  106.175; 1796.000; 1746.000
467.674;   52.450; 1227.000; 1329.000
467.793;   33.725; 1376.000; 1374.000
467.912;   77.875; 1658.000; 1539.000
468.031;  135.250; 2038.000; 1930.000
468.150;  143.350; 1842.000; 1837.000
468.269;  179.050; 2313.000; 2090.000
468.388;  171.200; 2168.000; 2339.000
468.507;  243.175; 2884.000; 2903.000
468.626;  271.250; 2555.000; 2541.000
468.744;  127.800; 2018.000; 2174.000
468.863;  193.850; 2312.000; 2523.000
468.982;   82.025; 1503.000; 1555.000
469.101;  222.975; 2788.000; 2692.000
469.220;  149.950; 2333.000; 2176.000
469.338;  261.200; 2935.000; 3051.000
469.457;  196.150; 2719.000; 2545.000
469.576;  331.900; 3953.000; 3784.000
469.695;  229.825; 2877.000; 3066.000
469.813;  413.775; 4148.000; 4192.000
469.932;  399.325; 4255.000; 4485.000
470.051;  421.250; 4075.000; 4161.000
470.169;  888.200; 4470.000; 4338.000
470.288; 1546.350; 4700.000; 4809.000
470.406;  938.375; 5059.000; 5194.000
470.525;  658.250; 6101.000; 5787.000
470.644;  633.950; 6847.000; 6794.000
470.762;  775.225; 8397.000; 7873.000
470.881;  915.575; 8651.000; 8464.000
470.999; 1025.450; 9685.000; 9151.000
471.118; 1098.575;11174.000;10711.000

