
Integration time [ms]: 200.000
Averaging Nr. [scans]: 10
Smoothing Nr. [pixels]: 0
Data measured with spectrometer [name]: 2101012U2
Wave   ;Sample   ;Dark     ;Reference
[nm]   ;[counts] ;[counts] ;[counts] 

197.733;  106.800;  516.000;  404.000
197.879; -175.200; -610.000; -634.000
198.025;  -97.200; -475.000; -420.000
198.171; -139.500; -602.000; -612.000
198.317;  -73.800; -401.000; -316.000
198.463; -139.700; -655.000; -404.000
198.609;   60.500;  181.000; -137.000
198.755; -163.200; -644.000; -410.000
198.901; -124.300; -505.000; -424.000
199.047; -132.600; -615.000; -488.000
199.193;  -72.900; -230.000; -468.000
199.339;  -93.200; -222.000; -369.000
199.485;   99.700;  330.000;  271.000
199.631;   20.800;  227.000;  310.000
199.777; -137.600; -466.000; -398.000
199.923; -142.500; -610.000; -424.000
200.069;   25.200; -141.000;  -58.000
200.215;  118.100;  128.000;  453.000
200.361;  107.100;  243.000;  477.000
200.507; -161.400; -600.000; -373.000
200.653;  -36.700; -371.000; -194.000
200.798;  -51.000; -215.000; -125.000
200.944;    7.700; -146.000;  -41.000
201.090;   74.700;   61.000;  222.000
201.236;   25.400; -116.000; -158.000
201.382;  269.200;  874.000;  903.000
201.528;   10.200;  -58.000;  -48.000
201.674;  -94.600; -386.000; -293.000
201.819; -152.600; -540.000; -439.000
201.965; -184.100; -699.000; -447.000
202.111;  -50.800; -273.000; -226.000
202.257;  -95.600; -250.000; -238.000
202.402;    6.900;   13.000;  -36.000
202.548;  -41.600; -169.000; -116.000
202.694;  195.300;  410.000; -183.000
202.840; -158.000; -603.000; -531.000
202.985; -142.600; -681.000; -639.000
203.131; -216.500; -832.000; -666.000
203.277;  -70.800; -199.000; -262.000
203.423; -131.800; -434.000; -520.000
203.568;  -92.600; -462.000; -237.000
203.714; -116.100; -535.000; -542.000
203.860; -163.200; -682.000; -641.000
204.005;   49.400;  112.000;  167.000
204.151;  145.700;  561.000;  556.000
204.296;  -91.700; -354.000; -221.000
204.442; -129.000; -600.000; -547.000
204.588; -146.400; -592.000; -579.000
204.733;   52.700;  178.000;  168.000
204.879; -289.100;-1018.000; -822.000
205.025;   58.400;  -99.000;  126.000
205.170;   21.800;  -17.000;   94.000
205.316;  174.000;  438.000;  661.000
205.461; -174.900; -698.000; -554.000
205.607;  214.800;  609.000;  665.000
205.752; -160.300; -626.000; -551.000
205.898; -110.500; -501.000; -391.000
206.043; -145.000; -578.000; -506.000
206.189;  -78.600; -243.000; -285.000
206.334;  153.700;  554.000;  606.000
206.480;  202.600;  409.000;  239.000
206.625; -191.500; -529.000; -552.000
206.771; -109.500; -451.000; -373.000
206.916;  -84.600; -210.000; -537.000
207.062; -161.400; -545.000; -591.000
207.207; -127.300; -546.000; -443.000
207.353;  108.400;  185.000;  460.000
207.498;   22.600;  196.000;   85.000
207.643; -107.600; -501.000; -370.000
207.789; -284.800;-1069.000; -910.000
207.934; -198.800; -665.000; -713.000
208.080;  -61.800; -154.000;   66.000
208.225;    7.600;  -22.000;  -57.000
208.370; -196.200; -727.000; -619.000
208.516; -156.300; -741.000; -487.000
208.661;  -76.400; -127.000;  -69.000
208.806;  -30.200; -165.000; -171.000
208.952; -260.200;-1044.000; -731.000
209.097;  157.600;  378.000;  349.000
209.242;  -61.500; -307.000; -382.000
209.387;  118.100;  392.000;  350.000
209.533; -107.500; -321.000; -350.000
209.678;  167.800;  472.000;  543.000
209.823; -113.200; -408.000; -310.000
209.969; -203.400; -860.000; -757.000
210.114; -215.300; -907.000; -719.000
210.259; -234.900; -939.000; -889.000
210.404;    1.500; -171.000;  103.000
210.549;   54.000;  108.000;    3.000
210.695;  -25.900;   -3.000;  -95.000
210.840;   69.100;   94.000;   67.000
210.985; -118.300; -484.000; -303.000
211.130;  150.400;  268.000;  406.000
211.275;   48.900;  207.000;  199.000
211.420; -112.000; -300.000; -289.000
211.566; -149.500; -536.000; -489.000
211.711;   48.100;  218.000;  157.000
211.856; -166.500; -545.000; -519.000
212.001;   60.200;  151.000;   44.000
212.146;  -13.800;  153.000;   49.000
212.291;  -31.600; -210.000; -186.000
212.436;  -40.800; -280.000;   -6.000
212.581; -168.100; -685.000; -653.000
212.726; -164.400; -487.000; -538.000
212.871; -105.700; -552.000; -217.000
213.016; -294.600;-1172.000;-1029.000
213.161;  169.100;  406.000;  291.000
213.306; -126.000; -435.000; -577.000
213.451; -200.300; -778.000; -689.000
213.596;  -65.200; -455.000; -347.000
213.741; -114.900; -448.000; -538.000
213.886; -138.100; -498.000; -517.000
214.031;  -29.400; -294.000; -124.000
214.176;  -96.600; -408.000; -341.000
214.321;  -50.900; -296.000; -157.000
214.466;  -56.300; -163.000;  -43.000
214.611;  -17.900;  -61.000;  -10.000
214.756; -236.600; -948.000; -858.000
214.901;  -44.800; -388.000; -226.000
215.046; -259.400; -797.000; -825.000
215.191;   49.500;  128.000;   35.000
215.336;  -14.600; -157.000;  -19.000
215.480; -141.500; -684.000; -505.000
215.625;   -2.500; -175.000;  -19.000
215.770; -168.900; -757.000; -662.000
215.915;    1.900;   -5.000;  -97.000
216.060;  -19.300; -113.000;  -21.000
216.205; -217.400; -731.000; -779.000
216.349; -118.100; -470.000; -533.000
216.494; -285.200; -939.000; -867.000
216.639; -252.900; -823.000; -888.000
216.784; -175.800; -577.000; -525.000
216.929;  114.300;  392.000;  281.000
217.073;  -12.100; -244.000;  -31.000
217.218;    2.800;   78.000;  -47.000
217.363; -195.600; -656.000; -618.000
217.507; -141.400; -623.000; -588.000
217.652; -278.000; -845.000; -874.000
217.797; -184.900; -708.000; -659.000
217.942; -229.800; -856.000; -720.000
218.086;  178.300;  608.000;  539.000
218.231;  -37.400; -174.000;  -26.000
218.376;  -30.300; -337.000; -229.000
218.520;   25.100;  -41.000;   96.000
218.665;  -66.300; -338.000; -204.000
218.810;  -84.100; -275.000; -233.000
218.954;   82.700;  201.000;   35.000
219.099; -233.500; -713.000; -963.000
219.243; -129.800; -589.000; -554.000
219.388;  -38.200; -264.000; -136.000
219.532;   28.400; -116.000; -116.000
219.677; -166.400; -564.000; -521.000
219.822;   48.300;   33.000;   89.000
219.966;   15.000;   17.000;  -99.000
220.111;  -71.700; -328.000;  -40.000
220.255; -178.500; -797.000; -750.000
220.400;  -14.200; -180.000; -146.000
220.544; -158.400; -516.000; -450.000
220.689; -105.300; -422.000; -451.000
220.833;    2.500; -123.000;  -58.000
220.978;  -82.700; -393.000; -563.000
221.122;   35.900;  319.000;  307.000
221.267; -251.500; -906.000; -837.000
221.411; -121.600; -478.000; -394.000
221.555;    5.300; -104.000;  -23.000
221.700; -113.100; -329.000; -222.000
221.844;   68.100;  255.000;  272.000
221.989; -101.500; -328.000; -311.000
222.133;  -66.400; -289.000; -307.000
222.277;   -6.100;    5.000;   78.000
222.422;   40.900;  227.000;  113.000
222.566;  -41.200; -381.000; -214.000
222.711;  -96.900; -414.000; -479.000
222.855; -189.300; -643.000; -586.000
222.999; -163.900; -642.000; -717.000
223.144;  -31.100; -195.000; -194.000
223.288;  112.700;  423.000;  251.000
223.432;   43.700;  184.000;  230.000
223.576;   78.000;  152.000;  -21.000
223.721;  115.600;  364.000;  273.000
223.865;  -86.600; -472.000; -475.000
224.009;  525.200; 1673.000; 1631.000
224.153; -150.300; -660.000; -671.000
224.298; -159.100; -531.000; -489.000
224.442;   -7.200;  -74.000;  -33.000
224.586;    2.200; -169.000; -106.000
224.730; -207.000; -858.000; -670.000
224.875; -209.100; -739.000; -688.000
225.019;   48.900;  102.000;  188.000
225.163;  154.700;  208.000;  341.000
225.307;   44.300;   97.000;  -91.000
225.451;  123.700;  360.000;  481.000
225.595;   72.000;  264.000;  176.000
225.739;  -47.300; -170.000;  -94.000
225.884;   -5.000;   86.000;    5.000
226.028; -201.100; -760.000; -626.000
226.172;  -62.100; -260.000; -273.000
226.316; -239.900; -941.000; -902.000
226.460; -139.600; -645.000; -493.000
226.604; -112.900; -406.000; -400.000
226.748; -212.300; -836.000; -733.000
226.892;  -57.000; -227.000; -181.000
227.036;  -98.300; -537.000; -447.000
227.180;  -97.100; -551.000; -375.000
227.324; -107.100; -561.000; -580.000
227.468; -217.600; -819.000; -717.000
227.612;   31.800;  242.000;  -28.000
227.756; -207.800; -845.000; -698.000
227.900;  116.500;  342.000;  441.000
228.044; -142.200; -509.000; -290.000
228.188;  111.500;  448.000;  568.000
228.332; -194.800; -546.000; -472.000
228.476;  -56.600; -223.000; -149.000
228.620;  -36.500; -210.000; -150.000
228.764;  172.300;  431.000;  349.000
228.908;  -27.100; -155.000;   30.000
229.052; -134.300; -615.000; -528.000
229.195;  -18.200; -172.000;   13.000
229.339;  -37.400; -235.000; -305.000
229.483;  -48.600;    5.000; -162.000
229.627;   17.900; -156.000;  139.000
229.771; -103.700; -218.000; -294.000
229.915;   42.200;  230.000;   79.000
230.059; -178.100; -648.000; -663.000
230.202;  -88.400; -370.000; -317.000
230.346;  -26.900; -107.000;  107.000
230.490; -128.900; -489.000; -521.000
230.634; -205.000; -736.000; -553.000
230.777;  205.300;  478.000;  509.000
230.921; -111.600; -450.000; -359.000
231.065;  -62.300; -246.000; -286.000
231.209;   85.500;  261.000;  265.000
231.352;   34.500;   54.000;   40.000
231.496;   32.600;  568.000;  188.000
231.640; -172.600; -693.000; -621.000
231.783;  131.100;  546.000;  525.000
231.927;  -79.900; -294.000; -365.000
232.071; -238.800; -962.000; -736.000
232.214; -235.800; -980.000; -764.000
232.358; -220.000; -683.000; -599.000
232.502;   22.500;  -19.000;    7.000
232.645; -265.000;-1090.000; -927.000
232.789;  -39.500; -257.000; -218.000
232.933;  -69.400; -407.000; -224.000
233.076; -258.200;-1038.000; -897.000
233.220; -214.900; -752.000; -777.000
233.363; -145.500; -669.000; -477.000
233.507;  132.600;  371.000;  129.000
233.650; -189.800; -764.000; -834.000
233.794;   98.900;  438.000;  461.000
233.938; -113.200; -530.000; -362.000
234.081;   -9.800;  -93.000;   31.000
234.225; -126.300; -631.000; -539.000
234.368; -224.100; -773.000; -723.000
234.512;  -75.900; -385.000; -299.000
234.655; -181.000; -582.000; -555.000
234.798; -115.700; -493.000; -466.000
234.942; -269.700; -884.000;-1002.000
235.085; -142.700; -651.000; -443.000
235.229; -144.500; -405.000; -410.000
235.372;  -80.900; -247.000; -191.000
235.516;  -91.400; -397.000; -321.000
235.659;   33.500;   92.000;  121.000
235.802;   -8.500;  -38.000;  -22.000
235.946;   38.100;  335.000;  215.000
236.089;   84.000;  126.000;  250.000
236.233;  122.400;  275.000;  298.000
236.376;  -98.700; -235.000; -378.000
236.519;  -91.100; -297.000; -319.000
236.663;  -40.900; -215.000; -117.000
236.806; -248.300;-1029.000; -999.000
236.949;  177.300;  543.000;  431.000
237.092;  150.800;  412.000;  391.000
237.236; -206.300; -589.000; -502.000
237.379;  172.800;  352.000;  428.000
237.522; -236.400; -879.000; -768.000
237.666;  -35.900; -271.000;   18.000
237.809; -251.400; -851.000; -823.000
237.952;  102.000;  469.000;  271.000
238.095; -129.100; -447.000; -442.000
238.238;  197.900;  688.000;  700.000
238.382;    7.700;  166.000;  103.000
238.525; -141.800; -598.000; -511.000
238.668; -280.200;-1060.000; -985.000
238.811; -170.600; -638.000; -643.000
238.954;  -94.500; -483.000; -334.000
239.097;  197.300;  617.000;  664.000
239.241;   57.200;  394.000;  326.000
239.384;  -67.300; -254.000; -214.000
239.527;  -89.900; -424.000; -224.000
239.670; -293.700; -994.000;-1091.000
239.813; -224.200; -696.000; -658.000
239.956;  193.400;  579.000;  473.000
240.099; -197.300; -778.000; -725.000
240.242;  152.100;  428.000;  432.000
240.385;   89.500;  466.000;  450.000
240.528; -144.300; -706.000; -473.000
240.671;   49.900;  189.000;  134.000
240.814;  -73.200; -441.000; -158.000
240.957; -207.700; -767.000; -578.000
241.100; -170.000; -779.000; -755.000
241.243; -289.500;-1234.000; -893.000
241.386; -101.500; -508.000; -379.000
241.529; -179.000; -735.000; -547.000
241.672;  -96.300; -566.000; -495.000
241.815; -255.600; -832.000; -808.000
241.958;  -40.700; -125.000; -182.000
242.101; -155.800; -545.000; -390.000
242.244;  -48.500; -270.000; -325.000
242.387;  -73.300; -304.000; -246.000
242.530;  153.800;  470.000;  134.000
242.673;  -83.300; -381.000; -309.000
242.815; -228.900; -925.000; -899.000
242.958; -131.200; -482.000; -381.000
243.101;   57.900;  132.000;  187.000
243.244; -182.700; -564.000; -521.000
243.387;  -66.300; -313.000; -316.000
243.530; -177.200; -657.000; -674.000
243.672;   17.000;   43.000;  -92.000
243.815;  -94.500; -355.000; -283.000
243.958;  -10.100;   98.000;  -26.000
244.101;  -15.300;   59.000;  -16.000
244.243;  -13.100;  -47.000;  101.000
244.386; -231.600; -761.000; -630.000
244.529;  -39.800; -132.000; -139.000
244.672; -321.500;-1154.000; -951.000
244.814; -173.600; -621.000; -794.000
244.957; -106.400; -380.000; -304.000
245.100; -140.100; -489.000; -489.000
245.242; -125.600; -387.000; -374.000
245.385;    1.100;  -59.000;  -39.000
245.528; -250.100; -871.000; -705.000
245.670;  204.000;  612.000;  634.000
245.813; -181.700; -599.000; -547.000
245.956;  -27.200; -324.000; -275.000
246.098; -156.500; -508.000; -650.000
246.241;   11.800;  194.000;   48.000
246.383;    3.500; -119.000;  -73.000
246.526; -170.700; -454.000; -525.000
246.669; -210.000; -889.000; -780.000
246.811;   71.700;  172.000;   -1.000
246.954; -115.900; -512.000; -426.000
247.096;  -28.300;  -84.000;   -6.000
247.239; -110.200; -482.000; -445.000
247.381; -134.400; -647.000; -488.000
247.524;  168.800;  645.000;  679.000
247.666;   13.900;   58.000;   11.000
247.809; -204.900; -887.000; -691.000
247.951;  -15.400;  -75.000;  138.000
248.094;   92.500;  432.000;  308.000
248.236; -314.000;-1262.000;-1238.000
248.378;    5.700; -356.000;  -81.000
248.521;  -19.700; -334.000; -337.000
248.663;  -39.900; -236.000; -267.000
248.806;  -38.800; -300.000; -266.000
248.948; -217.700; -886.000; -763.000
249.090;  -65.100; -428.000; -398.000
249.233; -113.200; -344.000; -381.000
249.375; -119.300; -474.000; -451.000
249.518;  -31.400;  -83.000; -133.000
249.660;   31.000; -103.000;    3.000
249.802; -356.100;-1303.000;-1189.000
249.945; -120.600; -612.000; -540.000
250.087; -242.700; -834.000; -768.000
250.229;  -86.700; -362.000; -480.000
250.371; -142.400; -494.000; -439.000
250.514;  -69.300; -310.000; -244.000
250.656;  -12.400;   69.000;  102.000
250.798; -230.100; -849.000; -800.000
250.940; -120.200; -322.000; -322.000
251.083;  -46.600; -335.000; -111.000
251.225;  112.900;  338.000;  310.000
251.367;  -47.300; -274.000; -373.000
251.509;  -55.600; -265.000; -210.000
251.651; -180.000; -731.000; -671.000
251.794;  106.200;  538.000;  632.000
251.936; -188.100; -821.000; -747.000
252.078; -164.900; -540.000; -461.000
252.220; -130.800; -645.000; -477.000
252.362;  173.500;  344.000;  462.000
252.504; -146.800; -677.000; -584.000
252.646; -229.000; -875.000; -722.000
252.788;   12.000;   14.000; -128.000
252.931;  -73.700; -257.000; -253.000
253.073;  -80.200; -376.000; -317.000
253.215;   10.800;  141.000;  122.000
253.357;   -8.000;   82.000; -153.000
253.499;  -97.700; -374.000; -234.000
253.641; -158.600; -749.000; -594.000
253.783; -164.400; -609.000; -527.000
253.925; -172.900; -586.000; -591.000
254.067; -232.400; -744.000; -667.000
254.209;  -22.600; -391.000; -259.000
254.351; -286.300; -865.000; -883.000
254.493; -122.100; -441.000; -417.000
254.635; -235.700; -936.000; -818.000
254.777; -171.300; -752.000; -687.000
254.918; -139.000; -512.000; -430.000
255.060; -119.500; -551.000; -395.000
255.202;  -91.000; -473.000; -261.000
255.344; -165.600; -658.000; -455.000
255.486; -140.900; -471.000; -406.000
255.628; -208.300; -780.000; -781.000
255.770; -180.300; -676.000; -536.000
255.912; -106.900; -559.000; -468.000
256.053; -172.200; -730.000; -508.000
256.195;  344.400; 1008.000;  903.000
256.337; -220.900; -861.000; -595.000
256.479;  140.500;  532.000;  416.000
256.621;  -46.200; -394.000; -212.000
256.762; -194.800; -789.000; -742.000
256.904;  131.500;  485.000;  487.000
257.046;  -38.800; -381.000; -271.000
257.188;  -77.100; -351.000; -264.000
257.329; -149.200; -525.000; -464.000
257.471; -227.900; -939.000; -807.000
257.613; -109.900; -584.000; -498.000
257.755; -315.200;-1073.000; -982.000
257.896;  143.000;  286.000;  392.000
258.038; -150.400; -403.000; -352.000
258.180;  -63.800; -354.000; -279.000
258.321; -149.000; -581.000; -457.000
258.463;    6.000;  -71.000;  133.000
258.605; -165.700; -562.000; -570.000
258.746; -185.700; -886.000; -772.000
258.888; -332.200;-1026.000;-1020.000
259.029;   57.800;  121.000;   -8.000
259.171; -188.800; -614.000; -550.000
259.313;    5.100;  -49.000;  -47.000
259.454; -135.300; -536.000; -414.000
259.596;  -71.900; -483.000; -390.000
259.737; -143.900; -590.000; -474.000
259.879;  120.700;  217.000;  311.000
260.020;  208.500;  901.000;  636.000
260.162;  -52.000; -146.000; -253.000
260.303; -208.200; -768.000; -687.000
260.445; -167.300; -609.000; -613.000
260.586;   56.600;  392.000;  157.000
260.728;  -57.600; -360.000; -248.000
260.869; -117.500; -350.000; -343.000
261.011;  187.500;  706.000;  537.000
261.152; -129.800; -479.000; -319.000
261.293; -130.000; -576.000; -595.000
261.435;  -40.300; -219.000; -184.000
261.576;  -71.600; -455.000; -325.000
261.718;  158.000;  420.000;  470.000
261.859; -259.100; -940.000; -949.000
262.000; -266.300; -951.000;-1016.000
262.142;  -28.300;  -52.000;  -60.000
262.283; -206.400; -808.000; -691.000
262.424; -176.300; -666.000; -625.000
262.566; -316.600;-1161.000; -983.000
262.707; -247.100; -840.000; -830.000
262.848; -266.100; -769.000; -726.000
262.990;  -64.000; -362.000; -345.000
263.131;  184.100;  650.000;  681.000
263.272;   -8.900;  -61.000;  -41.000
263.413; -175.200; -589.000; -561.000
263.555; -119.200; -669.000; -143.000
263.696; -190.500; -550.000; -641.000
263.837;  -88.200; -449.000; -551.000
263.978;   19.300;   -5.000;  -77.000
264.119;  -57.900; -283.000; -264.000
264.261; -225.100; -847.000; -630.000
264.402;   33.100;   33.000;   40.000
264.543; -173.900; -509.000; -524.000
264.684;   12.200;   61.000;  -50.000
264.825; -145.500; -816.000; -538.000
264.966;  -11.600;  -84.000;  -67.000
265.107; -228.200; -646.000; -670.000
265.248; -238.100; -825.000; -812.000
265.390;   -8.000;  152.000;   -9.000
265.531;  -20.800; -238.000; -107.000
265.672; -153.600; -557.000; -630.000
265.813;  154.100;  563.000;  439.000
265.954; -288.100; -959.000; -940.000
266.095;   -6.400; -372.000; -322.000
266.236; -186.100; -686.000; -548.000
266.377;  -65.400; -243.000; -297.000
266.518;  -91.500; -619.000; -547.000
266.659;   47.900;  170.000;  268.000
266.800;   46.300;   83.000;   85.000
266.941; -127.200; -487.000; -478.000
267.082;   83.200;  354.000;   99.000
267.223;  -84.000; -344.000; -273.000
267.364; -224.600; -892.000; -686.000
267.504;   -2.000;    3.000;  135.000
267.645;   19.100;  160.000;   67.000
267.786;  -29.100; -147.000;  -86.000
267.927; -128.500; -473.000; -379.000
268.068;  -18.100; -186.000;  -61.000
268.209; -116.500; -175.000; -413.000
268.350;  -93.600; -388.000; -532.000
268.490; -160.900; -648.000; -521.000
268.631;   95.200;  127.000;  225.000
268.772; -196.200; -874.000; -647.000
268.913;  -60.300; -328.000; -476.000
269.054;  -15.400; -117.000;   12.000
269.194;  -84.200; -418.000; -402.000
269.335; -294.100;-1137.000;-1074.000
269.476;   -4.900;   33.000;  -35.000
269.617; -106.400; -347.000; -392.000
269.757; -157.400; -713.000; -646.000
269.898; -208.000; -856.000; -613.000
270.039; -107.700; -415.000; -405.000
270.180; -278.200; -952.000; -816.000
270.320;  -37.100; -190.000; -250.000
270.461;  -77.500; -277.000; -249.000
270.602;    5.800; -186.000; -156.000
270.742; -248.800; -868.000; -943.000
270.883;  -99.900; -442.000; -390.000
271.023; -146.800; -358.000; -357.000
271.164; -141.200; -607.000; -528.000
271.305; -203.300; -666.000; -654.000
271.445; -169.300; -722.000; -683.000
271.586; -126.500; -462.000; -283.000
271.726;  -84.500; -397.000; -322.000
271.867; -115.700; -594.000; -534.000
272.008;  285.800; -473.000; -285.000
272.148;  238.900;  462.000;  468.000
272.289;   25.800; -113.000; -181.000
272.429;   31.100;   19.000;  185.000
272.570; -164.700; -633.000; -737.000
272.710; -199.700; -825.000; -775.000
272.851;  -19.100;  113.000; -130.000
272.991; -332.000;-1173.000;-1077.000
273.131; -129.700; -419.000; -459.000
273.272; -209.100; -683.000; -723.000
273.412;   15.700; -143.000;  -31.000
273.553; -103.100; -488.000; -507.000
273.693;  295.200;  913.000;  858.000
273.834; -195.800; -894.000; -692.000
273.974; -133.600; -664.000; -615.000
274.114; -195.100; -772.000; -560.000
274.255;  185.400;  414.000;  373.000
274.395;   12.100; -180.000; -125.000
274.535;  100.100;  199.000;  350.000
274.676;   83.400;  225.000;   94.000
274.816;   71.400;  110.000;   34.000
274.956; -182.500; -624.000; -690.000
275.097; -175.300;-1014.000; -922.000
275.237; -213.700; -913.000; -803.000
275.377; -195.900; -778.000; -689.000
275.517; -290.000; -878.000; -937.000
275.658; -128.800; -590.000; -555.000
275.798; -130.600; -606.000; -413.000
275.938;   89.200;  215.000;  323.000
276.078; -131.000; -626.000; -395.000
276.218;   33.400;   99.000;  104.000
276.359; -234.900;-1026.000;-1024.000
276.499; -116.300; -605.000; -446.000
276.639;  -55.900; -305.000; -151.000
276.779; -100.300; -475.000; -357.000
276.919; -193.200; -783.000; -624.000
277.059;  -39.700; -261.000; -212.000
277.199;  -76.400; -357.000; -259.000
277.340;  110.200;  287.000;  175.000
277.480; -208.000; -840.000; -693.000
277.620;   67.600;  192.000;   16.000
277.760; -400.100;-1533.000;-1294.000
277.900;   54.300;  113.000;   33.000
278.040;   38.700;  137.000;  159.000
278.180;  135.100;  270.000;  170.000
278.320;   37.000;   21.000;   56.000
278.460; -134.800; -443.000; -469.000
278.600; -148.000; -708.000; -598.000
278.740;  124.300;  448.000;  224.000
278.880; -161.000; -768.000; -791.000
279.020;   26.400; -194.000; -144.000
279.160; -176.900; -672.000; -595.000
279.300; -223.400; -926.000; -873.000
279.440; -150.600; -709.000; -622.000
279.579;  -90.500;-1014.000; -929.000
279.719;  -95.800; -410.000; -394.000
279.859;  147.400;   -4.000;   41.000
279.999;   69.800; -208.000;  101.000
280.139;  -29.400; -435.000; -387.000
280.279; -156.200; -708.000; -745.000
280.419;  -10.400; -229.000; -147.000
280.559;  -54.200; -259.000; -180.000
280.698; -161.200; -790.000; -639.000
280.838; -203.800; -778.000; -800.000
280.978; -191.700; -846.000; -790.000
281.118; -236.200; -811.000; -704.000
281.257;   48.000;   24.000;    6.000
281.397; -231.800;-1094.000; -960.000
281.537; -133.900; -599.000; -712.000
281.677;   -6.000; -150.000; -101.000
281.816; -157.900; -700.000; -630.000
281.956;  -32.500; -193.000; -257.000
282.096; -119.800; -539.000; -396.000
282.235; -187.300; -672.000; -638.000
282.375;  -31.400; -243.000;  -98.000
282.515; -225.700; -715.000; -707.000
282.654;   73.200;   29.000;  106.000
282.794;   85.900;  388.000;  244.000
282.934; -119.600; -530.000; -491.000
283.073; -230.400;-1030.000; -857.000
283.213;  -98.800; -460.000; -467.000
283.353;  -68.100; -408.000; -349.000
283.492;  -52.400; -264.000; -296.000
283.632;  -72.500; -254.000; -168.000
283.771; -160.000; -859.000; -730.000
283.911;  -78.100; -369.000; -260.000
284.050; -200.300; -794.000; -748.000
284.190; -329.700;-1229.000;-1096.000
284.329; -232.400;-1055.000; -964.000
284.469; -145.800; -516.000; -591.000
284.608;  -77.500; -559.000; -598.000
284.748; -145.700; -614.000; -570.000
284.887;   44.700;  -87.000;  -20.000
285.027; -248.100; -844.000; -892.000
285.166;  -60.600; -192.000; -249.000
285.306;   25.900; -116.000;  -33.000
285.445;  -70.100; -229.000; -343.000
285.584; -156.400; -630.000; -494.000
285.724;  -85.300; -282.000; -322.000
285.863; -186.400; -857.000; -507.000
286.002;  -89.900; -366.000; -276.000
286.142; -211.500; -715.000; -622.000
286.281; -109.500; -525.000; -493.000
286.420; -135.600; -554.000; -417.000
286.560;  227.200;  653.000;  623.000
286.699; -259.800; -958.000; -912.000
286.838; -165.700; -590.000; -591.000
286.978; -185.600; -533.000; -537.000
287.117; -278.600;-1085.000; -950.000
287.256;  -58.600; -228.000; -211.000
287.395;  -93.100; -197.000; -378.000
287.535;  -82.400; -370.000; -298.000
287.674; -145.800; -509.000; -484.000
287.813;  127.400;  661.000;  533.000
287.952; -257.500;-1010.000; -871.000
288.091; -299.300;-1049.000; -915.000
288.231;   64.500;   13.000;   15.000
288.370; -337.700;-1217.000;-1200.000
288.509; -173.400; -728.000; -645.000
288.648; -174.500; -770.000; -548.000
288.787;  -32.400; -243.000;  -87.000
288.926; -103.200; -454.000; -475.000
289.065;  296.100;  859.000;  672.000
289.204;  -99.100; -377.000; -217.000
289.344; -203.500; -791.000; -690.000
289.483;   80.400;  416.000;  304.000
289.622;  -36.500; -291.000; -149.000
289.761;    2.800; -309.000; -166.000
289.900; -214.100; -785.000; -626.000
290.039;   19.100;  -12.000;  -95.000
290.178;  -53.200; -274.000; -180.000
290.317; -140.200; -618.000; -479.000
290.456; -121.900; -463.000; -451.000
290.595; -276.500; -961.000; -833.000
290.734; -261.400; -904.000; -891.000
290.873; -134.000; -456.000; -420.000
291.011; -182.100; -833.000; -843.000
291.150; -194.800; -770.000; -682.000
291.289;   -7.300; -343.000; -110.000
291.428; -169.100; -599.000; -480.000
291.567; -113.500; -370.000; -442.000
291.706;   19.100;  109.000;  154.000
291.845; -163.100; -597.000; -505.000
291.984; -350.300;-1234.000;-1061.000
292.122;  148.400;  602.000;  582.000
292.261;  123.400;  620.000;  463.000
292.400;   58.500; -144.000;  211.000
292.539; -223.800; -959.000; -813.000
292.678;  -44.000; -325.000; -300.000
292.816; -316.200;-1136.000; -965.000
292.955; -177.500; -844.000; -684.000
293.094;  -30.500; -173.000; -337.000
293.233;  -66.000; -556.000; -400.000
293.371;  -47.800; -225.000;  -84.000
293.510; -201.200; -866.000; -780.000
293.649; -252.400; -959.000; -924.000
293.787; -147.400;-1083.000;-1012.000
293.926;   -5.600; -113.000;  -32.000
294.065;  -64.200; -379.000; -290.000
294.203;   79.300;  298.000;  406.000
294.342;   75.300;   74.000;  156.000
294.481;13547.100;51180.000; -836.000
294.619;  -17.300; -425.000; -582.000
294.758; -293.300;-1230.000;-1137.000
294.896;  144.600; -125.000;    5.000
295.035; -249.700;-1040.000;-1006.000
295.174; -221.100;-1082.000; -954.000
295.312;  -83.200; -323.000; -203.000
295.451;  -13.000; -307.000; -428.000
295.589;  -95.500; -389.000; -518.000
295.728;   49.200; -292.000; -165.000
295.866;   62.600;  -36.000;  -51.000
296.005; -132.500; -584.000; -341.000
296.143; -102.800; -558.000; -596.000
296.282; -178.400; -957.000; -881.000
296.420; -147.800; -657.000; -557.000
296.559; -170.900; -892.000; -633.000
296.697;   -4.700; -847.000; -665.000
296.835;   27.200;-1141.000;-1002.000
296.974;  118.100;  -23.000;   39.000
297.112;  -30.200; -443.000; -504.000
297.251; -137.000; -815.000; -755.000
297.389;  137.300; -576.000; -438.000
297.527;   69.200; -145.000;  -83.000
297.666;  -98.400; -486.000; -438.000
297.804;  -69.500; -404.000; -264.000
297.942;   19.700; -136.000; -161.000
298.081;  -28.300; -183.000;   63.000
298.219;  122.800;  -17.000;  -19.000
298.357;   85.700; -144.000;  -71.000
298.495;   10.100; -810.000; -812.000
298.634;  180.700;  245.000;  219.000
298.772;   67.600; -220.000; -338.000
298.910;  -48.500; -309.000; -182.000
299.048;   30.600; -130.000; -153.000
299.187;  -47.500; -350.000; -250.000
299.325;   32.800;   52.000;  122.000
299.463;   81.000; -389.000; -299.000
299.601;  178.700; -327.000; -271.000
299.739; -207.400; -908.000; -883.000
299.877; -163.400; -791.000; -703.000
300.016; -142.900;-1095.000; -935.000
300.154;  308.900;  -19.000; -161.000
300.292;  112.500; -428.000; -348.000
300.430;   67.200; -408.000; -291.000
300.568; -214.900; -940.000; -874.000
300.706;  -89.000; -366.000; -469.000
300.844; -167.900;-1108.000; -979.000
300.982;  221.900;  246.000;  282.000
301.120; -211.800; -965.000; -866.000
301.258; -140.700; -812.000; -705.000
301.396;   73.500;  104.000;  -41.000
301.534;  133.800; -218.000; -293.000
301.672;  -36.600; -664.000; -521.000
301.810;   64.100; -613.000; -545.000
301.948;  266.100;   53.000;  149.000
302.086;  910.500; -250.000;  -32.000
302.224; 1457.400; -610.000; -585.000
302.362;   70.500; -558.000; -622.000
302.500;  -90.700; -923.000; -893.000
302.638;  207.200;  128.000;  245.000
302.776;  -13.900; -352.000; -408.000
302.913;  125.000;  447.000;  236.000
303.051;   13.500;  -86.000;  -23.000
303.189;  108.100;   90.000;  118.000
303.327;  -91.400; -341.000; -256.000
303.465; -149.900; -832.000; -588.000
303.603; -199.900; -805.000; -604.000
303.740;  196.700;  417.000;  241.000
303.878;  -13.000; -800.000; -759.000
304.016; -143.200; -915.000; -790.000
304.154; -253.100;-1123.000;-1152.000
304.291;  -40.800; -505.000; -554.000
304.429;   57.300;  102.000;   74.000
304.567; -239.000; -908.000; -893.000
304.705;  -92.000; -408.000; -515.000
304.842;  117.600; -616.000; -540.000
304.980;  127.000;  215.000;   35.000
305.118;   59.700; -367.000; -365.000
305.255; -161.800; -945.000; -927.000
305.393;  114.600;  178.000;  239.000
305.531; -193.900;-1173.000; -956.000
305.668; -106.000; -663.000; -582.000
305.806;  153.300; -358.000; -439.000
305.943;  144.900; -629.000; -637.000
306.081;  117.400; -378.000; -267.000
306.219; -200.600; -863.000; -748.000
306.356;   19.900;  158.000;   27.000
306.494;  288.000;  981.000;  761.000
306.631;   14.100;  -11.000;  -55.000
306.769;   11.900; -613.000; -485.000
306.906;   10.400; -284.000; -258.000
307.044;  -86.900; -473.000; -488.000
307.181;  -79.500; -410.000; -332.000
307.319;  126.000;  112.000;   87.000
307.456; -332.200;-1191.000;-1153.000
307.594; -146.900; -980.000; -727.000
307.731;   -8.100; -371.000; -164.000
307.868;   37.900;  -15.000;   20.000
308.006; -291.700; -961.000; -847.000
308.143; -111.500; -618.000; -330.000
308.281;  367.100;  -37.000; -254.000
308.418;   45.200; -748.000; -640.000
308.555;  -89.300; -400.000; -250.000
308.693; -109.600; -577.000; -573.000
308.830; -187.800; -712.000; -657.000
308.967;   18.600; -215.000;  -95.000
309.105;  -69.700; -507.000; -396.000
309.242;   88.700; -468.000; -367.000
309.379;  685.900; -577.000; -655.000
309.517; -108.400; -936.000; -948.000
309.654; -184.000; -910.000; -734.000
309.791; -106.600; -662.000; -580.000
309.928; -217.900; -977.000; -914.000
310.065;  360.000;  819.000;  697.000
310.203;  -69.100; -825.000; -850.000
310.340;   -1.800; -465.000; -321.000
310.477; -142.800; -412.000; -516.000
310.614;  -90.800; -383.000; -473.000
310.751; -119.000; -427.000; -518.000
310.889;    1.900;    1.000;   11.000
311.026; -298.500;-1161.000; -939.000
311.163;  -39.800; -386.000; -380.000
311.300; -124.300; -512.000; -479.000
311.437; -131.100; -658.000; -619.000
311.574; -299.100;-1226.000; -985.000
311.711; -104.100; -595.000; -433.000
311.848;  -41.700; -380.000; -388.000
311.985;   65.300;  270.000;   93.000
312.122; -204.800; -932.000; -762.000
312.259; -210.700; -941.000; -994.000
312.396; -138.200; -508.000; -551.000
312.533; -126.900; -812.000; -790.000
312.670; -232.800;-1070.000; -898.000
312.807;   -9.300; -352.000; -367.000
312.944; -145.600; -513.000; -611.000
313.081;  -24.800; -150.000; -415.000
313.218; -201.800;-1111.000; -867.000
313.355;   28.300; -531.000; -449.000
313.492;   10.900; -455.000; -292.000
313.629;  300.900;  815.000;  735.000
313.766; -295.500;-1176.000;-1008.000
313.902;   -0.700; -186.000;   21.000
314.039; -102.800; -372.000; -289.000
314.176;   88.800;  286.000;  192.000
314.313; -160.100; -569.000; -473.000
314.450; -127.800; -788.000; -684.000
314.587;  -94.800; -468.000; -480.000
314.723;   63.000;  -78.000;  130.000
314.860;  102.100;  318.000;  332.000
314.997;   80.400;  223.000;  142.000
315.134;  -73.200; -385.000; -368.000
315.270;  -48.400; -480.000; -496.000
315.407; -224.800;-1094.000; -967.000
315.544;  -84.100; -657.000; -538.000
315.681; -129.200; -681.000; -565.000
315.817;   65.500; -133.000; -176.000
315.954;   27.800; -613.000; -392.000
316.091; -221.400;-1045.000;-1023.000
316.227;  -15.400;  -71.000; -179.000
316.364;   42.500;   23.000;    6.000
316.500;  -77.400; -113.000; -300.000
316.637;  -64.100; -181.000; -302.000
316.774; -162.900; -625.000; -358.000
316.910; -155.400; -598.000; -629.000
317.047; -100.600; -487.000; -351.000
317.183;  -97.100; -435.000; -566.000
317.320;  -17.700; -367.000; -321.000
317.456; -118.600; -733.000; -805.000
317.593; -169.300; -598.000; -641.000
317.729;   46.500;  168.000;  -67.000
317.866; -391.200;-1434.000;-1285.000
318.002; -134.200; -708.000; -948.000
318.139; -177.300; -883.000; -867.000
318.275; -198.700;-1003.000; -738.000
318.412; -101.300; -517.000; -336.000
318.548;  -46.900; -751.000; -720.000
318.685; -183.900; -985.000; -888.000
318.821; -148.100; -762.000; -735.000
318.957;  -17.200;   34.000;  -23.000
319.094;  131.200;  297.000;  154.000
319.230; -130.200; -756.000; -742.000
319.367;  215.100; -471.000; -520.000
319.503;  105.700; -538.000; -436.000
319.639; -185.500; -877.000; -793.000
319.775; -131.500; -750.000; -685.000
319.912;  -73.400; -424.000; -519.000
320.048; -185.800;-1184.000;-1184.000
320.184;  191.800;   59.000;   70.000
320.321;  -97.000; -497.000; -467.000
320.457;  164.600;  475.000;  662.000
320.593; -114.900; -375.000; -382.000
320.729; -173.600; -732.000; -734.000
320.866; -123.700; -577.000; -635.000
321.002; -145.100; -759.000; -809.000
321.138;  -21.100; -135.000; -211.000
321.274;  154.700; -148.000; -115.000
321.410;  -91.000; -585.000; -353.000
321.546;  -58.800;-1011.000; -911.000
321.683;  117.100;  400.000;  185.000
321.819;   58.800;  -48.000; -117.000
321.955; -211.200; -743.000; -722.000
322.091;  -88.300; -585.000; -540.000
322.227;  -18.000; -382.000; -202.000
322.363;  -25.300; -320.000; -215.000
322.499;  -49.200; -343.000; -331.000
322.635;  313.300;  636.000;  443.000
322.771;   76.500; -139.000;   12.000
322.907;  239.900;  129.000;  327.000
323.043;  -28.800; -115.000; -206.000
323.179;  -57.700; -394.000; -363.000
323.315;   -3.900; -401.000; -371.000
323.451;  146.400; -328.000; -236.000
323.587;  150.800;  -60.000;  -77.000
323.723;   -2.000; -682.000; -601.000
323.859;   -0.400; -258.000;  -76.000
323.995;  -13.600; -467.000; -409.000
324.131; -230.400; -967.000; -892.000
324.267;  -71.000; -254.000; -276.000
324.402; -238.800; -960.000; -983.000
324.538;   -8.100; -279.000; -104.000
324.674;   62.500;  164.000;   77.000
324.810;  264.200;  226.000;  308.000
324.946;  -12.300; -810.000; -658.000
325.082; -107.800; -568.000; -475.000
325.217;   21.900;  -62.000;   16.000
325.353; -171.100; -764.000; -659.000
325.489; -127.800; -540.000; -506.000
325.625; -139.900; -579.000; -525.000
325.760;  133.700;  517.000;  376.000
325.896;  -39.100; -515.000; -702.000
326.032;  -61.200; -403.000; -352.000
326.168;  -88.400; -462.000; -369.000
326.303;  -79.100; -352.000; -461.000
326.439;  -28.200; -336.000; -276.000
326.575;   48.600; -190.000;  -29.000
326.710;   18.900; -156.000;  -30.000
326.846;   48.500;  146.000;  103.000
326.982; -150.800; -530.000; -548.000
327.117; -125.500; -481.000; -442.000
327.253; -160.600; -745.000; -742.000
327.388; -364.100;-1137.000;-1153.000
327.524;  -93.900; -811.000; -578.000
327.659;    0.200;  -58.000;  -22.000
327.795;    0.600;   69.000;   45.000
327.931; -107.900; -723.000; -499.000
328.066;  -57.900; -417.000; -276.000
328.202;  -43.200;   12.000; -129.000
328.337;  267.000;  957.000;  713.000
328.473;   22.700;  -12.000;  -74.000
328.608;   -8.200; -256.000; -267.000
328.743; -153.100; -799.000; -664.000
328.879;   64.300;  214.000;  114.000
329.014;  -99.600; -102.000; -122.000
329.150; -134.500; -358.000; -483.000
329.285; -112.900; -465.000; -466.000
329.421;  -68.000; -548.000; -246.000
329.556;    2.300;  -36.000;   85.000
329.691; -169.400; -633.000; -615.000
329.827; -129.600; -626.000; -480.000
329.962;  -48.600;  131.000; -301.000
330.097; -145.700; -673.000; -585.000
330.233;  -44.700; -410.000; -223.000
330.368; -211.400; -839.000; -628.000
330.503;    1.400;    3.000;   98.000
330.638;   28.300;  -93.000; -125.000
330.774;  -59.700; -609.000; -530.000
330.909;  -89.500; -434.000; -244.000
331.044; -173.700; -714.000; -708.000
331.179; -344.100;-1217.000;-1109.000
331.315;   38.500;   77.000;   20.000
331.450;   35.100;  157.000;  285.000
331.585; -155.600; -805.000; -706.000
331.720; -150.200; -510.000; -460.000
331.855;   -6.200;  -35.000; -102.000
331.990;  522.500;   62.000;  138.000
332.126;  322.200; -110.000;   71.000
332.261;  -20.700; -379.000; -265.000
332.396;   47.000; -135.000; -242.000
332.531; -156.900;-1074.000;-1031.000
332.666;  102.700; -519.000; -363.000
332.801; -200.700; -726.000; -807.000
332.936;    4.500; -192.000; -122.000
333.071; -287.200; -870.000; -817.000
333.206;   93.900;  307.000;  379.000
333.341;  117.900;  344.000;  418.000
333.476; -139.700; -627.000; -623.000
333.611;  -48.900; -251.000; -173.000
333.746;  -64.100; -381.000; -464.000
333.881; -236.000; -973.000; -935.000
334.016; -234.600; -936.000; -917.000
334.151; -240.100; -746.000; -702.000
334.286;   62.200;  152.000;  186.000
334.421;   -7.700; -125.000; -178.000
334.556; -143.900; -611.000; -567.000
334.690; -155.400; -631.000; -577.000
334.825;  160.500;  381.000;   83.000
334.960; -121.800; -285.000; -413.000
335.095;   47.600;  135.000;  -91.000
335.230; -180.600; -722.000; -738.000
335.365; -248.100;-1084.000; -990.000
335.499; -237.600;-1108.000;-1037.000
335.634;   58.600;    9.000;  534.000
335.769; -205.200; -755.000; -720.000
335.904; -111.200; -603.000; -561.000
336.038;  -91.000; -735.000; -657.000
336.173; -232.400;-1206.000;-1194.000
336.308;   -9.300; -116.000; -189.000
336.443;   57.300; -544.000; -634.000
336.577; -177.100; -936.000; -787.000
336.712;  126.200;   -4.000;  -12.000
336.847; -115.400; -724.000; -607.000
336.981;  115.300; -272.000; -208.000
337.116;  467.900;  615.000;  501.000
337.250;  227.800; -434.000; -421.000
337.385;  522.800; -297.000; -208.000
337.520;  198.400; -632.000; -603.000
337.654;  -79.500; -215.000; -126.000
337.789; -226.800; -989.000; -933.000
337.923;  -44.200; -104.000; -205.000
338.058; -159.200; -673.000; -738.000
338.192;  -68.600; -611.000; -488.000
338.327;   18.300;  -18.000; -155.000
338.461;  -97.500; -299.000; -469.000
338.596; -152.800; -780.000; -638.000
338.730; -156.000; -767.000; -803.000
338.865;  230.400;  -46.000; -140.000
338.999;  -42.300; -846.000; -702.000
339.134;    0.600; -634.000; -536.000
339.268;   13.200; -741.000; -603.000
339.403;  692.900; -740.000; -775.000
339.537;  259.600; -894.000; -820.000
339.671; -201.100; -829.000; -813.000
339.806;  -95.600; -556.000; -512.000
339.940;   50.200; -261.000; -235.000
340.074; -172.600; -685.000; -510.000
340.209;  -30.400; -351.000; -230.000
340.343; -130.000; -517.000; -573.000
340.477;  369.100;  998.000; 1036.000
340.612; -113.600;-1033.000; -900.000
340.746;  303.200; -199.000; -243.000
340.880; -142.700; -924.000; -785.000
341.014;    3.300;  -45.000; -154.000
341.149; -202.700; -756.000; -718.000
341.283; -196.700; -839.000; -754.000
341.417; -213.000;-1124.000; -938.000
341.551;  163.600; -768.000; -708.000
341.685;  -75.000; -633.000; -611.000
341.820;  -69.500; -562.000; -493.000
341.954;  -80.000; -218.000; -349.000
342.088; -264.200;-1102.000;-1019.000
342.222;   94.300;  565.000;  618.000
342.356; -121.000; -395.000; -335.000
342.490; -194.300; -880.000; -841.000
342.624;  -46.900; -339.000; -242.000
342.758;  -25.000; -364.000; -312.000
342.892; -122.200; -710.000; -585.000
343.026;  -52.200;  -58.000; -116.000
343.160;  -68.400; -426.000; -376.000
343.294; -116.700; -474.000; -337.000
343.428;  -51.100; -488.000; -448.000
343.562;    7.300; -172.000;  -23.000
343.696;   -5.000; -385.000; -314.000
343.830;    0.900; -362.000; -356.000
343.964;   38.100; -231.000; -168.000
344.098; 1402.600;  199.000;   70.000
344.232; 1203.600; -266.000; -127.000
344.366;  132.200; -567.000; -453.000
344.500;   97.700; -665.000; -744.000
344.634;   50.600; -324.000; -164.000
344.768;  -35.300; -531.000; -341.000
344.902;   73.100;  278.000;  256.000
345.035;  -96.800; -556.000; -496.000
345.169; -264.900; -933.000; -656.000
345.303;  -44.200; -308.000; -482.000
345.437; -154.600; -826.000; -717.000
345.571; -108.000; -675.000; -594.000
345.704; -105.300; -309.000; -532.000
345.838;   -0.100; -331.000; -284.000
345.972;  -86.600; -543.000; -495.000
346.106;  349.200; -179.000; -190.000
346.239;  762.200; -312.000; -243.000
346.373;   64.300; -343.000; -302.000
346.507; -267.200; -950.000; -962.000
346.640;  239.500;  -30.000;   13.000
346.774;  -84.900; -650.000; -797.000
346.908;  -11.200; -138.000;  -11.000
347.041; -178.300; -646.000; -593.000
347.175;   68.300;  259.000;   27.000
347.309; -133.800; -698.000; -628.000
347.442; -177.300; -883.000; -732.000
347.576;  549.900;  670.000;  668.000
347.709;  342.100; -123.000;  -52.000
347.843; -186.900; -933.000; -825.000
347.976;   83.800;  235.000;  294.000
348.110; -343.300;-1268.000;-1186.000
348.243; -184.300; -679.000; -772.000
348.377;   53.300;  -26.000;   60.000
348.510;  160.900;  403.000;  540.000
348.644;  -41.200;  -37.000; -159.000
348.777;   38.900;  180.000;  191.000
348.911;  -38.500; -142.000; -112.000
349.044;  344.100;  471.000;  448.000
349.178;  208.800;-1069.000;-1006.000
349.311;  244.300;  141.000;  255.000
349.444;   -9.100; -927.000; -813.000
349.578;    5.300; -347.000; -200.000
349.711; -197.300; -959.000; -862.000
349.845;  -37.200; -661.000; -591.000
349.978; -294.700;-1224.000;-1137.000
350.111; -142.600; -546.000; -612.000
350.244; -142.300; -596.000; -700.000
350.378;   27.200; -392.000; -393.000
350.511; -103.700; -393.000; -426.000
350.644; -206.700; -808.000; -806.000
350.778;   22.500;  168.000;  104.000
350.911;   84.300;  134.000;  140.000
351.044; -179.300; -685.000; -615.000
351.177;  -60.800; -321.000; -281.000
351.310;   15.400;    3.000; -131.000
351.444; -152.400; -888.000; -788.000
351.577;  226.600;  140.000;   90.000
351.710;  247.000;  593.000;  417.000
351.843;  -65.100; -165.000;  -77.000
351.976;   38.500;  149.000;  -79.000
352.109; -158.200; -621.000; -612.000
352.242;  -22.800; -464.000; -419.000
352.376; -108.300; -580.000; -636.000
352.509;  261.500; -437.000; -356.000
352.642;  -59.500; -654.000; -604.000
352.775;   96.700; -141.000;  -98.000
352.908; -210.300; -933.000; -904.000
353.041; -184.900; -814.000; -824.000
353.174;  -92.200; -551.000; -424.000
353.307; -145.100; -753.000; -764.000
353.440;  195.200;  541.000;  453.000
353.573; -175.000; -957.000;-1008.000
353.706; -115.000; -384.000; -558.000
353.839;   20.200; -264.000; -220.000
353.971; -174.500; -657.000; -512.000
354.104; -159.100; -896.000; -835.000
354.237;  -89.000; -627.000; -662.000
354.370; -131.700; -846.000; -879.000
354.503; -375.100;-1231.000;-1308.000
354.636;  -54.800; -529.000; -348.000
354.769; -227.400; -937.000; -860.000
354.902;   -3.100; -230.000; -139.000
355.034;   -7.700; -164.000; -220.000
355.167;   16.100; -262.000; -162.000
355.300; -157.900;-1061.000; -880.000
355.433; 1887.100;  -71.000;  -14.000
355.565; 2935.000; -402.000; -384.000
355.698;  718.800; -356.000; -296.000
355.831;  -17.500; -882.000; -801.000
355.964;  152.400; -285.000; -170.000
356.096; -138.200; -856.000; -843.000
356.229;  -13.800; -523.000; -530.000
356.362;  616.400; -373.000; -266.000
356.494; 1243.200; -229.000; -162.000
356.627;  791.800;  269.000;  377.000
356.760; 1300.000;  120.000;   53.000
356.892; 1760.200; -286.000; -601.000
357.025; 1042.900;  403.000;  389.000
357.157;  936.500; -167.000; -179.000
357.290; 1307.800; -856.000; -713.000
357.423;  334.700; -667.000; -556.000
357.555;  208.200; -217.000; -228.000
357.688;  187.000; -483.000; -364.000
357.820;  641.800; -870.000; -877.000
357.953; 5764.000; -563.000; -589.000
358.085; 1210.500; -632.000; -612.000
358.218; 1658.300;-1131.000; -932.000
358.350;  361.400;  -58.000;  312.000
358.483; -240.800;-1300.000;-1187.000
358.615;  -81.500;-1182.000;-1078.000
358.747; -138.700;-1187.000;-1058.000
358.880;    8.400; -810.000; -744.000
359.012;   -2.700; -376.000; -202.000
359.145;  -84.700; -480.000; -511.000
359.277;   61.700; -962.000; -913.000
359.409; 4869.800;  536.000;  231.000
359.542; 1191.500; -738.000; -688.000
359.674;  162.600;   46.000;   13.000
359.806; -110.100; -565.000; -438.000
359.939;  -48.500; -617.000; -516.000
360.071;   12.600; -583.000; -579.000
360.203;   15.000; -411.000; -364.000
360.335;  141.100;  164.000;  -16.000
360.468;  345.300; -249.000; -307.000
360.600; 3943.900; -547.000; -454.000
360.732; 5281.700; -546.000; -423.000
360.864;  684.500;-1216.000;-1044.000
360.996;  425.700; -516.000; -554.000
361.129;   65.400; -389.000; -598.000
361.261;  101.400;  110.000; -113.000
361.393;  -54.800; -252.000; -214.000
361.525;  102.200;   94.000;  244.000
361.657;  -66.800; -821.000; -703.000
361.789;   39.000; -139.000; -155.000
361.921;  338.500; -642.000; -593.000
362.053;  473.800;  524.000;  541.000
362.185;  119.400;  288.000;   72.000
362.318; -126.100; -709.000; -705.000
362.450;  208.300;  294.000;  444.000
362.582;  128.500; -913.000; -870.000
362.714;  -43.600; -353.000; -332.000
362.846; -143.600; -606.000; -490.000
362.978; -266.300; -941.000; -811.000
363.109;   77.900; -161.000; -260.000
363.241;  670.700; -739.000; -749.000
363.373;  833.900; -649.000; -564.000
363.505; 1380.400; -186.000;  -91.000
363.637;  319.400; -787.000; -601.000
363.769; -236.900;-1067.000;-1080.000
363.901; -103.600; -596.000; -654.000
364.033; -240.800;-1103.000;-1062.000
364.165;   -9.900; -283.000; -283.000
364.296;  211.200; -316.000; -177.000
364.428;  140.400;-1344.000;-1220.000
364.560; -105.700; -679.000; -661.000
364.692; -118.400; -738.000; -835.000
364.824;  400.600; -588.000; -456.000
364.955;  849.200; -402.000; -564.000
365.087; 1849.500;-1097.000; -852.000
365.219;   62.600; -686.000; -816.000
365.351;  -90.000; -526.000; -572.000
365.482;  133.700;  300.000;  240.000
365.614;  -38.400; -402.000; -314.000
365.746; -124.900; -729.000; -752.000
365.877; -147.300; -706.000; -672.000
366.009;  547.900;  -35.000;  -62.000
366.141; -178.400;-1249.000;-1134.000
366.272; -156.200; -803.000; -719.000
366.404; -206.000;-1005.000; -874.000
366.535;   17.500; -139.000;  -12.000
366.667; -145.700; -644.000; -649.000
366.799;  107.400;  353.000;  203.000
366.930; -217.500; -862.000; -996.000
367.062;  239.600; -639.000; -613.000
367.193;  321.700; -872.000; -842.000
367.325;  -87.800; -580.000; -684.000
367.456;   63.100; -246.000;   31.000
367.588;  340.800; -371.000; -318.000
367.719;   60.900;  -44.000;  -45.000
367.851;    1.900; -222.000; -241.000
367.982; -126.800; -875.000; -732.000
368.113;  166.800; -475.000; -358.000
368.245; -205.300; -960.000; -841.000
368.376;    7.800; -254.000; -302.000
368.508;  -42.100; -188.000; -263.000
368.639; -266.700;-1166.000;-1034.000
368.770;  -34.700; -670.000; -589.000
368.902; -104.100; -836.000; -926.000
369.033; -206.800; -906.000; -855.000
369.164;  -59.100; -720.000; -653.000
369.296; -155.800; -452.000; -601.000
369.427;   24.900; -209.000; -144.000
369.558;  -61.400; -593.000; -377.000
369.689; -138.000; -721.000; -569.000
369.821; -227.500; -951.000; -845.000
369.952;    1.700;   42.000; -108.000
370.083;  -45.200; -229.000; -108.000
370.214; -127.300; -735.000; -650.000
370.345;   21.000;   65.000;   81.000
370.477; -163.700; -810.000; -790.000
370.608;  360.600; -328.000; -264.000
370.739; -132.400;-1233.000;-1292.000
370.870;  -96.500;-1102.000; -923.000
371.001;  168.900; -378.000; -467.000
371.132; -112.700; -754.000; -735.000
371.263;    8.800;  -42.000; -148.000
371.394; -215.800; -841.000; -748.000
371.525;  109.800;  345.000;  225.000
371.657; -144.800; -808.000; -670.000
371.788;  154.200;  103.000;  199.000
371.919;  288.200; -384.000; -304.000
372.050; 5682.400;  -91.000; -156.000
372.181; 1566.600; -188.000; -294.000
372.311;  619.500;   42.000; -127.000
372.442;   35.200; -457.000; -451.000
372.573;  -55.200; -444.000; -340.000
372.704; -234.700;-1008.000; -980.000
372.835;  164.500; -228.000; -289.000
372.966;  -92.300; -646.000; -554.000
373.097;  -80.000; -575.000; -711.000
373.228;  -50.600; -717.000; -542.000
373.359;  161.100; -824.000; -536.000
373.490; 1397.600; -881.000; -727.000
373.620; 1702.200;-1001.000; -803.000
373.751; 2710.700; -332.000; -396.000
373.882; 1114.500; -663.000; -733.000
374.013;   96.200; -449.000; -262.000
374.143;  -53.100; -581.000; -659.000
374.274; -203.800; -987.000; -908.000
374.405;  274.300; -388.000; -276.000
374.536;  668.900; -526.000; -387.000
374.666; 1606.800; -759.000; -807.000
374.797;  285.900; -817.000; -868.000
374.928; 1284.400; -710.000; -560.000
375.058; 1361.700; -535.000; -500.000
375.189;  165.700;  -59.000;  -93.000
375.320; -173.700; -928.000;-1034.000
375.450;  -56.200; -625.000; -616.000
375.581;  -42.500; -526.000; -436.000
375.712;  -33.900; -574.000; -250.000
375.842;  485.800; -438.000; -415.000
375.973;  295.500; -554.000; -513.000
376.103;  -72.800; -665.000; -648.000
376.234; -115.800; -531.000; -552.000
376.364;  -80.100; -944.000; -867.000
376.495;  595.000;  925.000;  529.000
376.625;  -41.900; -472.000; -485.000
376.756;  104.900; -709.000; -678.000
376.886; -186.300;-1178.000;-1026.000
377.017;  160.200;-1048.000;-1061.000
377.147;  706.400; -786.000; -782.000
377.278;  172.100;  174.000;  228.000
377.408; -213.900; -801.000; -815.000
377.538; -173.600; -707.000; -693.000
377.669; -153.100; -537.000; -613.000
377.799; -151.900; -645.000; -635.000
377.929; -113.400; -610.000; -428.000
378.060; -224.400; -781.000; -847.000
378.190;  -67.800; -726.000; -531.000
378.320;  -51.300; -401.000; -406.000
378.451;   17.500; -131.000;  -22.000
378.581;   56.600;  -67.000; -110.000
378.711;  332.700; 1035.000;  866.000
378.841;  -40.200; -533.000; -675.000
378.972; -154.400; -871.000; -751.000
379.102;  -15.200; -652.000; -579.000
379.232;   25.500; -126.000;  -73.000
379.362; -175.200;-1001.000; -885.000
379.492;    3.800; -373.000; -424.000
379.623;  229.400;    0.000;  111.000
379.753; -176.600;-1107.000; -974.000
379.883;  333.700;   59.000;  156.000
380.013;  -46.800;-1081.000;-1017.000
380.143; -212.400;-1097.000;-1056.000
380.273; -195.400; -985.000; -861.000
380.403;   26.800; -344.000; -257.000
380.533;  -52.100; -651.000; -664.000
380.663;  188.200;  173.000;  128.000
380.793; -199.500;-1027.000;-1074.000
380.923;   -5.100; -103.000;  -34.000
381.053; -140.600; -613.000; -623.000
381.183;  -17.700; -106.000; -248.000
381.313;   33.200; -656.000; -470.000
381.443;   60.800; -692.000; -473.000
381.573;  355.100; -402.000; -409.000
381.703;  376.700;-1249.000;-1095.000
381.833; -251.100;-1454.000;-1336.000
381.963;  210.900; -134.000;  -87.000
382.093; 2265.800; -925.000; -909.000
382.223;  616.600; -713.000; -602.000
382.353;  -71.900; -801.000; -608.000
382.482;  542.300;-1091.000; -964.000
382.612; 1219.700; -872.000; -644.000
382.742;  672.500; -695.000; -622.000
382.872;  400.900; -565.000; -551.000
383.002;  147.400;  347.000; -132.000
383.131;    0.400; -226.000; -160.000
383.261;  -63.400; -706.000; -768.000
383.391;  582.000; -552.000; -377.000
383.521; 6459.200;  451.000;  263.000
383.650; 1382.000; -947.000; -904.000
383.780;   20.400; -783.000; -656.000
383.910;  314.500;  880.000;  802.000
384.039;   24.600; -794.000; -656.000
384.169;  243.600;-1205.000;-1017.000
384.299;  -45.400; -650.000; -662.000
384.428; -149.900; -764.000; -680.000
384.558;  -46.100; -308.000; -275.000
384.687;  -70.200; -414.000; -334.000
384.817;   64.600;   75.000;   -2.000
384.947;   54.600; -234.000; -141.000
385.076;  558.300;  982.000;  912.000
385.206;  235.700;  369.000;  480.000
385.335;  -47.700; -549.000; -417.000
385.465; -137.800; -655.000; -663.000
385.594;  235.200;  -53.000;  -44.000
385.724;  571.100; -868.000; -838.000
385.853;  179.300; -296.000; -270.000
385.982; 2183.200; -743.000; -787.000
386.112; 3143.900;-1052.000; -871.000
386.241;  249.300; -307.000; -312.000
386.371;   60.200; -174.000;  -87.000
386.500;   10.100; -825.000; -789.000
386.629;   39.600; -874.000; -817.000
386.759;  136.600;  -43.000;   68.000
386.888;   39.000; -170.000; -250.000
387.017; -113.300; -648.000; -620.000
387.147; -146.300; -771.000; -798.000
387.276;   25.400; -410.000; -397.000
387.405;   46.500; -398.000; -342.000
387.535;  -61.300; -452.000; -361.000
387.664;  -91.300; -692.000; -620.000
387.793;   99.600; -198.000; -113.000
387.922;  864.300;  255.000;  200.000
388.052;    6.600; -576.000; -423.000
388.181;   37.300; -342.000; -472.000
388.310;  -31.600; -889.000; -710.000
388.439;  -85.900; -749.000; -742.000
388.568;  350.900;  365.000;  244.000
388.697; 1600.700; -756.000; -653.000
388.826;  295.500; -768.000; -666.000
388.956;  102.600; -285.000; -307.000
389.085;  -41.500; -347.000; -287.000
389.214; -170.000; -842.000; -872.000
389.343; -102.700; -645.000; -413.000
389.472;  889.100;  126.000;  149.000
389.601;  965.100;   91.000;    0.000
389.730;   35.100; -568.000; -687.000
389.859;  150.800;  226.000;   46.000
389.988;  306.100; -423.000; -408.000
390.117;  261.500; -168.000; -146.000
390.246;  -10.400; -331.000; -320.000
390.375;  134.500; -673.000; -626.000
390.504;  -78.300; -703.000; -621.000
390.633; -138.400; -672.000; -726.000
390.761;  -84.400; -732.000; -645.000
390.890;   55.400;   -4.000; -130.000
391.019;  -33.100; -421.000; -441.000
391.148; -223.200; -826.000; -855.000
391.277;  -93.900; -576.000; -493.000
391.406; -137.900; -821.000; -805.000
391.534;   86.300;  574.000; -301.000
391.663;  -93.100; -583.000; -645.000
391.792; -135.700; -673.000; -701.000
391.921;  193.100;   -3.000;   15.000
392.050;  270.500; -287.000; -228.000
392.178; -129.800;-1206.000;-1061.000
392.307;  250.400; -758.000; -712.000
392.436;  101.600; -427.000; -641.000
392.564;   92.400;  166.000;   -6.000
392.693; -180.600; -860.000; -682.000
392.822;  323.200; -529.000; -534.000
392.950;   85.500; -880.000; -714.000
393.079;  508.200; -188.000; -328.000
393.208;   20.700; -488.000; -511.000
393.336;    7.000; -170.000; -145.000
393.465;  -39.500; -317.000; -199.000
393.593;  107.500;   62.000;   79.000
393.722; -279.400;-1121.000; -916.000
393.850;   10.700; -188.000;  -61.000
393.979; -246.300; -926.000; -805.000
394.107;  -59.700; -517.000; -537.000
394.236;  -19.300; -570.000; -507.000
394.364;  497.900;  383.000;  206.000
394.493;  745.300; -911.000; -767.000
394.621;  -12.600; -955.000; -916.000
394.750; 1463.900; -873.000; -923.000
394.878; 6056.600; -247.000; -149.000
395.007; 7559.000; -721.000; -807.000
395.135;  566.300; -790.000; -721.000
395.263; -170.600;-1038.000;-1040.000
395.392;   41.400;  -25.000; -107.000
395.520; -245.100; -818.000; -679.000
395.648; -172.800; -865.000; -915.000
395.777;  -10.600; -366.000; -405.000
395.905;  -67.200; -449.000; -564.000
396.033;   70.200;  217.000;  172.000
396.162; 1266.900; -399.000; -453.000
396.290; 1088.200;  -17.000;   -2.000
396.418;  167.800; -555.000; -514.000
396.546; -125.300; -571.000; -466.000
396.674; -160.800; -850.000; -878.000
396.803;   59.500;  -72.000;  -23.000
396.931;  151.700; -179.000; -199.000
397.059;  -10.500;-1026.000; -989.000
397.187; -194.600;-1026.000; -975.000
397.315; -251.700; -884.000; -649.000
397.443; -127.100; -592.000; -443.000
397.572; -137.700; -578.000; -424.000
397.700;  -48.100; -607.000; -614.000
397.828;   11.500;  120.000;  -90.000
397.956;  -46.200; -508.000; -478.000
398.084; -116.100; -767.000; -626.000
398.212;  151.600;  137.000;  124.000
398.340;   66.300;  -56.000;  159.000
398.468;   61.000; -390.000; -169.000
398.596; -240.700; -993.000; -953.000
398.724; -228.900; -762.000; -767.000
398.852; -266.900;-1024.000; -976.000
398.980;  -59.100; -560.000; -560.000
399.108; -108.500; -982.000; -735.000
399.236;  125.400;   13.000;    8.000
399.363;   62.900;  222.000;  196.000
399.491;  -64.600; -404.000; -398.000
399.619; -224.200; -829.000; -800.000
399.747; -165.400; -859.000; -771.000
399.875;  218.200;  220.000;  234.000
400.003;  -76.100; -359.000; -284.000
400.130; -149.900; -421.000; -341.000
400.258;   37.400;  -83.000;   38.000
400.386;  -84.200; -352.000; -168.000
400.514;  -50.400; -526.000; -587.000
400.641; -177.500; -928.000; -802.000
400.769; -220.900; -979.000; -888.000
400.897; -178.900; -838.000; -793.000
401.025;    4.700; -166.000; -152.000
401.152;   63.800;  220.000;   38.000
401.280; -126.900; -430.000; -429.000
401.408; -187.400; -712.000; -576.000
401.535; -141.400; -735.000; -758.000
401.663; -340.400;-1134.000;-1054.000
401.790; -128.000; -514.000; -525.000
401.918;  136.900;  436.000;  405.000
402.046;   31.700;  134.000;  122.000
402.173;  -16.700;  -18.000;    7.000
402.301;  -84.500; -519.000; -397.000
402.428;  122.300;  528.000;  383.000
402.556; -267.100;-1188.000; -913.000
402.683;   15.500;  -20.000;   -1.000
402.811;   18.100;  -37.000; -206.000
402.938;   66.200;   20.000;   27.000
403.066;  295.600; -574.000; -558.000
403.193;  524.800;  299.000;  239.000
403.321;  386.100; -396.000; -574.000
403.448;  510.200;   83.000;   27.000
403.575;  220.700;  -90.000;  -46.000
403.703; -156.000; -732.000; -557.000
403.830;  -75.200; -531.000; -496.000
403.957; -224.000;-1117.000;-1023.000
404.085;   79.600;  -61.000; -172.000
404.212;  263.200;  -50.000;   63.000
404.339;  565.400; -566.000; -306.000
404.467;11803.000; -612.000; -524.000
404.594; 6852.200; -287.000; -227.000
404.721; 1503.800; -869.000; -764.000
404.848;  172.100; -113.000; -202.000
404.976; -145.800; -856.000; -783.000
405.103;   14.800;  -14.000;  -82.000
405.230;   69.900;  190.000;  226.000
405.357;   96.800;  117.000;   44.000
405.484;  577.500;  -49.000;    5.000
405.612;  121.600; -548.000; -563.000
405.739;  -59.800; -488.000; -243.000
405.866;  241.300;  669.000;  385.000
405.993;  -45.800; -398.000; -102.000
406.120; -211.700; -801.000; -887.000
406.247;  -79.700; -323.000; -342.000
406.374;  781.500;  540.000;  629.000
406.501;  118.200; -632.000; -702.000
406.628; -125.000; -621.000; -589.000
406.755; -154.000; -803.000; -620.000
406.882;  -17.800; -228.000; -277.000
407.009; -164.300; -719.000; -628.000
407.136;  116.800; -480.000; -401.000
407.263;  149.100; -939.000; -829.000
407.390; -132.000; -692.000; -614.000
407.517; -292.100;-1139.000;-1187.000
407.644;  -45.700; -332.000; -256.000
407.771; -248.500; -249.000; -287.000
407.898;   41.400;  168.000;  328.000
408.025;  -59.300; -421.000; -313.000
408.151;   73.000;   82.000;  153.000
408.278;  -58.400; -267.000; -216.000
408.405; -186.300; -931.000; -899.000
408.532; -123.300; -549.000; -542.000
408.659; -190.400; -677.000; -648.000
408.785; -378.100;-1298.000;-1170.000
408.912;  -71.100; -412.000; -296.000
409.039; -187.700; -610.000; -686.000
409.166; -133.100; -591.000; -555.000
409.292; -181.400; -571.000; -534.000
409.419; -187.900; -665.000; -649.000
409.546; -118.600; -431.000; -192.000
409.672; -149.400; -713.000; -545.000
409.799;  -19.600;  -36.000;   34.000
409.926;  -31.600; -180.000; -179.000
410.052; -303.600;-1127.000;-1091.000
410.179;  -67.300; -368.000; -392.000
410.305; -142.000; -375.000; -493.000
410.432;  -27.400; -220.000; -333.000
410.558; -123.800; -305.000; -380.000
410.685; -135.700; -688.000; -431.000
410.812; -130.900; -409.000; -588.000
410.938; -220.100; -964.000; -808.000
411.065; -142.500; -671.000; -645.000
411.191;  -15.400; -189.000; -174.000
411.317; -183.400; -823.000; -742.000
411.444; -104.800; -317.000; -246.000
411.570; -113.300; -339.000; -294.000
411.697; -214.800; -758.000; -752.000
411.823; -310.600; -989.000; -999.000
411.949;  -11.200;  -56.000;   17.000
412.076; -189.400; -539.000; -519.000
412.202; -165.200; -758.000; -757.000
412.329; -230.400; -798.000; -752.000
412.455; -170.200; -821.000; -657.000
412.581;   44.400;  -15.000;  172.000
412.707;  -69.000; -540.000; -457.000
412.834;   61.700;  156.000;  219.000
412.960; -120.100; -785.000; -784.000
413.086; -121.900; -743.000; -701.000
413.212;  324.600;  604.000;  578.000
413.339; -142.200; -685.000; -701.000
413.465;   18.900; -364.000; -310.000
413.591; -165.800; -757.000; -474.000
413.717;  -66.900; -358.000; -366.000
413.843; -236.300; -839.000; -861.000
413.969;  -47.900;  -47.000; -292.000
414.096; -146.400; -679.000; -679.000
414.222;   34.700;  -33.000;   85.000
414.348;  -16.400; -652.000; -385.000
414.474;  192.200;   38.000;  -52.000
414.600;   12.500; -126.000; -144.000
414.726;   53.300;  -96.000;  -55.000
414.852; -112.700; -365.000; -342.000
414.978;  116.000;  104.000;  -18.000
415.104;  102.900;   38.000;   80.000
415.230;   89.600; -329.000; -330.000
415.356;   99.100; -409.000; -514.000
415.482;  406.200;   13.000;  -35.000
415.608;  569.400; -247.000; -323.000
415.734; 2003.500;   67.000;   38.000
415.860;40521.800; -875.000; -767.000
415.986;26471.900; -685.000; -607.000
416.111; 2160.600; -798.000; -652.000
416.237;  519.400; -424.000; -571.000
416.363; 2464.300; -765.000; -733.000
416.489; 8033.300; -324.000; -251.000
416.615;  843.900; -707.000; -742.000
416.741;  -41.500; -677.000; -784.000
416.866; -135.600; -673.000; -736.000
416.992; -196.600; -801.000; -818.000
417.118;    0.400;  -41.000;  -80.000
417.244; -115.000; -798.000; -531.000
417.369; -108.300; -801.000; -612.000
417.495;   68.700; -325.000; -254.000
417.621; -177.600;-1015.000; -803.000
417.746;   51.500; -579.000; -572.000
417.872;  126.900; -254.000; -144.000
417.998;  162.300; -515.000; -530.000
418.123; 2310.200;-1073.000; -845.000
418.249;10657.100; -512.000; -601.000
418.374; 1333.300; -916.000; -824.000
418.500;  240.200; -383.000; -482.000
418.626;  292.100;   70.000;  -59.000
418.751;  199.300; -549.000; -448.000
418.877;  408.600; -637.000; -643.000
419.002; 4001.600; -688.000; -560.000
419.128;25080.900; -930.000; -721.000
419.253; 5510.700; -967.000; -837.000
419.379;  811.800; -391.000; -338.000
419.504;  820.000;  325.000;  415.000
419.629; 1023.800; -393.000; -212.000
419.755; 7788.700; -317.000; -254.000
419.880;41579.000;  -98.000;   67.000
420.006;23165.800; -280.000; -221.000
420.131;55630.400; -662.000; -775.000
420.256; 7231.300; -315.000; -316.000
420.382; 1074.700; -665.000; -687.000
420.507;  123.000; -649.000; -778.000
420.632;  231.500; -337.000; -339.000
420.758;  384.700; -251.000; -425.000
420.883; -172.400; -876.000; -672.000
421.008; -149.200; -775.000; -619.000
421.133; -114.500; -509.000; -467.000
421.259;  -47.400; -325.000; -259.000
421.384; -179.900; -834.000; -693.000
421.509;  -89.000;-1052.000; -862.000
421.634; 1591.100; -936.000; -820.000
421.759;  638.100; -359.000; -327.000
421.885;  -94.100; -717.000; -656.000
422.010; -139.900; -673.000; -542.000
422.135; -262.500; -695.000; -727.000
422.260;  145.900;  340.000;  280.000
422.385;  -34.000;   12.000;  -98.000
422.510;   89.300;  151.000;  -26.000
422.635;  127.700;  -87.000;  -43.000
422.760;  204.400; -766.000; -791.000
422.885;  149.600;  -57.000;  -80.000
423.010;  -35.900; -112.000; -169.000
423.135; -158.200; -481.000; -561.000
423.260;   53.600; -150.000; -245.000
423.385;  186.900;  476.000;  222.000
423.510;  101.200;   71.000;  -22.000
423.635;  172.100;  133.000;   45.000
423.760;  159.700;  383.000;  328.000
423.885;  158.300;  336.000;  391.000
424.010;   87.800;  -68.000;  -13.000
424.135;   22.000;    5.000;  -33.000
424.259; -130.500; -654.000; -457.000
424.384;  -67.600; -279.000; -272.000
424.509;    6.600; -260.000; -186.000
424.634; -148.800; -761.000; -623.000
424.759;   -3.200; -688.000; -544.000
424.883;   17.900; -506.000; -527.000
425.008;  357.400; -502.000; -410.000
425.133; 4094.000; -679.000; -653.000
425.258; 1725.800; -517.000; -381.000
425.382; 1757.100; -867.000; -774.000
425.507; 3987.200; -487.000; -543.000
425.632;  652.200; -802.000; -663.000
425.756;  936.000; -256.000; -146.000
425.881;14404.700; -831.000; -857.000
426.006;34923.000; -604.000; -355.000
426.130; 4846.100; -696.000; -508.000
426.255;  696.000; -611.000; -491.000
426.379;  384.000; -189.000; -577.000
426.504;  828.400;  660.000;  544.000
426.629; 8298.400; -519.000; -466.000
426.753; 5007.700;   64.000;  -46.000
426.878;  649.200; -252.000; -288.000
427.002;  337.000; -651.000; -668.000
427.127; 3430.700;  -35.000; -158.000
427.251;22870.000;  372.000;  401.000
427.375; 5633.200; -191.000; -173.000
427.500; 3645.400; -616.000; -610.000
427.624; 1092.400; -234.000; -400.000
427.749;  168.000; -216.000; -225.000
427.873;  -71.700; -499.000; -412.000
427.997;  -29.300; -222.000; -230.000
428.122;  206.600;  795.000;  703.000
428.246;  195.000;  433.000;  434.000
428.371; -216.100; -869.000; -773.000
428.495; -148.900; -624.000; -646.000
428.619;  -27.600; -186.000; -117.000
428.743;   84.200;   65.000;  132.000
428.868;   27.400; -732.000; -643.000
428.992; 2220.300; -219.000; -326.000
429.116;  788.500; -329.000; -357.000
429.240;  469.700;  419.000;  426.000
429.365;   -6.500; -454.000; -574.000
429.489;  -44.300; -638.000; -647.000
429.613;   80.700; -236.000; -177.000
429.737;   98.400; -563.000; -432.000
429.861;  612.100; -247.000; -133.000
429.985;11615.200; -425.000; -305.000
430.109;11410.900; -770.000; -908.000
430.234; 1308.900;   76.000;  -50.000
430.358;  170.900; -250.000; -160.000
430.482;  -55.000; -672.000; -564.000
430.606;  -73.000; -655.000; -375.000
430.730;   54.100; -437.000; -388.000
430.854;  137.100; -909.000; -835.000
430.978; -103.100; -795.000; -764.000
431.102; -106.100; -499.000; -422.000
431.226; -187.300; -874.000; -815.000
431.350;  106.700;  345.000;  422.000
431.474;  -85.700; -661.000; -373.000
431.597; -263.000;-1060.000; -848.000
431.721;  -99.100; -276.000; -267.000
431.845; -209.000; -704.000; -472.000
431.969;  -91.100; -304.000; -349.000
432.093; -146.300; -395.000; -317.000
432.217;   41.000;   32.000;   82.000
432.341; -132.100; -523.000; -518.000
432.464;   94.500;   96.000;   40.000
432.588;  326.100; -401.000; -329.000
432.712;  197.900;  -52.000;  -52.000
432.836;  166.000;  213.000;  263.000
432.959;   43.400; -372.000; -311.000
433.083;  229.200;   11.000;    2.000
433.207;  847.300;  285.000;  930.000
433.330;10632.800; -391.000; -200.000
433.454;11841.200; -654.000; -638.000
433.578; 7016.400;  583.000;  278.000
433.701; 1197.900; -623.000; -675.000
433.825;  207.900; -292.000; -299.000
433.949;  301.000;   28.000;  -72.000
434.072;   55.100; -410.000; -323.000
434.196;   19.200; -309.000; -117.000
434.319; 7988.400;25482.000;25124.000
434.443; 1561.600; -656.000; -603.000
434.566; 5235.600;  281.000;   62.000
434.690;  800.900; -637.000; -383.000
434.813;  119.900; -251.000; -173.000
434.937; -115.600; -569.000; -696.000
435.060;  -61.700; -423.000; -332.000
435.184;  430.400; -492.000; -217.000
435.307;  228.200;  159.000;  102.000
435.431;   22.600;  -40.000;   24.000
435.554;  -68.000; -399.000; -240.000
435.677; -100.900; -350.000; -258.000
435.801;  -41.600;  -25.000;   49.000
435.924;   17.700;    1.000;  -67.000
436.048; -240.300;-1019.000; -732.000
436.171; -111.200; -240.000;  -66.000
436.294;    7.600; -248.000; -229.000
436.417;  240.700; -963.000; -849.000
436.541; -140.600; -814.000; -840.000
436.664;  -11.800; -242.000; -316.000
436.787;   -5.900;   13.000;  113.000
436.910; -167.300; -792.000; -422.000
437.034;   53.700;  142.000;  143.000
437.157;   98.900;  -11.000;    0.000
437.280;  -77.900; -392.000; -292.000
437.403; -147.900; -982.000; -869.000
437.526;  849.000; -903.000; -865.000
437.649; 3031.600; -505.000; -332.000
437.772;  358.100; -692.000; -540.000
437.896;  267.100;  700.000;  544.000
438.019; -158.700; -758.000; -503.000
438.142; -113.700; -596.000; -506.000
438.265;  -40.500; -639.000; -670.000
438.388;  841.900; -520.000; -410.000
438.511;  135.700; -597.000; -394.000
438.634;  -46.300; -247.000; -125.000
438.757; -244.900; -693.000; -619.000
438.880;  -15.000;  -34.000;  -57.000
439.003; -152.200; -417.000; -437.000
439.126;  -53.400; -287.000; -167.000
439.248;  -57.500;  -98.000; -139.000
439.371;  -16.800;    9.000;  -53.000
439.494;  123.300;  510.000;  439.000
439.617;    0.500;   65.000;  -88.000
439.740; -301.600; -968.000; -816.000
439.863; -220.600; -755.000; -595.000
439.986; -200.700; -476.000; -431.000
440.108;  -49.600; -161.000; -112.000
440.231; -283.400; -950.000; -836.000
440.354;  -39.500;  -64.000; -150.000
440.477;   47.100; -566.000; -542.000
440.599;   41.100; -200.000; -225.000
440.722; -179.400; -709.000; -586.000
440.845;  190.200;  751.000;  928.000
440.968; -157.300; -415.000; -311.000
441.090;  -36.000; -199.000;  -33.000
441.213; -270.700;-1021.000; -825.000
441.336;  -54.600; -159.000;   -5.000
441.458;  -89.100; -549.000; -396.000
441.581; -158.300; -628.000; -629.000
441.703;  -87.400; -152.000;   13.000
441.826; -184.500; -557.000; -400.000
441.948;  -15.200;   56.000;   51.000
442.071;  115.400;  555.000;  424.000
442.193; -161.600; -531.000; -485.000
442.316;  106.000;  152.000;   97.000
442.438;  133.500; -233.000;  -10.000
442.561;  188.500;  272.000;  262.000
442.683;  788.500; -809.000; -522.000
442.806; 1617.000;   -8.000;   74.000
442.928;  -47.300; -859.000; -604.000
443.051; -104.000; -577.000; -373.000
443.173; -131.200; -341.000; -339.000
443.295; -141.300; -263.000; -371.000
443.418; -105.600; -321.000;  -29.000
443.540;    0.500; -106.000;   -4.000
443.662; -189.900; -563.000; -465.000
443.785;   76.200;  335.000;  199.000
443.907; -140.000; -362.000; -208.000
444.029; -161.300; -767.000; -494.000
444.152; -256.600; -644.000; -554.000
444.274;  -13.800;  -18.000;  -24.000
444.396; -201.100; -461.000; -221.000
444.518; -200.800; -691.000; -454.000
444.640; -159.000; -268.000; -111.000
444.763;   -0.200;  388.000;  249.000
444.885; -158.400; -432.000; -392.000
445.007;   14.200;   35.000;   86.000
445.129; -194.400; -610.000; -515.000
445.251; -134.900; -372.000; -439.000
445.373; -210.800; -537.000; -386.000
445.495;   45.500;  242.000;  350.000
445.617;  181.700;  853.000;  753.000
445.739;  -98.100; -215.000;  -97.000
445.861;   12.900; -245.000; -112.000
445.984;   -9.400; -267.000; -101.000
446.105;  297.500; -418.000; -251.000
446.227;  880.500; -176.000;  -19.000
446.349;  -47.900; -358.000; -249.000
446.471; -159.000; -615.000; -448.000
446.593; -115.400; -316.000;   19.000
446.715;   44.800;  -67.000;   41.000
446.837;  202.100;  697.000;  832.000
446.959; -117.200; -457.000; -478.000
447.081; -211.300; -628.000; -518.000
447.203;  195.400;  862.000;  834.000
447.325; -122.300; -270.000;   42.000
447.446;   58.900;  286.000;  530.000
447.568; -262.100; -921.000; -803.000
447.690; -105.000; -236.000; -245.000
447.812; -246.300; -798.000; -519.000
447.933;   43.300;  155.000;  127.000
448.055;  -69.700; -306.000; -261.000
448.177;  288.700;   31.000;   79.000
448.299;   38.900; -935.000; -727.000
448.420;   71.100;  -25.000;  159.000
448.542;  -43.100;   -3.000;   33.000
448.664;   27.500;  109.000;  322.000
448.785;    4.100;  265.000;   83.000
448.907; -106.400; -614.000; -353.000
449.028;  -74.000; -771.000; -471.000
449.150;  193.300;  492.000;  589.000
449.272; -310.200;-1044.000; -913.000
449.393;  172.500;  612.000;  694.000
449.515; -243.400; -634.000; -581.000
449.636;  -84.400; -264.000; -155.000
449.758;  202.600;  763.000;  622.000
449.879; -166.500; -498.000; -396.000
450.001;  -99.800; -149.000;  -49.000
450.122;   -6.400;  -95.000;  162.000
450.244;   35.800;   37.000;  364.000
450.365; -111.500; -495.000; -301.000
450.486;   13.900;   80.000;  268.000
450.608;   60.800;  393.000;  326.000
450.729;  208.400;  578.000;  645.000
450.850;  126.200; -574.000; -466.000
450.972; 1715.700; -552.000; -389.000
451.093;10257.600;  190.000;  588.000
451.214; 3828.300; -516.000; -337.000
451.336;  804.800;  773.000;  579.000
451.457;  188.100;  264.000;  393.000
451.578;   -7.900; -118.000;  -74.000
451.699; -182.600; -546.000; -540.000
451.821;  -61.600; -284.000;  -50.000
451.942;   55.700;  278.000;  285.000
452.063;  166.300;  228.000;  419.000
452.184; 1271.800;  -54.000;  -49.000
452.305; 2212.800;  103.000;  170.000
452.427;  259.400; -549.000; -301.000
452.548;    5.300;   23.000;   79.000
452.669;  -38.700; -257.000;  -89.000
452.790;  -32.400;    3.000;  -18.000
452.911;   67.000;  195.000;  259.000
453.032;  -65.300; -289.000;  -60.000
453.153;  -28.400;  -29.000;   81.000
453.274;  195.400;  737.000;  868.000
453.395;  -29.400;  -51.000;  175.000
453.516;  316.500; 1317.000; 1388.000
453.637; -113.600; -205.000; -150.000
453.758;  -35.400;   15.000;   69.000
453.879; -161.800; -462.000; -250.000
454.000;  250.700; 1086.000;  948.000
454.121; -186.600; -554.000; -326.000
454.242; -181.400; -599.000; -383.000
454.362;  -53.500;  -99.000;  114.000
454.483;  -19.900; -309.000; -229.000
454.604;  144.500;  512.000;  580.000
454.725; -201.300; -627.000; -555.000
454.846; -228.900; -474.000; -406.000
454.967;   21.700;  230.000;  539.000
455.087;  -14.200;  179.000;  153.000
455.208;  101.300;  554.000;  856.000
455.329;  -67.600;  -22.000;   82.000
455.450;  145.000;  473.000;  633.000
455.570;  -99.000; -234.000; -211.000
455.691;  -11.600;  201.000;  407.000
455.812; -179.900; -270.000;  -92.000
455.932;  -74.200;  107.000;  -97.000
456.053; -106.000;   36.000;   24.000
456.173; -152.100; -433.000; -355.000
456.294; -193.500; -476.000; -303.000
456.415;  -72.600;  -73.000;   70.000
456.535;   10.800;  297.000;  273.000
456.656;  -16.700;  132.000;  240.000
456.776;  -56.500;    3.000;  298.000
456.897;   96.600;  308.000;  513.000
457.017; -108.700; -153.000;   -3.000
457.138; -152.900; -402.000; -249.000
457.258;   14.800;  263.000;  224.000
457.379;   50.200;  509.000;  521.000
457.499;   27.300;  443.000;  432.000
457.620; -183.200; -407.000; -231.000
457.740; -127.800; -132.000;  -11.000
457.860;  -50.000;   87.000;   44.000
457.981;   -7.400;  132.000;  124.000
458.101;  -85.600;  -89.000;   40.000
458.221;   35.000;  336.000;  402.000
458.342;  -50.800;   -4.000;  -37.000
458.462;   58.000;  617.000;  352.000
458.582;  -34.600; -302.000; -294.000
458.703;   74.100;  303.000;  154.000
458.823;    1.400;   22.000;  163.000
458.943;  116.600;  341.000;  467.000
459.063;   46.600; 1124.000;  192.000
459.183;   23.200;  328.000;  313.000
459.304;   97.600;  315.000;  517.000
459.424;  -86.800; -246.000;  -89.000
459.544;  768.400;  388.000;  764.000
459.664; 1700.500;  499.000;  506.000
459.784;  645.000; 1004.000; 1175.000
459.904;  165.900;  867.000;  744.000
460.024;  165.100;  867.000;  684.000
460.144;   88.900;  449.000;  554.000
460.264;   85.400;  515.000;  327.000
460.385; -118.300; -145.000; -119.000
460.505;  174.900;  905.000;  858.000
460.625; -143.700;  -17.000;  -68.000
460.745;   41.800;  396.000;  541.000
460.864;  -45.300;  153.000;  469.000
460.984;   90.800;  499.000;  573.000
461.104;  353.100; 1656.000; 1775.000
461.224;  107.400;  657.000;  650.000
461.344;  -16.200;  431.000;  360.000
461.464;   13.400;  258.000;  513.000
461.584;   27.300;  283.000;  466.000
461.704;  -39.300;   58.000;  108.000
461.824;  -85.900;  238.000;  259.000
461.943;  -15.800;  191.000;  130.000
462.063;  -69.100;    2.000;  324.000
462.183;  145.600;  639.000;  717.000
462.303;  270.600; 1678.000; 1230.000
462.422;  130.200;  781.000;  840.000
462.542;  -13.600;  271.000;  391.000
462.662;  131.200;  353.000;  380.000
462.782;  583.000;  833.000;  572.000
462.901;  972.700;  545.000;  717.000
463.021;  619.700; 1702.000; 1638.000
463.141;   69.000;  337.000;  770.000
463.260;   21.200;  614.000;  474.000
463.380;  122.900;  902.000;  884.000
463.499;    6.300;  342.000;  332.000
463.619;  -26.700;  581.000;  559.000
463.738;  351.800; 1644.000;  903.000
463.858;   97.700;  657.000;  811.000
463.978;   -9.700;  542.000;  396.000
464.097;  160.300;  921.000; 1114.000
464.217;  324.200; 1196.000; 1143.000
464.336;  302.900; 1068.000; 1130.000
464.455;    2.600;  328.000;  659.000
464.575;  126.500;  597.000;  602.000
464.694;  348.300; 1204.000; 1179.000
464.814;  313.700; 1190.000; 1138.000
464.933;  218.300; 1095.000; 1027.000
465.052;  274.900; 1412.000; 1054.000
465.172;  197.500;  922.000;  799.000
465.291;  355.000; 1376.000; 1320.000
465.410;   88.100;  462.000;  735.000
465.530;  278.700; 1355.000; 1310.000
465.649;  193.600; 1209.000; 1273.000
465.768;  349.400; 1673.000; 1508.000
465.888;  157.400;  941.000; 1174.000
466.007;  246.400; 1335.000; 1440.000
466.126;   95.800;  721.000;  641.000
466.245;  192.300; 1176.000; 1187.000
466.364;  128.400;  950.000; 1060.000
466.484;  204.200; 1024.000; 1213.000
466.603;  121.100; 1101.000; 1222.000
466.722;  305.700; 1490.000; 1769.000
466.841;  202.000; 1151.000; 1401.000
466.960;  120.600; 1069.000;  972.000
467.079;  381.600; 1971.000; 1786.000
467.198;  164.500; 1238.000; 1181.000
467.317;  264.100; 1768.000; 1162.000
467.436;  253.900; 1709.000; 1261.000
467.555;  341.700; 1796.000; 1746.000
467.674;  201.400; 1227.000; 1329.000
467.793;  172.500; 1376.000; 1374.000
467.912;  291.500; 1658.000; 1539.000
468.031;  388.900; 2038.000; 1930.000
468.150;  320.800; 1842.000; 1837.000
468.269;  456.300; 2313.000; 2090.000
468.388;  482.900; 2168.000; 2339.000
468.507;  589.200; 2884.000; 2903.000
468.626;  630.200; 2555.000; 2541.000
468.744;  400.300; 2018.000; 2174.000
468.863;  434.100; 2312.000; 2523.000
468.982;  273.900; 1503.000; 1555.000
469.101;  532.400; 2788.000; 2692.000
469.220;  372.900; 2333.000; 2176.000
469.338;  549.300; 2935.000; 3051.000
469.457;  465.500; 2719.000; 2545.000
469.576;  790.100; 3953.000; 3784.000
469.695;  540.600; 2877.000; 3066.000
469.813;  944.700; 4148.000; 4192.000
469.932;  894.000; 4255.000; 4485.000
470.051;  953.700; 4075.000; 4161.000
470.169; 1846.900; 4470.000; 4338.000
470.288; 3040.500; 4700.000; 4809.000
470.406; 1772.500; 5059.000; 5194.000
470.525; 1339.200; 6101.000; 5787.000
470.644; 1416.000; 6847.000; 6794.000
470.762; 1813.700; 8397.000; 7873.000
470.881; 1933.100; 8651.000; 8464.000
470.999; 2219.400; 9685.000; 9151.000
471.118; 2342.300;11174.000;10711.000

