
Integration time [ms]: 100.000
Averaging Nr. [scans]: 40
Smoothing Nr. [pixels]: 0
Data measured with spectrometer [name]: 2101012U2
Wave   ;Sample   ;Dark     ;Reference
[nm]   ;[counts] ;[counts] ;[counts] 

197.733;   63.325;  516.000;  404.000
197.879;  -87.450; -610.000; -634.000
198.025;  -34.875; -475.000; -420.000
198.171;  -82.975; -602.000; -612.000
198.317;  -19.775; -401.000; -316.000
198.463;  -65.175; -655.000; -404.000
198.609;   36.275;  181.000; -137.000
198.755;  -81.150; -644.000; -410.000
198.901;  -73.400; -505.000; -424.000
199.047;  -60.700; -615.000; -488.000
199.193;  -37.225; -230.000; -468.000
199.339;  -41.600; -222.000; -369.000
199.485;   44.075;  330.000;  271.000
199.631;   23.075;  227.000;  310.000
199.777;  -58.000; -466.000; -398.000
199.923;  -61.525; -610.000; -424.000
200.069;   -0.600; -141.000;  -58.000
200.215;   50.200;  128.000;  453.000
200.361;   27.850;  243.000;  477.000
200.507;  -55.475; -600.000; -373.000
200.653;  -11.925; -371.000; -194.000
200.798;  -39.325; -215.000; -125.000
200.944;   -1.575; -146.000;  -41.000
201.090;   40.350;   61.000;  222.000
201.236;   -4.300; -116.000; -158.000
201.382;  118.850;  874.000;  903.000
201.528;   12.550;  -58.000;  -48.000
201.674;  -51.500; -386.000; -293.000
201.819;  -68.675; -540.000; -439.000
201.965;  -69.525; -699.000; -447.000
202.111;  -21.300; -273.000; -226.000
202.257;  -47.875; -250.000; -238.000
202.402;   15.200;   13.000;  -36.000
202.548;  -28.650; -169.000; -116.000
202.694;   84.300;  410.000; -183.000
202.840;  -78.600; -603.000; -531.000
202.985;  -67.525; -681.000; -639.000
203.131; -108.000; -832.000; -666.000
203.277;  -27.100; -199.000; -262.000
203.423;  -60.350; -434.000; -520.000
203.568;  -32.450; -462.000; -237.000
203.714;  -64.025; -535.000; -542.000
203.860;  -78.650; -682.000; -641.000
204.005;   20.075;  112.000;  167.000
204.151;   80.725;  561.000;  556.000
204.296;  -39.275; -354.000; -221.000
204.442;  -58.000; -600.000; -547.000
204.588;  -64.225; -592.000; -579.000
204.733;   21.075;  178.000;  168.000
204.879; -126.350;-1018.000; -822.000
205.025;    2.350;  -99.000;  126.000
205.170;  -11.025;  -17.000;   94.000
205.316;   90.975;  438.000;  661.000
205.461;  -71.700; -698.000; -554.000
205.607;   79.300;  609.000;  665.000
205.752;  -86.150; -626.000; -551.000
205.898;  -57.200; -501.000; -391.000
206.043;  -74.900; -578.000; -506.000
206.189;  -48.400; -243.000; -285.000
206.334;   77.250;  554.000;  606.000
206.480;   77.125;  409.000;  239.000
206.625;  -89.275; -529.000; -552.000
206.771;  -50.525; -451.000; -373.000
206.916;  -31.075; -210.000; -537.000
207.062;  -85.725; -545.000; -591.000
207.207;  -61.575; -546.000; -443.000
207.353;   46.775;  185.000;  460.000
207.498;   20.425;  196.000;   85.000
207.643;  -42.900; -501.000; -370.000
207.789; -123.600;-1069.000; -910.000
207.934;  -90.275; -665.000; -713.000
208.080;  -24.750; -154.000;   66.000
208.225;   14.550;  -22.000;  -57.000
208.370;  -86.300; -727.000; -619.000
208.516;  -81.500; -741.000; -487.000
208.661;  -28.050; -127.000;  -69.000
208.806;  -24.350; -165.000; -171.000
208.952; -110.875;-1044.000; -731.000
209.097;   76.775;  378.000;  349.000
209.242;  -41.650; -307.000; -382.000
209.387;   63.375;  392.000;  350.000
209.533;  -47.100; -321.000; -350.000
209.678;   72.650;  472.000;  543.000
209.823;  -49.875; -408.000; -310.000
209.969;  -97.850; -860.000; -757.000
210.114; -106.650; -907.000; -719.000
210.259; -104.625; -939.000; -889.000
210.404;    6.550; -171.000;  103.000
210.549;   10.325;  108.000;    3.000
210.695;  -23.050;   -3.000;  -95.000
210.840;   32.800;   94.000;   67.000
210.985;  -60.925; -484.000; -303.000
211.130;   63.825;  268.000;  406.000
211.275;   26.450;  207.000;  199.000
211.420;  -37.975; -300.000; -289.000
211.566;  -64.175; -536.000; -489.000
211.711;   29.825;  218.000;  157.000
211.856;  -65.000; -545.000; -519.000
212.001;   18.675;  151.000;   44.000
212.146;   28.125;  153.000;   49.000
212.291;  -30.900; -210.000; -186.000
212.436;  -16.100; -280.000;   -6.000
212.581;  -74.475; -685.000; -653.000
212.726;  -74.775; -487.000; -538.000
212.871;  -55.925; -552.000; -217.000
213.016; -150.600;-1172.000;-1029.000
213.161;   59.375;  406.000;  291.000
213.306;  -82.150; -435.000; -577.000
213.451;  -98.975; -778.000; -689.000
213.596;  -54.000; -455.000; -347.000
213.741;  -63.700; -448.000; -538.000
213.886;  -68.775; -498.000; -517.000
214.031;  -24.425; -294.000; -124.000
214.176;  -47.650; -408.000; -341.000
214.321;  -20.150; -296.000; -157.000
214.466;  -26.200; -163.000;  -43.000
214.611;    4.525;  -61.000;  -10.000
214.756; -117.600; -948.000; -858.000
214.901;  -17.250; -388.000; -226.000
215.046; -122.525; -797.000; -825.000
215.191;   32.625;  128.000;   35.000
215.336;   -6.000; -157.000;  -19.000
215.480;  -63.875; -684.000; -505.000
215.625;   -7.425; -175.000;  -19.000
215.770;  -70.575; -757.000; -662.000
215.915;    7.275;   -5.000;  -97.000
216.060;   -7.150; -113.000;  -21.000
216.205; -108.475; -731.000; -779.000
216.349;  -60.025; -470.000; -533.000
216.494; -127.075; -939.000; -867.000
216.639; -115.350; -823.000; -888.000
216.784;  -83.875; -577.000; -525.000
216.929;   56.725;  392.000;  281.000
217.073;   -5.900; -244.000;  -31.000
217.218;   13.750;   78.000;  -47.000
217.363;  -80.650; -656.000; -618.000
217.507;  -79.400; -623.000; -588.000
217.652; -113.125; -845.000; -874.000
217.797;  -94.700; -708.000; -659.000
217.942; -108.650; -856.000; -720.000
218.086;   75.625;  608.000;  539.000
218.231;  -11.250; -174.000;  -26.000
218.376;  -22.100; -337.000; -229.000
218.520;   -4.200;  -41.000;   96.000
218.665;  -34.525; -338.000; -204.000
218.810;  -36.200; -275.000; -233.000
218.954;   11.850;  201.000;   35.000
219.099; -102.950; -713.000; -963.000
219.243;  -67.550; -589.000; -554.000
219.388;  -24.250; -264.000; -136.000
219.532;   -4.275; -116.000; -116.000
219.677;  -76.825; -564.000; -521.000
219.822;   12.600;   33.000;   89.000
219.966;   -2.300;   17.000;  -99.000
220.111;  -32.975; -328.000;  -40.000
220.255; -101.300; -797.000; -750.000
220.400;  -14.200; -180.000; -146.000
220.544;  -67.325; -516.000; -450.000
220.689;  -47.875; -422.000; -451.000
220.833;  -26.625; -123.000;  -58.000
220.978;  -50.075; -393.000; -563.000
221.122;   27.300;  319.000;  307.000
221.267; -121.525; -906.000; -837.000
221.411;  -73.200; -478.000; -394.000
221.555;  -12.575; -104.000;  -23.000
221.700;  -43.925; -329.000; -222.000
221.844;   39.150;  255.000;  272.000
221.989;  -48.800; -328.000; -311.000
222.133;  -44.325; -289.000; -307.000
222.277;   -7.725;    5.000;   78.000
222.422;   11.325;  227.000;  113.000
222.566;  -35.550; -381.000; -214.000
222.711;  -61.350; -414.000; -479.000
222.855;  -98.575; -643.000; -586.000
222.999;  -92.925; -642.000; -717.000
223.144;  -25.875; -195.000; -194.000
223.288;   43.575;  423.000;  251.000
223.432;   31.150;  184.000;  230.000
223.576;   27.525;  152.000;  -21.000
223.721;   39.550;  364.000;  273.000
223.865;  -50.250; -472.000; -475.000
224.009;  234.225; 1673.000; 1631.000
224.153;  -90.675; -660.000; -671.000
224.298;  -79.475; -531.000; -489.000
224.442;  -18.175;  -74.000;  -33.000
224.586;  -14.025; -169.000; -106.000
224.730;  -92.450; -858.000; -670.000
224.875;  -94.750; -739.000; -688.000
225.019;   17.025;  102.000;  188.000
225.163;   59.075;  208.000;  341.000
225.307;    6.275;   97.000;  -91.000
225.451;   44.875;  360.000;  481.000
225.595;   34.600;  264.000;  176.000
225.739;  -26.825; -170.000;  -94.000
225.884;    7.450;   86.000;    5.000
226.028;  -94.800; -760.000; -626.000
226.172;  -29.650; -260.000; -273.000
226.316; -117.225; -941.000; -902.000
226.460;  -61.075; -645.000; -493.000
226.604;  -40.675; -406.000; -400.000
226.748;  -94.125; -836.000; -733.000
226.892;  -21.775; -227.000; -181.000
227.036;  -55.575; -537.000; -447.000
227.180;  -46.300; -551.000; -375.000
227.324;  -72.600; -561.000; -580.000
227.468; -118.075; -819.000; -717.000
227.612;    8.725;  242.000;  -28.000
227.756;  -90.250; -845.000; -698.000
227.900;   61.050;  342.000;  441.000
228.044;  -62.325; -509.000; -290.000
228.188;   57.725;  448.000;  568.000
228.332;  -75.375; -546.000; -472.000
228.476;  -32.750; -223.000; -149.000
228.620;  -35.600; -210.000; -150.000
228.764;   68.400;  431.000;  349.000
228.908;  -21.200; -155.000;   30.000
229.052;  -50.300; -615.000; -528.000
229.195;  -22.900; -172.000;   13.000
229.339;  -21.350; -235.000; -305.000
229.483;  -12.925;    5.000; -162.000
229.627;    3.350; -156.000;  139.000
229.771;  -47.275; -218.000; -294.000
229.915;    6.625;  230.000;   79.000
230.059; -100.550; -648.000; -663.000
230.202;  -35.425; -370.000; -317.000
230.346;  -19.025; -107.000;  107.000
230.490;  -65.600; -489.000; -521.000
230.634; -105.000; -736.000; -553.000
230.777;   73.500;  478.000;  509.000
230.921;  -53.900; -450.000; -359.000
231.065;  -39.400; -246.000; -286.000
231.209;   32.250;  261.000;  265.000
231.352;   10.650;   54.000;   40.000
231.496;   12.225;  568.000;  188.000
231.640;  -80.050; -693.000; -621.000
231.783;   68.675;  546.000;  525.000
231.927;  -46.000; -294.000; -365.000
232.071; -123.400; -962.000; -736.000
232.214; -100.675; -980.000; -764.000
232.358; -103.900; -683.000; -599.000
232.502;    4.825;  -19.000;    7.000
232.645; -126.875;-1090.000; -927.000
232.789;  -20.225; -257.000; -218.000
232.933;  -42.325; -407.000; -224.000
233.076; -129.175;-1038.000; -897.000
233.220; -109.600; -752.000; -777.000
233.363;  -72.625; -669.000; -477.000
233.507;   63.050;  371.000;  129.000
233.650;  -84.375; -764.000; -834.000
233.794;   49.775;  438.000;  461.000
233.938;  -46.900; -530.000; -362.000
234.081;  -16.350;  -93.000;   31.000
234.225;  -58.875; -631.000; -539.000
234.368; -110.650; -773.000; -723.000
234.512;  -45.975; -385.000; -299.000
234.655;  -89.125; -582.000; -555.000
234.798;  -51.675; -493.000; -466.000
234.942; -128.425; -884.000;-1002.000
235.085;  -75.950; -651.000; -443.000
235.229;  -74.350; -405.000; -410.000
235.372;  -45.775; -247.000; -191.000
235.516;  -46.550; -397.000; -321.000
235.659;    7.950;   92.000;  121.000
235.802;   -8.950;  -38.000;  -22.000
235.946;   39.700;  335.000;  215.000
236.089;   27.800;  126.000;  250.000
236.233;   43.725;  275.000;  298.000
236.376;  -54.725; -235.000; -378.000
236.519;  -42.075; -297.000; -319.000
236.663;  -14.925; -215.000; -117.000
236.806; -136.000;-1029.000; -999.000
236.949;   58.200;  543.000;  431.000
237.092;   46.775;  412.000;  391.000
237.236;  -82.675; -589.000; -502.000
237.379;   62.575;  352.000;  428.000
237.522; -111.500; -879.000; -768.000
237.666;  -27.150; -271.000;   18.000
237.809; -126.650; -851.000; -823.000
237.952;   50.150;  469.000;  271.000
238.095;  -64.450; -447.000; -442.000
238.238;   81.300;  688.000;  700.000
238.382;    4.475;  166.000;  103.000
238.525;  -68.925; -598.000; -511.000
238.668; -148.800;-1060.000; -985.000
238.811;  -95.175; -638.000; -643.000
238.954;  -59.225; -483.000; -334.000
239.097;  102.475;  617.000;  664.000
239.241;   28.350;  394.000;  326.000
239.384;  -41.900; -254.000; -214.000
239.527;  -60.625; -424.000; -224.000
239.670; -139.600; -994.000;-1091.000
239.813; -101.900; -696.000; -658.000
239.956;   78.650;  579.000;  473.000
240.099; -117.025; -778.000; -725.000
240.242;   61.275;  428.000;  432.000
240.385;   36.325;  466.000;  450.000
240.528;  -74.900; -706.000; -473.000
240.671;   18.125;  189.000;  134.000
240.814;  -35.950; -441.000; -158.000
240.957;  -98.975; -767.000; -578.000
241.100;  -97.525; -779.000; -755.000
241.243; -144.100;-1234.000; -893.000
241.386;  -56.975; -508.000; -379.000
241.529;  -80.975; -735.000; -547.000
241.672;  -61.150; -566.000; -495.000
241.815; -121.800; -832.000; -808.000
241.958;  -22.325; -125.000; -182.000
242.101;  -78.950; -545.000; -390.000
242.244;  -41.950; -270.000; -325.000
242.387;  -54.975; -304.000; -246.000
242.530;   52.800;  470.000;  134.000
242.673;  -60.200; -381.000; -309.000
242.815; -118.775; -925.000; -899.000
242.958;  -73.100; -482.000; -381.000
243.101;    6.700;  132.000;  187.000
243.244;  -80.225; -564.000; -521.000
243.387;  -36.600; -313.000; -316.000
243.530;  -98.675; -657.000; -674.000
243.672;   16.000;   43.000;  -92.000
243.815;  -40.400; -355.000; -283.000
243.958;    7.500;   98.000;  -26.000
244.101;    6.425;   59.000;  -16.000
244.243;  -20.925;  -47.000;  101.000
244.386; -105.450; -761.000; -630.000
244.529;  -18.325; -132.000; -139.000
244.672; -157.400;-1154.000; -951.000
244.814;  -91.025; -621.000; -794.000
244.957;  -62.575; -380.000; -304.000
245.100;  -78.725; -489.000; -489.000
245.242;  -60.650; -387.000; -374.000
245.385;    1.825;  -59.000;  -39.000
245.528; -119.500; -871.000; -705.000
245.670;   92.375;  612.000;  634.000
245.813;  -74.300; -599.000; -547.000
245.956;  -30.225; -324.000; -275.000
246.098;  -67.650; -508.000; -650.000
246.241;   -0.175;  194.000;   48.000
246.383;  -21.650; -119.000;  -73.000
246.526;  -83.175; -454.000; -525.000
246.669; -126.825; -889.000; -780.000
246.811;   16.150;  172.000;   -1.000
246.954;  -63.600; -512.000; -426.000
247.096;   -6.800;  -84.000;   -6.000
247.239;  -60.125; -482.000; -445.000
247.381;  -76.400; -647.000; -488.000
247.524;   90.000;  645.000;  679.000
247.666;    0.025;   58.000;   11.000
247.809; -122.675; -887.000; -691.000
247.951;  -12.900;  -75.000;  138.000
248.094;   34.900;  432.000;  308.000
248.236; -152.950;-1262.000;-1238.000
248.378;   11.925; -356.000;  -81.000
248.521;  -18.725; -334.000; -337.000
248.663;  -44.925; -236.000; -267.000
248.806;  -13.000; -300.000; -266.000
248.948;  -79.025; -886.000; -763.000
249.090;  -44.400; -428.000; -398.000
249.233;  -54.475; -344.000; -381.000
249.375;  -68.250; -474.000; -451.000
249.518;  -30.025;  -83.000; -133.000
249.660;    0.550; -103.000;    3.000
249.802; -167.650;-1303.000;-1189.000
249.945;  -77.975; -612.000; -540.000
250.087; -111.675; -834.000; -768.000
250.229;  -44.800; -362.000; -480.000
250.371;  -72.075; -494.000; -439.000
250.514;  -41.375; -310.000; -244.000
250.656;  -59.500;   69.000;  102.000
250.798; -111.875; -849.000; -800.000
250.940;  -63.775; -322.000; -322.000
251.083;  -29.625; -335.000; -111.000
251.225;   61.925;  338.000;  310.000
251.367;  -39.750; -274.000; -373.000
251.509;  -24.725; -265.000; -210.000
251.651; -109.450; -731.000; -671.000
251.794;   41.975;  538.000;  632.000
251.936; -109.050; -821.000; -747.000
252.078;  -87.400; -540.000; -461.000
252.220;  -62.450; -645.000; -477.000
252.362;   77.575;  344.000;  462.000
252.504;  -52.900; -677.000; -584.000
252.646;  -96.175; -875.000; -722.000
252.788;    5.100;   14.000; -128.000
252.931;  -42.450; -257.000; -253.000
253.073;  -34.175; -376.000; -317.000
253.215;  -11.775;  141.000;  122.000
253.357;  -16.825;   82.000; -153.000
253.499;  -52.850; -374.000; -234.000
253.641;  -87.825; -749.000; -594.000
253.783; -101.300; -609.000; -527.000
253.925;  -94.675; -586.000; -591.000
254.067; -109.250; -744.000; -667.000
254.209;  -32.950; -391.000; -259.000
254.351; -128.550; -865.000; -883.000
254.493;  -62.600; -441.000; -417.000
254.635; -124.850; -936.000; -818.000
254.777;  -85.950; -752.000; -687.000
254.918;  -76.675; -512.000; -430.000
255.060;  -50.450; -551.000; -395.000
255.202;  -59.550; -473.000; -261.000
255.344;  -83.450; -658.000; -455.000
255.486;  -59.775; -471.000; -406.000
255.628; -109.375; -780.000; -781.000
255.770;  -95.325; -676.000; -536.000
255.912;  -67.350; -559.000; -468.000
256.053;  -89.300; -730.000; -508.000
256.195;  155.625; 1008.000;  903.000
256.337;  -98.525; -861.000; -595.000
256.479;   66.500;  532.000;  416.000
256.621;  -52.325; -394.000; -212.000
256.762; -109.225; -789.000; -742.000
256.904;   46.725;  485.000;  487.000
257.046;  -53.350; -381.000; -271.000
257.188;  -41.025; -351.000; -264.000
257.329;  -85.875; -525.000; -464.000
257.471; -124.475; -939.000; -807.000
257.613;  -56.975; -584.000; -498.000
257.755; -149.000;-1073.000; -982.000
257.896;   31.125;  286.000;  392.000
258.038;  -76.975; -403.000; -352.000
258.180;  -44.075; -354.000; -279.000
258.321;  -78.300; -581.000; -457.000
258.463;   -1.300;  -71.000;  133.000
258.605;  -95.025; -562.000; -570.000
258.746; -112.450; -886.000; -772.000
258.888; -147.525;-1026.000;-1020.000
259.029;   28.300;  121.000;   -8.000
259.171;  -95.075; -614.000; -550.000
259.313;   -1.675;  -49.000;  -47.000
259.454;  -74.375; -536.000; -414.000
259.596;  -72.075; -483.000; -390.000
259.737;  -72.400; -590.000; -474.000
259.879;   32.775;  217.000;  311.000
260.020;   87.875;  901.000;  636.000
260.162;  -32.500; -146.000; -253.000
260.303; -119.450; -768.000; -687.000
260.445;  -76.425; -609.000; -613.000
260.586;   24.675;  392.000;  157.000
260.728;  -42.175; -360.000; -248.000
260.869; -114.925; -350.000; -343.000
261.011;   75.275;  706.000;  537.000
261.152;  -64.750; -479.000; -319.000
261.293;  -82.050; -576.000; -595.000
261.435;  -24.825; -219.000; -184.000
261.576;  -45.100; -455.000; -325.000
261.718;   39.500;  420.000;  470.000
261.859; -138.675; -940.000; -949.000
262.000; -139.175; -951.000;-1016.000
262.142;  -21.150;  -52.000;  -60.000
262.283; -115.125; -808.000; -691.000
262.424;  -88.825; -666.000; -625.000
262.566; -148.125;-1161.000; -983.000
262.707; -112.925; -840.000; -830.000
262.848; -119.825; -769.000; -726.000
262.990;  -43.225; -362.000; -345.000
263.131;   72.500;  650.000;  681.000
263.272;   -3.675;  -61.000;  -41.000
263.413;  -81.875; -589.000; -561.000
263.555;  -66.425; -669.000; -143.000
263.696;  -84.175; -550.000; -641.000
263.837;  -55.750; -449.000; -551.000
263.978;   -8.350;   -5.000;  -77.000
264.119;  -59.925; -283.000; -264.000
264.261;  -97.675; -847.000; -630.000
264.402;    6.250;   33.000;   40.000
264.543;  -83.350; -509.000; -524.000
264.684;  -14.325;   61.000;  -50.000
264.825;  -73.600; -816.000; -538.000
264.966;   -7.625;  -84.000;  -67.000
265.107; -112.725; -646.000; -670.000
265.248; -129.875; -825.000; -812.000
265.390;   -6.500;  152.000;   -9.000
265.531;  -15.175; -238.000; -107.000
265.672;  -91.625; -557.000; -630.000
265.813;   70.375;  563.000;  439.000
265.954; -128.000; -959.000; -940.000
266.095;  -13.175; -372.000; -322.000
266.236;  -95.225; -686.000; -548.000
266.377;  -44.725; -243.000; -297.000
266.518;  -66.150; -619.000; -547.000
266.659;   24.050;  170.000;  268.000
266.800;    4.050;   83.000;   85.000
266.941;  -81.400; -487.000; -478.000
267.082;   13.025;  354.000;   99.000
267.223;  -48.225; -344.000; -273.000
267.364; -123.775; -892.000; -686.000
267.504;   -7.625;    3.000;  135.000
267.645;   -9.675;  160.000;   67.000
267.786;  -21.675; -147.000;  -86.000
267.927;  -75.050; -473.000; -379.000
268.068;  -19.100; -186.000;  -61.000
268.209;  -55.850; -175.000; -413.000
268.350;  -65.700; -388.000; -532.000
268.490;  -86.525; -648.000; -521.000
268.631;   20.225;  127.000;  225.000
268.772; -113.450; -874.000; -647.000
268.913;  -50.200; -328.000; -476.000
269.054;  -17.875; -117.000;   12.000
269.194;  -39.825; -418.000; -402.000
269.335; -156.250;-1137.000;-1074.000
269.476;  -22.800;   33.000;  -35.000
269.617;  -39.425; -347.000; -392.000
269.757;  -91.400; -713.000; -646.000
269.898; -101.775; -856.000; -613.000
270.039;  -65.825; -415.000; -405.000
270.180; -136.125; -952.000; -816.000
270.320;  -30.100; -190.000; -250.000
270.461;  -36.175; -277.000; -249.000
270.602;  -27.425; -186.000; -156.000
270.742; -135.850; -868.000; -943.000
270.883;  -57.575; -442.000; -390.000
271.023;  -45.425; -358.000; -357.000
271.164;  -81.100; -607.000; -528.000
271.305; -102.125; -666.000; -654.000
271.445;  -89.075; -722.000; -683.000
271.586;  -67.625; -462.000; -283.000
271.726;  -46.400; -397.000; -322.000
271.867;  -54.650; -594.000; -534.000
272.008;  164.150; -473.000; -285.000
272.148;  120.950;  462.000;  468.000
272.289;   23.000; -113.000; -181.000
272.429;   10.250;   19.000;  185.000
272.570;  -93.000; -633.000; -737.000
272.710; -113.450; -825.000; -775.000
272.851;  -16.175;  113.000; -130.000
272.991; -158.875;-1173.000;-1077.000
273.131;  -73.725; -419.000; -459.000
273.272; -105.225; -683.000; -723.000
273.412;    9.850; -143.000;  -31.000
273.553;  -57.900; -488.000; -507.000
273.693;  130.875;  913.000;  858.000
273.834;  -89.800; -894.000; -692.000
273.974;  -74.825; -664.000; -615.000
274.114;  -90.350; -772.000; -560.000
274.255;   94.425;  414.000;  373.000
274.395;    0.700; -180.000; -125.000
274.535;   42.325;  199.000;  350.000
274.676;    8.225;  225.000;   94.000
274.816;   -4.950;  110.000;   34.000
274.956;  -83.875; -624.000; -690.000
275.097;  -80.550;-1014.000; -922.000
275.237; -108.550; -913.000; -803.000
275.377;  -99.225; -778.000; -689.000
275.517; -142.750; -878.000; -937.000
275.658;  -67.025; -590.000; -555.000
275.798;  -57.450; -606.000; -413.000
275.938;   15.100;  215.000;  323.000
276.078; -101.175; -626.000; -395.000
276.218;    5.100;   99.000;  104.000
276.359; -130.950;-1026.000;-1024.000
276.499;  -67.950; -605.000; -446.000
276.639;  -34.775; -305.000; -151.000
276.779;  -57.975; -475.000; -357.000
276.919; -110.800; -783.000; -624.000
277.059;  -25.450; -261.000; -212.000
277.199;  -35.325; -357.000; -259.000
277.340;   31.250;  287.000;  175.000
277.480; -109.275; -840.000; -693.000
277.620;   36.350;  192.000;   16.000
277.760; -199.150;-1533.000;-1294.000
277.900;    8.025;  113.000;   33.000
278.040;   10.000;  137.000;  159.000
278.180;   31.550;  270.000;  170.000
278.320;   11.350;   21.000;   56.000
278.460;  -73.525; -443.000; -469.000
278.600;  -98.350; -708.000; -598.000
278.740;   50.550;  448.000;  224.000
278.880;  -63.425; -768.000; -791.000
279.020;   -4.275; -194.000; -144.000
279.160;  -98.250; -672.000; -595.000
279.300; -113.525; -926.000; -873.000
279.440;  -91.500; -709.000; -622.000
279.579;  -26.350;-1014.000; -929.000
279.719;  -55.275; -410.000; -394.000
279.859;   73.900;   -4.000;   41.000
279.999;   19.000; -208.000;  101.000
280.139;  -13.950; -435.000; -387.000
280.279;  -86.900; -708.000; -745.000
280.419;  -15.775; -229.000; -147.000
280.559;  -38.325; -259.000; -180.000
280.698;  -80.700; -790.000; -639.000
280.838;  -96.250; -778.000; -800.000
280.978;  -97.425; -846.000; -790.000
281.118; -123.150; -811.000; -704.000
281.257;  -14.175;   24.000;    6.000
281.397; -117.375;-1094.000; -960.000
281.537; -103.050; -599.000; -712.000
281.677;  -30.800; -150.000; -101.000
281.816;  -81.075; -700.000; -630.000
281.956;  -33.000; -193.000; -257.000
282.096;  -63.600; -539.000; -396.000
282.235; -114.850; -672.000; -638.000
282.375;  -18.225; -243.000;  -98.000
282.515;  -99.825; -715.000; -707.000
282.654;   17.925;   29.000;  106.000
282.794;   21.800;  388.000;  244.000
282.934;  -64.475; -530.000; -491.000
283.073; -128.750;-1030.000; -857.000
283.213;  -55.200; -460.000; -467.000
283.353;  -43.950; -408.000; -349.000
283.492;  -35.800; -264.000; -296.000
283.632;  -52.775; -254.000; -168.000
283.771;  -95.175; -859.000; -730.000
283.911;  -47.525; -369.000; -260.000
284.050;  -87.625; -794.000; -748.000
284.190; -148.100;-1229.000;-1096.000
284.329; -149.350;-1055.000; -964.000
284.469;  -73.550; -516.000; -591.000
284.608;  -56.025; -559.000; -598.000
284.748;  -96.825; -614.000; -570.000
284.887;   -6.675;  -87.000;  -20.000
285.027; -126.350; -844.000; -892.000
285.166;  -32.225; -192.000; -249.000
285.306;   -6.025; -116.000;  -33.000
285.445;  -48.350; -229.000; -343.000
285.584;  -87.225; -630.000; -494.000
285.724;  -52.100; -282.000; -322.000
285.863; -111.675; -857.000; -507.000
286.002;  -46.625; -366.000; -276.000
286.142; -102.275; -715.000; -622.000
286.281;  -73.675; -525.000; -493.000
286.420;  -80.975; -554.000; -417.000
286.560;   97.775;  653.000;  623.000
286.699; -135.675; -958.000; -912.000
286.838;  -95.100; -590.000; -591.000
286.978;  -92.275; -533.000; -537.000
287.117; -132.725;-1085.000; -950.000
287.256;  -41.825; -228.000; -211.000
287.395;  -54.950; -197.000; -378.000
287.535;  -55.425; -370.000; -298.000
287.674;  -71.500; -509.000; -484.000
287.813;   61.275;  661.000;  533.000
287.952; -117.050;-1010.000; -871.000
288.091; -156.375;-1049.000; -915.000
288.231;   11.625;   13.000;   15.000
288.370; -169.300;-1217.000;-1200.000
288.509;  -92.275; -728.000; -645.000
288.648;  -86.650; -770.000; -548.000
288.787;  -30.950; -243.000;  -87.000
288.926;  -60.775; -454.000; -475.000
289.065;  108.425;  859.000;  672.000
289.204;  -68.475; -377.000; -217.000
289.344;  -90.375; -791.000; -690.000
289.483;   19.050;  416.000;  304.000
289.622;  -28.625; -291.000; -149.000
289.761;  -15.550; -309.000; -166.000
289.900; -108.950; -785.000; -626.000
290.039;  -21.900;  -12.000;  -95.000
290.178;  -39.325; -274.000; -180.000
290.317;  -92.675; -618.000; -479.000
290.456;  -64.950; -463.000; -451.000
290.595; -142.950; -961.000; -833.000
290.734; -135.750; -904.000; -891.000
290.873;  -74.525; -456.000; -420.000
291.011; -100.300; -833.000; -843.000
291.150;  -94.275; -770.000; -682.000
291.289;  -25.475; -343.000; -110.000
291.428;  -97.900; -599.000; -480.000
291.567;  -58.425; -370.000; -442.000
291.706;    3.825;  109.000;  154.000
291.845;  -84.575; -597.000; -505.000
291.984; -165.100;-1234.000;-1061.000
292.122;   74.850;  602.000;  582.000
292.261;   40.425;  620.000;  463.000
292.400;    4.375; -144.000;  211.000
292.539; -121.425; -959.000; -813.000
292.678;  -36.175; -325.000; -300.000
292.816; -153.275;-1136.000; -965.000
292.955;  -83.125; -844.000; -684.000
293.094;  -29.425; -173.000; -337.000
293.233;  -57.350; -556.000; -400.000
293.371;  -21.675; -225.000;  -84.000
293.510; -113.825; -866.000; -780.000
293.649; -125.375; -959.000; -924.000
293.787;  -59.250;-1083.000;-1012.000
293.926;    8.625; -113.000;  -32.000
294.065;  -45.125; -379.000; -290.000
294.203;   39.525;  298.000;  406.000
294.342;   23.825;   74.000;  156.000
294.481; 5401.450;51180.000; -836.000
294.619;  -43.825; -425.000; -582.000
294.758; -142.350;-1230.000;-1137.000
294.896;   76.450; -125.000;    5.000
295.035; -125.675;-1040.000;-1006.000
295.174; -115.800;-1082.000; -954.000
295.312;  -42.050; -323.000; -203.000
295.451;   -7.050; -307.000; -428.000
295.589;  -61.375; -389.000; -518.000
295.728;   21.975; -292.000; -165.000
295.866;    4.900;  -36.000;  -51.000
296.005;  -62.525; -584.000; -341.000
296.143;  -70.100; -558.000; -596.000
296.282;  -98.650; -957.000; -881.000
296.420;  -86.350; -657.000; -557.000
296.559;  -89.825; -892.000; -633.000
296.697;    8.525; -847.000; -665.000
296.835;   46.100;-1141.000;-1002.000
296.974;   30.650;  -23.000;   39.000
297.112;    3.275; -443.000; -504.000
297.251;  -69.525; -815.000; -755.000
297.389;   65.225; -576.000; -438.000
297.527;   37.825; -145.000;  -83.000
297.666;  -53.925; -486.000; -438.000
297.804;  -58.825; -404.000; -264.000
297.942;  -23.375; -136.000; -161.000
298.081;   -7.100; -183.000;   63.000
298.219;   46.275;  -17.000;  -19.000
298.357;   45.750; -144.000;  -71.000
298.495;   11.450; -810.000; -812.000
298.634;   68.975;  245.000;  219.000
298.772;   41.900; -220.000; -338.000
298.910;  -45.500; -309.000; -182.000
299.048;   -4.525; -130.000; -153.000
299.187;  -33.075; -350.000; -250.000
299.325;   -4.525;   52.000;  122.000
299.463;   49.775; -389.000; -299.000
299.601;   92.500; -327.000; -271.000
299.739; -101.675; -908.000; -883.000
299.877;  -78.625; -791.000; -703.000
300.016;  -46.875;-1095.000; -935.000
300.154;  152.175;  -19.000; -161.000
300.292;   56.825; -428.000; -348.000
300.430;   23.300; -408.000; -291.000
300.568; -100.000; -940.000; -874.000
300.706;  -48.425; -366.000; -469.000
300.844;  -82.150;-1108.000; -979.000
300.982;  113.375;  246.000;  282.000
301.120;  -97.025; -965.000; -866.000
301.258;  -82.375; -812.000; -705.000
301.396;   22.475;  104.000;  -41.000
301.534;   67.825; -218.000; -293.000
301.672;  -20.300; -664.000; -521.000
301.810;   12.825; -613.000; -545.000
301.948;  119.350;   53.000;  149.000
302.086;  580.175; -250.000;  -32.000
302.224;  867.675; -610.000; -585.000
302.362;   12.450; -558.000; -622.000
302.500;  -27.800; -923.000; -893.000
302.638;  101.050;  128.000;  245.000
302.776;   -2.300; -352.000; -408.000
302.913;   36.975;  447.000;  236.000
303.051;   -0.475;  -86.000;  -23.000
303.189;   48.875;   90.000;  118.000
303.327;  -42.300; -341.000; -256.000
303.465;  -92.850; -832.000; -588.000
303.603; -100.325; -805.000; -604.000
303.740;  103.025;  417.000;  241.000
303.878;   14.750; -800.000; -759.000
304.016;  -94.100; -915.000; -790.000
304.154; -146.550;-1123.000;-1152.000
304.291;  -43.250; -505.000; -554.000
304.429;    2.250;  102.000;   74.000
304.567; -129.425; -908.000; -893.000
304.705;  -44.675; -408.000; -515.000
304.842;   87.775; -616.000; -540.000
304.980;   39.575;  215.000;   35.000
305.118;   30.850; -367.000; -365.000
305.255;  -68.750; -945.000; -927.000
305.393;   63.175;  178.000;  239.000
305.531; -100.675;-1173.000; -956.000
305.668;  -68.800; -663.000; -582.000
305.806;   99.600; -358.000; -439.000
305.943;   88.750; -629.000; -637.000
306.081;   58.475; -378.000; -267.000
306.219;  -96.350; -863.000; -748.000
306.356;    8.375;  158.000;   27.000
306.494;  103.550;  981.000;  761.000
306.631;   -7.050;  -11.000;  -55.000
306.769;   -8.950; -613.000; -485.000
306.906;  -23.550; -284.000; -258.000
307.044;  -68.250; -473.000; -488.000
307.181;  -57.775; -410.000; -332.000
307.319;   13.625;  112.000;   87.000
307.456; -189.250;-1191.000;-1153.000
307.594; -104.700; -980.000; -727.000
307.731;  -20.175; -371.000; -164.000
307.868;  -11.200;  -15.000;   20.000
308.006; -134.850; -961.000; -847.000
308.143;  -69.450; -618.000; -330.000
308.281;  127.725;  -37.000; -254.000
308.418;  -22.425; -748.000; -640.000
308.555;  -78.075; -400.000; -250.000
308.693;  -72.075; -577.000; -573.000
308.830; -116.175; -712.000; -657.000
308.967;  -13.750; -215.000;  -95.000
309.105;  -57.925; -507.000; -396.000
309.242;    6.725; -468.000; -367.000
309.379;  247.475; -577.000; -655.000
309.517;  -66.800; -936.000; -948.000
309.654; -107.100; -910.000; -734.000
309.791;  -74.400; -662.000; -580.000
309.928; -113.550; -977.000; -914.000
310.065;  174.275;  819.000;  697.000
310.203;  -21.025; -825.000; -850.000
310.340;  -19.000; -465.000; -321.000
310.477;  -73.200; -412.000; -516.000
310.614;  -70.900; -383.000; -473.000
310.751;  -82.750; -427.000; -518.000
310.889;  -25.975;    1.000;   11.000
311.026; -156.450;-1161.000; -939.000
311.163;  -60.050; -386.000; -380.000
311.300;  -70.825; -512.000; -479.000
311.437;  -82.600; -658.000; -619.000
311.574; -157.625;-1226.000; -985.000
311.711;  -65.775; -595.000; -433.000
311.848;  -46.150; -380.000; -388.000
311.985;   19.500;  270.000;   93.000
312.122; -124.500; -932.000; -762.000
312.259; -132.475; -941.000; -994.000
312.396;  -72.175; -508.000; -551.000
312.533;  -88.800; -812.000; -790.000
312.670; -139.625;-1070.000; -898.000
312.807;  -41.500; -352.000; -367.000
312.944;  -88.500; -513.000; -611.000
313.081;  -42.750; -150.000; -415.000
313.218;  -98.425;-1111.000; -867.000
313.355;    6.525; -531.000; -449.000
313.492;   -7.225; -455.000; -292.000
313.629;  136.800;  815.000;  735.000
313.766; -161.250;-1176.000;-1008.000
313.902;  -24.000; -186.000;   21.000
314.039;  -54.300; -372.000; -289.000
314.176;   21.225;  286.000;  192.000
314.313;  -87.900; -569.000; -473.000
314.450;  -72.725; -788.000; -684.000
314.587;  -50.525; -468.000; -480.000
314.723;   -2.575;  -78.000;  130.000
314.860;   22.950;  318.000;  332.000
314.997;   26.750;  223.000;  142.000
315.134;  -40.075; -385.000; -368.000
315.270;  -32.900; -480.000; -496.000
315.407; -133.525;-1094.000; -967.000
315.544;  -49.875; -657.000; -538.000
315.681;  -71.050; -681.000; -565.000
315.817;   24.800; -133.000; -176.000
315.954;    5.500; -613.000; -392.000
316.091; -127.100;-1045.000;-1023.000
316.227;  -20.975;  -71.000; -179.000
316.364;  -22.250;   23.000;    6.000
316.500;  -42.975; -113.000; -300.000
316.637;  -46.200; -181.000; -302.000
316.774;  -97.975; -625.000; -358.000
316.910;  -94.500; -598.000; -629.000
317.047;  -74.950; -487.000; -351.000
317.183;  -49.150; -435.000; -566.000
317.320;  -16.300; -367.000; -321.000
317.456;  -74.050; -733.000; -805.000
317.593;  -84.650; -598.000; -641.000
317.729;    3.750;  168.000;  -67.000
317.866; -194.325;-1434.000;-1285.000
318.002; -100.350; -708.000; -948.000
318.139; -103.350; -883.000; -867.000
318.275; -117.275;-1003.000; -738.000
318.412;  -66.575; -517.000; -336.000
318.548;  -35.175; -751.000; -720.000
318.685;  -96.850; -985.000; -888.000
318.821;  -87.700; -762.000; -735.000
318.957;  -18.575;   34.000;  -23.000
319.094;   33.225;  297.000;  154.000
319.230;  -56.825; -756.000; -742.000
319.367;  109.875; -471.000; -520.000
319.503;   45.625; -538.000; -436.000
319.639;  -98.000; -877.000; -793.000
319.775;  -68.025; -750.000; -685.000
319.912;  -62.000; -424.000; -519.000
320.048;  -95.700;-1184.000;-1184.000
320.184;   76.550;   59.000;   70.000
320.321;  -56.300; -497.000; -467.000
320.457;   75.125;  475.000;  662.000
320.593;  -67.750; -375.000; -382.000
320.729; -102.875; -732.000; -734.000
320.866;  -88.625; -577.000; -635.000
321.002;  -83.975; -759.000; -809.000
321.138;  -10.900; -135.000; -211.000
321.274;   60.625; -148.000; -115.000
321.410;  -30.975; -585.000; -353.000
321.546;  -35.550;-1011.000; -911.000
321.683;   45.625;  400.000;  185.000
321.819;    6.600;  -48.000; -117.000
321.955; -103.150; -743.000; -722.000
322.091;  -40.300; -585.000; -540.000
322.227;   -4.475; -382.000; -202.000
322.363;  -26.675; -320.000; -215.000
322.499;  -46.950; -343.000; -331.000
322.635;  144.550;  636.000;  443.000
322.771;   15.550; -139.000;   12.000
322.907;   73.400;  129.000;  327.000
323.043;  -26.450; -115.000; -206.000
323.179;  -46.250; -394.000; -363.000
323.315;    7.100; -401.000; -371.000
323.451;   67.800; -328.000; -236.000
323.587;   43.100;  -60.000;  -77.000
323.723;    4.800; -682.000; -601.000
323.859;   -2.050; -258.000;  -76.000
323.995;  -30.250; -467.000; -409.000
324.131; -125.975; -967.000; -892.000
324.267;  -34.825; -254.000; -276.000
324.402; -127.600; -960.000; -983.000
324.538;  -28.225; -279.000; -104.000
324.674;   13.650;  164.000;   77.000
324.810;  117.400;  226.000;  308.000
324.946;  -11.150; -810.000; -658.000
325.082;  -74.450; -568.000; -475.000
325.217;   -7.075;  -62.000;   16.000
325.353; -101.250; -764.000; -659.000
325.489;  -91.850; -540.000; -506.000
325.625;  -75.300; -579.000; -525.000
325.760;   67.525;  517.000;  376.000
325.896;  -32.575; -515.000; -702.000
326.032;  -53.600; -403.000; -352.000
326.168;  -70.825; -462.000; -369.000
326.303;  -57.400; -352.000; -461.000
326.439;  -13.875; -336.000; -276.000
326.575;    7.100; -190.000;  -29.000
326.710;  -24.725; -156.000;  -30.000
326.846;    5.700;  146.000;  103.000
326.982;  -93.375; -530.000; -548.000
327.117;  -81.875; -481.000; -442.000
327.253;  -91.150; -745.000; -742.000
327.388; -138.050;-1137.000;-1153.000
327.524;  -61.125; -811.000; -578.000
327.659;  -25.275;  -58.000;  -22.000
327.795;  -28.425;   69.000;   45.000
327.931;  -80.575; -723.000; -499.000
328.066;  -21.825; -417.000; -276.000
328.202;  -19.475;   12.000; -129.000
328.337;  106.675;  957.000;  713.000
328.473;   32.300;  -12.000;  -74.000
328.608;  -25.900; -256.000; -267.000
328.743;  -90.475; -799.000; -664.000
328.879;   14.900;  214.000;  114.000
329.014;  -27.750; -102.000; -122.000
329.150;  -77.375; -358.000; -483.000
329.285;  -71.225; -465.000; -466.000
329.421;  -59.350; -548.000; -246.000
329.556;  -29.525;  -36.000;   85.000
329.691;  -97.450; -633.000; -615.000
329.827;  -82.325; -626.000; -480.000
329.962;  -43.650;  131.000; -301.000
330.097;  -90.150; -673.000; -585.000
330.233;  -46.575; -410.000; -223.000
330.368; -125.875; -839.000; -628.000
330.503;  -16.475;    3.000;   98.000
330.638;   -5.825;  -93.000; -125.000
330.774;  -71.200; -609.000; -530.000
330.909;  -47.250; -434.000; -244.000
331.044;  -96.675; -714.000; -708.000
331.179; -174.450;-1217.000;-1109.000
331.315;    0.475;   77.000;   20.000
331.450;    8.375;  157.000;  285.000
331.585;  -99.300; -805.000; -706.000
331.720;  -90.700; -510.000; -460.000
331.855;   -5.475;  -35.000; -102.000
331.990;  248.100;   62.000;  138.000
332.126;  125.275; -110.000;   71.000
332.261;  -18.125; -379.000; -265.000
332.396;   -8.325; -135.000; -242.000
332.531;  -96.800;-1074.000;-1031.000
332.666;   32.650; -519.000; -363.000
332.801; -104.725; -726.000; -807.000
332.936;  -23.700; -192.000; -122.000
333.071; -153.400; -870.000; -817.000
333.206;   20.475;  307.000;  379.000
333.341;   20.575;  344.000;  418.000
333.476;  -97.000; -627.000; -623.000
333.611;  -37.350; -251.000; -173.000
333.746;  -61.350; -381.000; -464.000
333.881; -131.525; -973.000; -935.000
334.016; -131.925; -936.000; -917.000
334.151; -128.500; -746.000; -702.000
334.286;   20.500;  152.000;  186.000
334.421;  -35.100; -125.000; -178.000
334.556;  -78.825; -611.000; -567.000
334.690;  -91.925; -631.000; -577.000
334.825;   63.725;  381.000;   83.000
334.960;  -51.050; -285.000; -413.000
335.095;    3.800;  135.000;  -91.000
335.230;  -98.100; -722.000; -738.000
335.365; -131.500;-1084.000; -990.000
335.499; -130.275;-1108.000;-1037.000
335.634;   17.650;    9.000;  534.000
335.769; -104.300; -755.000; -720.000
335.904;  -58.275; -603.000; -561.000
336.038;  -55.750; -735.000; -657.000
336.173; -126.675;-1206.000;-1194.000
336.308;   -5.175; -116.000; -189.000
336.443;   28.775; -544.000; -634.000
336.577;  -89.275; -936.000; -787.000
336.712;   52.400;   -4.000;  -12.000
336.847;  -40.475; -724.000; -607.000
336.981;   49.550; -272.000; -208.000
337.116;  254.800;  615.000;  501.000
337.250;  130.950; -434.000; -421.000
337.385;  264.225; -297.000; -208.000
337.520;   87.550; -632.000; -603.000
337.654;  -47.775; -215.000; -126.000
337.789; -134.450; -989.000; -933.000
337.923;  -33.625; -104.000; -205.000
338.058;  -88.850; -673.000; -738.000
338.192;  -42.325; -611.000; -488.000
338.327;    0.325;  -18.000; -155.000
338.461;  -80.725; -299.000; -469.000
338.596;  -99.875; -780.000; -638.000
338.730;  -94.100; -767.000; -803.000
338.865;   91.275;  -46.000; -140.000
338.999;  -55.350; -846.000; -702.000
339.134;  -32.500; -634.000; -536.000
339.268;   13.850; -741.000; -603.000
339.403;  378.300; -740.000; -775.000
339.537;  118.400; -894.000; -820.000
339.671; -103.850; -829.000; -813.000
339.806;  -53.600; -556.000; -512.000
339.940;   16.950; -261.000; -235.000
340.074;  -99.000; -685.000; -510.000
340.209;  -47.300; -351.000; -230.000
340.343;  -89.625; -517.000; -573.000
340.477;  143.375;  998.000; 1036.000
340.612;  -55.125;-1033.000; -900.000
340.746;  126.300; -199.000; -243.000
340.880;  -79.225; -924.000; -785.000
341.014;  -27.850;  -45.000; -154.000
341.149; -116.375; -756.000; -718.000
341.283; -109.825; -839.000; -754.000
341.417; -105.075;-1124.000; -938.000
341.551;  110.575; -768.000; -708.000
341.685;  -39.975; -633.000; -611.000
341.820;  -60.725; -562.000; -493.000
341.954;  -40.025; -218.000; -349.000
342.088; -144.325;-1102.000;-1019.000
342.222;   46.575;  565.000;  618.000
342.356;  -62.425; -395.000; -335.000
342.490; -101.300; -880.000; -841.000
342.624;  -53.675; -339.000; -242.000
342.758;    2.300; -364.000; -312.000
342.892;  -73.675; -710.000; -585.000
343.026;  -44.750;  -58.000; -116.000
343.160;  -59.425; -426.000; -376.000
343.294;  -96.125; -474.000; -337.000
343.428;  -41.850; -488.000; -448.000
343.562;  -13.625; -172.000;  -23.000
343.696;  -29.750; -385.000; -314.000
343.830;  -19.650; -362.000; -356.000
343.964;   18.450; -231.000; -168.000
344.098;  832.025;  199.000;   70.000
344.232;  680.475; -266.000; -127.000
344.366;   92.275; -567.000; -453.000
344.500;   22.925; -665.000; -744.000
344.634;   22.350; -324.000; -164.000
344.768;  -20.075; -531.000; -341.000
344.902;   19.900;  278.000;  256.000
345.035;  -75.575; -556.000; -496.000
345.169; -135.950; -933.000; -656.000
345.303;  -37.375; -308.000; -482.000
345.437;  -88.025; -826.000; -717.000
345.571;  -74.725; -675.000; -594.000
345.704;  -79.475; -309.000; -532.000
345.838;  -25.650; -331.000; -284.000
345.972;  -32.275; -543.000; -495.000
346.106;  173.300; -179.000; -190.000
346.239;  399.800; -312.000; -243.000
346.373;  -11.125; -343.000; -302.000
346.507; -148.650; -950.000; -962.000
346.640;  121.900;  -30.000;   13.000
346.774;  -58.950; -650.000; -797.000
346.908;  -25.900; -138.000;  -11.000
347.041;  -82.125; -646.000; -593.000
347.175;   13.250;  259.000;   27.000
347.309;  -78.625; -698.000; -628.000
347.442; -110.825; -883.000; -732.000
347.576;  261.625;  670.000;  668.000
347.709;  176.075; -123.000;  -52.000
347.843;  -91.875; -933.000; -825.000
347.976;   26.350;  235.000;  294.000
348.110; -183.375;-1268.000;-1186.000
348.243;  -96.000; -679.000; -772.000
348.377;    2.150;  -26.000;   60.000
348.510;   39.250;  403.000;  540.000
348.644;  -41.450;  -37.000; -159.000
348.777;    5.650;  180.000;  191.000
348.911;  -51.250; -142.000; -112.000
349.044;  144.400;  471.000;  448.000
349.178;  119.800;-1069.000;-1006.000
349.311;  114.975;  141.000;  255.000
349.444;   -1.800; -927.000; -813.000
349.578;  -25.725; -347.000; -200.000
349.711; -112.275; -959.000; -862.000
349.845;  -19.475; -661.000; -591.000
349.978; -155.975;-1224.000;-1137.000
350.111;  -79.775; -546.000; -612.000
350.244;  -78.675; -596.000; -700.000
350.378;   -6.475; -392.000; -393.000
350.511;  -70.225; -393.000; -426.000
350.644; -108.525; -808.000; -806.000
350.778;   -9.500;  168.000;  104.000
350.911;    1.150;  134.000;  140.000
351.044; -110.300; -685.000; -615.000
351.177;  -34.700; -321.000; -281.000
351.310;  -24.000;    3.000; -131.000
351.444;  -90.900; -888.000; -788.000
351.577;   95.400;  140.000;   90.000
351.710;  100.425;  593.000;  417.000
351.843;  -52.450; -165.000;  -77.000
351.976;  -11.675;  149.000;  -79.000
352.109; -101.500; -621.000; -612.000
352.242;  -31.750; -464.000; -419.000
352.376;  -65.900; -580.000; -636.000
352.509;  153.850; -437.000; -356.000
352.642;  -22.050; -654.000; -604.000
352.775;   47.400; -141.000;  -98.000
352.908; -130.550; -933.000; -904.000
353.041;  -95.175; -814.000; -824.000
353.174;  -62.400; -551.000; -424.000
353.307;  -81.275; -753.000; -764.000
353.440;   73.300;  541.000;  453.000
353.573; -114.875; -957.000;-1008.000
353.706;  -73.775; -384.000; -558.000
353.839;  -24.150; -264.000; -220.000
353.971;  -92.525; -657.000; -512.000
354.104;  -92.975; -896.000; -835.000
354.237;  -44.150; -627.000; -662.000
354.370;  -81.275; -846.000; -879.000
354.503; -175.350;-1231.000;-1308.000
354.636;  -48.750; -529.000; -348.000
354.769; -133.900; -937.000; -860.000
354.902;   -7.850; -230.000; -139.000
355.034;  -20.175; -164.000; -220.000
355.167;  -29.575; -262.000; -162.000
355.300;  -96.275;-1061.000; -880.000
355.433;  987.325;  -71.000;  -14.000
355.565; 1521.550; -402.000; -384.000
355.698;  387.975; -356.000; -296.000
355.831;  -12.650; -882.000; -801.000
355.964;   73.450; -285.000; -170.000
356.096;  -89.500; -856.000; -843.000
356.229;  -11.600; -523.000; -530.000
356.362;  329.525; -373.000; -266.000
356.494;  613.700; -229.000; -162.000
356.627;  456.050;  269.000;  377.000
356.760;  655.625;  120.000;   53.000
356.892;  968.700; -286.000; -601.000
357.025;  610.325;  403.000;  389.000
357.157;  546.100; -167.000; -179.000
357.290;  676.575; -856.000; -713.000
357.423;  204.875; -667.000; -556.000
357.555;  101.525; -217.000; -228.000
357.688;  127.425; -483.000; -364.000
357.820;  419.575; -870.000; -877.000
357.953; 3496.175; -563.000; -589.000
358.085;  731.200; -632.000; -612.000
358.218;  972.775;-1131.000; -932.000
358.350;  181.225;  -58.000;  312.000
358.483; -122.575;-1300.000;-1187.000
358.615;  -41.825;-1182.000;-1078.000
358.747;  -71.075;-1187.000;-1058.000
358.880;   14.775; -810.000; -744.000
359.012;  -23.725; -376.000; -202.000
359.145;  -45.575; -480.000; -511.000
359.277;   58.675; -962.000; -913.000
359.409; 2844.625;  536.000;  231.000
359.542;  733.800; -738.000; -688.000
359.674;   67.125;   46.000;   13.000
359.806;  -68.650; -565.000; -438.000
359.939;  -32.350; -617.000; -516.000
360.071;   -8.575; -583.000; -579.000
360.203;  -22.350; -411.000; -364.000
360.335;   45.450;  164.000;  -16.000
360.468;  179.500; -249.000; -307.000
360.600; 2347.250; -547.000; -454.000
360.732; 2910.975; -546.000; -423.000
360.864;  396.000;-1216.000;-1044.000
360.996;  241.500; -516.000; -554.000
361.129;   22.300; -389.000; -598.000
361.261;   35.075;  110.000; -113.000
361.393;  -22.675; -252.000; -214.000
361.525;   16.525;   94.000;  244.000
361.657;  -57.400; -821.000; -703.000
361.789;    2.325; -139.000; -155.000
361.921;  187.050; -642.000; -593.000
362.053;  229.175;  524.000;  541.000
362.185;   31.700;  288.000;   72.000
362.318;  -88.775; -709.000; -705.000
362.450;  111.275;  294.000;  444.000
362.582;   69.375; -913.000; -870.000
362.714;  -46.425; -353.000; -332.000
362.846;  -91.575; -606.000; -490.000
362.978; -145.750; -941.000; -811.000
363.109;   24.425; -161.000; -260.000
363.241;  404.050; -739.000; -749.000
363.373;  441.750; -649.000; -564.000
363.505;  682.300; -186.000;  -91.000
363.637;  157.600; -787.000; -601.000
363.769; -127.200;-1067.000;-1080.000
363.901;  -71.225; -596.000; -654.000
364.033; -124.725;-1103.000;-1062.000
364.165;  -23.900; -283.000; -283.000
364.296;   71.025; -316.000; -177.000
364.428;   62.650;-1344.000;-1220.000
364.560;  -86.475; -679.000; -661.000
364.692;  -64.525; -738.000; -835.000
364.824;  220.225; -588.000; -456.000
364.955;  412.450; -402.000; -564.000
365.087;  960.375;-1097.000; -852.000
365.219;   26.450; -686.000; -816.000
365.351;  -58.950; -526.000; -572.000
365.482;   47.900;  300.000;  240.000
365.614;  -60.850; -402.000; -314.000
365.746; -105.175; -729.000; -752.000
365.877; -101.425; -706.000; -672.000
366.009;  257.825;  -35.000;  -62.000
366.141;  -87.225;-1249.000;-1134.000
366.272; -104.525; -803.000; -719.000
366.404; -117.475;-1005.000; -874.000
366.535;   -7.825; -139.000;  -12.000
366.667; -114.750; -644.000; -649.000
366.799;   29.450;  353.000;  203.000
366.930; -120.575; -862.000; -996.000
367.062;  114.525; -639.000; -613.000
367.193;  157.650; -872.000; -842.000
367.325;  -68.750; -580.000; -684.000
367.456;   44.275; -246.000;   31.000
367.588;  150.825; -371.000; -318.000
367.719;   23.875;  -44.000;  -45.000
367.851;  -20.150; -222.000; -241.000
367.982;  -73.750; -875.000; -732.000
368.113;   76.500; -475.000; -358.000
368.245; -135.450; -960.000; -841.000
368.376;  -30.450; -254.000; -302.000
368.508;  -37.750; -188.000; -263.000
368.639; -141.900;-1166.000;-1034.000
368.770;  -23.375; -670.000; -589.000
368.902;  -71.900; -836.000; -926.000
369.033; -117.350; -906.000; -855.000
369.164;  -53.375; -720.000; -653.000
369.296; -113.150; -452.000; -601.000
369.427;   -8.175; -209.000; -144.000
369.558;  -65.925; -593.000; -377.000
369.689;  -87.300; -721.000; -569.000
369.821; -128.150; -951.000; -845.000
369.952;  -28.850;   42.000; -108.000
370.083;  -63.500; -229.000; -108.000
370.214;  -92.250; -735.000; -650.000
370.345;   -5.850;   65.000;   81.000
370.477;  -82.950; -810.000; -790.000
370.608;  198.325; -328.000; -264.000
370.739;  -62.950;-1233.000;-1292.000
370.870;  -61.325;-1102.000; -923.000
371.001;   73.800; -378.000; -467.000
371.132;  -90.000; -754.000; -735.000
371.263;  -36.375;  -42.000; -148.000
371.394; -118.500; -841.000; -748.000
371.525;   23.375;  345.000;  225.000
371.657;  -92.525; -808.000; -670.000
371.788;   55.125;  103.000;  199.000
371.919;  135.650; -384.000; -304.000
372.050; 3325.525;  -91.000; -156.000
372.181;  994.400; -188.000; -294.000
372.311;  351.650;   42.000; -127.000
372.442;   18.150; -457.000; -451.000
372.573;  -14.325; -444.000; -340.000
372.704; -123.975;-1008.000; -980.000
372.835;   60.300; -228.000; -289.000
372.966;  -50.750; -646.000; -554.000
373.097;  -74.125; -575.000; -711.000
373.228;  -56.150; -717.000; -542.000
373.359;  110.575; -824.000; -536.000
373.490;  833.225; -881.000; -727.000
373.620; 1040.725;-1001.000; -803.000
373.751; 1621.275; -332.000; -396.000
373.882;  709.950; -663.000; -733.000
374.013;   41.100; -449.000; -262.000
374.143;  -53.675; -581.000; -659.000
374.274; -111.350; -987.000; -908.000
374.405;  144.300; -388.000; -276.000
374.536;  413.700; -526.000; -387.000
374.666; 1019.150; -759.000; -807.000
374.797;  193.275; -817.000; -868.000
374.928;  772.625; -710.000; -560.000
375.058;  815.025; -535.000; -500.000
375.189;   66.875;  -59.000;  -93.000
375.320; -111.575; -928.000;-1034.000
375.450;  -48.900; -625.000; -616.000
375.581;  -57.875; -526.000; -436.000
375.712;  -27.675; -574.000; -250.000
375.842;  256.025; -438.000; -415.000
375.973;  176.375; -554.000; -513.000
376.103;  -52.600; -665.000; -648.000
376.234;  -97.700; -531.000; -552.000
376.364;  -46.650; -944.000; -867.000
376.495;  296.450;  925.000;  529.000
376.625;  -38.800; -472.000; -485.000
376.756;   36.200; -709.000; -678.000
376.886;  -93.725;-1178.000;-1026.000
377.017;   36.075;-1048.000;-1061.000
377.147;  364.500; -786.000; -782.000
377.278;   59.725;  174.000;  228.000
377.408; -139.025; -801.000; -815.000
377.538; -114.775; -707.000; -693.000
377.669;  -88.725; -537.000; -613.000
377.799;  -98.300; -645.000; -635.000
377.929;  -71.075; -610.000; -428.000
378.060; -136.075; -781.000; -847.000
378.190;  -51.200; -726.000; -531.000
378.320;  -53.000; -401.000; -406.000
378.451;  -15.750; -131.000;  -22.000
378.581;  -15.225;  -67.000; -110.000
378.711;  141.925; 1035.000;  866.000
378.841;  -44.925; -533.000; -675.000
378.972;  -95.525; -871.000; -751.000
379.102;  -18.850; -652.000; -579.000
379.232;  -36.575; -126.000;  -73.000
379.362; -105.275;-1001.000; -885.000
379.492;   -3.100; -373.000; -424.000
379.623;   84.725;    0.000;  111.000
379.753; -106.225;-1107.000; -974.000
379.883;  169.200;   59.000;  156.000
380.013;   -6.550;-1081.000;-1017.000
380.143; -113.825;-1097.000;-1056.000
380.273;  -97.100; -985.000; -861.000
380.403;  -14.600; -344.000; -257.000
380.533;  -26.900; -651.000; -664.000
380.663;   57.200;  173.000;  128.000
380.793; -110.200;-1027.000;-1074.000
380.923;  -30.175; -103.000;  -34.000
381.053; -104.100; -613.000; -623.000
381.183;  -37.750; -106.000; -248.000
381.313;    9.425; -656.000; -470.000
381.443;   20.650; -692.000; -473.000
381.573;  156.175; -402.000; -409.000
381.703;  234.400;-1249.000;-1095.000
381.833; -146.500;-1454.000;-1336.000
381.963;   87.400; -134.000;  -87.000
382.093; 1302.800; -925.000; -909.000
382.223;  396.375; -713.000; -602.000
382.353;  -16.150; -801.000; -608.000
382.482;  313.375;-1091.000; -964.000
382.612;  697.100; -872.000; -644.000
382.742;  393.075; -695.000; -622.000
382.872;  215.425; -565.000; -551.000
383.002;   53.375;  347.000; -132.000
383.131;   -4.850; -226.000; -160.000
383.261;  -42.825; -706.000; -768.000
383.391;  250.975; -552.000; -377.000
383.521; 3299.325;  451.000;  263.000
383.650;  787.450; -947.000; -904.000
383.780;  -22.950; -783.000; -656.000
383.910;  103.400;  880.000;  802.000
384.039;    5.775; -794.000; -656.000
384.169;  168.150;-1205.000;-1017.000
384.299;  -37.525; -650.000; -662.000
384.428; -104.575; -764.000; -680.000
384.558;  -58.550; -308.000; -275.000
384.687;  -59.300; -414.000; -334.000
384.817;   10.900;   75.000;   -2.000
384.947;   25.400; -234.000; -141.000
385.076;  269.950;  982.000;  912.000
385.206;   96.200;  369.000;  480.000
385.335;  -33.500; -549.000; -417.000
385.465;  -78.575; -655.000; -663.000
385.594;  119.900;  -53.000;  -44.000
385.724;  362.600; -868.000; -838.000
385.853;   99.350; -296.000; -270.000
385.982; 1248.625; -743.000; -787.000
386.112; 1977.525;-1052.000; -871.000
386.241;  124.800; -307.000; -312.000
386.371;    8.650; -174.000;  -87.000
386.500;  -14.025; -825.000; -789.000
386.629;   17.700; -874.000; -817.000
386.759;   52.025;  -43.000;   68.000
386.888;    0.450; -170.000; -250.000
387.017;  -84.350; -648.000; -620.000
387.147;  -83.950; -771.000; -798.000
387.276;  -17.600; -410.000; -397.000
387.405;   -5.225; -398.000; -342.000
387.535;  -54.325; -452.000; -361.000
387.664;  -75.200; -692.000; -620.000
387.793;   45.750; -198.000; -113.000
387.922;  473.325;  255.000;  200.000
388.052;   -3.450; -576.000; -423.000
388.181;    5.325; -342.000; -472.000
388.310;   -9.075; -889.000; -710.000
388.439;  -59.925; -749.000; -742.000
388.568;  157.800;  365.000;  244.000
388.697;  932.100; -756.000; -653.000
388.826;  179.925; -768.000; -666.000
388.956;   45.850; -285.000; -307.000
389.085;  -33.750; -347.000; -287.000
389.214; -124.000; -842.000; -872.000
389.343;  -76.900; -645.000; -413.000
389.472;  382.725;  126.000;  149.000
389.601;  500.225;   91.000;    0.000
389.730;   11.500; -568.000; -687.000
389.859;   34.800;  226.000;   46.000
389.988;  151.700; -423.000; -408.000
390.117;  105.400; -168.000; -146.000
390.246;  -25.500; -331.000; -320.000
390.375;   71.925; -673.000; -626.000
390.504;  -63.425; -703.000; -621.000
390.633;  -95.875; -672.000; -726.000
390.761;  -68.875; -732.000; -645.000
390.890;    8.950;   -4.000; -130.000
391.019;  -34.650; -421.000; -441.000
391.148; -134.000; -826.000; -855.000
391.277;  -75.300; -576.000; -493.000
391.406;  -96.375; -821.000; -805.000
391.534;   14.450;  574.000; -301.000
391.663;  -71.950; -583.000; -645.000
391.792;  -89.825; -673.000; -701.000
391.921;   74.450;   -3.000;   15.000
392.050;  141.550; -287.000; -228.000
392.178;  -53.300;-1206.000;-1061.000
392.307;  124.800; -758.000; -712.000
392.436;   41.925; -427.000; -641.000
392.564;    9.325;  166.000;   -6.000
392.693; -102.075; -860.000; -682.000
392.822;  163.550; -529.000; -534.000
392.950;   61.250; -880.000; -714.000
393.079;  289.275; -188.000; -328.000
393.208;   -2.525; -488.000; -511.000
393.336;  -25.850; -170.000; -145.000
393.465;  -46.025; -317.000; -199.000
393.593;   -0.925;   62.000;   79.000
393.722; -165.025;-1121.000; -916.000
393.850;  -39.950; -188.000;  -61.000
393.979; -163.825; -926.000; -805.000
394.107;  -85.275; -517.000; -537.000
394.236;  -31.225; -570.000; -507.000
394.364;  185.675;  383.000;  206.000
394.493;  288.600; -911.000; -767.000
394.621;  -14.525; -955.000; -916.000
394.750;  714.750; -873.000; -923.000
394.878; 2990.725; -247.000; -149.000
395.007; 4053.425; -721.000; -807.000
395.135;  293.075; -790.000; -721.000
395.263; -102.925;-1038.000;-1040.000
395.392;   -0.550;  -25.000; -107.000
395.520; -143.075; -818.000; -679.000
395.648; -105.250; -865.000; -915.000
395.777;  -40.375; -366.000; -405.000
395.905;  -58.525; -449.000; -564.000
396.033;    5.025;  217.000;  172.000
396.162;  478.175; -399.000; -453.000
396.290;  402.850;  -17.000;   -2.000
396.418;   76.175; -555.000; -514.000
396.546;  -86.075; -571.000; -466.000
396.674; -109.100; -850.000; -878.000
396.803;   -2.500;  -72.000;  -23.000
396.931;   67.425; -179.000; -199.000
397.059;   20.625;-1026.000; -989.000
397.187; -113.525;-1026.000; -975.000
397.315; -142.425; -884.000; -649.000
397.443; -106.225; -592.000; -443.000
397.572; -101.325; -578.000; -424.000
397.700;  -24.900; -607.000; -614.000
397.828;   -7.250;  120.000;  -90.000
397.956;  -50.650; -508.000; -478.000
398.084;  -74.350; -767.000; -626.000
398.212;   39.600;  137.000;  124.000
398.340;  -14.900;  -56.000;  159.000
398.468;   29.550; -390.000; -169.000
398.596; -133.875; -993.000; -953.000
398.724; -123.175; -762.000; -767.000
398.852; -168.325;-1024.000; -976.000
398.980;  -67.825; -560.000; -560.000
399.108;  -53.425; -982.000; -735.000
399.236;   14.125;   13.000;    8.000
399.363;    0.400;  222.000;  196.000
399.491;  -85.725; -404.000; -398.000
399.619; -139.525; -829.000; -800.000
399.747; -109.675; -859.000; -771.000
399.875;   63.425;  220.000;  234.000
400.003;  -64.300; -359.000; -284.000
400.130;  -85.400; -421.000; -341.000
400.258;  -31.675;  -83.000;   38.000
400.386;  -56.550; -352.000; -168.000
400.514;  -62.950; -526.000; -587.000
400.641; -111.825; -928.000; -802.000
400.769; -139.000; -979.000; -888.000
400.897; -129.500; -838.000; -793.000
401.025;   -8.625; -166.000; -152.000
401.152;   -6.500;  220.000;   38.000
401.280;  -86.025; -430.000; -429.000
401.408; -122.925; -712.000; -576.000
401.535; -106.750; -735.000; -758.000
401.663; -195.975;-1134.000;-1054.000
401.790; -101.325; -514.000; -525.000
401.918;   37.350;  436.000;  405.000
402.046;  -31.975;  134.000;  122.000
402.173;  -42.425;  -18.000;    7.000
402.301;  -75.075; -519.000; -397.000
402.428;   36.900;  528.000;  383.000
402.556; -156.350;-1188.000; -913.000
402.683;  -33.300;  -20.000;   -1.000
402.811;  -26.350;  -37.000; -206.000
402.938;  -19.775;   20.000;   27.000
403.066;  179.675; -574.000; -558.000
403.193;  308.250;  299.000;  239.000
403.321;  236.375; -396.000; -574.000
403.448;  287.100;   83.000;   27.000
403.575;  130.175;  -90.000;  -46.000
403.703; -105.850; -732.000; -557.000
403.830;  -78.425; -531.000; -496.000
403.957; -154.150;-1117.000;-1023.000
404.085;   -1.550;  -61.000; -172.000
404.212;  100.100;  -50.000;   63.000
404.339;  271.925; -566.000; -306.000
404.467; 5904.050; -612.000; -524.000
404.594; 3820.225; -287.000; -227.000
404.721;  848.550; -869.000; -764.000
404.848;   69.825; -113.000; -202.000
404.976; -108.900; -856.000; -783.000
405.103;   -4.850;  -14.000;  -82.000
405.230;   -2.925;  190.000;  226.000
405.357;   30.150;  117.000;   44.000
405.484;  260.175;  -49.000;    5.000
405.612;   46.125; -548.000; -563.000
405.739;  -71.175; -488.000; -243.000
405.866;   85.300;  669.000;  385.000
405.993;  -56.250; -398.000; -102.000
406.120; -146.875; -801.000; -887.000
406.247;  -64.875; -323.000; -342.000
406.374;  379.500;  540.000;  629.000
406.501;   65.375; -632.000; -702.000
406.628;  -85.550; -621.000; -589.000
406.755; -108.825; -803.000; -620.000
406.882;  -46.925; -228.000; -277.000
407.009; -112.075; -719.000; -628.000
407.136;   20.550; -480.000; -401.000
407.263;   96.400; -939.000; -829.000
407.390;  -93.550; -692.000; -614.000
407.517; -183.875;-1139.000;-1187.000
407.644;  -46.850; -332.000; -256.000
407.771;  -72.325; -249.000; -287.000
407.898;    8.375;  168.000;  328.000
408.025;  -85.100; -421.000; -313.000
408.151;  -11.225;   82.000;  153.000
408.278;  -75.125; -267.000; -216.000
408.405; -123.575; -931.000; -899.000
408.532;  -85.375; -549.000; -542.000
408.659; -115.150; -677.000; -648.000
408.785; -209.175;-1298.000;-1170.000
408.912;  -75.925; -412.000; -296.000
409.039; -123.875; -610.000; -686.000
409.166;  -97.975; -591.000; -555.000
409.292; -129.150; -571.000; -534.000
409.419; -112.700; -665.000; -649.000
409.546;  -94.575; -431.000; -192.000
409.672; -127.375; -713.000; -545.000
409.799;  -34.025;  -36.000;   34.000
409.926;  -48.150; -180.000; -179.000
410.052; -172.775;-1127.000;-1091.000
410.179;  -67.900; -368.000; -392.000
410.305;  -89.975; -375.000; -493.000
410.432;  -65.225; -220.000; -333.000
410.558;  -90.075; -305.000; -380.000
410.685; -113.575; -688.000; -431.000
410.812; -103.500; -409.000; -588.000
410.938; -152.075; -964.000; -808.000
411.065; -112.200; -671.000; -645.000
411.191;  -24.050; -189.000; -174.000
411.317; -130.150; -823.000; -742.000
411.444;  -66.500; -317.000; -246.000
411.570;  -77.000; -339.000; -294.000
411.697; -132.725; -758.000; -752.000
411.823; -171.475; -989.000; -999.000
411.949;  -50.375;  -56.000;   17.000
412.076; -128.125; -539.000; -519.000
412.202; -136.450; -758.000; -757.000
412.329; -131.400; -798.000; -752.000
412.455; -123.100; -821.000; -657.000
412.581;  -12.025;  -15.000;  172.000
412.707;  -72.850; -540.000; -457.000
412.834;   14.800;  156.000;  219.000
412.960;  -90.750; -785.000; -784.000
413.086; -104.925; -743.000; -701.000
413.212;  123.825;  604.000;  578.000
413.339;  -72.125; -685.000; -701.000
413.465;  -21.175; -364.000; -310.000
413.591; -105.825; -757.000; -474.000
413.717;  -48.975; -358.000; -366.000
413.843; -157.725; -839.000; -861.000
413.969;  -65.025;  -47.000; -292.000
414.096; -108.175; -679.000; -679.000
414.222;  -32.375;  -33.000;   85.000
414.348;  -45.350; -652.000; -385.000
414.474;   83.700;   38.000;  -52.000
414.600;  -22.025; -126.000; -144.000
414.726;  -10.000;  -96.000;  -55.000
414.852;  -69.550; -365.000; -342.000
414.978;   24.700;  104.000;  -18.000
415.104;   32.825;   38.000;   80.000
415.230;   15.850; -329.000; -330.000
415.356;   36.925; -409.000; -514.000
415.482;  192.725;   13.000;  -35.000
415.608;  278.100; -247.000; -323.000
415.734;  969.250;   67.000;   38.000
415.860;20112.425; -875.000; -767.000
415.986;14705.500; -685.000; -607.000
416.111; 1246.725; -798.000; -652.000
416.237;  259.075; -424.000; -571.000
416.363; 1127.950; -765.000; -733.000
416.489; 4272.525; -324.000; -251.000
416.615;  466.250; -707.000; -742.000
416.741;  -42.825; -677.000; -784.000
416.866;  -90.050; -673.000; -736.000
416.992; -125.675; -801.000; -818.000
417.118;  -50.475;  -41.000;  -80.000
417.244;  -81.700; -798.000; -531.000
417.369;  -92.100; -801.000; -612.000
417.495;  -20.675; -325.000; -254.000
417.621;  -97.300;-1015.000; -803.000
417.746;  -11.150; -579.000; -572.000
417.872;   43.625; -254.000; -144.000
417.998;   51.125; -515.000; -530.000
418.123; 1028.275;-1073.000; -845.000
418.249; 5573.325; -512.000; -601.000
418.374;  770.650; -916.000; -824.000
418.500;  115.650; -383.000; -482.000
418.626;  123.550;   70.000;  -59.000
418.751;  116.225; -549.000; -448.000
418.877;  193.425; -637.000; -643.000
419.002; 1798.775; -688.000; -560.000
419.128;12851.700; -930.000; -721.000
419.253; 3161.675; -967.000; -837.000
419.379;  426.125; -391.000; -338.000
419.504;  385.700;  325.000;  415.000
419.629;  508.775; -393.000; -212.000
419.755; 3624.550; -317.000; -254.000
419.880;21780.550;  -98.000;   67.000
420.006;11663.325; -280.000; -221.000
420.131;29986.075; -662.000; -775.000
420.256; 4360.175; -315.000; -316.000
420.382;  580.750; -665.000; -687.000
420.507;   61.875; -649.000; -778.000
420.632;  113.350; -337.000; -339.000
420.758;  194.900; -251.000; -425.000
420.883;  -85.675; -876.000; -672.000
421.008; -102.925; -775.000; -619.000
421.133;  -96.025; -509.000; -467.000
421.259;  -55.000; -325.000; -259.000
421.384; -117.525; -834.000; -693.000
421.509;  -61.700;-1052.000; -862.000
421.634;  984.025; -936.000; -820.000
421.759;  430.250; -359.000; -327.000
421.885;  -66.925; -717.000; -656.000
422.010;  -90.575; -673.000; -542.000
422.135; -163.450; -695.000; -727.000
422.260;   27.925;  340.000;  280.000
422.385;  -52.750;   12.000;  -98.000
422.510;   -0.900;  151.000;  -26.000
422.635;    3.050;  -87.000;  -43.000
422.760;   84.125; -766.000; -791.000
422.885;   42.325;  -57.000;  -80.000
423.010;  -45.000; -112.000; -169.000
423.135;  -97.925; -481.000; -561.000
423.260;  -26.575; -150.000; -245.000
423.385;   48.825;  476.000;  222.000
423.510;   22.925;   71.000;  -22.000
423.635;   73.650;  133.000;   45.000
423.760;   50.700;  383.000;  328.000
423.885;   39.625;  336.000;  391.000
424.010;   -1.800;  -68.000;  -13.000
424.135;  -16.900;    5.000;  -33.000
424.259;  -91.500; -654.000; -457.000
424.384;  -77.625; -279.000; -272.000
424.509;  -47.300; -260.000; -186.000
424.634; -105.375; -761.000; -623.000
424.759;  -23.325; -688.000; -544.000
424.883;  -18.100; -506.000; -527.000
425.008;  140.625; -502.000; -410.000
425.133; 2025.375; -679.000; -653.000
425.258;  954.125; -517.000; -381.000
425.382;  938.575; -867.000; -774.000
425.507; 2404.550; -487.000; -543.000
425.632;  426.675; -802.000; -663.000
425.756;  458.625; -256.000; -146.000
425.881; 6746.300; -831.000; -857.000
426.006;18435.075; -604.000; -355.000
426.130; 2896.525; -696.000; -508.000
426.255;  353.275; -611.000; -491.000
426.379;  158.475; -189.000; -577.000
426.504;  383.400;  660.000;  544.000
426.629; 4076.300; -519.000; -466.000
426.753; 2808.975;   64.000;  -46.000
426.878;  323.150; -252.000; -288.000
427.002;  147.500; -651.000; -668.000
427.127; 1574.125;  -35.000; -158.000
427.251;11678.675;  372.000;  401.000
427.375; 3334.925; -191.000; -173.000
427.500; 2142.925; -616.000; -610.000
427.624;  719.500; -234.000; -400.000
427.749;   74.625; -216.000; -225.000
427.873;  -44.850; -499.000; -412.000
427.997;  -37.800; -222.000; -230.000
428.122;   65.950;  795.000;  703.000
428.246;   51.500;  433.000;  434.000
428.371; -139.900; -869.000; -773.000
428.495; -111.875; -624.000; -646.000
428.619;  -46.900; -186.000; -117.000
428.743;    7.925;   65.000;  132.000
428.868;    8.400; -732.000; -643.000
428.992; 1274.550; -219.000; -326.000
429.116;  521.050; -329.000; -357.000
429.240;  224.500;  419.000;  426.000
429.365;  -43.025; -454.000; -574.000
429.489;  -50.125; -638.000; -647.000
429.613;    8.050; -236.000; -177.000
429.737;   28.275; -563.000; -432.000
429.861;  265.150; -247.000; -133.000
429.985; 5586.350; -425.000; -305.000
430.109; 6237.625; -770.000; -908.000
430.234;  724.475;   76.000;  -50.000
430.358;   60.075; -250.000; -160.000
430.482;  -81.875; -672.000; -564.000
430.606;  -63.875; -655.000; -375.000
430.730;   -0.675; -437.000; -388.000
430.854;   86.525; -909.000; -835.000
430.978;  -74.575; -795.000; -764.000
431.102;  -75.750; -499.000; -422.000
431.226; -131.750; -874.000; -815.000
431.350;   21.300;  345.000;  422.000
431.474;  -80.800; -661.000; -373.000
431.597; -150.525;-1060.000; -848.000
431.721;  -94.825; -276.000; -267.000
431.845; -142.525; -704.000; -472.000
431.969;  -78.425; -304.000; -349.000
432.093;  -99.725; -395.000; -317.000
432.217;  -17.000;   32.000;   82.000
432.341;  -93.800; -523.000; -518.000
432.464;  -14.575;   96.000;   40.000
432.588;  150.375; -401.000; -329.000
432.712;   62.125;  -52.000;  -52.000
432.836;   31.750;  213.000;  263.000
432.959;  -16.600; -372.000; -311.000
433.083;   83.325;   11.000;    2.000
433.207;  373.425;  285.000;  930.000
433.330; 5137.050; -391.000; -200.000
433.454; 6426.125; -654.000; -638.000
433.578; 3667.650;  583.000;  278.000
433.701;  678.125; -623.000; -675.000
433.825;  121.025; -292.000; -299.000
433.949;  137.650;   28.000;  -72.000
434.072;   36.925; -410.000; -323.000
434.196;  -16.125; -309.000; -117.000
434.319; 3709.175;25482.000;25124.000
434.443;  706.650; -656.000; -603.000
434.566; 2718.475;  281.000;   62.000
434.690;  442.025; -637.000; -383.000
434.813;   40.500; -251.000; -173.000
434.937; -100.950; -569.000; -696.000
435.060;  -53.875; -423.000; -332.000
435.184;  237.725; -492.000; -217.000
435.307;  139.225;  159.000;  102.000
435.431;  -22.450;  -40.000;   24.000
435.554;  -74.825; -399.000; -240.000
435.677;  -78.800; -350.000; -258.000
435.801;  -54.000;  -25.000;   49.000
435.924;  -33.150;    1.000;  -67.000
436.048; -128.200;-1019.000; -732.000
436.171;  -70.025; -240.000;  -66.000
436.294;  -31.825; -248.000; -229.000
436.417;   96.400; -963.000; -849.000
436.541;  -94.950; -814.000; -840.000
436.664;  -52.875; -242.000; -316.000
436.787;  -18.550;   13.000;  113.000
436.910; -123.325; -792.000; -422.000
437.034;  -10.275;  142.000;  143.000
437.157;   23.300;  -11.000;    0.000
437.280;  -68.400; -392.000; -292.000
437.403; -104.775; -982.000; -869.000
437.526;  497.000; -903.000; -865.000
437.649; 1937.100; -505.000; -332.000
437.772;  273.150; -692.000; -540.000
437.896;  106.850;  700.000;  544.000
438.019; -116.425; -758.000; -503.000
438.142;  -97.800; -596.000; -506.000
438.265;  -34.450; -639.000; -670.000
438.388;  474.200; -520.000; -410.000
438.511;   55.200; -597.000; -394.000
438.634;  -61.100; -247.000; -125.000
438.757; -140.550; -693.000; -619.000
438.880;  -38.500;  -34.000;  -57.000
439.003;  -91.425; -417.000; -437.000
439.126;  -64.275; -287.000; -167.000
439.248;  -71.575;  -98.000; -139.000
439.371;  -48.875;    9.000;  -53.000
439.494;   16.400;  510.000;  439.000
439.617;  -61.900;   65.000;  -88.000
439.740; -185.100; -968.000; -816.000
439.863; -160.575; -755.000; -595.000
439.986; -129.525; -476.000; -431.000
440.108;  -49.975; -161.000; -112.000
440.231; -169.200; -950.000; -836.000
440.354;  -54.775;  -64.000; -150.000
440.477;    9.025; -566.000; -542.000
440.599;  -10.825; -200.000; -225.000
440.722; -125.625; -709.000; -586.000
440.845;   57.525;  751.000;  928.000
440.968; -117.900; -415.000; -311.000
441.090;  -67.900; -199.000;  -33.000
441.213; -183.950;-1021.000; -825.000
441.336;  -66.175; -159.000;   -5.000
441.458;  -89.050; -549.000; -396.000
441.581;  -95.025; -628.000; -629.000
441.703;  -78.275; -152.000;   13.000
441.826; -126.600; -557.000; -400.000
441.948;  -70.775;   56.000;   51.000
442.071;   22.675;  555.000;  424.000
442.193; -118.525; -531.000; -485.000
442.316;   12.550;  152.000;   97.000
442.438;   39.525; -233.000;  -10.000
442.561;   36.650;  272.000;  262.000
442.683;  440.025; -809.000; -522.000
442.806;  983.000;   -8.000;   74.000
442.928;   -8.425; -859.000; -604.000
443.051;  -84.625; -577.000; -373.000
443.173; -103.600; -341.000; -339.000
443.295;  -90.050; -263.000; -371.000
443.418;  -85.850; -321.000;  -29.000
443.540;  -17.125; -106.000;   -4.000
443.662; -125.775; -563.000; -465.000
443.785;  -15.700;  335.000;  199.000
443.907;  -97.675; -362.000; -208.000
444.029; -123.550; -767.000; -494.000
444.152; -146.600; -644.000; -554.000
444.274;  -42.400;  -18.000;  -24.000
444.396; -129.500; -461.000; -221.000
444.518; -139.925; -691.000; -454.000
444.640; -109.800; -268.000; -111.000
444.763;  -17.625;  388.000;  249.000
444.885; -138.675; -432.000; -392.000
445.007;  -41.600;   35.000;   86.000
445.129; -118.100; -610.000; -515.000
445.251; -110.500; -372.000; -439.000
445.373; -141.725; -537.000; -386.000
445.495;   -4.250;  242.000;  350.000
445.617;   44.625;  853.000;  753.000
445.739;  -72.925; -215.000;  -97.000
445.861;  -46.350; -245.000; -112.000
445.984;  -49.750; -267.000; -101.000
446.105;  159.125; -418.000; -251.000
446.227;  523.300; -176.000;  -19.000
446.349;   -9.575; -358.000; -249.000
446.471; -133.475; -615.000; -448.000
446.593;  -74.500; -316.000;   19.000
446.715;  -16.750;  -67.000;   41.000
446.837;   47.450;  697.000;  832.000
446.959; -100.550; -457.000; -478.000
447.081; -132.150; -628.000; -518.000
447.203;   45.900;  862.000;  834.000
447.325;  -94.900; -270.000;   42.000
447.446;   -1.700;  286.000;  530.000
447.568; -167.300; -921.000; -803.000
447.690;  -82.325; -236.000; -245.000
447.812; -159.125; -798.000; -519.000
447.933;  -37.550;  155.000;  127.000
448.055;  -67.775; -306.000; -261.000
448.177;  113.125;   31.000;   79.000
448.299;   58.025; -935.000; -727.000
448.420;    6.825;  -25.000;  159.000
448.542;  -46.600;   -3.000;   33.000
448.664;  -25.950;  109.000;  322.000
448.785;  -51.650;  265.000;   83.000
448.907;  -89.575; -614.000; -353.000
449.028;  -58.375; -771.000; -471.000
449.150;   40.325;  492.000;  589.000
449.272; -185.800;-1044.000; -913.000
449.393;   30.800;  612.000;  694.000
449.515; -144.625; -634.000; -581.000
449.636;  -72.375; -264.000; -155.000
449.758;   65.950;  763.000;  622.000
449.879;  -97.425; -498.000; -396.000
450.001;  -76.350; -149.000;  -49.000
450.122;  -46.325;  -95.000;  162.000
450.244;  -27.550;   37.000;  364.000
450.365; -100.750; -495.000; -301.000
450.486;  -28.625;   80.000;  268.000
450.608;   20.525;  393.000;  326.000
450.729;   74.350;  578.000;  645.000
450.850;   -0.125; -574.000; -466.000
450.972;  767.775; -552.000; -389.000
451.093; 5066.275;  190.000;  588.000
451.214; 2229.625; -516.000; -337.000
451.336;  404.200;  773.000;  579.000
451.457;   62.975;  264.000;  393.000
451.578;  -42.450; -118.000;  -74.000
451.699; -117.625; -546.000; -540.000
451.821;  -61.950; -284.000;  -50.000
451.942;  -21.775;  278.000;  285.000
452.063;   36.300;  228.000;  419.000
452.184;  557.900;  -54.000;  -49.000
452.305; 1106.800;  103.000;  170.000
452.427;  140.250; -549.000; -301.000
452.548;  -16.675;   23.000;   79.000
452.669;  -62.175; -257.000;  -89.000
452.790;  -58.250;    3.000;  -18.000
452.911;  -19.825;  195.000;  259.000
453.032;  -76.025; -289.000;  -60.000
453.153;  -57.150;  -29.000;   81.000
453.274;   37.850;  737.000;  868.000
453.395;  -59.850;  -51.000;  175.000
453.516;    3.575; 1317.000; 1388.000
453.637;  -83.650; -205.000; -150.000
453.758;  -77.850;   15.000;   69.000
453.879; -126.900; -462.000; -250.000
454.000;   77.600; 1086.000;  948.000
454.121; -114.050; -554.000; -326.000
454.242; -125.050; -599.000; -383.000
454.362;  -65.725;  -99.000;  114.000
454.483;  -50.800; -309.000; -229.000
454.604;   45.075;  512.000;  580.000
454.725; -130.000; -627.000; -555.000
454.846; -152.100; -474.000; -406.000
454.967;  -26.550;  230.000;  539.000
455.087;  -43.450;  179.000;  153.000
455.208;   18.700;  554.000;  856.000
455.329;  -52.225;  -22.000;   82.000
455.450;   48.725;  473.000;  633.000
455.570;  -91.700; -234.000; -211.000
455.691;  -50.525;  201.000;  407.000
455.812; -117.050; -270.000;  -92.000
455.932;  -61.800;  107.000;  -97.000
456.053;  -98.275;   36.000;   24.000
456.173; -117.100; -433.000; -355.000
456.294; -129.500; -476.000; -303.000
456.415;  -61.825;  -73.000;   70.000
456.535;  -47.125;  297.000;  273.000
456.656;  -55.975;  132.000;  240.000
456.776;  -75.200;    3.000;  298.000
456.897;  -12.075;  308.000;  513.000
457.017;  -80.175; -153.000;   -3.000
457.138; -107.325; -402.000; -249.000
457.258;  -44.275;  263.000;  224.000
457.379;  -22.000;  509.000;  521.000
457.499;  -37.650;  443.000;  432.000
457.620; -131.900; -407.000; -231.000
457.740;  -90.100; -132.000;  -11.000
457.860;  -59.225;   87.000;   44.000
457.981;  -51.875;  132.000;  124.000
458.101;  -87.750;  -89.000;   40.000
458.221;  -18.950;  336.000;  402.000
458.342;  -52.525;   -4.000;  -37.000
458.462;   22.325;  617.000;  352.000
458.582;  -48.825; -302.000; -294.000
458.703;   20.900;  303.000;  154.000
458.823;  -27.875;   22.000;  163.000
458.943;   22.500;  341.000;  467.000
459.063;  -21.575; 1124.000;  192.000
459.183;  -44.625;  328.000;  313.000
459.304;   -1.500;  315.000;  517.000
459.424;  -64.025; -246.000;  -89.000
459.544;  333.575;  388.000;  764.000
459.664;  838.800;  499.000;  506.000
459.784;  320.050; 1004.000; 1175.000
459.904;   42.900;  867.000;  744.000
460.024;   63.250;  867.000;  684.000
460.144;   -0.375;  449.000;  554.000
460.264;   -2.650;  515.000;  327.000
460.385;  -92.600; -145.000; -119.000
460.505;    3.400;  905.000;  858.000
460.625;  -90.425;  -17.000;  -68.000
460.745;  -24.575;  396.000;  541.000
460.864;  -57.925;  153.000;  469.000
460.984;    2.625;  499.000;  573.000
461.104;  128.775; 1656.000; 1775.000
461.224;   11.500;  657.000;  650.000
461.344;  -51.825;  431.000;  360.000
461.464;  -35.925;  258.000;  513.000
461.584;  -17.075;  283.000;  466.000
461.704;  -59.300;   58.000;  108.000
461.824;  -73.700;  238.000;  259.000
461.943;  -58.775;  191.000;  130.000
462.063;  -78.800;    2.000;  324.000
462.183;   26.725;  639.000;  717.000
462.303;   90.750; 1678.000; 1230.000
462.422;   23.550;  781.000;  840.000
462.542;  -36.975;  271.000;  391.000
462.662;   16.425;  353.000;  380.000
462.782;  230.575;  833.000;  572.000
462.901;  473.725;  545.000;  717.000
463.021;  283.400; 1702.000; 1638.000
463.141;  -26.450;  337.000;  770.000
463.260;  -18.875;  614.000;  474.000
463.380;    2.650;  902.000;  884.000
463.499;  -44.375;  342.000;  332.000
463.619;  -42.125;  581.000;  559.000
463.738;  111.350; 1644.000;  903.000
463.858;   -2.750;  657.000;  811.000
463.978;  -53.600;  542.000;  396.000
464.097;   40.175;  921.000; 1114.000
464.217;  105.575; 1196.000; 1143.000
464.336;  122.850; 1068.000; 1130.000
464.455;  -48.975;  328.000;  659.000
464.575;   23.775;  597.000;  602.000
464.694;  165.000; 1204.000; 1179.000
464.814;  126.250; 1190.000; 1138.000
464.933;   69.925; 1095.000; 1027.000
465.052;   81.725; 1412.000; 1054.000
465.172;   66.650;  922.000;  799.000
465.291;  119.700; 1376.000; 1320.000
465.410;   14.325;  462.000;  735.000
465.530;   71.625; 1355.000; 1310.000
465.649;   69.175; 1209.000; 1273.000
465.768;  109.350; 1673.000; 1508.000
465.888;   57.850;  941.000; 1174.000
466.007;   84.025; 1335.000; 1440.000
466.126;   -6.075;  721.000;  641.000
466.245;   50.575; 1176.000; 1187.000
466.364;   19.150;  950.000; 1060.000
466.484;   40.500; 1024.000; 1213.000
466.603;   32.425; 1101.000; 1222.000
466.722;  108.300; 1490.000; 1769.000
466.841;   58.575; 1151.000; 1401.000
466.960;   43.575; 1069.000;  972.000
467.079;  135.400; 1971.000; 1786.000
467.198;   36.875; 1238.000; 1181.000
467.317;   79.800; 1768.000; 1162.000
467.436;   66.900; 1709.000; 1261.000
467.555;  124.200; 1796.000; 1746.000
467.674;   64.100; 1227.000; 1329.000
467.793;   49.850; 1376.000; 1374.000
467.912;   76.100; 1658.000; 1539.000
468.031;  148.450; 2038.000; 1930.000
468.150;  129.750; 1842.000; 1837.000
468.269;  183.075; 2313.000; 2090.000
468.388;  188.900; 2168.000; 2339.000
468.507;  243.925; 2884.000; 2903.000
468.626;  221.275; 2555.000; 2541.000
468.744;  146.175; 2018.000; 2174.000
468.863;  200.000; 2312.000; 2523.000
468.982;   83.475; 1503.000; 1555.000
469.101;  217.500; 2788.000; 2692.000
469.220;  146.500; 2333.000; 2176.000
469.338;  238.475; 2935.000; 3051.000
469.457;  202.675; 2719.000; 2545.000
469.576;  332.825; 3953.000; 3784.000
469.695;  243.100; 2877.000; 3066.000
469.813;  422.775; 4148.000; 4192.000
469.932;  419.825; 4255.000; 4485.000
470.051;  411.125; 4075.000; 4161.000
470.169;  841.775; 4470.000; 4338.000
470.288; 1482.725; 4700.000; 4809.000
470.406;  892.550; 5059.000; 5194.000
470.525;  640.725; 6101.000; 5787.000
470.644;  658.650; 6847.000; 6794.000
470.762;  806.725; 8397.000; 7873.000
470.881;  900.325; 8651.000; 8464.000
470.999; 1033.875; 9685.000; 9151.000
471.118; 1104.675;11174.000;10711.000

