
Integration time [ms]: 200.000
Averaging Nr. [scans]: 10
Smoothing Nr. [pixels]: 0
Data measured with spectrometer [name]: 2101012U2
Wave   ;Sample   ;Dark     ;Reference
[nm]   ;[counts] ;[counts] ;[counts] 

197.733;  113.400;  516.000;  404.000
197.879; -171.400; -610.000; -634.000
198.025;  -99.900; -475.000; -420.000
198.171; -168.500; -602.000; -612.000
198.317;  -53.900; -401.000; -316.000
198.463; -135.500; -655.000; -404.000
198.609;   69.400;  181.000; -137.000
198.755; -147.600; -644.000; -410.000
198.901; -129.500; -505.000; -424.000
199.047; -124.800; -615.000; -488.000
199.193;  -88.900; -230.000; -468.000
199.339;  -74.300; -222.000; -369.000
199.485;   93.400;  330.000;  271.000
199.631;   32.000;  227.000;  310.000
199.777;  -87.600; -466.000; -398.000
199.923; -116.800; -610.000; -424.000
200.069;    4.000; -141.000;  -58.000
200.215;  117.400;  128.000;  453.000
200.361;   76.700;  243.000;  477.000
200.507; -136.700; -600.000; -373.000
200.653;  -55.100; -371.000; -194.000
200.798;  -40.200; -215.000; -125.000
200.944;   23.600; -146.000;  -41.000
201.090;   69.300;   61.000;  222.000
201.236;    1.800; -116.000; -158.000
201.382;  277.400;  874.000;  903.000
201.528;   13.100;  -58.000;  -48.000
201.674;  -81.500; -386.000; -293.000
201.819; -117.500; -540.000; -439.000
201.965; -184.000; -699.000; -447.000
202.111;  -55.400; -273.000; -226.000
202.257;  -65.900; -250.000; -238.000
202.402;    1.700;   13.000;  -36.000
202.548;  -58.100; -169.000; -116.000
202.694;  171.800;  410.000; -183.000
202.840; -140.400; -603.000; -531.000
202.985; -150.900; -681.000; -639.000
203.131; -203.300; -832.000; -666.000
203.277;  -56.200; -199.000; -262.000
203.423;  -94.300; -434.000; -520.000
203.568;  -70.500; -462.000; -237.000
203.714; -121.800; -535.000; -542.000
203.860; -148.100; -682.000; -641.000
204.005;   41.400;  112.000;  167.000
204.151;  141.100;  561.000;  556.000
204.296;  -76.500; -354.000; -221.000
204.442; -169.800; -600.000; -547.000
204.588; -137.300; -592.000; -579.000
204.733;   44.000;  178.000;  168.000
204.879; -266.600;-1018.000; -822.000
205.025;   24.300;  -99.000;  126.000
205.170;   30.000;  -17.000;   94.000
205.316;  183.900;  438.000;  661.000
205.461; -172.100; -698.000; -554.000
205.607;  164.700;  609.000;  665.000
205.752; -131.000; -626.000; -551.000
205.898;  -88.500; -501.000; -391.000
206.043; -116.600; -578.000; -506.000
206.189;  -69.400; -243.000; -285.000
206.334;  152.000;  554.000;  606.000
206.480;  171.800;  409.000;  239.000
206.625; -178.700; -529.000; -552.000
206.771;  -72.000; -451.000; -373.000
206.916;  -53.100; -210.000; -537.000
207.062; -151.600; -545.000; -591.000
207.207; -124.000; -546.000; -443.000
207.353;   91.500;  185.000;  460.000
207.498;   53.900;  196.000;   85.000
207.643;  -96.800; -501.000; -370.000
207.789; -262.500;-1069.000; -910.000
207.934; -173.300; -665.000; -713.000
208.080;  -56.500; -154.000;   66.000
208.225;  -40.200;  -22.000;  -57.000
208.370; -150.900; -727.000; -619.000
208.516; -132.500; -741.000; -487.000
208.661;  -45.500; -127.000;  -69.000
208.806;  -26.300; -165.000; -171.000
208.952; -241.400;-1044.000; -731.000
209.097;  130.200;  378.000;  349.000
209.242;  -72.600; -307.000; -382.000
209.387;  125.000;  392.000;  350.000
209.533;  -94.600; -321.000; -350.000
209.678;  192.800;  472.000;  543.000
209.823; -101.000; -408.000; -310.000
209.969; -188.400; -860.000; -757.000
210.114; -198.800; -907.000; -719.000
210.259; -221.700; -939.000; -889.000
210.404;   -7.900; -171.000;  103.000
210.549;   30.400;  108.000;    3.000
210.695;  -25.200;   -3.000;  -95.000
210.840;   77.800;   94.000;   67.000
210.985; -129.500; -484.000; -303.000
211.130;  142.600;  268.000;  406.000
211.275;   54.800;  207.000;  199.000
211.420; -113.900; -300.000; -289.000
211.566; -127.900; -536.000; -489.000
211.711;   51.600;  218.000;  157.000
211.856; -156.200; -545.000; -519.000
212.001;   37.600;  151.000;   44.000
212.146;   36.400;  153.000;   49.000
212.291;  -27.500; -210.000; -186.000
212.436;  -36.400; -280.000;   -6.000
212.581; -207.400; -685.000; -653.000
212.726; -113.700; -487.000; -538.000
212.871; -118.000; -552.000; -217.000
213.016; -275.100;-1172.000;-1029.000
213.161;  131.200;  406.000;  291.000
213.306; -140.900; -435.000; -577.000
213.451; -189.900; -778.000; -689.000
213.596;  -85.800; -455.000; -347.000
213.741; -122.400; -448.000; -538.000
213.886; -141.600; -498.000; -517.000
214.031;  -32.500; -294.000; -124.000
214.176; -124.400; -408.000; -341.000
214.321;  -10.400; -296.000; -157.000
214.466;  -35.500; -163.000;  -43.000
214.611;  -44.400;  -61.000;  -10.000
214.756; -248.200; -948.000; -858.000
214.901;  -47.000; -388.000; -226.000
215.046; -230.800; -797.000; -825.000
215.191;   21.900;  128.000;   35.000
215.336;  -16.300; -157.000;  -19.000
215.480; -141.300; -684.000; -505.000
215.625;  -37.700; -175.000;  -19.000
215.770; -177.600; -757.000; -662.000
215.915;   -1.300;   -5.000;  -97.000
216.060;  -20.600; -113.000;  -21.000
216.205; -211.800; -731.000; -779.000
216.349; -138.500; -470.000; -533.000
216.494; -270.000; -939.000; -867.000
216.639; -210.400; -823.000; -888.000
216.784; -170.100; -577.000; -525.000
216.929;  116.900;  392.000;  281.000
217.073;  -14.600; -244.000;  -31.000
217.218;   26.300;   78.000;  -47.000
217.363; -166.300; -656.000; -618.000
217.507; -198.600; -623.000; -588.000
217.652; -226.500; -845.000; -874.000
217.797; -155.600; -708.000; -659.000
217.942; -195.100; -856.000; -720.000
218.086;  140.700;  608.000;  539.000
218.231;  -20.900; -174.000;  -26.000
218.376;  -50.700; -337.000; -229.000
218.520;   17.200;  -41.000;   96.000
218.665;  -67.700; -338.000; -204.000
218.810;  -89.900; -275.000; -233.000
218.954;   45.900;  201.000;   35.000
219.099; -219.500; -713.000; -963.000
219.243; -142.100; -589.000; -554.000
219.388;  -77.700; -264.000; -136.000
219.532;   18.800; -116.000; -116.000
219.677; -148.100; -564.000; -521.000
219.822;    8.600;   33.000;   89.000
219.966;   10.100;   17.000;  -99.000
220.111;  -46.100; -328.000;  -40.000
220.255; -190.900; -797.000; -750.000
220.400;  -51.600; -180.000; -146.000
220.544; -140.700; -516.000; -450.000
220.689; -121.600; -422.000; -451.000
220.833;  -68.100; -123.000;  -58.000
220.978; -125.900; -393.000; -563.000
221.122;   76.600;  319.000;  307.000
221.267; -215.800; -906.000; -837.000
221.411; -114.400; -478.000; -394.000
221.555;  -14.600; -104.000;  -23.000
221.700;  -87.600; -329.000; -222.000
221.844;   60.200;  255.000;  272.000
221.989;  -91.500; -328.000; -311.000
222.133;  -49.700; -289.000; -307.000
222.277;   -9.500;    5.000;   78.000
222.422;   25.800;  227.000;  113.000
222.566;  -83.700; -381.000; -214.000
222.711;  -90.100; -414.000; -479.000
222.855; -153.900; -643.000; -586.000
222.999; -180.500; -642.000; -717.000
223.144;  -43.600; -195.000; -194.000
223.288;   94.600;  423.000;  251.000
223.432;   24.000;  184.000;  230.000
223.576;   36.700;  152.000;  -21.000
223.721;  101.900;  364.000;  273.000
223.865; -100.300; -472.000; -475.000
224.009;  491.200; 1673.000; 1631.000
224.153; -160.400; -660.000; -671.000
224.298; -117.500; -531.000; -489.000
224.442;  -28.300;  -74.000;  -33.000
224.586;  -10.000; -169.000; -106.000
224.730; -178.000; -858.000; -670.000
224.875; -191.700; -739.000; -688.000
225.019;   40.400;  102.000;  188.000
225.163;  144.800;  208.000;  341.000
225.307;   19.500;   97.000;  -91.000
225.451;  127.800;  360.000;  481.000
225.595;   41.500;  264.000;  176.000
225.739;  -34.700; -170.000;  -94.000
225.884;   -1.200;   86.000;    5.000
226.028; -149.800; -760.000; -626.000
226.172;  -63.200; -260.000; -273.000
226.316; -251.800; -941.000; -902.000
226.460; -131.100; -645.000; -493.000
226.604; -105.400; -406.000; -400.000
226.748; -188.700; -836.000; -733.000
226.892;  -40.400; -227.000; -181.000
227.036;  -87.300; -537.000; -447.000
227.180; -100.000; -551.000; -375.000
227.324; -105.300; -561.000; -580.000
227.468; -221.700; -819.000; -717.000
227.612;   52.700;  242.000;  -28.000
227.756;  -65.500; -845.000; -698.000
227.900;  117.900;  342.000;  441.000
228.044; -116.100; -509.000; -290.000
228.188;  111.200;  448.000;  568.000
228.332; -185.700; -546.000; -472.000
228.476;  -37.600; -223.000; -149.000
228.620;  -61.700; -210.000; -150.000
228.764;  151.500;  431.000;  349.000
228.908;  -46.500; -155.000;   30.000
229.052; -115.800; -615.000; -528.000
229.195;    8.800; -172.000;   13.000
229.339;  -32.500; -235.000; -305.000
229.483;  -58.700;    5.000; -162.000
229.627;  -16.900; -156.000;  139.000
229.771;  -90.100; -218.000; -294.000
229.915;   42.900;  230.000;   79.000
230.059; -193.800; -648.000; -663.000
230.202;  -51.100; -370.000; -317.000
230.346;  -21.000; -107.000;  107.000
230.490; -158.500; -489.000; -521.000
230.634; -193.100; -736.000; -553.000
230.777;  181.300;  478.000;  509.000
230.921;  -95.300; -450.000; -359.000
231.065;  -77.400; -246.000; -286.000
231.209;   83.700;  261.000;  265.000
231.352;   69.700;   54.000;   40.000
231.496;   42.300;  568.000;  188.000
231.640; -158.500; -693.000; -621.000
231.783;  116.600;  546.000;  525.000
231.927;  -92.600; -294.000; -365.000
232.071; -229.600; -962.000; -736.000
232.214; -233.100; -980.000; -764.000
232.358; -199.800; -683.000; -599.000
232.502;   19.600;  -19.000;    7.000
232.645; -258.000;-1090.000; -927.000
232.789;  -32.100; -257.000; -218.000
232.933;  -71.300; -407.000; -224.000
233.076; -259.800;-1038.000; -897.000
233.220; -204.400; -752.000; -777.000
233.363; -156.000; -669.000; -477.000
233.507;  143.000;  371.000;  129.000
233.650; -170.100; -764.000; -834.000
233.794;   83.700;  438.000;  461.000
233.938; -111.700; -530.000; -362.000
234.081;    0.100;  -93.000;   31.000
234.225; -119.900; -631.000; -539.000
234.368; -183.300; -773.000; -723.000
234.512;  -46.200; -385.000; -299.000
234.655; -148.400; -582.000; -555.000
234.798; -127.600; -493.000; -466.000
234.942; -242.800; -884.000;-1002.000
235.085; -138.700; -651.000; -443.000
235.229; -145.200; -405.000; -410.000
235.372; -106.300; -247.000; -191.000
235.516;  -95.700; -397.000; -321.000
235.659;   64.000;   92.000;  121.000
235.802;   18.800;  -38.000;  -22.000
235.946;   32.900;  335.000;  215.000
236.089;   75.200;  126.000;  250.000
236.233;  123.000;  275.000;  298.000
236.376;  -81.200; -235.000; -378.000
236.519;  -65.300; -297.000; -319.000
236.663;   -5.700; -215.000; -117.000
236.806; -273.100;-1029.000; -999.000
236.949;  110.200;  543.000;  431.000
237.092;  112.100;  412.000;  391.000
237.236; -112.700; -589.000; -502.000
237.379;  140.800;  352.000;  428.000
237.522; -249.900; -879.000; -768.000
237.666;  -10.300; -271.000;   18.000
237.809; -223.800; -851.000; -823.000
237.952;   59.900;  469.000;  271.000
238.095; -131.100; -447.000; -442.000
238.238;  182.700;  688.000;  700.000
238.382;   -0.300;  166.000;  103.000
238.525; -124.900; -598.000; -511.000
238.668; -299.100;-1060.000; -985.000
238.811; -153.200; -638.000; -643.000
238.954; -135.600; -483.000; -334.000
239.097;  228.600;  617.000;  664.000
239.241;   51.700;  394.000;  326.000
239.384;  -58.200; -254.000; -214.000
239.527; -110.400; -424.000; -224.000
239.670; -261.300; -994.000;-1091.000
239.813; -211.600; -696.000; -658.000
239.956;  192.700;  579.000;  473.000
240.099; -219.200; -778.000; -725.000
240.242;  138.200;  428.000;  432.000
240.385;  123.300;  466.000;  450.000
240.528; -130.600; -706.000; -473.000
240.671;   28.100;  189.000;  134.000
240.814;  -55.800; -441.000; -158.000
240.957; -178.700; -767.000; -578.000
241.100; -199.600; -779.000; -755.000
241.243; -281.500;-1234.000; -893.000
241.386; -135.700; -508.000; -379.000
241.529; -155.500; -735.000; -547.000
241.672; -119.200; -566.000; -495.000
241.815; -213.100; -832.000; -808.000
241.958;  -35.100; -125.000; -182.000
242.101; -169.800; -545.000; -390.000
242.244;  -72.700; -270.000; -325.000
242.387;  -92.000; -304.000; -246.000
242.530;   96.800;  470.000;  134.000
242.673;  -93.500; -381.000; -309.000
242.815; -236.200; -925.000; -899.000
242.958; -123.100; -482.000; -381.000
243.101;   56.100;  132.000;  187.000
243.244; -127.800; -564.000; -521.000
243.387;  -94.200; -313.000; -316.000
243.530; -184.100; -657.000; -674.000
243.672;   28.800;   43.000;  -92.000
243.815;  -97.400; -355.000; -283.000
243.958;   39.900;   98.000;  -26.000
244.101;    6.800;   59.000;  -16.000
244.243;   17.700;  -47.000;  101.000
244.386; -209.400; -761.000; -630.000
244.529;  -23.600; -132.000; -139.000
244.672; -299.400;-1154.000; -951.000
244.814; -191.900; -621.000; -794.000
244.957;  -75.700; -380.000; -304.000
245.100; -141.400; -489.000; -489.000
245.242; -104.700; -387.000; -374.000
245.385;   29.600;  -59.000;  -39.000
245.528; -212.800; -871.000; -705.000
245.670;  211.600;  612.000;  634.000
245.813; -181.900; -599.000; -547.000
245.956;  -15.600; -324.000; -275.000
246.098; -147.200; -508.000; -650.000
246.241;   71.400;  194.000;   48.000
246.383;  -28.900; -119.000;  -73.000
246.526; -162.500; -454.000; -525.000
246.669; -233.300; -889.000; -780.000
246.811;   34.400;  172.000;   -1.000
246.954;  -89.100; -512.000; -426.000
247.096;  -14.600;  -84.000;   -6.000
247.239; -153.700; -482.000; -445.000
247.381; -116.300; -647.000; -488.000
247.524;  204.800;  645.000;  679.000
247.666;    0.600;   58.000;   11.000
247.809; -227.200; -887.000; -691.000
247.951;  -21.900;  -75.000;  138.000
248.094;   30.400;  432.000;  308.000
248.236; -295.000;-1262.000;-1238.000
248.378;  -39.500; -356.000;  -81.000
248.521;  -75.100; -334.000; -337.000
248.663;  -93.100; -236.000; -267.000
248.806;  -60.900; -300.000; -266.000
248.948; -226.600; -886.000; -763.000
249.090; -126.000; -428.000; -398.000
249.233; -140.300; -344.000; -381.000
249.375;  -93.900; -474.000; -451.000
249.518;  -47.800;  -83.000; -133.000
249.660;  -19.500; -103.000;    3.000
249.802; -352.200;-1303.000;-1189.000
249.945; -126.900; -612.000; -540.000
250.087; -213.900; -834.000; -768.000
250.229; -105.500; -362.000; -480.000
250.371; -138.200; -494.000; -439.000
250.514; -103.600; -310.000; -244.000
250.656;    9.500;   69.000;  102.000
250.798; -249.700; -849.000; -800.000
250.940; -111.400; -322.000; -322.000
251.083;  -42.500; -335.000; -111.000
251.225;  117.100;  338.000;  310.000
251.367;  -96.200; -274.000; -373.000
251.509;  -73.100; -265.000; -210.000
251.651; -198.100; -731.000; -671.000
251.794;  196.000;  538.000;  632.000
251.936; -212.000; -821.000; -747.000
252.078; -141.200; -540.000; -461.000
252.220; -153.900; -645.000; -477.000
252.362;  115.100;  344.000;  462.000
252.504; -158.500; -677.000; -584.000
252.646; -225.100; -875.000; -722.000
252.788;  -17.000;   14.000; -128.000
252.931;  -72.400; -257.000; -253.000
253.073;  -72.500; -376.000; -317.000
253.215;    4.300;  141.000;  122.000
253.357;  -12.900;   82.000; -153.000
253.499;  -93.800; -374.000; -234.000
253.641; -148.100; -749.000; -594.000
253.783; -159.700; -609.000; -527.000
253.925; -182.700; -586.000; -591.000
254.067; -207.900; -744.000; -667.000
254.209;  -77.800; -391.000; -259.000
254.351; -253.700; -865.000; -883.000
254.493; -117.000; -441.000; -417.000
254.635; -226.700; -936.000; -818.000
254.777; -162.400; -752.000; -687.000
254.918; -136.100; -512.000; -430.000
255.060; -125.700; -551.000; -395.000
255.202; -115.800; -473.000; -261.000
255.344; -164.900; -658.000; -455.000
255.486; -151.800; -471.000; -406.000
255.628; -223.300; -780.000; -781.000
255.770; -170.700; -676.000; -536.000
255.912; -100.900; -559.000; -468.000
256.053; -190.600; -730.000; -508.000
256.195;  320.800; 1008.000;  903.000
256.337; -177.400; -861.000; -595.000
256.479;  144.100;  532.000;  416.000
256.621; -109.200; -394.000; -212.000
256.762; -191.000; -789.000; -742.000
256.904;  104.900;  485.000;  487.000
257.046;  -74.500; -381.000; -271.000
257.188;  -82.900; -351.000; -264.000
257.329; -128.700; -525.000; -464.000
257.471; -218.100; -939.000; -807.000
257.613; -119.700; -584.000; -498.000
257.755; -292.000;-1073.000; -982.000
257.896;   88.700;  286.000;  392.000
258.038; -122.000; -403.000; -352.000
258.180;  -76.400; -354.000; -279.000
258.321; -143.900; -581.000; -457.000
258.463;   -0.800;  -71.000;  133.000
258.605; -188.000; -562.000; -570.000
258.746; -220.100; -886.000; -772.000
258.888; -300.700;-1026.000;-1020.000
259.029;   25.500;  121.000;   -8.000
259.171; -189.200; -614.000; -550.000
259.313;   26.100;  -49.000;  -47.000
259.454; -126.600; -536.000; -414.000
259.596;  -93.300; -483.000; -390.000
259.737; -180.300; -590.000; -474.000
259.879;   88.000;  217.000;  311.000
260.020;  179.300;  901.000;  636.000
260.162;  -36.500; -146.000; -253.000
260.303; -200.000; -768.000; -687.000
260.445; -152.600; -609.000; -613.000
260.586;  100.900;  392.000;  157.000
260.728; -104.000; -360.000; -248.000
260.869; -142.600; -350.000; -343.000
261.011;  178.600;  706.000;  537.000
261.152; -114.200; -479.000; -319.000
261.293; -170.400; -576.000; -595.000
261.435;  -48.300; -219.000; -184.000
261.576;  -93.000; -455.000; -325.000
261.718;  133.700;  420.000;  470.000
261.859; -253.800; -940.000; -949.000
262.000; -248.400; -951.000;-1016.000
262.142;  -25.700;  -52.000;  -60.000
262.283; -216.200; -808.000; -691.000
262.424; -149.400; -666.000; -625.000
262.566; -323.200;-1161.000; -983.000
262.707; -247.100; -840.000; -830.000
262.848; -248.300; -769.000; -726.000
262.990;  -49.000; -362.000; -345.000
263.131;  169.300;  650.000;  681.000
263.272;  -13.600;  -61.000;  -41.000
263.413; -174.500; -589.000; -561.000
263.555; -109.900; -669.000; -143.000
263.696; -157.700; -550.000; -641.000
263.837;  -91.600; -449.000; -551.000
263.978;    6.100;   -5.000;  -77.000
264.119;  -79.300; -283.000; -264.000
264.261; -218.900; -847.000; -630.000
264.402;   -0.200;   33.000;   40.000
264.543; -136.200; -509.000; -524.000
264.684;  -12.200;   61.000;  -50.000
264.825; -162.600; -816.000; -538.000
264.966;    3.900;  -84.000;  -67.000
265.107; -210.500; -646.000; -670.000
265.248; -231.600; -825.000; -812.000
265.390;  -11.700;  152.000;   -9.000
265.531;  -50.000; -238.000; -107.000
265.672; -176.200; -557.000; -630.000
265.813;  131.900;  563.000;  439.000
265.954; -250.800; -959.000; -940.000
266.095;  -35.400; -372.000; -322.000
266.236; -216.700; -686.000; -548.000
266.377;  -49.700; -243.000; -297.000
266.518; -147.000; -619.000; -547.000
266.659;   59.000;  170.000;  268.000
266.800;   16.400;   83.000;   85.000
266.941; -169.700; -487.000; -478.000
267.082;   24.900;  354.000;   99.000
267.223;  -92.800; -344.000; -273.000
267.364; -231.600; -892.000; -686.000
267.504;   10.900;    3.000;  135.000
267.645;   12.400;  160.000;   67.000
267.786;  -55.900; -147.000;  -86.000
267.927; -149.700; -473.000; -379.000
268.068;   -7.500; -186.000;  -61.000
268.209;  -79.200; -175.000; -413.000
268.350;  -61.600; -388.000; -532.000
268.490; -173.500; -648.000; -521.000
268.631;   72.700;  127.000;  225.000
268.772; -183.900; -874.000; -647.000
268.913;  -83.400; -328.000; -476.000
269.054;  -21.900; -117.000;   12.000
269.194; -109.600; -418.000; -402.000
269.335; -258.500;-1137.000;-1074.000
269.476;  -28.100;   33.000;  -35.000
269.617;  -95.100; -347.000; -392.000
269.757; -163.700; -713.000; -646.000
269.898; -231.600; -856.000; -613.000
270.039; -147.100; -415.000; -405.000
270.180; -272.200; -952.000; -816.000
270.320;  -60.200; -190.000; -250.000
270.461;  -41.400; -277.000; -249.000
270.602;   12.800; -186.000; -156.000
270.742; -250.100; -868.000; -943.000
270.883; -114.500; -442.000; -390.000
271.023;  -98.100; -358.000; -357.000
271.164; -152.900; -607.000; -528.000
271.305; -178.600; -666.000; -654.000
271.445; -172.100; -722.000; -683.000
271.586; -121.900; -462.000; -283.000
271.726;  -92.700; -397.000; -322.000
271.867; -158.200; -594.000; -534.000
272.008;  -64.900; -473.000; -285.000
272.148;  109.300;  462.000;  468.000
272.289;  -36.700; -113.000; -181.000
272.429;   31.800;   19.000;  185.000
272.570; -172.800; -633.000; -737.000
272.710; -204.800; -825.000; -775.000
272.851;  -73.200;  113.000; -130.000
272.991; -330.800;-1173.000;-1077.000
273.131; -114.400; -419.000; -459.000
273.272; -197.400; -683.000; -723.000
273.412;  -36.200; -143.000;  -31.000
273.553; -155.400; -488.000; -507.000
273.693;  248.400;  913.000;  858.000
273.834; -262.400; -894.000; -692.000
273.974; -173.900; -664.000; -615.000
274.114; -182.600; -772.000; -560.000
274.255;  107.800;  414.000;  373.000
274.395;  -79.800; -180.000; -125.000
274.535;   36.200;  199.000;  350.000
274.676;   75.100;  225.000;   94.000
274.816;  -15.700;  110.000;   34.000
274.956; -184.200; -624.000; -690.000
275.097; -263.800;-1014.000; -922.000
275.237; -252.700; -913.000; -803.000
275.377; -204.500; -778.000; -689.000
275.517; -293.800; -878.000; -937.000
275.658; -129.900; -590.000; -555.000
275.798; -183.000; -606.000; -413.000
275.938;   34.800;  215.000;  323.000
276.078; -153.700; -626.000; -395.000
276.218;   14.800;   99.000;  104.000
276.359; -253.700;-1026.000;-1024.000
276.499; -136.400; -605.000; -446.000
276.639;  -75.700; -305.000; -151.000
276.779; -111.400; -475.000; -357.000
276.919; -175.100; -783.000; -624.000
277.059;  -46.900; -261.000; -212.000
277.199;  -98.100; -357.000; -259.000
277.340;  100.800;  287.000;  175.000
277.480; -189.600; -840.000; -693.000
277.620;   59.600;  192.000;   16.000
277.760; -396.400;-1533.000;-1294.000
277.900;   -9.500;  113.000;   33.000
278.040;   44.300;  137.000;  159.000
278.180;   90.500;  270.000;  170.000
278.320;  -10.700;   21.000;   56.000
278.460; -142.300; -443.000; -469.000
278.600; -155.700; -708.000; -598.000
278.740;   77.200;  448.000;  224.000
278.880; -245.800; -768.000; -791.000
279.020;  -47.600; -194.000; -144.000
279.160; -206.700; -672.000; -595.000
279.300; -213.000; -926.000; -873.000
279.440; -194.600; -709.000; -622.000
279.579; -251.100;-1014.000; -929.000
279.719; -106.400; -410.000; -394.000
279.859;    6.500;   -4.000;   41.000
279.999;  -45.200; -208.000;  101.000
280.139; -124.000; -435.000; -387.000
280.279; -236.600; -708.000; -745.000
280.419;  -40.300; -229.000; -147.000
280.559;  -74.800; -259.000; -180.000
280.698; -190.900; -790.000; -639.000
280.838; -231.700; -778.000; -800.000
280.978; -215.300; -846.000; -790.000
281.118; -197.400; -811.000; -704.000
281.257;   18.500;   24.000;    6.000
281.397; -306.100;-1094.000; -960.000
281.537; -203.800; -599.000; -712.000
281.677;  -41.300; -150.000; -101.000
281.816; -190.900; -700.000; -630.000
281.956;  -72.000; -193.000; -257.000
282.096; -126.900; -539.000; -396.000
282.235; -179.800; -672.000; -638.000
282.375;  -63.600; -243.000;  -98.000
282.515; -212.100; -715.000; -707.000
282.654;   17.200;   29.000;  106.000
282.794;   31.100;  388.000;  244.000
282.934; -106.700; -530.000; -491.000
283.073; -265.000;-1030.000; -857.000
283.213; -105.800; -460.000; -467.000
283.353; -136.400; -408.000; -349.000
283.492;  -57.900; -264.000; -296.000
283.632;  -75.900; -254.000; -168.000
283.771; -200.300; -859.000; -730.000
283.911;  -79.100; -369.000; -260.000
284.050; -210.300; -794.000; -748.000
284.190; -274.600;-1229.000;-1096.000
284.329; -312.800;-1055.000; -964.000
284.469; -178.700; -516.000; -591.000
284.608; -118.400; -559.000; -598.000
284.748; -184.100; -614.000; -570.000
284.887;    5.200;  -87.000;  -20.000
285.027; -249.300; -844.000; -892.000
285.166;  -85.000; -192.000; -249.000
285.306;  -53.800; -116.000;  -33.000
285.445;  -78.400; -229.000; -343.000
285.584; -169.500; -630.000; -494.000
285.724;  -98.200; -282.000; -322.000
285.863; -207.600; -857.000; -507.000
286.002; -107.800; -366.000; -276.000
286.142; -215.700; -715.000; -622.000
286.281; -127.100; -525.000; -493.000
286.420; -143.800; -554.000; -417.000
286.560;  227.900;  653.000;  623.000
286.699; -262.600; -958.000; -912.000
286.838; -167.700; -590.000; -591.000
286.978; -160.700; -533.000; -537.000
287.117; -304.600;-1085.000; -950.000
287.256;  -84.400; -228.000; -211.000
287.395;  -75.300; -197.000; -378.000
287.535;  -79.300; -370.000; -298.000
287.674; -125.000; -509.000; -484.000
287.813;  127.400;  661.000;  533.000
287.952; -254.700;-1010.000; -871.000
288.091; -287.400;-1049.000; -915.000
288.231;  -21.500;   13.000;   15.000
288.370; -341.700;-1217.000;-1200.000
288.509; -208.900; -728.000; -645.000
288.648; -175.800; -770.000; -548.000
288.787;  -37.600; -243.000;  -87.000
288.926; -136.100; -454.000; -475.000
289.065;  211.900;  859.000;  672.000
289.204; -133.400; -377.000; -217.000
289.344; -188.300; -791.000; -690.000
289.483;   31.900;  416.000;  304.000
289.622;  -63.200; -291.000; -149.000
289.761;  -45.400; -309.000; -166.000
289.900; -224.300; -785.000; -626.000
290.039;  -35.500;  -12.000;  -95.000
290.178;  -54.400; -274.000; -180.000
290.317; -169.600; -618.000; -479.000
290.456; -114.800; -463.000; -451.000
290.595; -269.800; -961.000; -833.000
290.734; -278.200; -904.000; -891.000
290.873; -126.800; -456.000; -420.000
291.011; -243.000; -833.000; -843.000
291.150; -221.100; -770.000; -682.000
291.289;  -41.300; -343.000; -110.000
291.428; -183.700; -599.000; -480.000
291.567; -101.900; -370.000; -442.000
291.706;    6.400;  109.000;  154.000
291.845; -158.500; -597.000; -505.000
291.984; -346.300;-1234.000;-1061.000
292.122;  121.500;  602.000;  582.000
292.261;  112.100;  620.000;  463.000
292.400;    9.000; -144.000;  211.000
292.539; -246.700; -959.000; -813.000
292.678;  -69.600; -325.000; -300.000
292.816; -333.200;-1136.000; -965.000
292.955; -180.800; -844.000; -684.000
293.094;  -68.600; -173.000; -337.000
293.233; -129.800; -556.000; -400.000
293.371;  -77.400; -225.000;  -84.000
293.510; -209.100; -866.000; -780.000
293.649; -244.500; -959.000; -924.000
293.787; -283.800;-1083.000;-1012.000
293.926;  -40.100; -113.000;  -32.000
294.065;  -99.000; -379.000; -290.000
294.203;   84.000;  298.000;  406.000
294.342;   22.700;   74.000;  156.000
294.481;12419.400;51180.000; -836.000
294.619;  -50.200; -425.000; -582.000
294.758; -324.600;-1230.000;-1137.000
294.896;    3.000; -125.000;    5.000
295.035; -272.900;-1040.000;-1006.000
295.174; -292.100;-1082.000; -954.000
295.312; -102.500; -323.000; -203.000
295.451; -116.500; -307.000; -428.000
295.589; -138.300; -389.000; -518.000
295.728;   -0.100; -292.000; -165.000
295.866;   -8.300;  -36.000;  -51.000
296.005; -181.500; -584.000; -341.000
296.143; -151.500; -558.000; -596.000
296.282; -244.600; -957.000; -881.000
296.420; -175.300; -657.000; -557.000
296.559; -213.100; -892.000; -633.000
296.697; -206.200; -847.000; -665.000
296.835; -308.000;-1141.000;-1002.000
296.974;   16.300;  -23.000;   39.000
297.112; -153.100; -443.000; -504.000
297.251; -222.300; -815.000; -755.000
297.389; -150.400; -576.000; -438.000
297.527;  -29.900; -145.000;  -83.000
297.666; -124.200; -486.000; -438.000
297.804; -141.200; -404.000; -264.000
297.942;  -21.000; -136.000; -161.000
298.081;  -19.400; -183.000;   63.000
298.219;  -49.100;  -17.000;  -19.000
298.357;  -86.400; -144.000;  -71.000
298.495; -255.600; -810.000; -812.000
298.634;   -0.100;  245.000;  219.000
298.772;  -89.400; -220.000; -338.000
298.910;  -92.900; -309.000; -182.000
299.048;  -49.800; -130.000; -153.000
299.187;  -75.300; -350.000; -250.000
299.325;   16.700;   52.000;  122.000
299.463; -112.900; -389.000; -299.000
299.601;  -74.000; -327.000; -271.000
299.739; -280.300; -908.000; -883.000
299.877; -182.300; -791.000; -703.000
300.016; -290.700;-1095.000; -935.000
300.154;  -22.100;  -19.000; -161.000
300.292; -123.800; -428.000; -348.000
300.430;  -72.300; -408.000; -291.000
300.568; -276.300; -940.000; -874.000
300.706; -133.300; -366.000; -469.000
300.844; -272.900;-1108.000; -979.000
300.982;  102.100;  246.000;  282.000
301.120; -293.900; -965.000; -866.000
301.258; -181.100; -812.000; -705.000
301.396;    4.100;  104.000;  -41.000
301.534;  -74.600; -218.000; -293.000
301.672; -181.700; -664.000; -521.000
301.810; -163.800; -613.000; -545.000
301.948;   36.200;   53.000;  149.000
302.086;  -55.100; -250.000;  -32.000
302.224; -200.800; -610.000; -585.000
302.362; -174.600; -558.000; -622.000
302.500; -268.800; -923.000; -893.000
302.638;   18.900;  128.000;  245.000
302.776; -100.100; -352.000; -408.000
302.913;   73.800;  447.000;  236.000
303.051;  -27.800;  -86.000;  -23.000
303.189;   61.400;   90.000;  118.000
303.327; -108.200; -341.000; -256.000
303.465; -180.800; -832.000; -588.000
303.603; -228.700; -805.000; -604.000
303.740;   87.100;  417.000;  241.000
303.878; -214.500; -800.000; -759.000
304.016; -232.800; -915.000; -790.000
304.154; -349.100;-1123.000;-1152.000
304.291; -127.200; -505.000; -554.000
304.429;   -5.300;  102.000;   74.000
304.567; -270.300; -908.000; -893.000
304.705; -148.900; -408.000; -515.000
304.842; -193.300; -616.000; -540.000
304.980;   12.500;  215.000;   35.000
305.118;  -80.200; -367.000; -365.000
305.255; -264.700; -945.000; -927.000
305.393;   71.000;  178.000;  239.000
305.531; -325.800;-1173.000; -956.000
305.668; -165.300; -663.000; -582.000
305.806; -147.200; -358.000; -439.000
305.943; -174.000; -629.000; -637.000
306.081;  -91.400; -378.000; -267.000
306.219; -217.100; -863.000; -748.000
306.356;   16.700;  158.000;   27.000
306.494;  207.800;  981.000;  761.000
306.631;  -27.200;  -11.000;  -55.000
306.769; -109.700; -613.000; -485.000
306.906; -110.800; -284.000; -258.000
307.044; -138.500; -473.000; -488.000
307.181; -129.500; -410.000; -332.000
307.319;   38.700;  112.000;   87.000
307.456; -359.400;-1191.000;-1153.000
307.594; -263.200; -980.000; -727.000
307.731;  -64.000; -371.000; -164.000
307.868;   -4.600;  -15.000;   20.000
308.006; -282.900; -961.000; -847.000
308.143; -148.900; -618.000; -330.000
308.281;  -59.100;  -37.000; -254.000
308.418; -181.500; -748.000; -640.000
308.555; -159.500; -400.000; -250.000
308.693; -150.000; -577.000; -573.000
308.830; -223.900; -712.000; -657.000
308.967;  -41.600; -215.000;  -95.000
309.105; -124.400; -507.000; -396.000
309.242;  -94.700; -468.000; -367.000
309.379; -219.600; -577.000; -655.000
309.517; -254.400; -936.000; -948.000
309.654; -258.000; -910.000; -734.000
309.791; -142.000; -662.000; -580.000
309.928; -265.300; -977.000; -914.000
310.065;  228.300;  819.000;  697.000
310.203; -252.900; -825.000; -850.000
310.340; -159.300; -465.000; -321.000
310.477; -144.000; -412.000; -516.000
310.614; -166.700; -383.000; -473.000
310.751; -170.400; -427.000; -518.000
310.889;  -30.200;    1.000;   11.000
311.026; -327.800;-1161.000; -939.000
311.163;  -84.700; -386.000; -380.000
311.300; -176.200; -512.000; -479.000
311.437; -171.800; -658.000; -619.000
311.574; -320.700;-1226.000; -985.000
311.711; -139.300; -595.000; -433.000
311.848;  -83.900; -380.000; -388.000
311.985;   21.500;  270.000;   93.000
312.122; -259.500; -932.000; -762.000
312.259; -259.000; -941.000; -994.000
312.396; -185.700; -508.000; -551.000
312.533; -188.400; -812.000; -790.000
312.670; -283.800;-1070.000; -898.000
312.807; -123.600; -352.000; -367.000
312.944; -181.000; -513.000; -611.000
313.081;  -81.300; -150.000; -415.000
313.218; -282.400;-1111.000; -867.000
313.355; -114.800; -531.000; -449.000
313.492;  -76.800; -455.000; -292.000
313.629;  162.600;  815.000;  735.000
313.766; -349.800;-1176.000;-1008.000
313.902;  -22.000; -186.000;   21.000
314.039;  -97.400; -372.000; -289.000
314.176;   61.100;  286.000;  192.000
314.313; -155.900; -569.000; -473.000
314.450; -203.800; -788.000; -684.000
314.587; -139.100; -468.000; -480.000
314.723;  -14.700;  -78.000;  130.000
314.860;   67.400;  318.000;  332.000
314.997;   35.200;  223.000;  142.000
315.134; -111.500; -385.000; -368.000
315.270; -158.100; -480.000; -496.000
315.407; -325.300;-1094.000; -967.000
315.544; -136.900; -657.000; -538.000
315.681; -198.700; -681.000; -565.000
315.817;  -39.300; -133.000; -176.000
315.954; -161.700; -613.000; -392.000
316.091; -271.900;-1045.000;-1023.000
316.227;  -40.900;  -71.000; -179.000
316.364;    8.200;   23.000;    6.000
316.500;  -96.200; -113.000; -300.000
316.637;  -92.400; -181.000; -302.000
316.774; -166.900; -625.000; -358.000
316.910; -180.000; -598.000; -629.000
317.047; -176.700; -487.000; -351.000
317.183; -118.900; -435.000; -566.000
317.320; -121.600; -367.000; -321.000
317.456; -233.000; -733.000; -805.000
317.593; -211.500; -598.000; -641.000
317.729;   25.400;  168.000;  -67.000
317.866; -411.100;-1434.000;-1285.000
318.002; -195.300; -708.000; -948.000
318.139; -220.900; -883.000; -867.000
318.275; -244.100;-1003.000; -738.000
318.412; -138.400; -517.000; -336.000
318.548; -189.400; -751.000; -720.000
318.685; -267.500; -985.000; -888.000
318.821; -221.200; -762.000; -735.000
318.957;  -47.100;   34.000;  -23.000
319.094;   85.000;  297.000;  154.000
319.230; -237.900; -756.000; -742.000
319.367; -145.100; -471.000; -520.000
319.503; -146.400; -538.000; -436.000
319.639; -220.500; -877.000; -793.000
319.775; -203.000; -750.000; -685.000
319.912; -130.000; -424.000; -519.000
320.048; -323.000;-1184.000;-1184.000
320.184;   41.000;   59.000;   70.000
320.321; -155.500; -497.000; -467.000
320.457;   92.100;  475.000;  662.000
320.593; -131.700; -375.000; -382.000
320.729; -206.400; -732.000; -734.000
320.866; -155.000; -577.000; -635.000
321.002; -225.400; -759.000; -809.000
321.138;  -83.400; -135.000; -211.000
321.274;  -25.600; -148.000; -115.000
321.410; -146.200; -585.000; -353.000
321.546; -275.100;-1011.000; -911.000
321.683;   67.700;  400.000;  185.000
321.819;    2.600;  -48.000; -117.000
321.955; -221.800; -743.000; -722.000
322.091; -148.900; -585.000; -540.000
322.227;  -78.400; -382.000; -202.000
322.363;  -76.200; -320.000; -215.000
322.499; -105.100; -343.000; -331.000
322.635;  121.200;  636.000;  443.000
322.771;  -33.400; -139.000;   12.000
322.907;   74.800;  129.000;  327.000
323.043;  -96.200; -115.000; -206.000
323.179; -100.200; -394.000; -363.000
323.315; -147.000; -401.000; -371.000
323.451; -107.900; -328.000; -236.000
323.587;  -72.400;  -60.000;  -77.000
323.723; -194.500; -682.000; -601.000
323.859;  -55.000; -258.000;  -76.000
323.995; -121.100; -467.000; -409.000
324.131; -257.500; -967.000; -892.000
324.267;  -86.800; -254.000; -276.000
324.402; -288.900; -960.000; -983.000
324.538;  -96.500; -279.000; -104.000
324.674;  -20.200;  164.000;   77.000
324.810;   11.800;  226.000;  308.000
324.946; -115.000; -810.000; -658.000
325.082; -155.400; -568.000; -475.000
325.217;  -25.500;  -62.000;   16.000
325.353; -207.800; -764.000; -659.000
325.489; -183.300; -540.000; -506.000
325.625; -131.200; -579.000; -525.000
325.760;   46.700;  517.000;  376.000
325.896; -164.100; -515.000; -702.000
326.032;  -99.300; -403.000; -352.000
326.168; -149.400; -462.000; -369.000
326.303;  -90.900; -352.000; -461.000
326.439;  -78.900; -336.000; -276.000
326.575;  -55.900; -190.000;  -29.000
326.710;  -48.100; -156.000;  -30.000
326.846;   -6.400;  146.000;  103.000
326.982; -174.500; -530.000; -548.000
327.117; -153.500; -481.000; -442.000
327.253; -194.200; -745.000; -742.000
327.388; -357.700;-1137.000;-1153.000
327.524; -212.600; -811.000; -578.000
327.659;  -58.500;  -58.000;  -22.000
327.795;  -13.300;   69.000;   45.000
327.931; -192.400; -723.000; -499.000
328.066;  -84.200; -417.000; -276.000
328.202;  -48.600;   12.000; -129.000
328.337;  182.400;  957.000;  713.000
328.473;   -8.800;  -12.000;  -74.000
328.608;  -57.900; -256.000; -267.000
328.743; -255.000; -799.000; -664.000
328.879;   56.400;  214.000;  114.000
329.014; -101.400; -102.000; -122.000
329.150; -170.900; -358.000; -483.000
329.285; -189.300; -465.000; -466.000
329.421; -117.800; -548.000; -246.000
329.556;  -54.200;  -36.000;   85.000
329.691; -178.600; -633.000; -615.000
329.827; -182.200; -626.000; -480.000
329.962; -100.000;  131.000; -301.000
330.097; -179.900; -673.000; -585.000
330.233;  -96.200; -410.000; -223.000
330.368; -243.500; -839.000; -628.000
330.503;  -16.100;    3.000;   98.000
330.638;  -31.800;  -93.000; -125.000
330.774; -198.400; -609.000; -530.000
330.909;  -97.900; -434.000; -244.000
331.044; -214.100; -714.000; -708.000
331.179; -333.600;-1217.000;-1109.000
331.315;   42.000;   77.000;   20.000
331.450;    7.100;  157.000;  285.000
331.585; -202.300; -805.000; -706.000
331.720; -169.700; -510.000; -460.000
331.855;  -63.200;  -35.000; -102.000
331.990;    3.000;   62.000;  138.000
332.126;    5.100; -110.000;   71.000
332.261;  -77.200; -379.000; -265.000
332.396;  -68.400; -135.000; -242.000
332.531; -309.200;-1074.000;-1031.000
332.666; -133.500; -519.000; -363.000
332.801; -231.900; -726.000; -807.000
332.936;  -18.600; -192.000; -122.000
333.071; -287.400; -870.000; -817.000
333.206;   36.000;  307.000;  379.000
333.341;   97.600;  344.000;  418.000
333.476; -160.000; -627.000; -623.000
333.611;  -75.900; -251.000; -173.000
333.746; -114.300; -381.000; -464.000
333.881; -254.700; -973.000; -935.000
334.016; -264.500; -936.000; -917.000
334.151; -258.300; -746.000; -702.000
334.286;    3.900;  152.000;  186.000
334.421;  -45.700; -125.000; -178.000
334.556; -187.900; -611.000; -567.000
334.690; -177.800; -631.000; -577.000
334.825;   85.100;  381.000;   83.000
334.960; -133.200; -285.000; -413.000
335.095;  -21.600;  135.000;  -91.000
335.230; -237.900; -722.000; -738.000
335.365; -309.600;-1084.000; -990.000
335.499; -326.600;-1108.000;-1037.000
335.634;  -12.500;    9.000;  534.000
335.769; -241.200; -755.000; -720.000
335.904; -196.200; -603.000; -561.000
336.038; -233.200; -735.000; -657.000
336.173; -331.100;-1206.000;-1194.000
336.308;  -67.700; -116.000; -189.000
336.443; -109.600; -544.000; -634.000
336.577; -273.600; -936.000; -787.000
336.712;  -24.700;   -4.000;  -12.000
336.847; -201.800; -724.000; -607.000
336.981; -101.600; -272.000; -208.000
337.116;  106.700;  615.000;  501.000
337.250; -143.200; -434.000; -421.000
337.385; -124.700; -297.000; -208.000
337.520; -197.200; -632.000; -603.000
337.654; -107.600; -215.000; -126.000
337.789; -250.000; -989.000; -933.000
337.923;  -65.800; -104.000; -205.000
338.058; -224.400; -673.000; -738.000
338.192; -205.100; -611.000; -488.000
338.327;  -31.800;  -18.000; -155.000
338.461; -177.500; -299.000; -469.000
338.596; -210.400; -780.000; -638.000
338.730; -217.900; -767.000; -803.000
338.865;  -41.200;  -46.000; -140.000
338.999; -269.600; -846.000; -702.000
339.134; -192.700; -634.000; -536.000
339.268; -194.000; -741.000; -603.000
339.403; -223.600; -740.000; -775.000
339.537; -233.800; -894.000; -820.000
339.671; -242.000; -829.000; -813.000
339.806; -188.700; -556.000; -512.000
339.940;  -70.600; -261.000; -235.000
340.074; -188.500; -685.000; -510.000
340.209;  -81.000; -351.000; -230.000
340.343; -155.000; -517.000; -573.000
340.477;  297.900;  998.000; 1036.000
340.612; -244.500;-1033.000; -900.000
340.746;  -92.900; -199.000; -243.000
340.880; -281.700; -924.000; -785.000
341.014;  -32.600;  -45.000; -154.000
341.149; -243.800; -756.000; -718.000
341.283; -219.400; -839.000; -754.000
341.417; -320.200;-1124.000; -938.000
341.551; -212.900; -768.000; -708.000
341.685; -178.800; -633.000; -611.000
341.820; -182.700; -562.000; -493.000
341.954; -121.500; -218.000; -349.000
342.088; -297.400;-1102.000;-1019.000
342.222;  102.900;  565.000;  618.000
342.356; -150.400; -395.000; -335.000
342.490; -253.000; -880.000; -841.000
342.624; -106.400; -339.000; -242.000
342.758;  -96.000; -364.000; -312.000
342.892; -165.400; -710.000; -585.000
343.026;  -68.600;  -58.000; -116.000
343.160;  -73.900; -426.000; -376.000
343.294; -158.500; -474.000; -337.000
343.428; -152.600; -488.000; -448.000
343.562;  -34.400; -172.000;  -23.000
343.696; -100.100; -385.000; -314.000
343.830; -129.900; -362.000; -356.000
343.964;  -73.700; -231.000; -168.000
344.098;  -11.600;  199.000;   70.000
344.232;  -50.700; -266.000; -127.000
344.366; -201.700; -567.000; -453.000
344.500; -217.700; -665.000; -744.000
344.634;  -87.300; -324.000; -164.000
344.768; -133.700; -531.000; -341.000
344.902;    1.900;  278.000;  256.000
345.035; -153.200; -556.000; -496.000
345.169; -251.300; -933.000; -656.000
345.303; -134.300; -308.000; -482.000
345.437; -212.500; -826.000; -717.000
345.571; -204.100; -675.000; -594.000
345.704; -120.300; -309.000; -532.000
345.838;  -74.600; -331.000; -284.000
345.972; -151.300; -543.000; -495.000
346.106;  -27.900; -179.000; -190.000
346.239;  -60.400; -312.000; -243.000
346.373; -122.200; -343.000; -302.000
346.507; -283.600; -950.000; -962.000
346.640;  -35.600;  -30.000;   13.000
346.774; -227.800; -650.000; -797.000
346.908;  -47.500; -138.000;  -11.000
347.041; -179.800; -646.000; -593.000
347.175;   55.400;  259.000;   27.000
347.309; -214.100; -698.000; -628.000
347.442; -219.300; -883.000; -732.000
347.576;  167.700;  670.000;  668.000
347.709;  -48.400; -123.000;  -52.000
347.843; -266.900; -933.000; -825.000
347.976;   88.300;  235.000;  294.000
348.110; -342.500;-1268.000;-1186.000
348.243; -213.800; -679.000; -772.000
348.377;   -9.800;  -26.000;   60.000
348.510;   96.600;  403.000;  540.000
348.644;  -78.500;  -37.000; -159.000
348.777;   11.700;  180.000;  191.000
348.911;  -82.900; -142.000; -112.000
349.044;  101.400;  471.000;  448.000
349.178; -308.100;-1069.000;-1006.000
349.311;   35.700;  141.000;  255.000
349.444; -266.800; -927.000; -813.000
349.578;  -65.000; -347.000; -200.000
349.711; -268.500; -959.000; -862.000
349.845; -193.700; -661.000; -591.000
349.978; -360.100;-1224.000;-1137.000
350.111; -186.200; -546.000; -612.000
350.244; -207.300; -596.000; -700.000
350.378; -103.300; -392.000; -393.000
350.511; -157.200; -393.000; -426.000
350.644; -236.700; -808.000; -806.000
350.778;   -8.100;  168.000;  104.000
350.911;   23.400;  134.000;  140.000
351.044; -205.600; -685.000; -615.000
351.177;  -74.300; -321.000; -281.000
351.310;  -50.400;    3.000; -131.000
351.444; -249.500; -888.000; -788.000
351.577;    2.400;  140.000;   90.000
351.710;  159.100;  593.000;  417.000
351.843;  -49.800; -165.000;  -77.000
351.976;   -3.300;  149.000;  -79.000
352.109; -204.100; -621.000; -612.000
352.242; -127.800; -464.000; -419.000
352.376; -181.300; -580.000; -636.000
352.509; -106.700; -437.000; -356.000
352.642; -323.900; -654.000; -604.000
352.775;  -63.900; -141.000;  -98.000
352.908; -251.600; -933.000; -904.000
353.041; -244.300; -814.000; -824.000
353.174; -160.300; -551.000; -424.000
353.307; -244.000; -753.000; -764.000
353.440;   84.900;  541.000;  453.000
353.573; -277.200; -957.000;-1008.000
353.706; -177.700; -384.000; -558.000
353.839;  -70.800; -264.000; -220.000
353.971; -161.600; -657.000; -512.000
354.104; -273.800; -896.000; -835.000
354.237; -218.500; -627.000; -662.000
354.370; -199.700; -846.000; -879.000
354.503; -381.400;-1231.000;-1308.000
354.636; -115.100; -529.000; -348.000
354.769; -277.600; -937.000; -860.000
354.902;  -76.900; -230.000; -139.000
355.034;  -58.300; -164.000; -220.000
355.167;  -92.400; -262.000; -162.000
355.300; -287.700;-1061.000; -880.000
355.433;  -37.800;  -71.000;  -14.000
355.565; -134.000; -402.000; -384.000
355.698; -103.400; -356.000; -296.000
355.831; -252.600; -882.000; -801.000
355.964; -102.400; -285.000; -170.000
356.096; -277.100; -856.000; -843.000
356.229; -175.000; -523.000; -530.000
356.362;  -92.300; -373.000; -266.000
356.494;  -75.500; -229.000; -162.000
356.627;   46.200;  269.000;  377.000
356.760;  -14.700;  120.000;   53.000
356.892; -199.900; -286.000; -601.000
357.025;   67.500;  403.000;  389.000
357.157;  -70.600; -167.000; -179.000
357.290; -248.700; -856.000; -713.000
357.423; -199.500; -667.000; -556.000
357.555;  -76.000; -217.000; -228.000
357.688; -112.000; -483.000; -364.000
357.820; -257.700; -870.000; -877.000
357.953; -207.700; -563.000; -589.000
358.085; -189.800; -632.000; -612.000
358.218; -300.900;-1131.000; -932.000
358.350;  -15.500;  -58.000;  312.000
358.483; -362.900;-1300.000;-1187.000
358.615; -300.900;-1182.000;-1078.000
358.747; -348.300;-1187.000;-1058.000
358.880; -210.200; -810.000; -744.000
359.012; -120.800; -376.000; -202.000
359.145; -169.400; -480.000; -511.000
359.277; -290.600; -962.000; -913.000
359.409;   63.600;  536.000;  231.000
359.542; -224.300; -738.000; -688.000
359.674;   -3.400;   46.000;   13.000
359.806; -166.700; -565.000; -438.000
359.939; -140.100; -617.000; -516.000
360.071; -195.000; -583.000; -579.000
360.203;  -96.400; -411.000; -364.000
360.335;  -24.300;  164.000;  -16.000
360.468;  -91.800; -249.000; -307.000
360.600; -180.800; -547.000; -454.000
360.732; -177.400; -546.000; -423.000
360.864; -370.400;-1216.000;-1044.000
360.996; -127.800; -516.000; -554.000
361.129; -150.100; -389.000; -598.000
361.261;  -22.800;  110.000; -113.000
361.393;  -99.600; -252.000; -214.000
361.525;   -5.000;   94.000;  244.000
361.657; -254.900; -821.000; -703.000
361.789;  -31.700; -139.000; -155.000
361.921; -172.400; -642.000; -593.000
362.053;  128.100;  524.000;  541.000
362.185;  -13.300;  288.000;   72.000
362.318; -235.200; -709.000; -705.000
362.450;   65.000;  294.000;  444.000
362.582; -266.800; -913.000; -870.000
362.714; -120.200; -353.000; -332.000
362.846; -182.400; -606.000; -490.000
362.978; -288.900; -941.000; -811.000
363.109; -123.300; -161.000; -260.000
363.241; -222.700; -739.000; -749.000
363.373; -173.200; -649.000; -564.000
363.505;  -41.300; -186.000;  -91.000
363.637; -177.700; -787.000; -601.000
363.769; -321.700;-1067.000;-1080.000
363.901; -175.600; -596.000; -654.000
364.033; -327.000;-1103.000;-1062.000
364.165;  -80.400; -283.000; -283.000
364.296; -127.100; -316.000; -177.000
364.428; -356.700;-1344.000;-1220.000
364.560; -233.400; -679.000; -661.000
364.692; -164.100; -738.000; -835.000
364.824; -183.100; -588.000; -456.000
364.955; -104.400; -402.000; -564.000
365.087; -299.100;-1097.000; -852.000
365.219; -224.400; -686.000; -816.000
365.351; -182.400; -526.000; -572.000
365.482;   15.300;  300.000;  240.000
365.614; -127.100; -402.000; -314.000
365.746; -227.400; -729.000; -752.000
365.877; -235.800; -706.000; -672.000
366.009;  -22.700;  -35.000;  -62.000
366.141; -359.400;-1249.000;-1134.000
366.272; -236.300; -803.000; -719.000
366.404; -269.500;-1005.000; -874.000
366.535;  -28.000; -139.000;  -12.000
366.667; -205.800; -644.000; -649.000
366.799;   66.900;  353.000;  203.000
366.930; -279.600; -862.000; -996.000
367.062; -125.100; -639.000; -613.000
367.193; -281.600; -872.000; -842.000
367.325; -172.300; -580.000; -684.000
367.456;  -93.500; -246.000;   31.000
367.588; -117.000; -371.000; -318.000
367.719;  -67.900;  -44.000;  -45.000
367.851;  -90.200; -222.000; -241.000
367.982; -276.700; -875.000; -732.000
368.113;  -85.500; -475.000; -358.000
368.245; -298.300; -960.000; -841.000
368.376;  -90.800; -254.000; -302.000
368.508;  -99.200; -188.000; -263.000
368.639; -307.400;-1166.000;-1034.000
368.770; -204.400; -670.000; -589.000
368.902; -252.400; -836.000; -926.000
369.033; -293.300; -906.000; -855.000
369.164; -193.500; -720.000; -653.000
369.296; -200.500; -452.000; -601.000
369.427;  -77.800; -209.000; -144.000
369.558; -139.800; -593.000; -377.000
369.689; -189.200; -721.000; -569.000
369.821; -265.300; -951.000; -845.000
369.952;  -43.500;   42.000; -108.000
370.083;  -99.800; -229.000; -108.000
370.214; -195.900; -735.000; -650.000
370.345;    0.100;   65.000;   81.000
370.477; -245.400; -810.000; -790.000
370.608; -100.900; -328.000; -264.000
370.739; -356.300;-1233.000;-1292.000
370.870; -292.800;-1102.000; -923.000
371.001; -135.600; -378.000; -467.000
371.132; -198.600; -754.000; -735.000
371.263;  -36.500;  -42.000; -148.000
371.394; -241.600; -841.000; -748.000
371.525;   67.900;  345.000;  225.000
371.657; -219.100; -808.000; -670.000
371.788;   43.800;  103.000;  199.000
371.919; -174.800; -384.000; -304.000
372.050;  -77.700;  -91.000; -156.000
372.181;  -53.800; -188.000; -294.000
372.311;  -16.900;   42.000; -127.000
372.442; -125.000; -457.000; -451.000
372.573; -112.100; -444.000; -340.000
372.704; -293.400;-1008.000; -980.000
372.835; -105.700; -228.000; -289.000
372.966; -197.700; -646.000; -554.000
373.097; -219.800; -575.000; -711.000
373.228; -187.300; -717.000; -542.000
373.359; -205.000; -824.000; -536.000
373.490; -252.300; -881.000; -727.000
373.620; -277.600;-1001.000; -803.000
373.751; -164.100; -332.000; -396.000
373.882; -203.700; -663.000; -733.000
374.013; -132.400; -449.000; -262.000
374.143; -198.500; -581.000; -659.000
374.274; -291.100; -987.000; -908.000
374.405; -114.500; -388.000; -276.000
374.536; -173.900; -526.000; -387.000
374.666; -223.600; -759.000; -807.000
374.797; -267.000; -817.000; -868.000
374.928; -183.400; -710.000; -560.000
375.058; -166.100; -535.000; -500.000
375.189;  -55.300;  -59.000;  -93.000
375.320; -310.200; -928.000;-1034.000
375.450; -199.500; -625.000; -616.000
375.581; -182.800; -526.000; -436.000
375.712;  -70.300; -574.000; -250.000
375.842; -168.700; -438.000; -415.000
375.973; -193.600; -554.000; -513.000
376.103; -208.500; -665.000; -648.000
376.234; -186.900; -531.000; -552.000
376.364; -279.200; -944.000; -867.000
376.495;  189.100;  925.000;  529.000
376.625; -170.800; -472.000; -485.000
376.756; -189.400; -709.000; -678.000
376.886; -329.300;-1178.000;-1026.000
377.017; -315.200;-1048.000;-1061.000
377.147; -270.700; -786.000; -782.000
377.278;   14.700;  174.000;  228.000
377.408; -252.300; -801.000; -815.000
377.538; -232.500; -707.000; -693.000
377.669; -213.000; -537.000; -613.000
377.799; -204.500; -645.000; -635.000
377.929; -168.600; -610.000; -428.000
378.060; -275.700; -781.000; -847.000
378.190; -252.700; -726.000; -531.000
378.320; -144.800; -401.000; -406.000
378.451;  -39.800; -131.000;  -22.000
378.581;  -47.500;  -67.000; -110.000
378.711;  162.700; 1035.000;  866.000
378.841; -195.000; -533.000; -675.000
378.972; -290.300; -871.000; -751.000
379.102; -190.200; -652.000; -579.000
379.232;  -74.900; -126.000;  -73.000
379.362; -302.600;-1001.000; -885.000
379.492; -179.800; -373.000; -424.000
379.623;   36.600;    0.000;  111.000
379.753; -306.100;-1107.000; -974.000
379.883;    9.600;   59.000;  156.000
380.013; -300.600;-1081.000;-1017.000
380.143; -326.800;-1097.000;-1056.000
380.273; -272.800; -985.000; -861.000
380.403; -113.600; -344.000; -257.000
380.533; -258.800; -651.000; -664.000
380.663;   38.200;  173.000;  128.000
380.793; -322.800;-1027.000;-1074.000
380.923;  -77.700; -103.000;  -34.000
381.053; -206.100; -613.000; -623.000
381.183;  -90.800; -106.000; -248.000
381.313; -192.200; -656.000; -470.000
381.443; -182.800; -692.000; -473.000
381.573; -151.400; -402.000; -409.000
381.703; -351.400;-1249.000;-1095.000
381.833; -403.700;-1454.000;-1336.000
381.963;  -23.900; -134.000;  -87.000
382.093; -286.000; -925.000; -909.000
382.223; -188.900; -713.000; -602.000
382.353; -229.300; -801.000; -608.000
382.482; -332.500;-1091.000; -964.000
382.612; -221.000; -872.000; -644.000
382.742; -192.600; -695.000; -622.000
382.872; -175.900; -565.000; -551.000
383.002;   16.900;  347.000; -132.000
383.131; -109.100; -226.000; -160.000
383.261; -225.200; -706.000; -768.000
383.391; -185.700; -552.000; -377.000
383.521;   80.200;  451.000;  263.000
383.650; -295.100; -947.000; -904.000
383.780; -207.300; -783.000; -656.000
383.910;  154.600;  880.000;  802.000
384.039; -277.400; -794.000; -656.000
384.169; -326.000;-1205.000;-1017.000
384.299; -195.100; -650.000; -662.000
384.428; -247.900; -764.000; -680.000
384.558; -122.200; -308.000; -275.000
384.687; -149.000; -414.000; -334.000
384.817;   -9.900;   75.000;   -2.000
384.947;  -87.900; -234.000; -141.000
385.076;  240.200;  982.000;  912.000
385.206;   98.500;  369.000;  480.000
385.335; -131.500; -549.000; -417.000
385.465; -243.200; -655.000; -663.000
385.594;  -51.700;  -53.000;  -44.000
385.724; -247.900; -868.000; -838.000
385.853; -133.900; -296.000; -270.000
385.982; -243.800; -743.000; -787.000
386.112; -272.500;-1052.000; -871.000
386.241; -156.100; -307.000; -312.000
386.371;  -60.100; -174.000;  -87.000
386.500; -257.000; -825.000; -789.000
386.629; -252.400; -874.000; -817.000
386.759;   -6.500;  -43.000;   68.000
386.888;  -72.900; -170.000; -250.000
387.017; -207.400; -648.000; -620.000
387.147; -234.700; -771.000; -798.000
387.276; -186.800; -410.000; -397.000
387.405;  -95.800; -398.000; -342.000
387.535; -171.000; -452.000; -361.000
387.664; -196.800; -692.000; -620.000
387.793;  -76.400; -198.000; -113.000
387.922;   39.600;  255.000;  200.000
388.052; -181.300; -576.000; -423.000
388.181; -159.800; -342.000; -472.000
388.310; -265.100; -889.000; -710.000
388.439; -215.400; -749.000; -742.000
388.568;    7.100;  365.000;  244.000
388.697; -215.300; -756.000; -653.000
388.826; -192.600; -768.000; -666.000
388.956;  -97.800; -285.000; -307.000
389.085; -111.700; -347.000; -287.000
389.214; -242.900; -842.000; -872.000
389.343; -208.200; -645.000; -413.000
389.472;    6.500;  126.000;  149.000
389.601;  -25.700;   91.000;    0.000
389.730; -179.900; -568.000; -687.000
389.859;   50.300;  226.000;   46.000
389.988; -149.200; -423.000; -408.000
390.117; -114.600; -168.000; -146.000
390.246; -105.000; -331.000; -320.000
390.375; -239.600; -673.000; -626.000
390.504; -192.200; -703.000; -621.000
390.633; -247.900; -672.000; -726.000
390.761; -221.600; -732.000; -645.000
390.890;  -42.000;   -4.000; -130.000
391.019; -179.800; -421.000; -441.000
391.148; -265.200; -826.000; -855.000
391.277; -207.500; -576.000; -493.000
391.406; -250.200; -821.000; -805.000
391.534;   -3.600;  574.000; -301.000
391.663; -202.300; -583.000; -645.000
391.792; -197.500; -673.000; -701.000
391.921;  -24.300;   -3.000;   15.000
392.050; -103.500; -287.000; -228.000
392.178; -356.700;-1206.000;-1061.000
392.307; -244.400; -758.000; -712.000
392.436; -208.900; -427.000; -641.000
392.564;  -10.500;  166.000;   -6.000
392.693; -238.300; -860.000; -682.000
392.822; -181.100; -529.000; -534.000
392.950; -266.200; -880.000; -714.000
393.079; -113.900; -188.000; -328.000
393.208; -188.100; -488.000; -511.000
393.336;  -41.400; -170.000; -145.000
393.465;  -75.200; -317.000; -199.000
393.593;    8.200;   62.000;   79.000
393.722; -320.500;-1121.000; -916.000
393.850;  -54.700; -188.000;  -61.000
393.979; -318.300; -926.000; -805.000
394.107; -143.300; -517.000; -537.000
394.236; -172.300; -570.000; -507.000
394.364;   47.000;  383.000;  206.000
394.493; -255.700; -911.000; -767.000
394.621; -275.700; -955.000; -916.000
394.750; -276.600; -873.000; -923.000
394.878;  -80.800; -247.000; -149.000
395.007; -259.900; -721.000; -807.000
395.135; -215.300; -790.000; -721.000
395.263; -295.700;-1038.000;-1040.000
395.392;  -33.600;  -25.000; -107.000
395.520; -157.800; -818.000; -679.000
395.648; -293.400; -865.000; -915.000
395.777; -151.800; -366.000; -405.000
395.905; -163.400; -449.000; -564.000
396.033;   21.300;  217.000;  172.000
396.162; -141.600; -399.000; -453.000
396.290;  -32.800;  -17.000;   -2.000
396.418; -179.700; -555.000; -514.000
396.546; -248.400; -571.000; -466.000
396.674; -275.900; -850.000; -878.000
396.803;  -48.200;  -72.000;  -23.000
396.931;  -76.000; -179.000; -199.000
397.059; -311.900;-1026.000; -989.000
397.187; -299.100;-1026.000; -975.000
397.315; -280.900; -884.000; -649.000
397.443; -182.200; -592.000; -443.000
397.572; -188.500; -578.000; -424.000
397.700; -212.700; -607.000; -614.000
397.828;  -50.700;  120.000;  -90.000
397.956; -171.300; -508.000; -478.000
398.084; -217.800; -767.000; -626.000
398.212;   -2.500;  137.000;  124.000
398.340;  -50.800;  -56.000;  159.000
398.468; -125.700; -390.000; -169.000
398.596; -296.100; -993.000; -953.000
398.724; -232.800; -762.000; -767.000
398.852; -318.200;-1024.000; -976.000
398.980; -182.800; -560.000; -560.000
399.108; -225.500; -982.000; -735.000
399.236;  -34.600;   13.000;    8.000
399.363;   -1.500;  222.000;  196.000
399.491; -150.900; -404.000; -398.000
399.619; -277.400; -829.000; -800.000
399.747; -245.400; -859.000; -771.000
399.875;   47.900;  220.000;  234.000
400.003; -124.700; -359.000; -284.000
400.130; -161.000; -421.000; -341.000
400.258;   -5.700;  -83.000;   38.000
400.386;  -97.500; -352.000; -168.000
400.514; -172.400; -526.000; -587.000
400.641; -293.400; -928.000; -802.000
400.769; -270.400; -979.000; -888.000
400.897; -231.000; -838.000; -793.000
401.025;  -61.800; -166.000; -152.000
401.152;   15.400;  220.000;   38.000
401.280; -164.300; -430.000; -429.000
401.408; -237.900; -712.000; -576.000
401.535; -206.400; -735.000; -758.000
401.663; -351.800;-1134.000;-1054.000
401.790; -164.700; -514.000; -525.000
401.918;   83.400;  436.000;  405.000
402.046;  -12.600;  134.000;  122.000
402.173;  -74.200;  -18.000;    7.000
402.301; -112.200; -519.000; -397.000
402.428;   89.700;  528.000;  383.000
402.556; -329.900;-1188.000; -913.000
402.683;  -48.900;  -20.000;   -1.000
402.811;  -36.500;  -37.000; -206.000
402.938;  -44.100;   20.000;   27.000
403.066; -185.000; -574.000; -558.000
403.193;   -7.500;  299.000;  239.000
403.321; -177.400; -396.000; -574.000
403.448;  -31.200;   83.000;   27.000
403.575;  -31.500;  -90.000;  -46.000
403.703; -227.500; -732.000; -557.000
403.830; -153.000; -531.000; -496.000
403.957; -321.900;-1117.000;-1023.000
404.085;  -80.100;  -61.000; -172.000
404.212;  -65.000;  -50.000;   63.000
404.339; -138.000; -566.000; -306.000
404.467; -152.400; -612.000; -524.000
404.594;  -70.400; -287.000; -227.000
404.721; -235.100; -869.000; -764.000
404.848;  -37.400; -113.000; -202.000
404.976; -267.200; -856.000; -783.000
405.103;  -20.200;  -14.000;  -82.000
405.230;  -33.200;  190.000;  226.000
405.357;    6.500;  117.000;   44.000
405.484;  -49.400;  -49.000;    5.000
405.612; -180.200; -548.000; -563.000
405.739; -140.700; -488.000; -243.000
405.866;  147.300;  669.000;  385.000
405.993; -136.100; -398.000; -102.000
406.120; -268.100; -801.000; -887.000
406.247; -181.500; -323.000; -342.000
406.374;  116.000;  540.000;  629.000
406.501; -207.800; -632.000; -702.000
406.628; -191.400; -621.000; -589.000
406.755; -216.100; -803.000; -620.000
406.882; -110.000; -228.000; -277.000
407.009; -208.900; -719.000; -628.000
407.136; -134.700; -480.000; -401.000
407.263; -313.800; -939.000; -829.000
407.390; -213.000; -692.000; -614.000
407.517; -373.400;-1139.000;-1187.000
407.644; -135.000; -332.000; -256.000
407.771; -141.700; -249.000; -287.000
407.898;   21.700;  168.000;  328.000
408.025; -166.300; -421.000; -313.000
408.151;   -3.700;   82.000;  153.000
408.278; -130.500; -267.000; -216.000
408.405; -261.000; -931.000; -899.000
408.532; -179.900; -549.000; -542.000
408.659; -215.900; -677.000; -648.000
408.785; -388.400;-1298.000;-1170.000
408.912;  -92.200; -412.000; -296.000
409.039; -191.900; -610.000; -686.000
409.166; -179.700; -591.000; -555.000
409.292; -173.600; -571.000; -534.000
409.419; -219.100; -665.000; -649.000
409.546; -132.400; -431.000; -192.000
409.672; -189.600; -713.000; -545.000
409.799;  -70.800;  -36.000;   34.000
409.926; -106.200; -180.000; -179.000
410.052; -347.500;-1127.000;-1091.000
410.179; -115.100; -368.000; -392.000
410.305; -156.800; -375.000; -493.000
410.432;  -60.600; -220.000; -333.000
410.558; -167.400; -305.000; -380.000
410.685; -193.700; -688.000; -431.000
410.812; -185.600; -409.000; -588.000
410.938; -253.000; -964.000; -808.000
411.065; -226.100; -671.000; -645.000
411.191;  -75.700; -189.000; -174.000
411.317; -258.500; -823.000; -742.000
411.444; -133.000; -317.000; -246.000
411.570; -127.100; -339.000; -294.000
411.697; -240.100; -758.000; -752.000
411.823; -314.700; -989.000; -999.000
411.949;  -63.500;  -56.000;   17.000
412.076; -233.500; -539.000; -519.000
412.202; -202.200; -758.000; -757.000
412.329; -259.400; -798.000; -752.000
412.455; -225.800; -821.000; -657.000
412.581;  -46.400;  -15.000;  172.000
412.707; -173.200; -540.000; -457.000
412.834;  -18.600;  156.000;  219.000
412.960; -225.100; -785.000; -784.000
413.086; -248.700; -743.000; -701.000
413.212;  119.700;  604.000;  578.000
413.339; -237.600; -685.000; -701.000
413.465; -164.500; -364.000; -310.000
413.591; -263.700; -757.000; -474.000
413.717; -114.800; -358.000; -366.000
413.843; -281.100; -839.000; -861.000
413.969; -147.300;  -47.000; -292.000
414.096; -229.400; -679.000; -679.000
414.222;  -47.900;  -33.000;   85.000
414.348; -185.100; -652.000; -385.000
414.474;  -74.000;   38.000;  -52.000
414.600;  -60.400; -126.000; -144.000
414.726;  -38.200;  -96.000;  -55.000
414.852; -160.700; -365.000; -342.000
414.978;    0.300;  104.000;  -18.000
415.104;  -42.800;   38.000;   80.000
415.230; -128.500; -329.000; -330.000
415.356; -212.500; -409.000; -514.000
415.482;  -45.000;   13.000;  -35.000
415.608; -101.500; -247.000; -323.000
415.734;  -41.700;   67.000;   38.000
415.860; -261.600; -875.000; -767.000
415.986; -222.100; -685.000; -607.000
416.111; -216.600; -798.000; -652.000
416.237; -189.200; -424.000; -571.000
416.363; -248.500; -765.000; -733.000
416.489; -121.000; -324.000; -251.000
416.615; -257.700; -707.000; -742.000
416.741; -223.200; -677.000; -784.000
416.866; -232.900; -673.000; -736.000
416.992; -270.200; -801.000; -818.000
417.118;  -93.300;  -41.000;  -80.000
417.244; -249.600; -798.000; -531.000
417.369; -265.400; -801.000; -612.000
417.495; -119.300; -325.000; -254.000
417.621; -301.400;-1015.000; -803.000
417.746; -179.300; -579.000; -572.000
417.872;  -70.700; -254.000; -144.000
417.998; -182.000; -515.000; -530.000
418.123; -317.100;-1073.000; -845.000
418.249; -197.000; -512.000; -601.000
418.374; -332.500; -916.000; -824.000
418.500; -182.800; -383.000; -482.000
418.626;  -20.100;   70.000;  -59.000
418.751; -185.000; -549.000; -448.000
418.877; -266.600; -637.000; -643.000
419.002; -143.800; -688.000; -560.000
419.128; -282.100; -930.000; -721.000
419.253; -290.200; -967.000; -837.000
419.379; -213.600; -391.000; -338.000
419.504;   68.300;  325.000;  415.000
419.629; -107.000; -393.000; -212.000
419.755; -103.700; -317.000; -254.000
419.880; -104.600;  -98.000;   67.000
420.006; -114.900; -280.000; -221.000
420.131; -240.700; -662.000; -775.000
420.256; -129.400; -315.000; -316.000
420.382; -185.500; -665.000; -687.000
420.507; -262.700; -649.000; -778.000
420.632; -126.100; -337.000; -339.000
420.758; -112.200; -251.000; -425.000
420.883; -253.300; -876.000; -672.000
421.008; -232.700; -775.000; -619.000
421.133; -202.000; -509.000; -467.000
421.259;  -87.100; -325.000; -259.000
421.384; -253.000; -834.000; -693.000
421.509; -261.100;-1052.000; -862.000
421.634; -302.300; -936.000; -820.000
421.759; -129.700; -359.000; -327.000
421.885; -227.000; -717.000; -656.000
422.010; -187.200; -673.000; -542.000
422.135; -256.500; -695.000; -727.000
422.260;   70.800;  340.000;  280.000
422.385;  -84.300;   12.000;  -98.000
422.510;   -9.500;  151.000;  -26.000
422.635;  -90.600;  -87.000;  -43.000
422.760; -220.100; -766.000; -791.000
422.885;  -30.500;  -57.000;  -80.000
423.010;  -93.800; -112.000; -169.000
423.135; -179.300; -481.000; -561.000
423.260;  -77.000; -150.000; -245.000
423.385;    7.200;  476.000;  222.000
423.510;  -26.500;   71.000;  -22.000
423.635;  -48.100;  133.000;   45.000
423.760;   32.400;  383.000;  328.000
423.885;   23.100;  336.000;  391.000
424.010;  -59.600;  -68.000;  -13.000
424.135;  -56.600;    5.000;  -33.000
424.259; -193.100; -654.000; -457.000
424.384; -154.300; -279.000; -272.000
424.509; -103.500; -260.000; -186.000
424.634; -253.200; -761.000; -623.000
424.759; -210.700; -688.000; -544.000
424.883; -181.900; -506.000; -527.000
425.008; -172.400; -502.000; -410.000
425.133; -244.000; -679.000; -653.000
425.258; -162.600; -517.000; -381.000
425.382; -262.500; -867.000; -774.000
425.507; -205.200; -487.000; -543.000
425.632; -271.300; -802.000; -663.000
425.756; -111.400; -256.000; -146.000
425.881; -286.700; -831.000; -857.000
426.006; -173.300; -604.000; -355.000
426.130; -242.300; -696.000; -508.000
426.255; -174.200; -611.000; -491.000
426.379;  -72.400; -189.000; -577.000
426.504;  113.800;  660.000;  544.000
426.629; -223.700; -519.000; -466.000
426.753;  -74.900;   64.000;  -46.000
426.878; -102.300; -252.000; -288.000
427.002; -256.400; -651.000; -668.000
427.127;  -87.000;  -35.000; -158.000
427.251;   37.700;  372.000;  401.000
427.375; -122.200; -191.000; -173.000
427.500; -209.800; -616.000; -610.000
427.624; -158.300; -234.000; -400.000
427.749; -108.800; -216.000; -225.000
427.873; -180.000; -499.000; -412.000
427.997; -110.500; -222.000; -230.000
428.122;  120.600;  795.000;  703.000
428.246;   70.400;  433.000;  434.000
428.371; -282.000; -869.000; -773.000
428.495; -202.900; -624.000; -646.000
428.619;  -88.600; -186.000; -117.000
428.743;    5.000;   65.000;  132.000
428.868; -264.600; -732.000; -643.000
428.992; -115.700; -219.000; -326.000
429.116; -177.200; -329.000; -357.000
429.240;   35.900;  419.000;  426.000
429.365; -149.400; -454.000; -574.000
429.489; -244.300; -638.000; -647.000
429.613;  -97.800; -236.000; -177.000
429.737; -195.500; -563.000; -432.000
429.861; -123.600; -247.000; -133.000
429.985; -152.000; -425.000; -305.000
430.109; -286.300; -770.000; -908.000
430.234;   -7.800;   76.000;  -50.000
430.358; -157.300; -250.000; -160.000
430.482; -233.000; -672.000; -564.000
430.606; -206.500; -655.000; -375.000
430.730; -213.200; -437.000; -388.000
430.854; -274.700; -909.000; -835.000
430.978; -251.800; -795.000; -764.000
431.102; -198.800; -499.000; -422.000
431.226; -277.700; -874.000; -815.000
431.350;   16.700;  345.000;  422.000
431.474; -172.800; -661.000; -373.000
431.597; -303.600;-1060.000; -848.000
431.721; -138.100; -276.000; -267.000
431.845; -249.500; -704.000; -472.000
431.969; -157.100; -304.000; -349.000
432.093; -189.400; -395.000; -317.000
432.217;  -14.700;   32.000;   82.000
432.341; -196.400; -523.000; -518.000
432.464;  -61.300;   96.000;   40.000
432.588; -156.400; -401.000; -329.000
432.712;  -66.400;  -52.000;  -52.000
432.836;   -4.500;  213.000;  263.000
432.959; -137.600; -372.000; -311.000
433.083;  -55.400;   11.000;    2.000
433.207;   86.300;  285.000;  930.000
433.330; -100.600; -391.000; -200.000
433.454; -195.100; -654.000; -638.000
433.578;   91.800;  583.000;  278.000
433.701; -227.700; -623.000; -675.000
433.825; -161.500; -292.000; -299.000
433.949;  -35.200;   28.000;  -72.000
434.072; -148.000; -410.000; -323.000
434.196; -102.200; -309.000; -117.000
434.319; 7356.600;25482.000;25124.000
434.443; -227.400; -656.000; -603.000
434.566;  -20.000;  281.000;   62.000
434.690; -171.700; -637.000; -383.000
434.813; -139.600; -251.000; -173.000
434.937; -213.400; -569.000; -696.000
435.060; -192.000; -423.000; -332.000
435.184; -151.100; -492.000; -217.000
435.307;  -50.200;  159.000;  102.000
435.431;  -38.000;  -40.000;   24.000
435.554; -161.900; -399.000; -240.000
435.677; -130.800; -350.000; -258.000
435.801;  -39.500;  -25.000;   49.000
435.924;  -62.600;    1.000;  -67.000
436.048; -304.900;-1019.000; -732.000
436.171; -104.500; -240.000;  -66.000
436.294; -145.000; -248.000; -229.000
436.417; -312.100; -963.000; -849.000
436.541; -279.300; -814.000; -840.000
436.664;  -62.200; -242.000; -316.000
436.787;   -2.200;   13.000;  113.000
436.910; -219.900; -792.000; -422.000
437.034;   26.100;  142.000;  143.000
437.157;  -21.000;  -11.000;    0.000
437.280; -162.900; -392.000; -292.000
437.403; -310.100; -982.000; -869.000
437.526; -304.900; -903.000; -865.000
437.649; -179.400; -505.000; -332.000
437.772; -217.000; -692.000; -540.000
437.896;  110.500;  700.000;  544.000
438.019; -212.300; -758.000; -503.000
438.142; -212.600; -596.000; -506.000
438.265; -261.500; -639.000; -670.000
438.388; -169.400; -520.000; -410.000
438.511; -205.200; -597.000; -394.000
438.634; -152.900; -247.000; -125.000
438.757; -265.600; -693.000; -619.000
438.880;  -68.000;  -34.000;  -57.000
439.003; -185.900; -417.000; -437.000
439.126; -112.200; -287.000; -167.000
439.248;  -98.100;  -98.000; -139.000
439.371;  -50.000;    9.000;  -53.000
439.494;   97.000;  510.000;  439.000
439.617;  -53.200;   65.000;  -88.000
439.740; -321.600; -968.000; -816.000
439.863; -254.200; -755.000; -595.000
439.986; -201.500; -476.000; -431.000
440.108;  -78.400; -161.000; -112.000
440.231; -321.800; -950.000; -836.000
440.354;  -84.500;  -64.000; -150.000
440.477; -228.200; -566.000; -542.000
440.599; -138.200; -200.000; -225.000
440.722; -221.200; -709.000; -586.000
440.845;  202.400;  751.000;  928.000
440.968; -182.900; -415.000; -311.000
441.090;  -76.500; -199.000;  -33.000
441.213; -317.900;-1021.000; -825.000
441.336;  -46.000; -159.000;   -5.000
441.458; -158.700; -549.000; -396.000
441.581; -241.200; -628.000; -629.000
441.703; -102.700; -152.000;   13.000
441.826; -201.800; -557.000; -400.000
441.948;  -51.200;   56.000;   51.000
442.071;   70.900;  555.000;  424.000
442.193; -196.900; -531.000; -485.000
442.316;  -26.300;  152.000;   97.000
442.438; -128.300; -233.000;  -10.000
442.561;    7.000;  272.000;  262.000
442.683; -239.800; -809.000; -522.000
442.806;  -52.200;   -8.000;   74.000
442.928; -302.500; -859.000; -604.000
443.051; -203.800; -577.000; -373.000
443.173; -146.100; -341.000; -339.000
443.295; -150.400; -263.000; -371.000
443.418; -153.200; -321.000;  -29.000
443.540;  -58.400; -106.000;   -4.000
443.662; -222.400; -563.000; -465.000
443.785;    6.900;  335.000;  199.000
443.907; -170.200; -362.000; -208.000
444.029; -234.100; -767.000; -494.000
444.152; -241.700; -644.000; -554.000
444.274;  -38.900;  -18.000;  -24.000
444.396; -189.200; -461.000; -221.000
444.518; -228.500; -691.000; -454.000
444.640; -181.700; -268.000; -111.000
444.763;    6.800;  388.000;  249.000
444.885; -221.800; -432.000; -392.000
445.007;  -20.700;   35.000;   86.000
445.129; -186.100; -610.000; -515.000
445.251; -163.500; -372.000; -439.000
445.373; -260.200; -537.000; -386.000
445.495;   30.300;  242.000;  350.000
445.617;  110.000;  853.000;  753.000
445.739; -129.600; -215.000;  -97.000
445.861;  -73.800; -245.000; -112.000
445.984; -138.500; -267.000; -101.000
446.105; -161.300; -418.000; -251.000
446.227;  -79.900; -176.000;  -19.000
446.349; -199.700; -358.000; -249.000
446.471; -243.500; -615.000; -448.000
446.593; -129.100; -316.000;   19.000
446.715;  -52.700;  -67.000;   41.000
446.837;  148.700;  697.000;  832.000
446.959; -190.300; -457.000; -478.000
447.081; -264.200; -628.000; -518.000
447.203;  145.600;  862.000;  834.000
447.325; -128.500; -270.000;   42.000
447.446;   14.200;  286.000;  530.000
447.568; -303.000; -921.000; -803.000
447.690; -177.400; -236.000; -245.000
447.812; -273.800; -798.000; -519.000
447.933;  -13.500;  155.000;  127.000
448.055; -136.800; -306.000; -261.000
448.177;  -41.600;   31.000;   79.000
448.299; -319.000; -935.000; -727.000
448.420;  -19.200;  -25.000;  159.000
448.542;  -68.800;   -3.000;   33.000
448.664;  -16.300;  109.000;  322.000
448.785;   -7.000;  265.000;   83.000
448.907; -204.900; -614.000; -353.000
449.028; -244.700; -771.000; -471.000
449.150;   79.200;  492.000;  589.000
449.272; -325.700;-1044.000; -913.000
449.393;  102.400;  612.000;  694.000
449.515; -275.900; -634.000; -581.000
449.636; -130.200; -264.000; -155.000
449.758;  146.800;  763.000;  622.000
449.879; -171.100; -498.000; -396.000
450.001; -114.700; -149.000;  -49.000
450.122;  -64.200;  -95.000;  162.000
450.244;  -44.300;   37.000;  364.000
450.365; -198.900; -495.000; -301.000
450.486;  -76.300;   80.000;  268.000
450.608;   28.300;  393.000;  326.000
450.729;   79.300;  578.000;  645.000
450.850; -186.200; -574.000; -466.000
450.972; -269.000; -552.000; -389.000
451.093;   36.400;  190.000;  588.000
451.214; -182.300; -516.000; -337.000
451.336;  156.300;  773.000;  579.000
451.457;    9.500;  264.000;  393.000
451.578;  -83.100; -118.000;  -74.000
451.699; -238.900; -546.000; -540.000
451.821;  -89.400; -284.000;  -50.000
451.942;   12.500;  278.000;  285.000
452.063;    9.300;  228.000;  419.000
452.184; -114.200;  -54.000;  -49.000
452.305;   -5.500;  103.000;  170.000
452.427; -181.900; -549.000; -301.000
452.548;  -45.200;   23.000;   79.000
452.669; -126.400; -257.000;  -89.000
452.790;  -95.400;    3.000;  -18.000
452.911;  -17.300;  195.000;  259.000
453.032; -131.200; -289.000;  -60.000
453.153;  -82.600;  -29.000;   81.000
453.274;  160.000;  737.000;  868.000
453.395;  -96.700;  -51.000;  175.000
453.516;  256.500; 1317.000; 1388.000
453.637; -183.000; -205.000; -150.000
453.758;  -71.700;   15.000;   69.000
453.879; -201.200; -462.000; -250.000
454.000;  184.300; 1086.000;  948.000
454.121; -238.600; -554.000; -326.000
454.242; -208.400; -599.000; -383.000
454.362;  -81.700;  -99.000;  114.000
454.483; -140.500; -309.000; -229.000
454.604;   14.300;  512.000;  580.000
454.725; -218.600; -627.000; -555.000
454.846; -179.100; -474.000; -406.000
454.967;    2.000;  230.000;  539.000
455.087;   -8.900;  179.000;  153.000
455.208;   84.600;  554.000;  856.000
455.329; -111.200;  -22.000;   82.000
455.450;   56.300;  473.000;  633.000
455.570; -169.800; -234.000; -211.000
455.691;  -27.600;  201.000;  407.000
455.812; -156.300; -270.000;  -92.000
455.932;  -53.500;  107.000;  -97.000
456.053; -111.000;   36.000;   24.000
456.173; -135.500; -433.000; -355.000
456.294; -201.100; -476.000; -303.000
456.415;  -88.400;  -73.000;   70.000
456.535;  -32.200;  297.000;  273.000
456.656;  -22.700;  132.000;  240.000
456.776;  -85.400;    3.000;  298.000
456.897;   30.000;  308.000;  513.000
457.017; -138.500; -153.000;   -3.000
457.138; -161.500; -402.000; -249.000
457.258;  -14.600;  263.000;  224.000
457.379;   36.900;  509.000;  521.000
457.499;  -13.100;  443.000;  432.000
457.620; -180.900; -407.000; -231.000
457.740; -135.800; -132.000;  -11.000
457.860;  -37.100;   87.000;   44.000
457.981;  -91.500;  132.000;  124.000
458.101; -123.600;  -89.000;   40.000
458.221;   16.100;  336.000;  402.000
458.342; -110.400;   -4.000;  -37.000
458.462;   14.900;  617.000;  352.000
458.582; -150.700; -302.000; -294.000
458.703;  -73.700;  303.000;  154.000
458.823;  -82.600;   22.000;  163.000
458.943;   -6.700;  341.000;  467.000
459.063;  -92.000; 1124.000;  192.000
459.183;  -19.200;  328.000;  313.000
459.304;    8.800;  315.000;  517.000
459.424; -144.900; -246.000;  -89.000
459.544;   68.800;  388.000;  764.000
459.664;    8.100;  499.000;  506.000
459.784;  145.700; 1004.000; 1175.000
459.904;   84.100;  867.000;  744.000
460.024;  152.600;  867.000;  684.000
460.144;   11.900;  449.000;  554.000
460.264;   45.900;  515.000;  327.000
460.385; -139.000; -145.000; -119.000
460.505;   92.000;  905.000;  858.000
460.625; -140.100;  -17.000;  -68.000
460.745;   22.200;  396.000;  541.000
460.864;  -35.500;  153.000;  469.000
460.984;   15.700;  499.000;  573.000
461.104;  326.200; 1656.000; 1775.000
461.224;   95.800;  657.000;  650.000
461.344;  -13.400;  431.000;  360.000
461.464;  -42.500;  258.000;  513.000
461.584;  -28.700;  283.000;  466.000
461.704; -100.100;   58.000;  108.000
461.824;  -53.700;  238.000;  259.000
461.943;  -24.500;  191.000;  130.000
462.063;  -85.200;    2.000;  324.000
462.183;   96.800;  639.000;  717.000
462.303;  196.400; 1678.000; 1230.000
462.422;  103.600;  781.000;  840.000
462.542;  -67.600;  271.000;  391.000
462.662;    8.100;  353.000;  380.000
462.782;   49.500;  833.000;  572.000
462.901;   31.400;  545.000;  717.000
463.021;  314.500; 1702.000; 1638.000
463.141;   -9.300;  337.000;  770.000
463.260;    2.900;  614.000;  474.000
463.380;   49.200;  902.000;  884.000
463.499;  -38.200;  342.000;  332.000
463.619;  -20.400;  581.000;  559.000
463.738;  275.900; 1644.000;  903.000
463.858;  103.100;  657.000;  811.000
463.978;  -16.000;  542.000;  396.000
464.097;  151.700;  921.000; 1114.000
464.217;  204.600; 1196.000; 1143.000
464.336;  225.700; 1068.000; 1130.000
464.455;  -42.900;  328.000;  659.000
464.575;   40.400;  597.000;  602.000
464.694;  179.800; 1204.000; 1179.000
464.814;  124.700; 1190.000; 1138.000
464.933;  178.200; 1095.000; 1027.000
465.052;  209.000; 1412.000; 1054.000
465.172;  103.100;  922.000;  799.000
465.291;  229.500; 1376.000; 1320.000
465.410;   70.400;  462.000;  735.000
465.530;  197.200; 1355.000; 1310.000
465.649;  185.700; 1209.000; 1273.000
465.768;  305.400; 1673.000; 1508.000
465.888;  129.600;  941.000; 1174.000
466.007;  234.500; 1335.000; 1440.000
466.126;   54.800;  721.000;  641.000
466.245;  145.900; 1176.000; 1187.000
466.364;   96.400;  950.000; 1060.000
466.484;  145.700; 1024.000; 1213.000
466.603;  115.700; 1101.000; 1222.000
466.722;  270.000; 1490.000; 1769.000
466.841;  183.000; 1151.000; 1401.000
466.960;  153.100; 1069.000;  972.000
467.079;  299.700; 1971.000; 1786.000
467.198;  134.400; 1238.000; 1181.000
467.317;  209.800; 1768.000; 1162.000
467.436;  218.000; 1709.000; 1261.000
467.555;  289.300; 1796.000; 1746.000
467.674;  190.600; 1227.000; 1329.000
467.793;  101.700; 1376.000; 1374.000
467.912;  252.900; 1658.000; 1539.000
468.031;  307.500; 2038.000; 1930.000
468.150;  303.300; 1842.000; 1837.000
468.269;  410.700; 2313.000; 2090.000
468.388;  438.200; 2168.000; 2339.000
468.507;  550.900; 2884.000; 2903.000
468.626;  617.600; 2555.000; 2541.000
468.744;  366.300; 2018.000; 2174.000
468.863;  460.500; 2312.000; 2523.000
468.982;  266.000; 1503.000; 1555.000
469.101;  506.500; 2788.000; 2692.000
469.220;  336.900; 2333.000; 2176.000
469.338;  555.200; 2935.000; 3051.000
469.457;  447.000; 2719.000; 2545.000
469.576;  749.200; 3953.000; 3784.000
469.695;  533.800; 2877.000; 3066.000
469.813;  916.400; 4148.000; 4192.000
469.932;  830.600; 4255.000; 4485.000
470.051;  782.900; 4075.000; 4161.000
470.169;  868.800; 4470.000; 4338.000
470.288;  905.800; 4700.000; 4809.000
470.406; 1007.000; 5059.000; 5194.000
470.525; 1198.200; 6101.000; 5787.000
470.644; 1316.200; 6847.000; 6794.000
470.762; 1665.600; 8397.000; 7873.000
470.881; 1733.100; 8651.000; 8464.000
470.999; 2015.500; 9685.000; 9151.000
471.118; 2240.100;11174.000;10711.000

