
Integration time [ms]: 200.000
Averaging Nr. [scans]: 10
Smoothing Nr. [pixels]: 0
Data measured with spectrometer [name]: 2101012U2
Wave   ;Sample   ;Dark     ;Reference
[nm]   ;[counts] ;[counts] ;[counts] 

197.733;  116.700;  516.000;  404.000
197.879; -170.600; -610.000; -634.000
198.025; -107.600; -475.000; -420.000
198.171; -178.100; -602.000; -612.000
198.317;  -83.000; -401.000; -316.000
198.463; -128.100; -655.000; -404.000
198.609;   78.800;  181.000; -137.000
198.755; -185.600; -644.000; -410.000
198.901; -115.900; -505.000; -424.000
199.047; -117.000; -615.000; -488.000
199.193;  -75.400; -230.000; -468.000
199.339;  -90.200; -222.000; -369.000
199.485;   65.000;  330.000;  271.000
199.631;   54.000;  227.000;  310.000
199.777; -126.600; -466.000; -398.000
199.923; -115.900; -610.000; -424.000
200.069;   16.500; -141.000;  -58.000
200.215;  108.300;  128.000;  453.000
200.361;  126.500;  243.000;  477.000
200.507; -140.800; -600.000; -373.000
200.653;  -63.200; -371.000; -194.000
200.798;  -54.400; -215.000; -125.000
200.944;    2.700; -146.000;  -41.000
201.090;   68.000;   61.000;  222.000
201.236;   23.500; -116.000; -158.000
201.382;  285.500;  874.000;  903.000
201.528;    0.500;  -58.000;  -48.000
201.674; -130.200; -386.000; -293.000
201.819; -148.000; -540.000; -439.000
201.965; -196.700; -699.000; -447.000
202.111;  -58.700; -273.000; -226.000
202.257;  -78.300; -250.000; -238.000
202.402;   33.700;   13.000;  -36.000
202.548;  -59.600; -169.000; -116.000
202.694;  166.300;  410.000; -183.000
202.840; -172.500; -603.000; -531.000
202.985; -153.300; -681.000; -639.000
203.131; -251.400; -832.000; -666.000
203.277;  -76.200; -199.000; -262.000
203.423;  -84.600; -434.000; -520.000
203.568;  -82.300; -462.000; -237.000
203.714; -105.400; -535.000; -542.000
203.860; -165.800; -682.000; -641.000
204.005;   56.200;  112.000;  167.000
204.151;  136.800;  561.000;  556.000
204.296;  -90.500; -354.000; -221.000
204.442; -132.400; -600.000; -547.000
204.588; -176.700; -592.000; -579.000
204.733;   54.400;  178.000;  168.000
204.879; -277.000;-1018.000; -822.000
205.025;   20.600;  -99.000;  126.000
205.170;   -0.500;  -17.000;   94.000
205.316;  149.400;  438.000;  661.000
205.461; -191.200; -698.000; -554.000
205.607;  197.100;  609.000;  665.000
205.752; -156.600; -626.000; -551.000
205.898;  -93.500; -501.000; -391.000
206.043; -109.700; -578.000; -506.000
206.189;  -90.400; -243.000; -285.000
206.334;  164.400;  554.000;  606.000
206.480;  189.000;  409.000;  239.000
206.625; -181.600; -529.000; -552.000
206.771; -121.400; -451.000; -373.000
206.916;  -31.900; -210.000; -537.000
207.062; -132.700; -545.000; -591.000
207.207; -128.800; -546.000; -443.000
207.353;  116.900;  185.000;  460.000
207.498;   40.400;  196.000;   85.000
207.643;  -80.100; -501.000; -370.000
207.789; -252.200;-1069.000; -910.000
207.934; -178.000; -665.000; -713.000
208.080;  -45.500; -154.000;   66.000
208.225;   -3.200;  -22.000;  -57.000
208.370; -157.200; -727.000; -619.000
208.516; -124.700; -741.000; -487.000
208.661;  -44.700; -127.000;  -69.000
208.806;  -65.700; -165.000; -171.000
208.952; -272.700;-1044.000; -731.000
209.097;  167.400;  378.000;  349.000
209.242;  -71.500; -307.000; -382.000
209.387;  102.900;  392.000;  350.000
209.533;  -80.000; -321.000; -350.000
209.678;  177.200;  472.000;  543.000
209.823; -100.500; -408.000; -310.000
209.969; -194.700; -860.000; -757.000
210.114; -235.200; -907.000; -719.000
210.259; -233.600; -939.000; -889.000
210.404;    5.100; -171.000;  103.000
210.549;   24.300;  108.000;    3.000
210.695;  -55.400;   -3.000;  -95.000
210.840;   82.200;   94.000;   67.000
210.985; -123.600; -484.000; -303.000
211.130;  115.700;  268.000;  406.000
211.275;   71.100;  207.000;  199.000
211.420; -117.900; -300.000; -289.000
211.566; -142.300; -536.000; -489.000
211.711;   52.900;  218.000;  157.000
211.856; -142.800; -545.000; -519.000
212.001;   37.600;  151.000;   44.000
212.146;   55.900;  153.000;   49.000
212.291;  -67.000; -210.000; -186.000
212.436;  -32.500; -280.000;   -6.000
212.581; -166.300; -685.000; -653.000
212.726; -141.700; -487.000; -538.000
212.871;  -88.600; -552.000; -217.000
213.016; -295.300;-1172.000;-1029.000
213.161;  110.800;  406.000;  291.000
213.306; -153.700; -435.000; -577.000
213.451; -196.000; -778.000; -689.000
213.596;  -70.900; -455.000; -347.000
213.741; -102.800; -448.000; -538.000
213.886; -165.900; -498.000; -517.000
214.031;  -26.200; -294.000; -124.000
214.176;  -85.000; -408.000; -341.000
214.321;  -19.000; -296.000; -157.000
214.466;  -68.000; -163.000;  -43.000
214.611;  -14.400;  -61.000;  -10.000
214.756; -263.900; -948.000; -858.000
214.901;  -53.100; -388.000; -226.000
215.046; -256.600; -797.000; -825.000
215.191;   63.600;  128.000;   35.000
215.336;  -31.100; -157.000;  -19.000
215.480; -148.900; -684.000; -505.000
215.625;  -22.000; -175.000;  -19.000
215.770; -197.900; -757.000; -662.000
215.915;   -8.800;   -5.000;  -97.000
216.060;   29.800; -113.000;  -21.000
216.205; -207.900; -731.000; -779.000
216.349; -167.600; -470.000; -533.000
216.494; -268.600; -939.000; -867.000
216.639; -235.600; -823.000; -888.000
216.784; -168.200; -577.000; -525.000
216.929;  159.800;  392.000;  281.000
217.073;    7.400; -244.000;  -31.000
217.218;   18.200;   78.000;  -47.000
217.363; -158.500; -656.000; -618.000
217.507; -164.000; -623.000; -588.000
217.652; -273.100; -845.000; -874.000
217.797; -190.700; -708.000; -659.000
217.942; -235.200; -856.000; -720.000
218.086;  171.000;  608.000;  539.000
218.231;  -30.100; -174.000;  -26.000
218.376;  -54.000; -337.000; -229.000
218.520;   14.300;  -41.000;   96.000
218.665;  -40.600; -338.000; -204.000
218.810;  -80.100; -275.000; -233.000
218.954;   43.300;  201.000;   35.000
219.099; -216.600; -713.000; -963.000
219.243; -161.900; -589.000; -554.000
219.388;  -82.700; -264.000; -136.000
219.532;    4.700; -116.000; -116.000
219.677; -176.900; -564.000; -521.000
219.822;   27.600;   33.000;   89.000
219.966;   45.500;   17.000;  -99.000
220.111;  -76.700; -328.000;  -40.000
220.255; -179.700; -797.000; -750.000
220.400;  -17.500; -180.000; -146.000
220.544; -155.800; -516.000; -450.000
220.689;  -95.700; -422.000; -451.000
220.833;  -48.800; -123.000;  -58.000
220.978;  -91.100; -393.000; -563.000
221.122;   71.100;  319.000;  307.000
221.267; -267.200; -906.000; -837.000
221.411; -131.700; -478.000; -394.000
221.555;  -36.100; -104.000;  -23.000
221.700;  -76.600; -329.000; -222.000
221.844;  101.800;  255.000;  272.000
221.989;  -66.400; -328.000; -311.000
222.133;  -55.700; -289.000; -307.000
222.277;   -2.900;    5.000;   78.000
222.422;   30.500;  227.000;  113.000
222.566;  -58.500; -381.000; -214.000
222.711;  -96.200; -414.000; -479.000
222.855; -136.900; -643.000; -586.000
222.999; -195.000; -642.000; -717.000
223.144;  -66.100; -195.000; -194.000
223.288;  160.900;  423.000;  251.000
223.432;   18.200;  184.000;  230.000
223.576;   53.900;  152.000;  -21.000
223.721;   85.600;  364.000;  273.000
223.865; -127.100; -472.000; -475.000
224.009;  519.000; 1673.000; 1631.000
224.153; -149.400; -660.000; -671.000
224.298; -128.500; -531.000; -489.000
224.442;  -51.100;  -74.000;  -33.000
224.586;  -18.900; -169.000; -106.000
224.730; -202.300; -858.000; -670.000
224.875; -202.700; -739.000; -688.000
225.019;   24.200;  102.000;  188.000
225.163;  136.800;  208.000;  341.000
225.307;   41.600;   97.000;  -91.000
225.451;  135.800;  360.000;  481.000
225.595;   89.200;  264.000;  176.000
225.739;   -6.500; -170.000;  -94.000
225.884;   11.600;   86.000;    5.000
226.028; -199.500; -760.000; -626.000
226.172;  -62.200; -260.000; -273.000
226.316; -245.000; -941.000; -902.000
226.460; -101.100; -645.000; -493.000
226.604; -107.500; -406.000; -400.000
226.748; -208.900; -836.000; -733.000
226.892;  -44.400; -227.000; -181.000
227.036;  -93.600; -537.000; -447.000
227.180; -117.800; -551.000; -375.000
227.324; -130.100; -561.000; -580.000
227.468; -214.500; -819.000; -717.000
227.612;   50.400;  242.000;  -28.000
227.756; -207.800; -845.000; -698.000
227.900;  112.500;  342.000;  441.000
228.044; -119.300; -509.000; -290.000
228.188;  119.400;  448.000;  568.000
228.332; -178.600; -546.000; -472.000
228.476;  -53.000; -223.000; -149.000
228.620;  -56.900; -210.000; -150.000
228.764;  158.100;  431.000;  349.000
228.908;  -74.400; -155.000;   30.000
229.052; -113.700; -615.000; -528.000
229.195;  -19.800; -172.000;   13.000
229.339;  -49.600; -235.000; -305.000
229.483;  -39.100;    5.000; -162.000
229.627;   -2.300; -156.000;  139.000
229.771;  -81.400; -218.000; -294.000
229.915;   11.400;  230.000;   79.000
230.059; -175.200; -648.000; -663.000
230.202;  -86.000; -370.000; -317.000
230.346;    9.600; -107.000;  107.000
230.490; -123.400; -489.000; -521.000
230.634; -219.200; -736.000; -553.000
230.777;  182.700;  478.000;  509.000
230.921; -102.000; -450.000; -359.000
231.065; -103.900; -246.000; -286.000
231.209;   62.400;  261.000;  265.000
231.352;   40.300;   54.000;   40.000
231.496;   58.800;  568.000;  188.000
231.640; -150.200; -693.000; -621.000
231.783;  141.000;  546.000;  525.000
231.927;  -69.200; -294.000; -365.000
232.071; -265.500; -962.000; -736.000
232.214; -223.900; -980.000; -764.000
232.358; -233.200; -683.000; -599.000
232.502;    7.900;  -19.000;    7.000
232.645; -284.300;-1090.000; -927.000
232.789;  -38.600; -257.000; -218.000
232.933;  -80.500; -407.000; -224.000
233.076; -271.000;-1038.000; -897.000
233.220; -227.600; -752.000; -777.000
233.363; -155.100; -669.000; -477.000
233.507;  152.100;  371.000;  129.000
233.650; -195.300; -764.000; -834.000
233.794;   99.100;  438.000;  461.000
233.938; -113.200; -530.000; -362.000
234.081;   -4.500;  -93.000;   31.000
234.225; -131.400; -631.000; -539.000
234.368; -224.400; -773.000; -723.000
234.512;  -86.400; -385.000; -299.000
234.655; -170.400; -582.000; -555.000
234.798; -109.500; -493.000; -466.000
234.942; -253.200; -884.000;-1002.000
235.085; -159.100; -651.000; -443.000
235.229; -140.400; -405.000; -410.000
235.372;  -93.600; -247.000; -191.000
235.516; -149.900; -397.000; -321.000
235.659;   72.700;   92.000;  121.000
235.802;   -9.700;  -38.000;  -22.000
235.946;   70.500;  335.000;  215.000
236.089;   54.900;  126.000;  250.000
236.233;  122.000;  275.000;  298.000
236.376;  -96.700; -235.000; -378.000
236.519;  -89.300; -297.000; -319.000
236.663;  -62.800; -215.000; -117.000
236.806; -244.200;-1029.000; -999.000
236.949;  104.700;  543.000;  431.000
237.092;  108.600;  412.000;  391.000
237.236; -186.100; -589.000; -502.000
237.379;  180.800;  352.000;  428.000
237.522; -239.500; -879.000; -768.000
237.666;  -29.000; -271.000;   18.000
237.809; -256.900; -851.000; -823.000
237.952;  114.200;  469.000;  271.000
238.095; -136.300; -447.000; -442.000
238.238;  190.200;  688.000;  700.000
238.382;   18.000;  166.000;  103.000
238.525; -142.700; -598.000; -511.000
238.668; -289.700;-1060.000; -985.000
238.811; -155.400; -638.000; -643.000
238.954;  -97.800; -483.000; -334.000
239.097;  183.700;  617.000;  664.000
239.241;   91.300;  394.000;  326.000
239.384;  -67.000; -254.000; -214.000
239.527;  -90.900; -424.000; -224.000
239.670; -319.300; -994.000;-1091.000
239.813; -217.100; -696.000; -658.000
239.956;  143.800;  579.000;  473.000
240.099; -210.900; -778.000; -725.000
240.242;  147.900;  428.000;  432.000
240.385;  121.000;  466.000;  450.000
240.528; -153.600; -706.000; -473.000
240.671;   53.800;  189.000;  134.000
240.814;  -73.200; -441.000; -158.000
240.957; -188.800; -767.000; -578.000
241.100; -199.600; -779.000; -755.000
241.243; -264.400;-1234.000; -893.000
241.386; -138.000; -508.000; -379.000
241.529; -159.500; -735.000; -547.000
241.672; -117.900; -566.000; -495.000
241.815; -237.000; -832.000; -808.000
241.958;  -37.700; -125.000; -182.000
242.101; -160.800; -545.000; -390.000
242.244;  -63.300; -270.000; -325.000
242.387; -101.400; -304.000; -246.000
242.530;  125.300;  470.000;  134.000
242.673;  -88.900; -381.000; -309.000
242.815; -237.300; -925.000; -899.000
242.958; -119.600; -482.000; -381.000
243.101;   65.000;  132.000;  187.000
243.244; -188.100; -564.000; -521.000
243.387;  -94.900; -313.000; -316.000
243.530; -199.700; -657.000; -674.000
243.672;   44.600;   43.000;  -92.000
243.815;  -85.600; -355.000; -283.000
243.958;   31.900;   98.000;  -26.000
244.101;   32.300;   59.000;  -16.000
244.243;    0.100;  -47.000;  101.000
244.386; -209.500; -761.000; -630.000
244.529;  -15.500; -132.000; -139.000
244.672; -328.000;-1154.000; -951.000
244.814; -204.800; -621.000; -794.000
244.957; -114.500; -380.000; -304.000
245.100; -150.500; -489.000; -489.000
245.242; -119.000; -387.000; -374.000
245.385;   16.200;  -59.000;  -39.000
245.528; -224.600; -871.000; -705.000
245.670;  223.600;  612.000;  634.000
245.813; -180.100; -599.000; -547.000
245.956;  -40.800; -324.000; -275.000
246.098; -146.600; -508.000; -650.000
246.241;    5.400;  194.000;   48.000
246.383;  -37.300; -119.000;  -73.000
246.526; -166.000; -454.000; -525.000
246.669; -245.000; -889.000; -780.000
246.811;   47.400;  172.000;   -1.000
246.954; -117.400; -512.000; -426.000
247.096;  -22.300;  -84.000;   -6.000
247.239; -128.200; -482.000; -445.000
247.381; -139.800; -647.000; -488.000
247.524;  195.900;  645.000;  679.000
247.666;  -34.300;   58.000;   11.000
247.809; -224.000; -887.000; -691.000
247.951;   -4.400;  -75.000;  138.000
248.094;   81.700;  432.000;  308.000
248.236; -306.000;-1262.000;-1238.000
248.378;  -82.500; -356.000;  -81.000
248.521;  -92.200; -334.000; -337.000
248.663;  -90.600; -236.000; -267.000
248.806;  -61.100; -300.000; -266.000
248.948; -235.400; -886.000; -763.000
249.090; -109.500; -428.000; -398.000
249.233; -140.500; -344.000; -381.000
249.375; -119.600; -474.000; -451.000
249.518;  -24.600;  -83.000; -133.000
249.660;  -34.700; -103.000;    3.000
249.802; -374.700;-1303.000;-1189.000
249.945; -163.000; -612.000; -540.000
250.087; -225.900; -834.000; -768.000
250.229; -122.000; -362.000; -480.000
250.371; -156.700; -494.000; -439.000
250.514; -101.900; -310.000; -244.000
250.656;  -17.500;   69.000;  102.000
250.798; -240.000; -849.000; -800.000
250.940; -113.100; -322.000; -322.000
251.083;  -85.800; -335.000; -111.000
251.225;   94.900;  338.000;  310.000
251.367;  -61.100; -274.000; -373.000
251.509;  -49.800; -265.000; -210.000
251.651; -206.200; -731.000; -671.000
251.794;  115.700;  538.000;  632.000
251.936; -236.700; -821.000; -747.000
252.078; -165.500; -540.000; -461.000
252.220; -123.800; -645.000; -477.000
252.362;   86.500;  344.000;  462.000
252.504; -148.700; -677.000; -584.000
252.646; -258.800; -875.000; -722.000
252.788;  -12.100;   14.000; -128.000
252.931;  -99.000; -257.000; -253.000
253.073;  -74.900; -376.000; -317.000
253.215;   -4.100;  141.000;  122.000
253.357;   -4.800;   82.000; -153.000
253.499;  -87.800; -374.000; -234.000
253.641; -176.700; -749.000; -594.000
253.783; -186.800; -609.000; -527.000
253.925; -178.000; -586.000; -591.000
254.067; -229.300; -744.000; -667.000
254.209;  -43.000; -391.000; -259.000
254.351; -287.800; -865.000; -883.000
254.493; -137.900; -441.000; -417.000
254.635; -231.100; -936.000; -818.000
254.777; -212.200; -752.000; -687.000
254.918; -153.100; -512.000; -430.000
255.060; -128.600; -551.000; -395.000
255.202; -129.200; -473.000; -261.000
255.344; -163.200; -658.000; -455.000
255.486; -146.900; -471.000; -406.000
255.628; -220.700; -780.000; -781.000
255.770; -177.700; -676.000; -536.000
255.912; -120.900; -559.000; -468.000
256.053; -158.400; -730.000; -508.000
256.195;  356.000; 1008.000;  903.000
256.337; -204.900; -861.000; -595.000
256.479;  156.300;  532.000;  416.000
256.621;  -99.000; -394.000; -212.000
256.762; -204.500; -789.000; -742.000
256.904;  124.900;  485.000;  487.000
257.046;  -88.300; -381.000; -271.000
257.188;  -90.500; -351.000; -264.000
257.329; -142.700; -525.000; -464.000
257.471; -211.100; -939.000; -807.000
257.613; -113.100; -584.000; -498.000
257.755; -337.200;-1073.000; -982.000
257.896;   84.700;  286.000;  392.000
258.038; -127.100; -403.000; -352.000
258.180;  -80.800; -354.000; -279.000
258.321; -145.900; -581.000; -457.000
258.463;    2.000;  -71.000;  133.000
258.605; -181.000; -562.000; -570.000
258.746; -201.800; -886.000; -772.000
258.888; -316.400;-1026.000;-1020.000
259.029;   52.900;  121.000;   -8.000
259.171; -167.400; -614.000; -550.000
259.313;   23.200;  -49.000;  -47.000
259.454; -145.700; -536.000; -414.000
259.596; -119.000; -483.000; -390.000
259.737; -135.300; -590.000; -474.000
259.879;  120.900;  217.000;  311.000
260.020;  184.700;  901.000;  636.000
260.162;  -47.800; -146.000; -253.000
260.303; -236.100; -768.000; -687.000
260.445; -153.700; -609.000; -613.000
260.586;   72.500;  392.000;  157.000
260.728;  -82.900; -360.000; -248.000
260.869; -156.200; -350.000; -343.000
261.011;  206.300;  706.000;  537.000
261.152; -122.700; -479.000; -319.000
261.293; -189.700; -576.000; -595.000
261.435;  -57.300; -219.000; -184.000
261.576;  -54.400; -455.000; -325.000
261.718;  137.300;  420.000;  470.000
261.859; -245.800; -940.000; -949.000
262.000; -293.100; -951.000;-1016.000
262.142;  -17.600;  -52.000;  -60.000
262.283; -257.900; -808.000; -691.000
262.424; -185.900; -666.000; -625.000
262.566; -318.900;-1161.000; -983.000
262.707; -236.100; -840.000; -830.000
262.848; -260.600; -769.000; -726.000
262.990;  -91.500; -362.000; -345.000
263.131;  199.200;  650.000;  681.000
263.272;    3.800;  -61.000;  -41.000
263.413; -178.300; -589.000; -561.000
263.555; -136.500; -669.000; -143.000
263.696; -164.800; -550.000; -641.000
263.837; -109.500; -449.000; -551.000
263.978;   -4.400;   -5.000;  -77.000
264.119;  -51.700; -283.000; -264.000
264.261; -243.500; -847.000; -630.000
264.402;    4.600;   33.000;   40.000
264.543; -170.300; -509.000; -524.000
264.684;    3.600;   61.000;  -50.000
264.825; -143.700; -816.000; -538.000
264.966;   -3.600;  -84.000;  -67.000
265.107; -231.000; -646.000; -670.000
265.248; -236.400; -825.000; -812.000
265.390;  -10.600;  152.000;   -9.000
265.531;  -31.500; -238.000; -107.000
265.672; -183.400; -557.000; -630.000
265.813;  127.500;  563.000;  439.000
265.954; -319.200; -959.000; -940.000
266.095;  -23.100; -372.000; -322.000
266.236; -187.600; -686.000; -548.000
266.377;  -70.300; -243.000; -297.000
266.518; -144.300; -619.000; -547.000
266.659;   70.400;  170.000;  268.000
266.800;    9.900;   83.000;   85.000
266.941; -157.100; -487.000; -478.000
267.082;   54.000;  354.000;   99.000
267.223;  -99.400; -344.000; -273.000
267.364; -254.100; -892.000; -686.000
267.504;  -37.100;    3.000;  135.000
267.645;   -8.500;  160.000;   67.000
267.786;  -46.400; -147.000;  -86.000
267.927; -160.600; -473.000; -379.000
268.068;  -16.600; -186.000;  -61.000
268.209; -108.100; -175.000; -413.000
268.350; -107.400; -388.000; -532.000
268.490; -181.500; -648.000; -521.000
268.631;  100.000;  127.000;  225.000
268.772; -217.500; -874.000; -647.000
268.913; -122.000; -328.000; -476.000
269.054;  -18.600; -117.000;   12.000
269.194;  -86.800; -418.000; -402.000
269.335; -307.200;-1137.000;-1074.000
269.476;  -52.000;   33.000;  -35.000
269.617; -103.300; -347.000; -392.000
269.757; -198.100; -713.000; -646.000
269.898; -191.700; -856.000; -613.000
270.039; -127.300; -415.000; -405.000
270.180; -299.500; -952.000; -816.000
270.320;  -42.600; -190.000; -250.000
270.461;  -68.500; -277.000; -249.000
270.602;  -33.200; -186.000; -156.000
270.742; -258.800; -868.000; -943.000
270.883; -113.200; -442.000; -390.000
271.023;  -96.600; -358.000; -357.000
271.164; -143.000; -607.000; -528.000
271.305; -191.600; -666.000; -654.000
271.445; -182.500; -722.000; -683.000
271.586; -157.000; -462.000; -283.000
271.726; -137.000; -397.000; -322.000
271.867; -186.200; -594.000; -534.000
272.008;  -70.600; -473.000; -285.000
272.148;   92.700;  462.000;  468.000
272.289;  -16.200; -113.000; -181.000
272.429;   -2.300;   19.000;  185.000
272.570; -204.900; -633.000; -737.000
272.710; -221.400; -825.000; -775.000
272.851;  -38.800;  113.000; -130.000
272.991; -337.000;-1173.000;-1077.000
273.131; -112.900; -419.000; -459.000
273.272; -195.700; -683.000; -723.000
273.412;  -14.800; -143.000;  -31.000
273.553; -141.100; -488.000; -507.000
273.693;  220.000;  913.000;  858.000
273.834; -237.700; -894.000; -692.000
273.974; -147.800; -664.000; -615.000
274.114; -219.500; -772.000; -560.000
274.255;  116.500;  414.000;  373.000
274.395;  -60.300; -180.000; -125.000
274.535;   43.000;  199.000;  350.000
274.676;   55.500;  225.000;   94.000
274.816;  -24.300;  110.000;   34.000
274.956; -179.600; -624.000; -690.000
275.097; -260.100;-1014.000; -922.000
275.237; -257.200; -913.000; -803.000
275.377; -219.100; -778.000; -689.000
275.517; -296.800; -878.000; -937.000
275.658; -160.300; -590.000; -555.000
275.798; -193.100; -606.000; -413.000
275.938;   64.600;  215.000;  323.000
276.078; -173.800; -626.000; -395.000
276.218;   26.000;   99.000;  104.000
276.359; -290.200;-1026.000;-1024.000
276.499; -159.100; -605.000; -446.000
276.639;  -77.500; -305.000; -151.000
276.779; -114.200; -475.000; -357.000
276.919; -231.000; -783.000; -624.000
277.059;  -73.600; -261.000; -212.000
277.199;  -92.000; -357.000; -259.000
277.340;  104.300;  287.000;  175.000
277.480; -203.800; -840.000; -693.000
277.620;   69.200;  192.000;   16.000
277.760; -424.100;-1533.000;-1294.000
277.900;    5.500;  113.000;   33.000
278.040;   14.300;  137.000;  159.000
278.180;   60.100;  270.000;  170.000
278.320;   14.800;   21.000;   56.000
278.460; -120.400; -443.000; -469.000
278.600; -164.400; -708.000; -598.000
278.740;   97.600;  448.000;  224.000
278.880; -266.900; -768.000; -791.000
279.020;   -8.100; -194.000; -144.000
279.160; -189.800; -672.000; -595.000
279.300; -230.000; -926.000; -873.000
279.440; -199.300; -709.000; -622.000
279.579; -278.000;-1014.000; -929.000
279.719; -134.200; -410.000; -394.000
279.859;   61.500;   -4.000;   41.000
279.999;  -63.200; -208.000;  101.000
280.139; -141.000; -435.000; -387.000
280.279; -212.500; -708.000; -745.000
280.419;  -32.800; -229.000; -147.000
280.559;  -93.100; -259.000; -180.000
280.698; -213.700; -790.000; -639.000
280.838; -232.300; -778.000; -800.000
280.978; -193.200; -846.000; -790.000
281.118; -234.000; -811.000; -704.000
281.257;   -0.900;   24.000;    6.000
281.397; -339.600;-1094.000; -960.000
281.537; -208.400; -599.000; -712.000
281.677;  -44.200; -150.000; -101.000
281.816; -176.500; -700.000; -630.000
281.956;  -56.800; -193.000; -257.000
282.096; -143.400; -539.000; -396.000
282.235; -224.100; -672.000; -638.000
282.375;  -36.400; -243.000;  -98.000
282.515; -231.500; -715.000; -707.000
282.654;   36.700;   29.000;  106.000
282.794;   83.100;  388.000;  244.000
282.934; -123.900; -530.000; -491.000
283.073; -257.700;-1030.000; -857.000
283.213; -152.500; -460.000; -467.000
283.353; -111.300; -408.000; -349.000
283.492;  -76.100; -264.000; -296.000
283.632;  -86.600; -254.000; -168.000
283.771; -216.500; -859.000; -730.000
283.911; -122.000; -369.000; -260.000
284.050; -246.400; -794.000; -748.000
284.190; -326.000;-1229.000;-1096.000
284.329; -298.900;-1055.000; -964.000
284.469; -188.900; -516.000; -591.000
284.608; -132.100; -559.000; -598.000
284.748; -157.600; -614.000; -570.000
284.887;   -2.000;  -87.000;  -20.000
285.027; -256.300; -844.000; -892.000
285.166;  -53.500; -192.000; -249.000
285.306;  -33.100; -116.000;  -33.000
285.445;  -73.500; -229.000; -343.000
285.584; -172.800; -630.000; -494.000
285.724;  -86.100; -282.000; -322.000
285.863; -248.800; -857.000; -507.000
286.002; -119.300; -366.000; -276.000
286.142; -237.300; -715.000; -622.000
286.281; -136.500; -525.000; -493.000
286.420; -155.900; -554.000; -417.000
286.560;  215.300;  653.000;  623.000
286.699; -277.600; -958.000; -912.000
286.838; -170.900; -590.000; -591.000
286.978; -192.600; -533.000; -537.000
287.117; -276.500;-1085.000; -950.000
287.256;  -74.000; -228.000; -211.000
287.395; -115.800; -197.000; -378.000
287.535;  -88.800; -370.000; -298.000
287.674; -152.800; -509.000; -484.000
287.813;  109.800;  661.000;  533.000
287.952; -266.000;-1010.000; -871.000
288.091; -312.100;-1049.000; -915.000
288.231;   29.600;   13.000;   15.000
288.370; -361.400;-1217.000;-1200.000
288.509; -166.300; -728.000; -645.000
288.648; -185.000; -770.000; -548.000
288.787;  -50.900; -243.000;  -87.000
288.926; -140.200; -454.000; -475.000
289.065;  200.600;  859.000;  672.000
289.204; -113.100; -377.000; -217.000
289.344; -209.600; -791.000; -690.000
289.483;   53.900;  416.000;  304.000
289.622;  -33.500; -291.000; -149.000
289.761;  -34.200; -309.000; -166.000
289.900; -233.700; -785.000; -626.000
290.039;  -36.600;  -12.000;  -95.000
290.178;  -55.800; -274.000; -180.000
290.317; -177.200; -618.000; -479.000
290.456; -105.700; -463.000; -451.000
290.595; -320.600; -961.000; -833.000
290.734; -298.100; -904.000; -891.000
290.873; -149.500; -456.000; -420.000
291.011; -198.100; -833.000; -843.000
291.150; -208.200; -770.000; -682.000
291.289;  -48.700; -343.000; -110.000
291.428; -185.700; -599.000; -480.000
291.567; -103.500; -370.000; -442.000
291.706;    2.300;  109.000;  154.000
291.845; -191.400; -597.000; -505.000
291.984; -341.200;-1234.000;-1061.000
292.122;  150.100;  602.000;  582.000
292.261;  106.300;  620.000;  463.000
292.400;   32.300; -144.000;  211.000
292.539; -243.800; -959.000; -813.000
292.678;  -51.300; -325.000; -300.000
292.816; -307.700;-1136.000; -965.000
292.955; -215.700; -844.000; -684.000
293.094;  -65.600; -173.000; -337.000
293.233;  -85.500; -556.000; -400.000
293.371;  -78.200; -225.000;  -84.000
293.510; -227.200; -866.000; -780.000
293.649; -284.700; -959.000; -924.000
293.787; -299.200;-1083.000;-1012.000
293.926;  -66.300; -113.000;  -32.000
294.065; -108.200; -379.000; -290.000
294.203;   86.600;  298.000;  406.000
294.342;   26.300;   74.000;  156.000
294.481;14977.300;51180.000; -836.000
294.619;  -68.200; -425.000; -582.000
294.758; -321.700;-1230.000;-1137.000
294.896;   23.800; -125.000;    5.000
295.035; -295.600;-1040.000;-1006.000
295.174; -303.700;-1082.000; -954.000
295.312; -115.000; -323.000; -203.000
295.451;  -77.400; -307.000; -428.000
295.589; -143.400; -389.000; -518.000
295.728;    1.100; -292.000; -165.000
295.866;  -28.300;  -36.000;  -51.000
296.005; -152.400; -584.000; -341.000
296.143; -191.400; -558.000; -596.000
296.282; -237.100; -957.000; -881.000
296.420; -186.200; -657.000; -557.000
296.559; -199.700; -892.000; -633.000
296.697; -217.500; -847.000; -665.000
296.835; -319.500;-1141.000;-1002.000
296.974;   40.200;  -23.000;   39.000
297.112; -117.400; -443.000; -504.000
297.251; -235.100; -815.000; -755.000
297.389; -168.700; -576.000; -438.000
297.527;  -46.000; -145.000;  -83.000
297.666; -136.500; -486.000; -438.000
297.804; -110.900; -404.000; -264.000
297.942;   -1.000; -136.000; -161.000
298.081;  -33.900; -183.000;   63.000
298.219;  -30.700;  -17.000;  -19.000
298.357;  -73.500; -144.000;  -71.000
298.495; -235.100; -810.000; -812.000
298.634;  -23.200;  245.000;  219.000
298.772;  -72.600; -220.000; -338.000
298.910; -120.200; -309.000; -182.000
299.048;  -25.100; -130.000; -153.000
299.187;  -87.800; -350.000; -250.000
299.325;   20.900;   52.000;  122.000
299.463; -134.100; -389.000; -299.000
299.601;  -86.000; -327.000; -271.000
299.739; -304.900; -908.000; -883.000
299.877; -191.400; -791.000; -703.000
300.016; -325.600;-1095.000; -935.000
300.154;  -17.800;  -19.000; -161.000
300.292; -119.100; -428.000; -348.000
300.430; -123.800; -408.000; -291.000
300.568; -262.100; -940.000; -874.000
300.706; -132.700; -366.000; -469.000
300.844; -314.300;-1108.000; -979.000
300.982;   91.500;  246.000;  282.000
301.120; -299.500; -965.000; -866.000
301.258; -208.900; -812.000; -705.000
301.396;    0.000;  104.000;  -41.000
301.534;  -78.300; -218.000; -293.000
301.672; -182.800; -664.000; -521.000
301.810; -191.400; -613.000; -545.000
301.948;   60.000;   53.000;  149.000
302.086;  -36.600; -250.000;  -32.000
302.224; -203.500; -610.000; -585.000
302.362; -193.000; -558.000; -622.000
302.500; -271.300; -923.000; -893.000
302.638;   38.700;  128.000;  245.000
302.776;  -65.700; -352.000; -408.000
302.913;   88.600;  447.000;  236.000
303.051;  -47.900;  -86.000;  -23.000
303.189;   29.200;   90.000;  118.000
303.327;  -91.200; -341.000; -256.000
303.465; -182.100; -832.000; -588.000
303.603; -186.000; -805.000; -604.000
303.740;  105.700;  417.000;  241.000
303.878; -215.000; -800.000; -759.000
304.016; -229.900; -915.000; -790.000
304.154; -351.900;-1123.000;-1152.000
304.291; -152.900; -505.000; -554.000
304.429;   14.800;  102.000;   74.000
304.567; -308.100; -908.000; -893.000
304.705; -147.000; -408.000; -515.000
304.842; -192.500; -616.000; -540.000
304.980;   33.800;  215.000;   35.000
305.118;  -93.700; -367.000; -365.000
305.255; -288.000; -945.000; -927.000
305.393;   54.300;  178.000;  239.000
305.531; -315.600;-1173.000; -956.000
305.668; -168.500; -663.000; -582.000
305.806; -150.400; -358.000; -439.000
305.943; -181.600; -629.000; -637.000
306.081; -109.300; -378.000; -267.000
306.219; -243.200; -863.000; -748.000
306.356;   -1.100;  158.000;   27.000
306.494;  208.300;  981.000;  761.000
306.631;    6.300;  -11.000;  -55.000
306.769; -109.800; -613.000; -485.000
306.906; -146.200; -284.000; -258.000
307.044; -157.000; -473.000; -488.000
307.181; -112.700; -410.000; -332.000
307.319;   81.000;  112.000;   87.000
307.456; -373.600;-1191.000;-1153.000
307.594; -263.300; -980.000; -727.000
307.731;  -81.200; -371.000; -164.000
307.868;  -21.800;  -15.000;   20.000
308.006; -287.000; -961.000; -847.000
308.143; -167.800; -618.000; -330.000
308.281;  -73.400;  -37.000; -254.000
308.418; -180.400; -748.000; -640.000
308.555; -164.400; -400.000; -250.000
308.693; -150.800; -577.000; -573.000
308.830; -234.400; -712.000; -657.000
308.967;  -38.500; -215.000;  -95.000
309.105; -110.300; -507.000; -396.000
309.242; -115.500; -468.000; -367.000
309.379; -202.200; -577.000; -655.000
309.517; -293.100; -936.000; -948.000
309.654; -252.600; -910.000; -734.000
309.791; -183.800; -662.000; -580.000
309.928; -278.200; -977.000; -914.000
310.065;  184.200;  819.000;  697.000
310.203; -268.000; -825.000; -850.000
310.340; -145.700; -465.000; -321.000
310.477; -183.300; -412.000; -516.000
310.614; -158.100; -383.000; -473.000
310.751; -130.500; -427.000; -518.000
310.889;  -26.700;    1.000;   11.000
311.026; -332.000;-1161.000; -939.000
311.163; -122.900; -386.000; -380.000
311.300; -174.100; -512.000; -479.000
311.437; -173.900; -658.000; -619.000
311.574; -322.500;-1226.000; -985.000
311.711; -176.500; -595.000; -433.000
311.848; -108.500; -380.000; -388.000
311.985;   31.800;  270.000;   93.000
312.122; -274.600; -932.000; -762.000
312.259; -265.200; -941.000; -994.000
312.396; -180.800; -508.000; -551.000
312.533; -241.100; -812.000; -790.000
312.670; -319.400;-1070.000; -898.000
312.807;  -94.100; -352.000; -367.000
312.944; -210.800; -513.000; -611.000
313.081; -135.700; -150.000; -415.000
313.218; -287.900;-1111.000; -867.000
313.355; -145.800; -531.000; -449.000
313.492; -105.800; -455.000; -292.000
313.629;  196.800;  815.000;  735.000
313.766; -356.700;-1176.000;-1008.000
313.902;  -45.900; -186.000;   21.000
314.039;  -90.400; -372.000; -289.000
314.176;   86.500;  286.000;  192.000
314.313; -203.900; -569.000; -473.000
314.450; -233.800; -788.000; -684.000
314.587; -155.500; -468.000; -480.000
314.723;  -51.700;  -78.000;  130.000
314.860;   69.500;  318.000;  332.000
314.997;   43.800;  223.000;  142.000
315.134; -141.000; -385.000; -368.000
315.270; -168.800; -480.000; -496.000
315.407; -340.300;-1094.000; -967.000
315.544; -197.200; -657.000; -538.000
315.681; -180.100; -681.000; -565.000
315.817;  -53.400; -133.000; -176.000
315.954; -177.600; -613.000; -392.000
316.091; -313.400;-1045.000;-1023.000
316.227;  -44.300;  -71.000; -179.000
316.364;    1.100;   23.000;    6.000
316.500;  -81.200; -113.000; -300.000
316.637;  -60.800; -181.000; -302.000
316.774; -178.200; -625.000; -358.000
316.910; -176.800; -598.000; -629.000
317.047; -173.300; -487.000; -351.000
317.183; -127.100; -435.000; -566.000
317.320; -108.500; -367.000; -321.000
317.456; -223.900; -733.000; -805.000
317.593; -210.900; -598.000; -641.000
317.729;   16.700;  168.000;  -67.000
317.866; -395.600;-1434.000;-1285.000
318.002; -198.600; -708.000; -948.000
318.139; -262.400; -883.000; -867.000
318.275; -264.600;-1003.000; -738.000
318.412; -164.600; -517.000; -336.000
318.548; -209.700; -751.000; -720.000
318.685; -298.400; -985.000; -888.000
318.821; -237.000; -762.000; -735.000
318.957;  -49.900;   34.000;  -23.000
319.094;   99.000;  297.000;  154.000
319.230; -240.600; -756.000; -742.000
319.367; -135.800; -471.000; -520.000
319.503; -126.300; -538.000; -436.000
319.639; -262.200; -877.000; -793.000
319.775; -232.000; -750.000; -685.000
319.912; -146.300; -424.000; -519.000
320.048; -361.000;-1184.000;-1184.000
320.184;   23.800;   59.000;   70.000
320.321; -127.600; -497.000; -467.000
320.457;  128.900;  475.000;  662.000
320.593; -110.900; -375.000; -382.000
320.729; -225.700; -732.000; -734.000
320.866; -179.800; -577.000; -635.000
321.002; -226.200; -759.000; -809.000
321.138;  -94.800; -135.000; -211.000
321.274;  -21.900; -148.000; -115.000
321.410; -184.500; -585.000; -353.000
321.546; -290.800;-1011.000; -911.000
321.683;   93.100;  400.000;  185.000
321.819;   -3.900;  -48.000; -117.000
321.955; -207.900; -743.000; -722.000
322.091; -165.900; -585.000; -540.000
322.227;  -85.500; -382.000; -202.000
322.363; -114.400; -320.000; -215.000
322.499; -135.800; -343.000; -331.000
322.635;  162.500;  636.000;  443.000
322.771;  -38.300; -139.000;   12.000
322.907;  113.300;  129.000;  327.000
323.043; -105.100; -115.000; -206.000
323.179; -121.300; -394.000; -363.000
323.315; -156.600; -401.000; -371.000
323.451; -103.000; -328.000; -236.000
323.587;  -68.800;  -60.000;  -77.000
323.723; -167.400; -682.000; -601.000
323.859;  -76.800; -258.000;  -76.000
323.995; -156.400; -467.000; -409.000
324.131; -271.200; -967.000; -892.000
324.267;  -59.800; -254.000; -276.000
324.402; -271.600; -960.000; -983.000
324.538;  -73.700; -279.000; -104.000
324.674;   -7.100;  164.000;   77.000
324.810;   17.300;  226.000;  308.000
324.946; -128.000; -810.000; -658.000
325.082; -160.100; -568.000; -475.000
325.217;  -17.500;  -62.000;   16.000
325.353; -221.800; -764.000; -659.000
325.489; -177.000; -540.000; -506.000
325.625; -155.100; -579.000; -525.000
325.760;   73.000;  517.000;  376.000
325.896; -167.200; -515.000; -702.000
326.032; -115.700; -403.000; -352.000
326.168; -129.700; -462.000; -369.000
326.303; -135.200; -352.000; -461.000
326.439;  -44.000; -336.000; -276.000
326.575;  -66.000; -190.000;  -29.000
326.710;  -18.100; -156.000;  -30.000
326.846;  -14.300;  146.000;  103.000
326.982; -169.500; -530.000; -548.000
327.117; -145.500; -481.000; -442.000
327.253; -225.500; -745.000; -742.000
327.388; -333.700;-1137.000;-1153.000
327.524; -200.000; -811.000; -578.000
327.659;  -62.400;  -58.000;  -22.000
327.795;  -25.400;   69.000;   45.000
327.931; -192.400; -723.000; -499.000
328.066; -110.100; -417.000; -276.000
328.202;  -69.900;   12.000; -129.000
328.337;  235.900;  957.000;  713.000
328.473;  -12.600;  -12.000;  -74.000
328.608;  -48.100; -256.000; -267.000
328.743; -270.500; -799.000; -664.000
328.879;   56.100;  214.000;  114.000
329.014; -124.500; -102.000; -122.000
329.150; -178.400; -358.000; -483.000
329.285; -188.900; -465.000; -466.000
329.421;  -95.400; -548.000; -246.000
329.556;  -37.600;  -36.000;   85.000
329.691; -198.400; -633.000; -615.000
329.827; -179.200; -626.000; -480.000
329.962;  -86.200;  131.000; -301.000
330.097; -204.700; -673.000; -585.000
330.233; -109.500; -410.000; -223.000
330.368; -258.300; -839.000; -628.000
330.503;  -16.200;    3.000;   98.000
330.638;  -28.800;  -93.000; -125.000
330.774; -182.400; -609.000; -530.000
330.909;  -95.700; -434.000; -244.000
331.044; -210.600; -714.000; -708.000
331.179; -380.200;-1217.000;-1109.000
331.315;   26.800;   77.000;   20.000
331.450;   57.000;  157.000;  285.000
331.585; -191.700; -805.000; -706.000
331.720; -207.100; -510.000; -460.000
331.855;  -16.400;  -35.000; -102.000
331.990;   -9.300;   62.000;  138.000
332.126;  -14.800; -110.000;   71.000
332.261; -133.300; -379.000; -265.000
332.396;  -54.200; -135.000; -242.000
332.531; -305.700;-1074.000;-1031.000
332.666; -138.000; -519.000; -363.000
332.801; -247.300; -726.000; -807.000
332.936;  -43.300; -192.000; -122.000
333.071; -272.400; -870.000; -817.000
333.206;   54.800;  307.000;  379.000
333.341;   71.400;  344.000;  418.000
333.476; -190.600; -627.000; -623.000
333.611;  -74.000; -251.000; -173.000
333.746; -107.800; -381.000; -464.000
333.881; -280.200; -973.000; -935.000
334.016; -262.300; -936.000; -917.000
334.151; -267.500; -746.000; -702.000
334.286;   52.200;  152.000;  186.000
334.421;  -40.500; -125.000; -178.000
334.556; -197.600; -611.000; -567.000
334.690; -197.800; -631.000; -577.000
334.825;   82.900;  381.000;   83.000
334.960;  -95.700; -285.000; -413.000
335.095;   17.400;  135.000;  -91.000
335.230; -223.400; -722.000; -738.000
335.365; -349.800;-1084.000; -990.000
335.499; -325.800;-1108.000;-1037.000
335.634;   13.200;    9.000;  534.000
335.769; -227.600; -755.000; -720.000
335.904; -209.300; -603.000; -561.000
336.038; -230.300; -735.000; -657.000
336.173; -343.400;-1206.000;-1194.000
336.308; -125.000; -116.000; -189.000
336.443; -144.900; -544.000; -634.000
336.577; -260.700; -936.000; -787.000
336.712;   35.500;   -4.000;  -12.000
336.847; -218.500; -724.000; -607.000
336.981; -103.000; -272.000; -208.000
337.116;  121.000;  615.000;  501.000
337.250; -141.300; -434.000; -421.000
337.385; -111.300; -297.000; -208.000
337.520; -197.200; -632.000; -603.000
337.654; -136.100; -215.000; -126.000
337.789; -285.700; -989.000; -933.000
337.923;  -59.600; -104.000; -205.000
338.058; -211.700; -673.000; -738.000
338.192; -209.200; -611.000; -488.000
338.327;  -49.200;  -18.000; -155.000
338.461; -180.300; -299.000; -469.000
338.596; -212.900; -780.000; -638.000
338.730; -225.500; -767.000; -803.000
338.865;  -21.200;  -46.000; -140.000
338.999; -274.400; -846.000; -702.000
339.134; -168.900; -634.000; -536.000
339.268; -235.400; -741.000; -603.000
339.403; -249.100; -740.000; -775.000
339.537; -264.200; -894.000; -820.000
339.671; -263.200; -829.000; -813.000
339.806; -205.300; -556.000; -512.000
339.940;  -48.000; -261.000; -235.000
340.074; -206.800; -685.000; -510.000
340.209;  -77.900; -351.000; -230.000
340.343; -168.800; -517.000; -573.000
340.477;  317.700;  998.000; 1036.000
340.612; -266.900;-1033.000; -900.000
340.746;  -80.300; -199.000; -243.000
340.880; -292.100; -924.000; -785.000
341.014;  -40.100;  -45.000; -154.000
341.149; -205.800; -756.000; -718.000
341.283; -261.300; -839.000; -754.000
341.417; -305.900;-1124.000; -938.000
341.551; -206.800; -768.000; -708.000
341.685; -176.000; -633.000; -611.000
341.820; -189.800; -562.000; -493.000
341.954; -111.400; -218.000; -349.000
342.088; -326.300;-1102.000;-1019.000
342.222;   72.300;  565.000;  618.000
342.356; -151.600; -395.000; -335.000
342.490; -264.000; -880.000; -841.000
342.624;  -91.900; -339.000; -242.000
342.758;  -88.500; -364.000; -312.000
342.892; -217.500; -710.000; -585.000
343.026;  -40.900;  -58.000; -116.000
343.160; -124.700; -426.000; -376.000
343.294; -196.700; -474.000; -337.000
343.428; -174.200; -488.000; -448.000
343.562;  -79.700; -172.000;  -23.000
343.696;  -76.800; -385.000; -314.000
343.830; -126.700; -362.000; -356.000
343.964;  -79.700; -231.000; -168.000
344.098;  -16.800;  199.000;   70.000
344.232;  -87.300; -266.000; -127.000
344.366; -210.100; -567.000; -453.000
344.500; -223.300; -665.000; -744.000
344.634; -111.000; -324.000; -164.000
344.768; -148.000; -531.000; -341.000
344.902;   47.300;  278.000;  256.000
345.035; -138.800; -556.000; -496.000
345.169; -258.800; -933.000; -656.000
345.303; -146.700; -308.000; -482.000
345.437; -247.000; -826.000; -717.000
345.571; -194.100; -675.000; -594.000
345.704; -150.800; -309.000; -532.000
345.838;  -68.600; -331.000; -284.000
345.972; -175.900; -543.000; -495.000
346.106;   -3.700; -179.000; -190.000
346.239; -114.100; -312.000; -243.000
346.373; -108.600; -343.000; -302.000
346.507; -300.300; -950.000; -962.000
346.640;  -30.000;  -30.000;   13.000
346.774; -238.000; -650.000; -797.000
346.908;  -24.500; -138.000;  -11.000
347.041; -220.100; -646.000; -593.000
347.175;  -15.100;  259.000;   27.000
347.309; -195.300; -698.000; -628.000
347.442; -253.400; -883.000; -732.000
347.576;  170.400;  670.000;  668.000
347.709;  -32.600; -123.000;  -52.000
347.843; -303.900; -933.000; -825.000
347.976;   90.900;  235.000;  294.000
348.110; -379.700;-1268.000;-1186.000
348.243; -200.900; -679.000; -772.000
348.377;  -13.300;  -26.000;   60.000
348.510;  110.400;  403.000;  540.000
348.644;  -73.400;  -37.000; -159.000
348.777;   -0.900;  180.000;  191.000
348.911;  -88.500; -142.000; -112.000
349.044;  112.400;  471.000;  448.000
349.178; -353.000;-1069.000;-1006.000
349.311;   76.600;  141.000;  255.000
349.444; -257.500; -927.000; -813.000
349.578;  -83.400; -347.000; -200.000
349.711; -287.100; -959.000; -862.000
349.845; -214.300; -661.000; -591.000
349.978; -349.600;-1224.000;-1137.000
350.111; -193.200; -546.000; -612.000
350.244; -217.100; -596.000; -700.000
350.378; -137.400; -392.000; -393.000
350.511; -172.000; -393.000; -426.000
350.644; -223.800; -808.000; -806.000
350.778;  -20.000;  168.000;  104.000
350.911;   35.600;  134.000;  140.000
351.044; -212.600; -685.000; -615.000
351.177;  -68.900; -321.000; -281.000
351.310;  -46.100;    3.000; -131.000
351.444; -256.000; -888.000; -788.000
351.577;   24.400;  140.000;   90.000
351.710;  139.700;  593.000;  417.000
351.843;  -88.400; -165.000;  -77.000
351.976;   16.900;  149.000;  -79.000
352.109; -225.600; -621.000; -612.000
352.242; -121.000; -464.000; -419.000
352.376; -214.000; -580.000; -636.000
352.509; -163.700; -437.000; -356.000
352.642; -320.200; -654.000; -604.000
352.775;  -40.500; -141.000;  -98.000
352.908; -285.500; -933.000; -904.000
353.041; -235.400; -814.000; -824.000
353.174; -163.900; -551.000; -424.000
353.307; -226.300; -753.000; -764.000
353.440;  124.300;  541.000;  453.000
353.573; -280.600; -957.000;-1008.000
353.706; -166.500; -384.000; -558.000
353.839;  -87.500; -264.000; -220.000
353.971; -177.100; -657.000; -512.000
354.104; -259.000; -896.000; -835.000
354.237; -222.400; -627.000; -662.000
354.370; -264.300; -846.000; -879.000
354.503; -411.400;-1231.000;-1308.000
354.636; -106.700; -529.000; -348.000
354.769; -296.700; -937.000; -860.000
354.902;  -64.800; -230.000; -139.000
355.034;  -62.000; -164.000; -220.000
355.167;  -72.500; -262.000; -162.000
355.300; -303.600;-1061.000; -880.000
355.433;  -15.600;  -71.000;  -14.000
355.565; -137.500; -402.000; -384.000
355.698; -110.200; -356.000; -296.000
355.831; -261.500; -882.000; -801.000
355.964;  -86.300; -285.000; -170.000
356.096; -268.700; -856.000; -843.000
356.229; -185.500; -523.000; -530.000
356.362; -106.400; -373.000; -266.000
356.494;  -62.400; -229.000; -162.000
356.627;   57.900;  269.000;  377.000
356.760;  -13.500;  120.000;   53.000
356.892; -213.800; -286.000; -601.000
357.025;  131.800;  403.000;  389.000
357.157;  -76.000; -167.000; -179.000
357.290; -255.700; -856.000; -713.000
357.423; -209.900; -667.000; -556.000
357.555;  -58.600; -217.000; -228.000
357.688; -161.700; -483.000; -364.000
357.820; -259.300; -870.000; -877.000
357.953; -206.200; -563.000; -589.000
358.085; -196.900; -632.000; -612.000
358.218; -303.300;-1131.000; -932.000
358.350;  -34.500;  -58.000;  312.000
358.483; -346.300;-1300.000;-1187.000
358.615; -307.300;-1182.000;-1078.000
358.747; -345.400;-1187.000;-1058.000
358.880; -239.700; -810.000; -744.000
359.012; -124.800; -376.000; -202.000
359.145; -115.700; -480.000; -511.000
359.277; -323.400; -962.000; -913.000
359.409;  120.400;  536.000;  231.000
359.542; -255.100; -738.000; -688.000
359.674;   13.800;   46.000;   13.000
359.806; -180.300; -565.000; -438.000
359.939; -157.800; -617.000; -516.000
360.071; -220.600; -583.000; -579.000
360.203; -113.800; -411.000; -364.000
360.335;  -10.400;  164.000;  -16.000
360.468;  -45.100; -249.000; -307.000
360.600; -209.700; -547.000; -454.000
360.732; -182.900; -546.000; -423.000
360.864; -348.500;-1216.000;-1044.000
360.996; -122.700; -516.000; -554.000
361.129; -181.500; -389.000; -598.000
361.261;  -20.400;  110.000; -113.000
361.393;  -96.500; -252.000; -214.000
361.525;  -15.900;   94.000;  244.000
361.657; -254.000; -821.000; -703.000
361.789;  -40.900; -139.000; -155.000
361.921; -198.000; -642.000; -593.000
362.053;  131.200;  524.000;  541.000
362.185;    0.400;  288.000;   72.000
362.318; -219.300; -709.000; -705.000
362.450;   94.300;  294.000;  444.000
362.582; -301.900; -913.000; -870.000
362.714; -125.800; -353.000; -332.000
362.846; -189.000; -606.000; -490.000
362.978; -302.900; -941.000; -811.000
363.109;  -65.800; -161.000; -260.000
363.241; -234.300; -739.000; -749.000
363.373; -187.400; -649.000; -564.000
363.505;  -59.800; -186.000;  -91.000
363.637; -186.800; -787.000; -601.000
363.769; -346.700;-1067.000;-1080.000
363.901; -189.100; -596.000; -654.000
364.033; -325.100;-1103.000;-1062.000
364.165;  -55.800; -283.000; -283.000
364.296; -101.500; -316.000; -177.000
364.428; -394.700;-1344.000;-1220.000
364.560; -205.100; -679.000; -661.000
364.692; -187.100; -738.000; -835.000
364.824; -177.000; -588.000; -456.000
364.955; -101.300; -402.000; -564.000
365.087; -350.000;-1097.000; -852.000
365.219; -214.800; -686.000; -816.000
365.351; -228.400; -526.000; -572.000
365.482;   45.600;  300.000;  240.000
365.614; -115.000; -402.000; -314.000
365.746; -213.200; -729.000; -752.000
365.877; -227.100; -706.000; -672.000
366.009;  -50.900;  -35.000;  -62.000
366.141; -386.800;-1249.000;-1134.000
366.272; -241.800; -803.000; -719.000
366.404; -256.100;-1005.000; -874.000
366.535;  -10.400; -139.000;  -12.000
366.667; -205.800; -644.000; -649.000
366.799;   60.000;  353.000;  203.000
366.930; -294.200; -862.000; -996.000
367.062; -185.400; -639.000; -613.000
367.193; -297.500; -872.000; -842.000
367.325; -180.700; -580.000; -684.000
367.456;  -94.000; -246.000;   31.000
367.588; -114.700; -371.000; -318.000
367.719;  -44.600;  -44.000;  -45.000
367.851;  -77.100; -222.000; -241.000
367.982; -257.200; -875.000; -732.000
368.113;  -95.900; -475.000; -358.000
368.245; -315.600; -960.000; -841.000
368.376;  -87.300; -254.000; -302.000
368.508;  -91.900; -188.000; -263.000
368.639; -329.500;-1166.000;-1034.000
368.770; -219.600; -670.000; -589.000
368.902; -266.200; -836.000; -926.000
369.033; -290.900; -906.000; -855.000
369.164; -191.200; -720.000; -653.000
369.296; -221.300; -452.000; -601.000
369.427;  -74.700; -209.000; -144.000
369.558; -136.100; -593.000; -377.000
369.689; -230.800; -721.000; -569.000
369.821; -301.300; -951.000; -845.000
369.952;  -47.100;   42.000; -108.000
370.083;  -99.800; -229.000; -108.000
370.214; -196.400; -735.000; -650.000
370.345;  -21.700;   65.000;   81.000
370.477; -261.500; -810.000; -790.000
370.608; -116.600; -328.000; -264.000
370.739; -357.400;-1233.000;-1292.000
370.870; -290.000;-1102.000; -923.000
371.001; -142.800; -378.000; -467.000
371.132; -226.000; -754.000; -735.000
371.263;  -42.800;  -42.000; -148.000
371.394; -268.700; -841.000; -748.000
371.525;   79.400;  345.000;  225.000
371.657; -264.000; -808.000; -670.000
371.788;   29.600;  103.000;  199.000
371.919; -102.900; -384.000; -304.000
372.050;  -23.100;  -91.000; -156.000
372.181;  -66.600; -188.000; -294.000
372.311;  -23.700;   42.000; -127.000
372.442; -140.200; -457.000; -451.000
372.573; -100.800; -444.000; -340.000
372.704; -334.700;-1008.000; -980.000
372.835; -105.100; -228.000; -289.000
372.966; -205.900; -646.000; -554.000
373.097; -230.000; -575.000; -711.000
373.228; -213.500; -717.000; -542.000
373.359; -242.600; -824.000; -536.000
373.490; -260.500; -881.000; -727.000
373.620; -295.600;-1001.000; -803.000
373.751; -157.000; -332.000; -396.000
373.882; -207.100; -663.000; -733.000
374.013; -116.500; -449.000; -262.000
374.143; -179.700; -581.000; -659.000
374.274; -280.600; -987.000; -908.000
374.405;  -95.500; -388.000; -276.000
374.536; -157.100; -526.000; -387.000
374.666; -233.200; -759.000; -807.000
374.797; -277.400; -817.000; -868.000
374.928; -199.600; -710.000; -560.000
375.058; -174.100; -535.000; -500.000
375.189;  -33.900;  -59.000;  -93.000
375.320; -331.800; -928.000;-1034.000
375.450; -182.100; -625.000; -616.000
375.581; -170.900; -526.000; -436.000
375.712;  -65.000; -574.000; -250.000
375.842; -192.800; -438.000; -415.000
375.973; -208.000; -554.000; -513.000
376.103; -222.900; -665.000; -648.000
376.234; -192.000; -531.000; -552.000
376.364; -324.400; -944.000; -867.000
376.495;  186.000;  925.000;  529.000
376.625; -173.900; -472.000; -485.000
376.756; -212.900; -709.000; -678.000
376.886; -356.600;-1178.000;-1026.000
377.017; -325.600;-1048.000;-1061.000
377.147; -287.800; -786.000; -782.000
377.278;   38.500;  174.000;  228.000
377.408; -293.300; -801.000; -815.000
377.538; -226.700; -707.000; -693.000
377.669; -188.600; -537.000; -613.000
377.799; -230.600; -645.000; -635.000
377.929; -192.600; -610.000; -428.000
378.060; -282.800; -781.000; -847.000
378.190; -215.100; -726.000; -531.000
378.320; -147.900; -401.000; -406.000
378.451;  -47.100; -131.000;  -22.000
378.581;  -52.500;  -67.000; -110.000
378.711;  179.600; 1035.000;  866.000
378.841; -208.400; -533.000; -675.000
378.972; -303.600; -871.000; -751.000
379.102; -197.500; -652.000; -579.000
379.232;  -92.300; -126.000;  -73.000
379.362; -313.200;-1001.000; -885.000
379.492; -152.000; -373.000; -424.000
379.623;   14.400;    0.000;  111.000
379.753; -302.300;-1107.000; -974.000
379.883;   11.200;   59.000;  156.000
380.013; -363.600;-1081.000;-1017.000
380.143; -336.800;-1097.000;-1056.000
380.273; -294.800; -985.000; -861.000
380.403; -112.000; -344.000; -257.000
380.533; -270.200; -651.000; -664.000
380.663;   18.800;  173.000;  128.000
380.793; -328.200;-1027.000;-1074.000
380.923;  -84.500; -103.000;  -34.000
381.053; -235.400; -613.000; -623.000
381.183;  -80.000; -106.000; -248.000
381.313; -181.800; -656.000; -470.000
381.443; -181.700; -692.000; -473.000
381.573; -160.600; -402.000; -409.000
381.703; -376.000;-1249.000;-1095.000
381.833; -445.600;-1454.000;-1336.000
381.963;   28.000; -134.000;  -87.000
382.093; -326.400; -925.000; -909.000
382.223; -213.300; -713.000; -602.000
382.353; -256.600; -801.000; -608.000
382.482; -290.600;-1091.000; -964.000
382.612; -231.600; -872.000; -644.000
382.742; -207.700; -695.000; -622.000
382.872; -179.500; -565.000; -551.000
383.002;    3.600;  347.000; -132.000
383.131; -157.300; -226.000; -160.000
383.261; -242.500; -706.000; -768.000
383.391; -206.700; -552.000; -377.000
383.521;   95.300;  451.000;  263.000
383.650; -285.100; -947.000; -904.000
383.780; -239.000; -783.000; -656.000
383.910;  191.500;  880.000;  802.000
384.039; -241.500; -794.000; -656.000
384.169; -386.600;-1205.000;-1017.000
384.299; -196.000; -650.000; -662.000
384.428; -202.300; -764.000; -680.000
384.558; -104.700; -308.000; -275.000
384.687; -117.800; -414.000; -334.000
384.817;  -21.500;   75.000;   -2.000
384.947;  -60.300; -234.000; -141.000
385.076;  272.800;  982.000;  912.000
385.206;   97.700;  369.000;  480.000
385.335; -139.300; -549.000; -417.000
385.465; -253.600; -655.000; -663.000
385.594;  -44.200;  -53.000;  -44.000
385.724; -281.600; -868.000; -838.000
385.853;  -87.100; -296.000; -270.000
385.982; -251.900; -743.000; -787.000
386.112; -282.300;-1052.000; -871.000
386.241; -156.200; -307.000; -312.000
386.371;  -34.500; -174.000;  -87.000
386.500; -265.500; -825.000; -789.000
386.629; -214.400; -874.000; -817.000
386.759;  -29.500;  -43.000;   68.000
386.888;  -71.500; -170.000; -250.000
387.017; -187.300; -648.000; -620.000
387.147; -258.000; -771.000; -798.000
387.276; -176.100; -410.000; -397.000
387.405; -127.200; -398.000; -342.000
387.535; -162.100; -452.000; -361.000
387.664; -200.900; -692.000; -620.000
387.793; -103.100; -198.000; -113.000
387.922;    9.900;  255.000;  200.000
388.052; -177.100; -576.000; -423.000
388.181; -147.900; -342.000; -472.000
388.310; -250.900; -889.000; -710.000
388.439; -282.800; -749.000; -742.000
388.568;   31.600;  365.000;  244.000
388.697; -210.800; -756.000; -653.000
388.826; -206.000; -768.000; -666.000
388.956; -118.800; -285.000; -307.000
389.085; -121.000; -347.000; -287.000
389.214; -252.700; -842.000; -872.000
389.343; -200.300; -645.000; -413.000
389.472;   38.900;  126.000;  149.000
389.601;  -11.500;   91.000;    0.000
389.730; -205.500; -568.000; -687.000
389.859;   37.200;  226.000;   46.000
389.988; -144.400; -423.000; -408.000
390.117; -101.300; -168.000; -146.000
390.246; -118.200; -331.000; -320.000
390.375; -217.800; -673.000; -626.000
390.504; -214.900; -703.000; -621.000
390.633; -264.600; -672.000; -726.000
390.761; -226.300; -732.000; -645.000
390.890;  -32.900;   -4.000; -130.000
391.019; -163.100; -421.000; -441.000
391.148; -279.900; -826.000; -855.000
391.277; -189.400; -576.000; -493.000
391.406; -269.400; -821.000; -805.000
391.534;   18.200;  574.000; -301.000
391.663; -212.900; -583.000; -645.000
391.792; -206.500; -673.000; -701.000
391.921;   -0.900;   -3.000;   15.000
392.050; -126.600; -287.000; -228.000
392.178; -360.400;-1206.000;-1061.000
392.307; -261.400; -758.000; -712.000
392.436; -230.100; -427.000; -641.000
392.564;  -13.300;  166.000;   -6.000
392.693; -252.200; -860.000; -682.000
392.822; -192.800; -529.000; -534.000
392.950; -254.300; -880.000; -714.000
393.079; -111.500; -188.000; -328.000
393.208; -185.100; -488.000; -511.000
393.336;  -68.300; -170.000; -145.000
393.465;  -99.300; -317.000; -199.000
393.593;  -35.800;   62.000;   79.000
393.722; -321.500;-1121.000; -916.000
393.850;  -64.400; -188.000;  -61.000
393.979; -323.500; -926.000; -805.000
394.107; -149.600; -517.000; -537.000
394.236; -206.400; -570.000; -507.000
394.364;   37.000;  383.000;  206.000
394.493; -271.800; -911.000; -767.000
394.621; -295.400; -955.000; -916.000
394.750; -279.800; -873.000; -923.000
394.878;  -77.200; -247.000; -149.000
395.007; -256.800; -721.000; -807.000
395.135; -221.200; -790.000; -721.000
395.263; -311.800;-1038.000;-1040.000
395.392;  -34.800;  -25.000; -107.000
395.520; -296.300; -818.000; -679.000
395.648; -281.600; -865.000; -915.000
395.777; -168.100; -366.000; -405.000
395.905; -185.400; -449.000; -564.000
396.033;   24.400;  217.000;  172.000
396.162; -113.900; -399.000; -453.000
396.290;  -38.900;  -17.000;   -2.000
396.418; -174.000; -555.000; -514.000
396.546; -244.500; -571.000; -466.000
396.674; -273.400; -850.000; -878.000
396.803;  -60.600;  -72.000;  -23.000
396.931;  -84.600; -179.000; -199.000
397.059; -343.700;-1026.000; -989.000
397.187; -291.000;-1026.000; -975.000
397.315; -276.500; -884.000; -649.000
397.443; -161.900; -592.000; -443.000
397.572; -181.700; -578.000; -424.000
397.700; -205.100; -607.000; -614.000
397.828;  -80.500;  120.000;  -90.000
397.956; -174.500; -508.000; -478.000
398.084; -215.700; -767.000; -626.000
398.212;   13.700;  137.000;  124.000
398.340;  -26.800;  -56.000;  159.000
398.468; -115.700; -390.000; -169.000
398.596; -300.000; -993.000; -953.000
398.724; -256.200; -762.000; -767.000
398.852; -316.100;-1024.000; -976.000
398.980; -195.500; -560.000; -560.000
399.108; -243.400; -982.000; -735.000
399.236;    3.100;   13.000;    8.000
399.363;   26.700;  222.000;  196.000
399.491; -124.200; -404.000; -398.000
399.619; -265.100; -829.000; -800.000
399.747; -257.000; -859.000; -771.000
399.875;   51.400;  220.000;  234.000
400.003; -124.900; -359.000; -284.000
400.130; -143.200; -421.000; -341.000
400.258;  -19.900;  -83.000;   38.000
400.386; -114.800; -352.000; -168.000
400.514; -178.500; -526.000; -587.000
400.641; -315.900; -928.000; -802.000
400.769; -267.900; -979.000; -888.000
400.897; -259.700; -838.000; -793.000
401.025;  -29.700; -166.000; -152.000
401.152;   23.000;  220.000;   38.000
401.280; -146.500; -430.000; -429.000
401.408; -243.800; -712.000; -576.000
401.535; -216.900; -735.000; -758.000
401.663; -367.900;-1134.000;-1054.000
401.790; -188.400; -514.000; -525.000
401.918;  117.700;  436.000;  405.000
402.046;  -25.500;  134.000;  122.000
402.173;  -47.900;  -18.000;    7.000
402.301; -150.900; -519.000; -397.000
402.428;   76.700;  528.000;  383.000
402.556; -338.000;-1188.000; -913.000
402.683;  -56.700;  -20.000;   -1.000
402.811;  -34.100;  -37.000; -206.000
402.938;  -35.100;   20.000;   27.000
403.066; -187.200; -574.000; -558.000
403.193;   20.000;  299.000;  239.000
403.321; -156.400; -396.000; -574.000
403.448;   -8.100;   83.000;   27.000
403.575;  -25.400;  -90.000;  -46.000
403.703; -243.100; -732.000; -557.000
403.830; -161.700; -531.000; -496.000
403.957; -325.600;-1117.000;-1023.000
404.085; -109.100;  -61.000; -172.000
404.212;  -24.400;  -50.000;   63.000
404.339; -125.200; -566.000; -306.000
404.467; -175.900; -612.000; -524.000
404.594;  -83.500; -287.000; -227.000
404.721; -246.500; -869.000; -764.000
404.848;  -80.300; -113.000; -202.000
404.976; -285.200; -856.000; -783.000
405.103;  -33.300;  -14.000;  -82.000
405.230;   -3.300;  190.000;  226.000
405.357;    6.600;  117.000;   44.000
405.484;  -60.300;  -49.000;    5.000
405.612; -185.900; -548.000; -563.000
405.739; -154.600; -488.000; -243.000
405.866;  142.400;  669.000;  385.000
405.993; -127.400; -398.000; -102.000
406.120; -297.600; -801.000; -887.000
406.247; -164.200; -323.000; -342.000
406.374;  156.900;  540.000;  629.000
406.501; -232.600; -632.000; -702.000
406.628; -182.500; -621.000; -589.000
406.755; -240.500; -803.000; -620.000
406.882; -118.900; -228.000; -277.000
407.009; -221.600; -719.000; -628.000
407.136; -113.900; -480.000; -401.000
407.263; -314.500; -939.000; -829.000
407.390; -217.400; -692.000; -614.000
407.517; -387.600;-1139.000;-1187.000
407.644; -123.100; -332.000; -256.000
407.771; -151.800; -249.000; -287.000
407.898;   14.500;  168.000;  328.000
408.025; -180.900; -421.000; -313.000
408.151;  -12.900;   82.000;  153.000
408.278; -145.700; -267.000; -216.000
408.405; -272.300; -931.000; -899.000
408.532; -204.700; -549.000; -542.000
408.659; -215.800; -677.000; -648.000
408.785; -407.200;-1298.000;-1170.000
408.912; -129.300; -412.000; -296.000
409.039; -180.900; -610.000; -686.000
409.166; -219.000; -591.000; -555.000
409.292; -204.900; -571.000; -534.000
409.419; -209.600; -665.000; -649.000
409.546; -139.500; -431.000; -192.000
409.672; -214.600; -713.000; -545.000
409.799;  -54.600;  -36.000;   34.000
409.926; -110.300; -180.000; -179.000
410.052; -355.500;-1127.000;-1091.000
410.179; -132.500; -368.000; -392.000
410.305; -137.200; -375.000; -493.000
410.432; -103.900; -220.000; -333.000
410.558; -190.900; -305.000; -380.000
410.685; -208.800; -688.000; -431.000
410.812; -172.300; -409.000; -588.000
410.938; -267.000; -964.000; -808.000
411.065; -217.100; -671.000; -645.000
411.191;  -84.100; -189.000; -174.000
411.317; -287.700; -823.000; -742.000
411.444; -120.800; -317.000; -246.000
411.570; -130.000; -339.000; -294.000
411.697; -236.900; -758.000; -752.000
411.823; -354.200; -989.000; -999.000
411.949;  -50.900;  -56.000;   17.000
412.076; -224.500; -539.000; -519.000
412.202; -259.600; -758.000; -757.000
412.329; -281.200; -798.000; -752.000
412.455; -228.600; -821.000; -657.000
412.581;  -11.500;  -15.000;  172.000
412.707; -205.300; -540.000; -457.000
412.834;    3.400;  156.000;  219.000
412.960; -247.800; -785.000; -784.000
413.086; -241.000; -743.000; -701.000
413.212;  134.700;  604.000;  578.000
413.339; -269.700; -685.000; -701.000
413.465; -136.300; -364.000; -310.000
413.591; -259.300; -757.000; -474.000
413.717; -112.000; -358.000; -366.000
413.843; -305.400; -839.000; -861.000
413.969; -137.700;  -47.000; -292.000
414.096; -229.600; -679.000; -679.000
414.222;  -23.000;  -33.000;   85.000
414.348; -191.000; -652.000; -385.000
414.474;  -32.500;   38.000;  -52.000
414.600;  -71.300; -126.000; -144.000
414.726;  -77.800;  -96.000;  -55.000
414.852; -161.700; -365.000; -342.000
414.978;  -22.300;  104.000;  -18.000
415.104;  -35.200;   38.000;   80.000
415.230; -100.800; -329.000; -330.000
415.356; -218.000; -409.000; -514.000
415.482;  -40.600;   13.000;  -35.000
415.608; -109.100; -247.000; -323.000
415.734;   -7.800;   67.000;   38.000
415.860; -260.800; -875.000; -767.000
415.986; -248.400; -685.000; -607.000
416.111; -238.800; -798.000; -652.000
416.237; -203.000; -424.000; -571.000
416.363; -274.700; -765.000; -733.000
416.489; -120.600; -324.000; -251.000
416.615; -234.600; -707.000; -742.000
416.741; -223.900; -677.000; -784.000
416.866; -257.700; -673.000; -736.000
416.992; -285.100; -801.000; -818.000
417.118; -125.000;  -41.000;  -80.000
417.244; -245.000; -798.000; -531.000
417.369; -234.000; -801.000; -612.000
417.495; -127.500; -325.000; -254.000
417.621; -312.100;-1015.000; -803.000
417.746; -155.500; -579.000; -572.000
417.872;  -41.500; -254.000; -144.000
417.998; -181.000; -515.000; -530.000
418.123; -328.400;-1073.000; -845.000
418.249; -185.100; -512.000; -601.000
418.374; -291.000; -916.000; -824.000
418.500; -168.100; -383.000; -482.000
418.626;  -36.300;   70.000;  -59.000
418.751; -139.800; -549.000; -448.000
418.877; -220.500; -637.000; -643.000
419.002; -160.900; -688.000; -560.000
419.128; -286.400; -930.000; -721.000
419.253; -288.500; -967.000; -837.000
419.379; -176.900; -391.000; -338.000
419.504;   67.300;  325.000;  415.000
419.629; -122.000; -393.000; -212.000
419.755;  -92.800; -317.000; -254.000
419.880; -122.400;  -98.000;   67.000
420.006; -121.000; -280.000; -221.000
420.131; -207.800; -662.000; -775.000
420.256; -125.600; -315.000; -316.000
420.382; -235.600; -665.000; -687.000
420.507; -223.600; -649.000; -778.000
420.632; -169.700; -337.000; -339.000
420.758; -128.800; -251.000; -425.000
420.883; -249.000; -876.000; -672.000
421.008; -251.100; -775.000; -619.000
421.133; -189.100; -509.000; -467.000
421.259;  -90.200; -325.000; -259.000
421.384; -274.700; -834.000; -693.000
421.509; -282.500;-1052.000; -862.000
421.634; -308.500; -936.000; -820.000
421.759; -152.700; -359.000; -327.000
421.885; -217.700; -717.000; -656.000
422.010; -174.700; -673.000; -542.000
422.135; -273.300; -695.000; -727.000
422.260;   62.800;  340.000;  280.000
422.385;  -85.800;   12.000;  -98.000
422.510;    1.800;  151.000;  -26.000
422.635;  -68.400;  -87.000;  -43.000
422.760; -213.700; -766.000; -791.000
422.885;  -27.100;  -57.000;  -80.000
423.010;  -79.300; -112.000; -169.000
423.135; -194.900; -481.000; -561.000
423.260;  -98.300; -150.000; -245.000
423.385;   42.200;  476.000;  222.000
423.510;    6.300;   71.000;  -22.000
423.635;  -33.700;  133.000;   45.000
423.760;   88.500;  383.000;  328.000
423.885;   39.800;  336.000;  391.000
424.010;  -35.300;  -68.000;  -13.000
424.135;  -73.900;    5.000;  -33.000
424.259; -213.100; -654.000; -457.000
424.384; -155.200; -279.000; -272.000
424.509; -107.100; -260.000; -186.000
424.634; -241.500; -761.000; -623.000
424.759; -209.500; -688.000; -544.000
424.883; -194.700; -506.000; -527.000
425.008; -169.800; -502.000; -410.000
425.133; -207.400; -679.000; -653.000
425.258; -192.600; -517.000; -381.000
425.382; -250.100; -867.000; -774.000
425.507; -208.000; -487.000; -543.000
425.632; -276.800; -802.000; -663.000
425.756;  -97.000; -256.000; -146.000
425.881; -299.900; -831.000; -857.000
426.006; -163.500; -604.000; -355.000
426.130; -245.600; -696.000; -508.000
426.255; -172.700; -611.000; -491.000
426.379;  -96.300; -189.000; -577.000
426.504;  133.200;  660.000;  544.000
426.629; -231.400; -519.000; -466.000
426.753;  -37.500;   64.000;  -46.000
426.878; -123.300; -252.000; -288.000
427.002; -191.000; -651.000; -668.000
427.127; -118.200;  -35.000; -158.000
427.251;   53.700;  372.000;  401.000
427.375; -120.100; -191.000; -173.000
427.500; -190.000; -616.000; -610.000
427.624; -190.300; -234.000; -400.000
427.749; -123.000; -216.000; -225.000
427.873; -183.800; -499.000; -412.000
427.997; -112.000; -222.000; -230.000
428.122;  147.000;  795.000;  703.000
428.246;   84.100;  433.000;  434.000
428.371; -275.700; -869.000; -773.000
428.495; -230.600; -624.000; -646.000
428.619; -114.000; -186.000; -117.000
428.743;   14.600;   65.000;  132.000
428.868; -257.100; -732.000; -643.000
428.992; -149.700; -219.000; -326.000
429.116; -166.700; -329.000; -357.000
429.240;   53.100;  419.000;  426.000
429.365; -164.400; -454.000; -574.000
429.489; -214.100; -638.000; -647.000
429.613;  -83.000; -236.000; -177.000
429.737; -163.300; -563.000; -432.000
429.861; -135.400; -247.000; -133.000
429.985; -183.700; -425.000; -305.000
430.109; -318.800; -770.000; -908.000
430.234;   31.500;   76.000;  -50.000
430.358; -109.900; -250.000; -160.000
430.482; -261.000; -672.000; -564.000
430.606; -211.900; -655.000; -375.000
430.730; -174.800; -437.000; -388.000
430.854; -303.900; -909.000; -835.000
430.978; -255.000; -795.000; -764.000
431.102; -198.000; -499.000; -422.000
431.226; -263.300; -874.000; -815.000
431.350;   41.600;  345.000;  422.000
431.474; -194.800; -661.000; -373.000
431.597; -330.600;-1060.000; -848.000
431.721; -155.600; -276.000; -267.000
431.845; -244.000; -704.000; -472.000
431.969; -157.700; -304.000; -349.000
432.093; -177.800; -395.000; -317.000
432.217;   -2.900;   32.000;   82.000
432.341; -186.800; -523.000; -518.000
432.464;  -57.800;   96.000;   40.000
432.588; -201.600; -401.000; -329.000
432.712;  -38.000;  -52.000;  -52.000
432.836;    6.600;  213.000;  263.000
432.959; -125.000; -372.000; -311.000
433.083;  -47.700;   11.000;    2.000
433.207;  124.100;  285.000;  930.000
433.330; -135.100; -391.000; -200.000
433.454; -190.600; -654.000; -638.000
433.578;   71.600;  583.000;  278.000
433.701; -235.400; -623.000; -675.000
433.825; -156.900; -292.000; -299.000
433.949;  -46.500;   28.000;  -72.000
434.072; -152.900; -410.000; -323.000
434.196; -107.500; -309.000; -117.000
434.319; 7915.400;25482.000;25124.000
434.443; -232.500; -656.000; -603.000
434.566;  -48.900;  281.000;   62.000
434.690; -208.400; -637.000; -383.000
434.813; -105.500; -251.000; -173.000
434.937; -222.200; -569.000; -696.000
435.060; -150.000; -423.000; -332.000
435.184; -148.500; -492.000; -217.000
435.307;  -25.000;  159.000;  102.000
435.431;  -52.300;  -40.000;   24.000
435.554; -150.900; -399.000; -240.000
435.677; -133.300; -350.000; -258.000
435.801;  -31.000;  -25.000;   49.000
435.924;  -81.400;    1.000;  -67.000
436.048; -303.000;-1019.000; -732.000
436.171; -114.200; -240.000;  -66.000
436.294; -143.800; -248.000; -229.000
436.417; -334.400; -963.000; -849.000
436.541; -292.200; -814.000; -840.000
436.664;  -97.000; -242.000; -316.000
436.787;  -23.400;   13.000;  113.000
436.910; -233.500; -792.000; -422.000
437.034;   -7.400;  142.000;  143.000
437.157;  -15.900;  -11.000;    0.000
437.280; -185.700; -392.000; -292.000
437.403; -279.900; -982.000; -869.000
437.526; -315.300; -903.000; -865.000
437.649; -164.800; -505.000; -332.000
437.772; -272.700; -692.000; -540.000
437.896;  114.100;  700.000;  544.000
438.019; -249.300; -758.000; -503.000
438.142; -201.000; -596.000; -506.000
438.265; -258.900; -639.000; -670.000
438.388; -167.600; -520.000; -410.000
438.511; -216.400; -597.000; -394.000
438.634; -142.000; -247.000; -125.000
438.757; -272.800; -693.000; -619.000
438.880;  -52.500;  -34.000;  -57.000
439.003; -154.900; -417.000; -437.000
439.126;  -84.900; -287.000; -167.000
439.248;  -82.300;  -98.000; -139.000
439.371;  -23.900;    9.000;  -53.000
439.494;  139.900;  510.000;  439.000
439.617;  -63.200;   65.000;  -88.000
439.740; -332.500; -968.000; -816.000
439.863; -244.800; -755.000; -595.000
439.986; -215.500; -476.000; -431.000
440.108;  -86.800; -161.000; -112.000
440.231; -354.900; -950.000; -836.000
440.354;  -60.000;  -64.000; -150.000
440.477; -220.500; -566.000; -542.000
440.599; -179.900; -200.000; -225.000
440.722; -234.800; -709.000; -586.000
440.845;  178.400;  751.000;  928.000
440.968; -167.100; -415.000; -311.000
441.090;  -89.200; -199.000;  -33.000
441.213; -320.500;-1021.000; -825.000
441.336;  -32.600; -159.000;   -5.000
441.458; -137.100; -549.000; -396.000
441.581; -246.600; -628.000; -629.000
441.703; -108.400; -152.000;   13.000
441.826; -185.400; -557.000; -400.000
441.948;  -48.500;   56.000;   51.000
442.071;   96.700;  555.000;  424.000
442.193; -230.100; -531.000; -485.000
442.316;  -32.000;  152.000;   97.000
442.438; -126.100; -233.000;  -10.000
442.561;   28.800;  272.000;  262.000
442.683; -286.200; -809.000; -522.000
442.806;  -46.600;   -8.000;   74.000
442.928; -276.400; -859.000; -604.000
443.051; -200.200; -577.000; -373.000
443.173; -157.200; -341.000; -339.000
443.295; -133.700; -263.000; -371.000
443.418; -135.900; -321.000;  -29.000
443.540;  -54.800; -106.000;   -4.000
443.662; -223.100; -563.000; -465.000
443.785;   11.300;  335.000;  199.000
443.907; -196.600; -362.000; -208.000
444.029; -240.000; -767.000; -494.000
444.152; -262.800; -644.000; -554.000
444.274;  -18.800;  -18.000;  -24.000
444.396; -206.700; -461.000; -221.000
444.518; -242.800; -691.000; -454.000
444.640; -171.800; -268.000; -111.000
444.763;  -18.400;  388.000;  249.000
444.885; -215.800; -432.000; -392.000
445.007;  -51.400;   35.000;   86.000
445.129; -206.300; -610.000; -515.000
445.251; -194.000; -372.000; -439.000
445.373; -284.700; -537.000; -386.000
445.495;   37.800;  242.000;  350.000
445.617;  138.100;  853.000;  753.000
445.739; -113.500; -215.000;  -97.000
445.861;  -82.300; -245.000; -112.000
445.984; -127.400; -267.000; -101.000
446.105; -157.400; -418.000; -251.000
446.227;  -86.900; -176.000;  -19.000
446.349; -195.300; -358.000; -249.000
446.471; -213.500; -615.000; -448.000
446.593; -133.700; -316.000;   19.000
446.715;  -91.400;  -67.000;   41.000
446.837;  167.600;  697.000;  832.000
446.959; -184.500; -457.000; -478.000
447.081; -251.600; -628.000; -518.000
447.203;  188.900;  862.000;  834.000
447.325; -144.900; -270.000;   42.000
447.446;   31.600;  286.000;  530.000
447.568; -342.700; -921.000; -803.000
447.690; -149.500; -236.000; -245.000
447.812; -263.600; -798.000; -519.000
447.933;  -28.300;  155.000;  127.000
448.055; -127.000; -306.000; -261.000
448.177;  -34.800;   31.000;   79.000
448.299; -357.600; -935.000; -727.000
448.420;  -20.500;  -25.000;  159.000
448.542; -105.400;   -3.000;   33.000
448.664;  -23.400;  109.000;  322.000
448.785;  -13.200;  265.000;   83.000
448.907; -174.900; -614.000; -353.000
449.028; -252.800; -771.000; -471.000
449.150;  105.600;  492.000;  589.000
449.272; -341.700;-1044.000; -913.000
449.393;  111.600;  612.000;  694.000
449.515; -261.200; -634.000; -581.000
449.636; -134.700; -264.000; -155.000
449.758;   99.700;  763.000;  622.000
449.879; -188.800; -498.000; -396.000
450.001; -148.900; -149.000;  -49.000
450.122;  -55.100;  -95.000;  162.000
450.244;  -44.500;   37.000;  364.000
450.365; -210.100; -495.000; -301.000
450.486;  -63.100;   80.000;  268.000
450.608;   37.900;  393.000;  326.000
450.729;   86.600;  578.000;  645.000
450.850; -234.700; -574.000; -466.000
450.972; -244.600; -552.000; -389.000
451.093;    9.200;  190.000;  588.000
451.214; -187.500; -516.000; -337.000
451.336;   97.300;  773.000;  579.000
451.457;   19.000;  264.000;  393.000
451.578;  -83.200; -118.000;  -74.000
451.699; -250.900; -546.000; -540.000
451.821; -120.900; -284.000;  -50.000
451.942;    2.100;  278.000;  285.000
452.063;   22.700;  228.000;  419.000
452.184; -108.700;  -54.000;  -49.000
452.305;   -2.700;  103.000;  170.000
452.427; -221.400; -549.000; -301.000
452.548;  -83.500;   23.000;   79.000
452.669; -130.300; -257.000;  -89.000
452.790; -101.100;    3.000;  -18.000
452.911;  -25.200;  195.000;  259.000
453.032; -125.100; -289.000;  -60.000
453.153;  -91.900;  -29.000;   81.000
453.274;  167.900;  737.000;  868.000
453.395; -102.200;  -51.000;  175.000
453.516;  249.900; 1317.000; 1388.000
453.637; -160.800; -205.000; -150.000
453.758;  -48.700;   15.000;   69.000
453.879; -226.100; -462.000; -250.000
454.000;  200.600; 1086.000;  948.000
454.121; -240.300; -554.000; -326.000
454.242; -215.600; -599.000; -383.000
454.362;  -83.100;  -99.000;  114.000
454.483; -149.800; -309.000; -229.000
454.604;   35.200;  512.000;  580.000
454.725; -260.500; -627.000; -555.000
454.846; -229.100; -474.000; -406.000
454.967;   59.300;  230.000;  539.000
455.087;  -38.400;  179.000;  153.000
455.208;  134.900;  554.000;  856.000
455.329; -100.700;  -22.000;   82.000
455.450;   64.800;  473.000;  633.000
455.570; -189.000; -234.000; -211.000
455.691;  -66.700;  201.000;  407.000
455.812; -183.500; -270.000;  -92.000
455.932;  -29.800;  107.000;  -97.000
456.053; -126.200;   36.000;   24.000
456.173; -189.100; -433.000; -355.000
456.294; -224.800; -476.000; -303.000
456.415; -110.000;  -73.000;   70.000
456.535;   -7.900;  297.000;  273.000
456.656;  -24.300;  132.000;  240.000
456.776; -124.300;    3.000;  298.000
456.897;   20.400;  308.000;  513.000
457.017; -142.400; -153.000;   -3.000
457.138; -195.400; -402.000; -249.000
457.258;  -16.300;  263.000;  224.000
457.379;   14.300;  509.000;  521.000
457.499;  -22.400;  443.000;  432.000
457.620; -178.600; -407.000; -231.000
457.740; -146.800; -132.000;  -11.000
457.860;  -73.900;   87.000;   44.000
457.981;  -72.100;  132.000;  124.000
458.101; -154.300;  -89.000;   40.000
458.221;   31.000;  336.000;  402.000
458.342;  -77.100;   -4.000;  -37.000
458.462;   25.000;  617.000;  352.000
458.582; -149.100; -302.000; -294.000
458.703;  -68.800;  303.000;  154.000
458.823;  -86.300;   22.000;  163.000
458.943;  -10.500;  341.000;  467.000
459.063;  -56.500; 1124.000;  192.000
459.183;  -51.700;  328.000;  313.000
459.304;   44.400;  315.000;  517.000
459.424; -150.800; -246.000;  -89.000
459.544;   35.800;  388.000;  764.000
459.664;   62.800;  499.000;  506.000
459.784;  151.200; 1004.000; 1175.000
459.904;   80.600;  867.000;  744.000
460.024;  167.200;  867.000;  684.000
460.144;   -2.500;  449.000;  554.000
460.264;   52.800;  515.000;  327.000
460.385; -128.800; -145.000; -119.000
460.505;  125.400;  905.000;  858.000
460.625; -158.200;  -17.000;  -68.000
460.745;   15.200;  396.000;  541.000
460.864;  -29.000;  153.000;  469.000
460.984;   12.500;  499.000;  573.000
461.104;  345.200; 1656.000; 1775.000
461.224;   88.400;  657.000;  650.000
461.344;  -11.400;  431.000;  360.000
461.464;  -18.200;  258.000;  513.000
461.584;  -19.500;  283.000;  466.000
461.704;  -80.400;   58.000;  108.000
461.824;  -65.100;  238.000;  259.000
461.943;  -69.800;  191.000;  130.000
462.063;  -96.200;    2.000;  324.000
462.183;  128.800;  639.000;  717.000
462.303;  250.300; 1678.000; 1230.000
462.422;  110.900;  781.000;  840.000
462.542;  -75.700;  271.000;  391.000
462.662;   -7.900;  353.000;  380.000
462.782;   34.000;  833.000;  572.000
462.901;   32.700;  545.000;  717.000
463.021;  348.900; 1702.000; 1638.000
463.141;  -21.600;  337.000;  770.000
463.260;   14.100;  614.000;  474.000
463.380;   60.700;  902.000;  884.000
463.499;   -6.900;  342.000;  332.000
463.619;  -10.000;  581.000;  559.000
463.738;  254.900; 1644.000;  903.000
463.858;  110.900;  657.000;  811.000
463.978;  -10.800;  542.000;  396.000
464.097;  113.700;  921.000; 1114.000
464.217;  156.400; 1196.000; 1143.000
464.336;  217.900; 1068.000; 1130.000
464.455;  -15.200;  328.000;  659.000
464.575;   30.400;  597.000;  602.000
464.694;  171.100; 1204.000; 1179.000
464.814;  165.200; 1190.000; 1138.000
464.933;  147.800; 1095.000; 1027.000
465.052;  242.000; 1412.000; 1054.000
465.172;  110.400;  922.000;  799.000
465.291;  248.700; 1376.000; 1320.000
465.410;   54.800;  462.000;  735.000
465.530;  200.900; 1355.000; 1310.000
465.649;  153.700; 1209.000; 1273.000
465.768;  306.700; 1673.000; 1508.000
465.888;  149.300;  941.000; 1174.000
466.007;  292.500; 1335.000; 1440.000
466.126;   61.200;  721.000;  641.000
466.245;  134.600; 1176.000; 1187.000
466.364;   68.900;  950.000; 1060.000
466.484;  139.700; 1024.000; 1213.000
466.603;  125.700; 1101.000; 1222.000
466.722;  279.900; 1490.000; 1769.000
466.841;  172.600; 1151.000; 1401.000
466.960;  126.000; 1069.000;  972.000
467.079;  338.200; 1971.000; 1786.000
467.198;  162.500; 1238.000; 1181.000
467.317;  219.700; 1768.000; 1162.000
467.436;  217.700; 1709.000; 1261.000
467.555;  323.900; 1796.000; 1746.000
467.674;  177.400; 1227.000; 1329.000
467.793;  131.100; 1376.000; 1374.000
467.912;  241.400; 1658.000; 1539.000
468.031;  336.700; 2038.000; 1930.000
468.150;  297.800; 1842.000; 1837.000
468.269;  406.300; 2313.000; 2090.000
468.388;  431.400; 2168.000; 2339.000
468.507;  552.700; 2884.000; 2903.000
468.626;  648.900; 2555.000; 2541.000
468.744;  319.800; 2018.000; 2174.000
468.863;  477.400; 2312.000; 2523.000
468.982;  225.700; 1503.000; 1555.000
469.101;  489.000; 2788.000; 2692.000
469.220;  384.600; 2333.000; 2176.000
469.338;  558.700; 2935.000; 3051.000
469.457;  454.000; 2719.000; 2545.000
469.576;  756.200; 3953.000; 3784.000
469.695;  557.800; 2877.000; 3066.000
469.813;  898.400; 4148.000; 4192.000
469.932;  850.600; 4255.000; 4485.000
470.051;  808.600; 4075.000; 4161.000
470.169;  858.100; 4470.000; 4338.000
470.288;  956.600; 4700.000; 4809.000
470.406; 1015.100; 5059.000; 5194.000
470.525; 1206.200; 6101.000; 5787.000
470.644; 1381.800; 6847.000; 6794.000
470.762; 1696.400; 8397.000; 7873.000
470.881; 1826.400; 8651.000; 8464.000
470.999; 2064.200; 9685.000; 9151.000
471.118; 2263.200;11174.000;10711.000

