
Integration time [ms]: 100.000
Averaging Nr. [scans]: 40
Smoothing Nr. [pixels]: 0
Data measured with spectrometer [name]: 2101012U2
Wave   ;Sample   ;Dark     ;Reference
[nm]   ;[counts] ;[counts] ;[counts] 

197.733;   55.725;  516.000;  404.000
197.879;  -80.700; -610.000; -634.000
198.025;  -51.175; -475.000; -420.000
198.171;  -68.700; -602.000; -612.000
198.317;  -36.450; -401.000; -316.000
198.463;  -55.175; -655.000; -404.000
198.609;   27.550;  181.000; -137.000
198.755;  -84.675; -644.000; -410.000
198.901;  -56.925; -505.000; -424.000
199.047;  -62.375; -615.000; -488.000
199.193;  -35.275; -230.000; -468.000
199.339;  -31.625; -222.000; -369.000
199.485;   35.475;  330.000;  271.000
199.631;    7.000;  227.000;  310.000
199.777;  -31.300; -466.000; -398.000
199.923;  -55.725; -610.000; -424.000
200.069;   -9.650; -141.000;  -58.000
200.215;   54.400;  128.000;  453.000
200.361;   51.250;  243.000;  477.000
200.507;  -61.125; -600.000; -373.000
200.653;  -21.675; -371.000; -194.000
200.798;  -28.950; -215.000; -125.000
200.944;    0.850; -146.000;  -41.000
201.090;   26.325;   61.000;  222.000
201.236;   -6.025; -116.000; -158.000
201.382;  105.275;  874.000;  903.000
201.528;    6.550;  -58.000;  -48.000
201.674;  -53.950; -386.000; -293.000
201.819;  -52.250; -540.000; -439.000
201.965;  -89.675; -699.000; -447.000
202.111;  -22.400; -273.000; -226.000
202.257;  -51.925; -250.000; -238.000
202.402;   -3.850;   13.000;  -36.000
202.548;  -31.200; -169.000; -116.000
202.694;   74.850;  410.000; -183.000
202.840;  -80.125; -603.000; -531.000
202.985;  -66.825; -681.000; -639.000
203.131;  -98.250; -832.000; -666.000
203.277;   -9.950; -199.000; -262.000
203.423;  -37.700; -434.000; -520.000
203.568;  -38.425; -462.000; -237.000
203.714;  -49.125; -535.000; -542.000
203.860;  -61.325; -682.000; -641.000
204.005;    2.800;  112.000;  167.000
204.151;   68.825;  561.000;  556.000
204.296;  -51.650; -354.000; -221.000
204.442;  -55.775; -600.000; -547.000
204.588;  -72.475; -592.000; -579.000
204.733;   23.125;  178.000;  168.000
204.879; -120.525;-1018.000; -822.000
205.025;    9.775;  -99.000;  126.000
205.170;   -4.125;  -17.000;   94.000
205.316;   68.400;  438.000;  661.000
205.461;  -75.625; -698.000; -554.000
205.607;   87.125;  609.000;  665.000
205.752;  -81.900; -626.000; -551.000
205.898;  -43.275; -501.000; -391.000
206.043;  -64.225; -578.000; -506.000
206.189;  -32.425; -243.000; -285.000
206.334;   70.600;  554.000;  606.000
206.480;   74.125;  409.000;  239.000
206.625;  -78.125; -529.000; -552.000
206.771;  -27.825; -451.000; -373.000
206.916;  -40.075; -210.000; -537.000
207.062;  -60.825; -545.000; -591.000
207.207;  -62.025; -546.000; -443.000
207.353;   48.100;  185.000;  460.000
207.498;   -0.375;  196.000;   85.000
207.643;  -53.775; -501.000; -370.000
207.789; -114.300;-1069.000; -910.000
207.934;  -86.075; -665.000; -713.000
208.080;  -28.750; -154.000;   66.000
208.225;   10.600;  -22.000;  -57.000
208.370;  -83.150; -727.000; -619.000
208.516;  -70.525; -741.000; -487.000
208.661;  -25.100; -127.000;  -69.000
208.806;  -13.050; -165.000; -171.000
208.952; -118.500;-1044.000; -731.000
209.097;   64.600;  378.000;  349.000
209.242;  -48.250; -307.000; -382.000
209.387;   45.575;  392.000;  350.000
209.533;  -41.925; -321.000; -350.000
209.678;   72.550;  472.000;  543.000
209.823;  -54.450; -408.000; -310.000
209.969;  -92.075; -860.000; -757.000
210.114;  -96.750; -907.000; -719.000
210.259; -101.150; -939.000; -889.000
210.404;   -9.300; -171.000;  103.000
210.549;    4.625;  108.000;    3.000
210.695;   -8.600;   -3.000;  -95.000
210.840;   26.100;   94.000;   67.000
210.985;  -53.550; -484.000; -303.000
211.130;   62.800;  268.000;  406.000
211.275;   13.575;  207.000;  199.000
211.420;  -49.450; -300.000; -289.000
211.566;  -65.325; -536.000; -489.000
211.711;   14.475;  218.000;  157.000
211.856;  -60.550; -545.000; -519.000
212.001;    8.500;  151.000;   44.000
212.146;   14.125;  153.000;   49.000
212.291;  -30.650; -210.000; -186.000
212.436;  -27.600; -280.000;   -6.000
212.581;  -70.775; -685.000; -653.000
212.726;  -79.525; -487.000; -538.000
212.871;  -39.950; -552.000; -217.000
213.016; -144.775;-1172.000;-1029.000
213.161;   59.300;  406.000;  291.000
213.306;  -72.850; -435.000; -577.000
213.451;  -73.500; -778.000; -689.000
213.596;  -38.625; -455.000; -347.000
213.741;  -57.425; -448.000; -538.000
213.886;  -80.650; -498.000; -517.000
214.031;   -7.350; -294.000; -124.000
214.176;  -50.925; -408.000; -341.000
214.321;  -30.850; -296.000; -157.000
214.466;  -21.675; -163.000;  -43.000
214.611;    5.500;  -61.000;  -10.000
214.756; -111.825; -948.000; -858.000
214.901;  -12.450; -388.000; -226.000
215.046; -116.150; -797.000; -825.000
215.191;    3.025;  128.000;   35.000
215.336;  -32.100; -157.000;  -19.000
215.480;  -67.850; -684.000; -505.000
215.625;  -30.900; -175.000;  -19.000
215.770;  -82.850; -757.000; -662.000
215.915;   -7.225;   -5.000;  -97.000
216.060;   -2.900; -113.000;  -21.000
216.205; -110.600; -731.000; -779.000
216.349;  -68.775; -470.000; -533.000
216.494; -123.450; -939.000; -867.000
216.639; -107.275; -823.000; -888.000
216.784;  -85.525; -577.000; -525.000
216.929;   38.625;  392.000;  281.000
217.073;  -19.650; -244.000;  -31.000
217.218;   12.125;   78.000;  -47.000
217.363;  -89.800; -656.000; -618.000
217.507;  -75.100; -623.000; -588.000
217.652; -107.775; -845.000; -874.000
217.797;  -86.425; -708.000; -659.000
217.942; -109.475; -856.000; -720.000
218.086;   70.325;  608.000;  539.000
218.231;  -22.550; -174.000;  -26.000
218.376;  -28.550; -337.000; -229.000
218.520;    2.350;  -41.000;   96.000
218.665;  -14.300; -338.000; -204.000
218.810;  -49.525; -275.000; -233.000
218.954;   12.850;  201.000;   35.000
219.099; -109.175; -713.000; -963.000
219.243;  -53.100; -589.000; -554.000
219.388;  -42.250; -264.000; -136.000
219.532;   -5.150; -116.000; -116.000
219.677;  -67.350; -564.000; -521.000
219.822;    0.525;   33.000;   89.000
219.966;    1.450;   17.000;  -99.000
220.111;  -28.675; -328.000;  -40.000
220.255;  -87.825; -797.000; -750.000
220.400;  -17.000; -180.000; -146.000
220.544;  -63.125; -516.000; -450.000
220.689;  -61.750; -422.000; -451.000
220.833;  -14.350; -123.000;  -58.000
220.978;  -46.325; -393.000; -563.000
221.122;   18.725;  319.000;  307.000
221.267; -113.350; -906.000; -837.000
221.411;  -73.425; -478.000; -394.000
221.555;    3.325; -104.000;  -23.000
221.700;  -54.725; -329.000; -222.000
221.844;   37.350;  255.000;  272.000
221.989;  -51.725; -328.000; -311.000
222.133;  -33.500; -289.000; -307.000
222.277;   -8.125;    5.000;   78.000
222.422;    7.475;  227.000;  113.000
222.566;  -48.000; -381.000; -214.000
222.711;  -53.575; -414.000; -479.000
222.855;  -73.200; -643.000; -586.000
222.999;  -78.725; -642.000; -717.000
223.144;  -33.250; -195.000; -194.000
223.288;   57.075;  423.000;  251.000
223.432;   21.400;  184.000;  230.000
223.576;   13.200;  152.000;  -21.000
223.721;   30.950;  364.000;  273.000
223.865;  -56.425; -472.000; -475.000
224.009;  212.050; 1673.000; 1631.000
224.153;  -79.950; -660.000; -671.000
224.298;  -67.425; -531.000; -489.000
224.442;   -2.700;  -74.000;  -33.000
224.586;  -12.650; -169.000; -106.000
224.730;  -81.050; -858.000; -670.000
224.875; -110.075; -739.000; -688.000
225.019;   18.775;  102.000;  188.000
225.163;   48.050;  208.000;  341.000
225.307;    9.825;   97.000;  -91.000
225.451;   24.125;  360.000;  481.000
225.595;   28.200;  264.000;  176.000
225.739;  -20.850; -170.000;  -94.000
225.884;  -11.900;   86.000;    5.000
226.028;  -83.925; -760.000; -626.000
226.172;  -34.775; -260.000; -273.000
226.316; -109.225; -941.000; -902.000
226.460;  -56.175; -645.000; -493.000
226.604;  -52.325; -406.000; -400.000
226.748;  -80.150; -836.000; -733.000
226.892;  -31.525; -227.000; -181.000
227.036;  -43.125; -537.000; -447.000
227.180;  -71.850; -551.000; -375.000
227.324;  -57.550; -561.000; -580.000
227.468; -116.650; -819.000; -717.000
227.612;    6.900;  242.000;  -28.000
227.756;  -91.000; -845.000; -698.000
227.900;   42.775;  342.000;  441.000
228.044;  -56.525; -509.000; -290.000
228.188;   54.575;  448.000;  568.000
228.332;  -89.600; -546.000; -472.000
228.476;  -31.050; -223.000; -149.000
228.620;  -30.550; -210.000; -150.000
228.764;   51.900;  431.000;  349.000
228.908;  -20.275; -155.000;   30.000
229.052;  -58.125; -615.000; -528.000
229.195;  -29.475; -172.000;   13.000
229.339;  -13.925; -235.000; -305.000
229.483;  -24.275;    5.000; -162.000
229.627;   -1.650; -156.000;  139.000
229.771;  -40.300; -218.000; -294.000
229.915;   12.925;  230.000;   79.000
230.059;  -92.100; -648.000; -663.000
230.202;  -38.350; -370.000; -317.000
230.346;  -21.800; -107.000;  107.000
230.490;  -54.025; -489.000; -521.000
230.634; -102.875; -736.000; -553.000
230.777;   62.250;  478.000;  509.000
230.921;  -60.400; -450.000; -359.000
231.065;  -37.275; -246.000; -286.000
231.209;   26.525;  261.000;  265.000
231.352;   11.975;   54.000;   40.000
231.496;   17.025;  568.000;  188.000
231.640;  -78.475; -693.000; -621.000
231.783;   52.975;  546.000;  525.000
231.927;  -39.150; -294.000; -365.000
232.071; -120.975; -962.000; -736.000
232.214; -104.425; -980.000; -764.000
232.358;  -97.925; -683.000; -599.000
232.502;    1.500;  -19.000;    7.000
232.645; -149.050;-1090.000; -927.000
232.789;  -15.325; -257.000; -218.000
232.933;  -43.425; -407.000; -224.000
233.076; -127.350;-1038.000; -897.000
233.220;  -96.600; -752.000; -777.000
233.363;  -81.250; -669.000; -477.000
233.507;   50.025;  371.000;  129.000
233.650;  -84.375; -764.000; -834.000
233.794;   32.775;  438.000;  461.000
233.938;  -49.400; -530.000; -362.000
234.081;  -10.125;  -93.000;   31.000
234.225;  -66.550; -631.000; -539.000
234.368; -103.525; -773.000; -723.000
234.512;  -35.675; -385.000; -299.000
234.655;  -92.050; -582.000; -555.000
234.798;  -69.000; -493.000; -466.000
234.942; -119.000; -884.000;-1002.000
235.085;  -70.325; -651.000; -443.000
235.229;  -79.850; -405.000; -410.000
235.372;  -35.950; -247.000; -191.000
235.516;  -58.975; -397.000; -321.000
235.659;   13.475;   92.000;  121.000
235.802;   -1.825;  -38.000;  -22.000
235.946;   23.250;  335.000;  215.000
236.089;   14.825;  126.000;  250.000
236.233;   34.650;  275.000;  298.000
236.376;  -61.275; -235.000; -378.000
236.519;  -44.725; -297.000; -319.000
236.663;  -25.975; -215.000; -117.000
236.806; -128.725;-1029.000; -999.000
236.949;   60.825;  543.000;  431.000
237.092;   56.975;  412.000;  391.000
237.236;  -74.800; -589.000; -502.000
237.379;   58.275;  352.000;  428.000
237.522; -112.275; -879.000; -768.000
237.666;  -17.500; -271.000;   18.000
237.809; -110.300; -851.000; -823.000
237.952;   28.525;  469.000;  271.000
238.095;  -68.325; -447.000; -442.000
238.238;   74.925;  688.000;  700.000
238.382;   -5.200;  166.000;  103.000
238.525;  -73.550; -598.000; -511.000
238.668; -135.250;-1060.000; -985.000
238.811;  -67.975; -638.000; -643.000
238.954;  -60.775; -483.000; -334.000
239.097;   80.825;  617.000;  664.000
239.241;   26.550;  394.000;  326.000
239.384;  -19.675; -254.000; -214.000
239.527;  -49.925; -424.000; -224.000
239.670; -135.150; -994.000;-1091.000
239.813;  -97.225; -696.000; -658.000
239.956;   51.100;  579.000;  473.000
240.099;  -95.700; -778.000; -725.000
240.242;   45.200;  428.000;  432.000
240.385;   28.225;  466.000;  450.000
240.528;  -64.200; -706.000; -473.000
240.671;    2.450;  189.000;  134.000
240.814;  -32.450; -441.000; -158.000
240.957;  -95.325; -767.000; -578.000
241.100;  -91.550; -779.000; -755.000
241.243; -127.775;-1234.000; -893.000
241.386;  -58.225; -508.000; -379.000
241.529; -103.975; -735.000; -547.000
241.672;  -65.375; -566.000; -495.000
241.815; -119.375; -832.000; -808.000
241.958;  -23.825; -125.000; -182.000
242.101;  -81.525; -545.000; -390.000
242.244;  -30.075; -270.000; -325.000
242.387;  -45.775; -304.000; -246.000
242.530;   39.450;  470.000;  134.000
242.673;  -34.900; -381.000; -309.000
242.815; -102.100; -925.000; -899.000
242.958;  -71.300; -482.000; -381.000
243.101;    9.825;  132.000;  187.000
243.244;  -73.800; -564.000; -521.000
243.387;  -48.675; -313.000; -316.000
243.530; -106.425; -657.000; -674.000
243.672;    5.300;   43.000;  -92.000
243.815;  -56.700; -355.000; -283.000
243.958;  -10.975;   98.000;  -26.000
244.101;   -6.775;   59.000;  -16.000
244.243;  -17.250;  -47.000;  101.000
244.386; -106.275; -761.000; -630.000
244.529;  -24.850; -132.000; -139.000
244.672; -143.375;-1154.000; -951.000
244.814;  -91.900; -621.000; -794.000
244.957;  -42.950; -380.000; -304.000
245.100;  -63.200; -489.000; -489.000
245.242;  -67.100; -387.000; -374.000
245.385;  -19.900;  -59.000;  -39.000
245.528; -124.250; -871.000; -705.000
245.670;   83.375;  612.000;  634.000
245.813;  -93.425; -599.000; -547.000
245.956;  -19.275; -324.000; -275.000
246.098;  -54.850; -508.000; -650.000
246.241;   -1.525;  194.000;   48.000
246.383;  -28.400; -119.000;  -73.000
246.526;  -73.425; -454.000; -525.000
246.669; -119.300; -889.000; -780.000
246.811;   14.850;  172.000;   -1.000
246.954;  -59.325; -512.000; -426.000
247.096;  -24.700;  -84.000;   -6.000
247.239;  -67.175; -482.000; -445.000
247.381;  -78.800; -647.000; -488.000
247.524;   69.200;  645.000;  679.000
247.666;   -9.925;   58.000;   11.000
247.809; -109.025; -887.000; -691.000
247.951;  -14.125;  -75.000;  138.000
248.094;   13.750;  432.000;  308.000
248.236; -151.625;-1262.000;-1238.000
248.378;  -46.150; -356.000;  -81.000
248.521;  -44.450; -334.000; -337.000
248.663;  -52.650; -236.000; -267.000
248.806;  -25.125; -300.000; -266.000
248.948; -128.125; -886.000; -763.000
249.090;  -69.275; -428.000; -398.000
249.233;  -65.475; -344.000; -381.000
249.375;  -60.450; -474.000; -451.000
249.518;  -24.875;  -83.000; -133.000
249.660;   -8.275; -103.000;    3.000
249.802; -163.175;-1303.000;-1189.000
249.945;  -81.700; -612.000; -540.000
250.087; -109.600; -834.000; -768.000
250.229;  -66.450; -362.000; -480.000
250.371;  -94.375; -494.000; -439.000
250.514;  -46.175; -310.000; -244.000
250.656;  -17.600;   69.000;  102.000
250.798; -106.450; -849.000; -800.000
250.940;  -62.225; -322.000; -322.000
251.083;  -29.375; -335.000; -111.000
251.225;   43.875;  338.000;  310.000
251.367;  -32.350; -274.000; -373.000
251.509;  -49.625; -265.000; -210.000
251.651; -103.400; -731.000; -671.000
251.794;   32.675;  538.000;  632.000
251.936; -119.225; -821.000; -747.000
252.078;  -74.525; -540.000; -461.000
252.220;  -75.525; -645.000; -477.000
252.362;   13.900;  344.000;  462.000
252.504;  -82.225; -677.000; -584.000
252.646;  -99.350; -875.000; -722.000
252.788;  -15.550;   14.000; -128.000
252.931;  -59.175; -257.000; -253.000
253.073;  -56.075; -376.000; -317.000
253.215;  -17.125;  141.000;  122.000
253.357;   -4.925;   82.000; -153.000
253.499;  -59.725; -374.000; -234.000
253.641;  -89.575; -749.000; -594.000
253.783; -104.250; -609.000; -527.000
253.925;  -90.925; -586.000; -591.000
254.067; -118.600; -744.000; -667.000
254.209;  -35.125; -391.000; -259.000
254.351; -139.825; -865.000; -883.000
254.493;  -62.825; -441.000; -417.000
254.635; -142.100; -936.000; -818.000
254.777;  -94.625; -752.000; -687.000
254.918;  -77.575; -512.000; -430.000
255.060;  -66.300; -551.000; -395.000
255.202;  -60.375; -473.000; -261.000
255.344;  -72.200; -658.000; -455.000
255.486;  -77.825; -471.000; -406.000
255.628; -110.000; -780.000; -781.000
255.770;  -88.125; -676.000; -536.000
255.912;  -56.850; -559.000; -468.000
256.053;  -82.850; -730.000; -508.000
256.195;  139.325; 1008.000;  903.000
256.337;  -94.975; -861.000; -595.000
256.479;   47.300;  532.000;  416.000
256.621;  -49.600; -394.000; -212.000
256.762;  -90.950; -789.000; -742.000
256.904;   42.625;  485.000;  487.000
257.046;  -46.000; -381.000; -271.000
257.188;  -49.475; -351.000; -264.000
257.329;  -69.025; -525.000; -464.000
257.471; -120.800; -939.000; -807.000
257.613;  -67.375; -584.000; -498.000
257.755; -153.125;-1073.000; -982.000
257.896;   19.050;  286.000;  392.000
258.038;  -75.500; -403.000; -352.000
258.180;  -38.950; -354.000; -279.000
258.321;  -84.500; -581.000; -457.000
258.463;  -11.975;  -71.000;  133.000
258.605;  -94.575; -562.000; -570.000
258.746; -106.075; -886.000; -772.000
258.888; -156.375;-1026.000;-1020.000
259.029;   11.025;  121.000;   -8.000
259.171;  -94.500; -614.000; -550.000
259.313;    0.600;  -49.000;  -47.000
259.454;  -79.925; -536.000; -414.000
259.596;  -57.750; -483.000; -390.000
259.737;  -90.075; -590.000; -474.000
259.879;   27.275;  217.000;  311.000
260.020;   58.275;  901.000;  636.000
260.162;  -37.150; -146.000; -253.000
260.303; -127.025; -768.000; -687.000
260.445;  -74.600; -609.000; -613.000
260.586;   20.400;  392.000;  157.000
260.728;  -58.700; -360.000; -248.000
260.869;  -68.750; -350.000; -343.000
261.011;   62.050;  706.000;  537.000
261.152;  -69.075; -479.000; -319.000
261.293;  -80.075; -576.000; -595.000
261.435;  -44.200; -219.000; -184.000
261.576;  -55.625; -455.000; -325.000
261.718;   33.725;  420.000;  470.000
261.859; -116.825; -940.000; -949.000
262.000; -137.350; -951.000;-1016.000
262.142;  -36.800;  -52.000;  -60.000
262.283; -119.575; -808.000; -691.000
262.424;  -90.225; -666.000; -625.000
262.566; -158.600;-1161.000; -983.000
262.707; -116.750; -840.000; -830.000
262.848; -123.225; -769.000; -726.000
262.990;  -55.300; -362.000; -345.000
263.131;   71.325;  650.000;  681.000
263.272;  -20.275;  -61.000;  -41.000
263.413;  -93.250; -589.000; -561.000
263.555;  -68.775; -669.000; -143.000
263.696;  -62.200; -550.000; -641.000
263.837;  -66.775; -449.000; -551.000
263.978;  -16.800;   -5.000;  -77.000
264.119;  -63.550; -283.000; -264.000
264.261; -116.175; -847.000; -630.000
264.402;  -17.575;   33.000;   40.000
264.543;  -79.650; -509.000; -524.000
264.684;  -20.500;   61.000;  -50.000
264.825;  -80.700; -816.000; -538.000
264.966;  -20.425;  -84.000;  -67.000
265.107; -110.125; -646.000; -670.000
265.248; -115.925; -825.000; -812.000
265.390;  -22.250;  152.000;   -9.000
265.531;  -19.925; -238.000; -107.000
265.672;  -89.400; -557.000; -630.000
265.813;   34.775;  563.000;  439.000
265.954; -155.450; -959.000; -940.000
266.095;  -21.700; -372.000; -322.000
266.236; -103.575; -686.000; -548.000
266.377;  -43.850; -243.000; -297.000
266.518;  -80.500; -619.000; -547.000
266.659;   12.700;  170.000;  268.000
266.800;  -12.825;   83.000;   85.000
266.941;  -78.675; -487.000; -478.000
267.082;   14.925;  354.000;   99.000
267.223;  -57.850; -344.000; -273.000
267.364; -123.500; -892.000; -686.000
267.504;  -29.025;    3.000;  135.000
267.645;  -11.400;  160.000;   67.000
267.786;  -27.525; -147.000;  -86.000
267.927;  -80.575; -473.000; -379.000
268.068;  -27.675; -186.000;  -61.000
268.209;  -61.525; -175.000; -413.000
268.350;  -54.775; -388.000; -532.000
268.490;  -89.425; -648.000; -521.000
268.631;   21.500;  127.000;  225.000
268.772; -117.275; -874.000; -647.000
268.913;  -50.875; -328.000; -476.000
269.054;  -40.625; -117.000;   12.000
269.194;  -58.650; -418.000; -402.000
269.335; -152.600;-1137.000;-1074.000
269.476;  -14.550;   33.000;  -35.000
269.617;  -61.950; -347.000; -392.000
269.757;  -92.675; -713.000; -646.000
269.898;  -97.775; -856.000; -613.000
270.039;  -61.075; -415.000; -405.000
270.180; -137.275; -952.000; -816.000
270.320;  -23.325; -190.000; -250.000
270.461;  -45.175; -277.000; -249.000
270.602;  -40.450; -186.000; -156.000
270.742; -118.250; -868.000; -943.000
270.883;  -61.825; -442.000; -390.000
271.023;  -73.000; -358.000; -357.000
271.164;  -79.175; -607.000; -528.000
271.305; -110.750; -666.000; -654.000
271.445; -101.500; -722.000; -683.000
271.586;  -75.850; -462.000; -283.000
271.726;  -54.975; -397.000; -322.000
271.867;  -99.300; -594.000; -534.000
272.008;  -42.900; -473.000; -285.000
272.148;   33.175;  462.000;  468.000
272.289;  -14.175; -113.000; -181.000
272.429;  -23.025;   19.000;  185.000
272.570; -103.175; -633.000; -737.000
272.710; -105.700; -825.000; -775.000
272.851;  -20.225;  113.000; -130.000
272.991; -154.375;-1173.000;-1077.000
273.131;  -71.425; -419.000; -459.000
273.272; -115.450; -683.000; -723.000
273.412;  -32.350; -143.000;  -31.000
273.553;  -80.300; -488.000; -507.000
273.693;   98.425;  913.000;  858.000
273.834; -131.775; -894.000; -692.000
273.974;  -96.700; -664.000; -615.000
274.114; -111.900; -772.000; -560.000
274.255;   34.175;  414.000;  373.000
274.395;  -45.025; -180.000; -125.000
274.535;   18.500;  199.000;  350.000
274.676;    1.375;  225.000;   94.000
274.816;   -3.225;  110.000;   34.000
274.956; -105.150; -624.000; -690.000
275.097; -116.050;-1014.000; -922.000
275.237; -132.850; -913.000; -803.000
275.377;  -92.325; -778.000; -689.000
275.517; -146.675; -878.000; -937.000
275.658;  -78.050; -590.000; -555.000
275.798;  -99.925; -606.000; -413.000
275.938;    0.600;  215.000;  323.000
276.078;  -90.900; -626.000; -395.000
276.218;   -5.925;   99.000;  104.000
276.359; -150.575;-1026.000;-1024.000
276.499;  -66.975; -605.000; -446.000
276.639;  -44.725; -305.000; -151.000
276.779;  -63.875; -475.000; -357.000
276.919; -112.525; -783.000; -624.000
277.059;  -27.550; -261.000; -212.000
277.199;  -60.575; -357.000; -259.000
277.340;   18.850;  287.000;  175.000
277.480; -115.225; -840.000; -693.000
277.620;   31.200;  192.000;   16.000
277.760; -202.100;-1533.000;-1294.000
277.900;  -14.350;  113.000;   33.000
278.040;  -10.550;  137.000;  159.000
278.180;   15.925;  270.000;  170.000
278.320;  -22.175;   21.000;   56.000
278.460;  -75.125; -443.000; -469.000
278.600; -106.475; -708.000; -598.000
278.740;   29.700;  448.000;  224.000
278.880; -137.000; -768.000; -791.000
279.020;  -48.225; -194.000; -144.000
279.160;  -99.900; -672.000; -595.000
279.300; -125.550; -926.000; -873.000
279.440; -101.575; -709.000; -622.000
279.579; -133.975;-1014.000; -929.000
279.719;  -83.100; -410.000; -394.000
279.859;    4.950;   -4.000;   41.000
279.999;  -42.750; -208.000;  101.000
280.139;  -67.325; -435.000; -387.000
280.279; -122.350; -708.000; -745.000
280.419;  -35.575; -229.000; -147.000
280.559;  -55.475; -259.000; -180.000
280.698;  -95.525; -790.000; -639.000
280.838; -115.850; -778.000; -800.000
280.978;  -97.875; -846.000; -790.000
281.118; -110.350; -811.000; -704.000
281.257;   -0.825;   24.000;    6.000
281.397; -145.025;-1094.000; -960.000
281.537; -119.825; -599.000; -712.000
281.677;  -36.150; -150.000; -101.000
281.816; -104.175; -700.000; -630.000
281.956;  -43.925; -193.000; -257.000
282.096;  -63.200; -539.000; -396.000
282.235; -106.100; -672.000; -638.000
282.375;  -36.650; -243.000;  -98.000
282.515; -112.700; -715.000; -707.000
282.654;   -8.225;   29.000;  106.000
282.794;   -3.850;  388.000;  244.000
282.934;  -62.975; -530.000; -491.000
283.073; -133.425;-1030.000; -857.000
283.213;  -65.475; -460.000; -467.000
283.353;  -81.200; -408.000; -349.000
283.492;  -41.625; -264.000; -296.000
283.632;  -60.600; -254.000; -168.000
283.771; -101.725; -859.000; -730.000
283.911;  -78.225; -369.000; -260.000
284.050; -126.850; -794.000; -748.000
284.190; -158.325;-1229.000;-1096.000
284.329; -148.925;-1055.000; -964.000
284.469; -102.350; -516.000; -591.000
284.608;  -77.825; -559.000; -598.000
284.748;  -97.975; -614.000; -570.000
284.887;  -22.550;  -87.000;  -20.000
285.027; -132.250; -844.000; -892.000
285.166;  -42.250; -192.000; -249.000
285.306;  -31.175; -116.000;  -33.000
285.445;  -59.675; -229.000; -343.000
285.584; -100.050; -630.000; -494.000
285.724;  -46.575; -282.000; -322.000
285.863; -106.750; -857.000; -507.000
286.002;  -55.025; -366.000; -276.000
286.142; -121.100; -715.000; -622.000
286.281;  -81.825; -525.000; -493.000
286.420;  -99.525; -554.000; -417.000
286.560;   75.000;  653.000;  623.000
286.699; -150.425; -958.000; -912.000
286.838;  -85.475; -590.000; -591.000
286.978;  -99.900; -533.000; -537.000
287.117; -130.250;-1085.000; -950.000
287.256;  -46.950; -228.000; -211.000
287.395;  -63.800; -197.000; -378.000
287.535;  -58.000; -370.000; -298.000
287.674;  -78.750; -509.000; -484.000
287.813;   35.500;  661.000;  533.000
287.952; -126.300;-1010.000; -871.000
288.091; -148.925;-1049.000; -915.000
288.231;   -9.225;   13.000;   15.000
288.370; -179.375;-1217.000;-1200.000
288.509;  -86.425; -728.000; -645.000
288.648; -104.200; -770.000; -548.000
288.787;  -48.350; -243.000;  -87.000
288.926;  -84.975; -454.000; -475.000
289.065;   89.475;  859.000;  672.000
289.204;  -55.175; -377.000; -217.000
289.344; -112.525; -791.000; -690.000
289.483;   -2.800;  416.000;  304.000
289.622;  -46.200; -291.000; -149.000
289.761;  -40.750; -309.000; -166.000
289.900; -114.550; -785.000; -626.000
290.039;  -36.400;  -12.000;  -95.000
290.178;  -56.875; -274.000; -180.000
290.317;  -90.775; -618.000; -479.000
290.456;  -64.200; -463.000; -451.000
290.595; -136.800; -961.000; -833.000
290.734; -128.300; -904.000; -891.000
290.873;  -79.150; -456.000; -420.000
291.011; -112.900; -833.000; -843.000
291.150; -115.925; -770.000; -682.000
291.289;  -44.775; -343.000; -110.000
291.428; -101.675; -599.000; -480.000
291.567;  -52.300; -370.000; -442.000
291.706;  -24.875;  109.000;  154.000
291.845; -101.925; -597.000; -505.000
291.984; -173.800;-1234.000;-1061.000
292.122;   51.175;  602.000;  582.000
292.261;   32.025;  620.000;  463.000
292.400;   -2.000; -144.000;  211.000
292.539; -138.075; -959.000; -813.000
292.678;  -41.025; -325.000; -300.000
292.816; -161.925;-1136.000; -965.000
292.955; -103.200; -844.000; -684.000
293.094;  -53.450; -173.000; -337.000
293.233;  -65.025; -556.000; -400.000
293.371;  -64.125; -225.000;  -84.000
293.510; -108.400; -866.000; -780.000
293.649; -142.275; -959.000; -924.000
293.787; -156.325;-1083.000;-1012.000
293.926;  -45.600; -113.000;  -32.000
294.065;  -63.450; -379.000; -290.000
294.203;    8.775;  298.000;  406.000
294.342;   -2.125;   74.000;  156.000
294.481; 5081.625;51180.000; -836.000
294.619;  -60.725; -425.000; -582.000
294.758; -166.900;-1230.000;-1137.000
294.896;  -25.000; -125.000;    5.000
295.035; -151.250;-1040.000;-1006.000
295.174; -136.000;-1082.000; -954.000
295.312;  -61.350; -323.000; -203.000
295.451;  -59.150; -307.000; -428.000
295.589;  -81.400; -389.000; -518.000
295.728;   -4.300; -292.000; -165.000
295.866;  -26.875;  -36.000;  -51.000
296.005;  -93.325; -584.000; -341.000
296.143; -105.875; -558.000; -596.000
296.282; -121.200; -957.000; -881.000
296.420;  -99.425; -657.000; -557.000
296.559; -109.900; -892.000; -633.000
296.697; -120.400; -847.000; -665.000
296.835; -159.900;-1141.000;-1002.000
296.974;  -15.050;  -23.000;   39.000
297.112;  -85.975; -443.000; -504.000
297.251; -113.150; -815.000; -755.000
297.389;  -81.925; -576.000; -438.000
297.527;  -52.025; -145.000;  -83.000
297.666;  -84.200; -486.000; -438.000
297.804;  -86.275; -404.000; -264.000
297.942;  -23.725; -136.000; -161.000
298.081;  -38.725; -183.000;   63.000
298.219;  -11.900;  -17.000;  -19.000
298.357;  -68.050; -144.000;  -71.000
298.495; -117.800; -810.000; -812.000
298.634;  -13.100;  245.000;  219.000
298.772;  -50.850; -220.000; -338.000
298.910;  -68.975; -309.000; -182.000
299.048;  -27.625; -130.000; -153.000
299.187;  -43.325; -350.000; -250.000
299.325;  -26.575;   52.000;  122.000
299.463;  -72.550; -389.000; -299.000
299.601;  -50.525; -327.000; -271.000
299.739; -145.950; -908.000; -883.000
299.877; -110.475; -791.000; -703.000
300.016; -160.450;-1095.000; -935.000
300.154;  -32.225;  -19.000; -161.000
300.292;  -82.800; -428.000; -348.000
300.430;  -51.725; -408.000; -291.000
300.568; -138.350; -940.000; -874.000
300.706;  -78.450; -366.000; -469.000
300.844; -165.350;-1108.000; -979.000
300.982;   14.800;  246.000;  282.000
301.120; -143.025; -965.000; -866.000
301.258; -101.225; -812.000; -705.000
301.396;  -29.375;  104.000;  -41.000
301.534;  -56.275; -218.000; -293.000
301.672; -113.650; -664.000; -521.000
301.810;  -88.350; -613.000; -545.000
301.948;  -13.825;   53.000;  149.000
302.086;  -22.275; -250.000;  -32.000
302.224; -108.925; -610.000; -585.000
302.362;  -99.200; -558.000; -622.000
302.500; -143.625; -923.000; -893.000
302.638;    1.050;  128.000;  245.000
302.776;  -58.025; -352.000; -408.000
302.913;   29.725;  447.000;  236.000
303.051;  -46.425;  -86.000;  -23.000
303.189;   -9.325;   90.000;  118.000
303.327;  -80.475; -341.000; -256.000
303.465;  -86.075; -832.000; -588.000
303.603; -109.675; -805.000; -604.000
303.740;   21.950;  417.000;  241.000
303.878; -125.175; -800.000; -759.000
304.016; -104.650; -915.000; -790.000
304.154; -170.675;-1123.000;-1152.000
304.291;  -86.075; -505.000; -554.000
304.429;  -28.625;  102.000;   74.000
304.567; -145.100; -908.000; -893.000
304.705;  -88.625; -408.000; -515.000
304.842; -110.525; -616.000; -540.000
304.980;  -14.950;  215.000;   35.000
305.118;  -54.675; -367.000; -365.000
305.255; -141.275; -945.000; -927.000
305.393;    9.175;  178.000;  239.000
305.531; -159.050;-1173.000; -956.000
305.668;  -98.975; -663.000; -582.000
305.806;  -85.125; -358.000; -439.000
305.943;  -95.750; -629.000; -637.000
306.081;  -59.025; -378.000; -267.000
306.219; -106.900; -863.000; -748.000
306.356;  -31.150;  158.000;   27.000
306.494;   63.900;  981.000;  761.000
306.631;  -33.450;  -11.000;  -55.000
306.769;  -38.425; -613.000; -485.000
306.906;  -75.300; -284.000; -258.000
307.044;  -76.175; -473.000; -488.000
307.181;  -79.625; -410.000; -332.000
307.319;   -8.300;  112.000;   87.000
307.456; -179.075;-1191.000;-1153.000
307.594; -125.375; -980.000; -727.000
307.731;  -53.850; -371.000; -164.000
307.868;  -21.400;  -15.000;   20.000
308.006; -133.350; -961.000; -847.000
308.143;  -86.100; -618.000; -330.000
308.281;  -47.400;  -37.000; -254.000
308.418;  -97.875; -748.000; -640.000
308.555;  -97.625; -400.000; -250.000
308.693;  -95.050; -577.000; -573.000
308.830; -115.200; -712.000; -657.000
308.967;  -52.100; -215.000;  -95.000
309.105;  -70.150; -507.000; -396.000
309.242;  -69.325; -468.000; -367.000
309.379; -108.800; -577.000; -655.000
309.517; -133.325; -936.000; -948.000
309.654; -133.450; -910.000; -734.000
309.791;  -89.275; -662.000; -580.000
309.928; -149.900; -977.000; -914.000
310.065;   56.525;  819.000;  697.000
310.203; -132.100; -825.000; -850.000
310.340;  -76.900; -465.000; -321.000
310.477; -100.350; -412.000; -516.000
310.614;  -71.250; -383.000; -473.000
310.751;  -91.800; -427.000; -518.000
310.889;  -33.825;    1.000;   11.000
311.026; -168.375;-1161.000; -939.000
311.163;  -64.950; -386.000; -380.000
311.300; -102.100; -512.000; -479.000
311.437;  -85.475; -658.000; -619.000
311.574; -182.225;-1226.000; -985.000
311.711;  -84.250; -595.000; -433.000
311.848;  -78.625; -380.000; -388.000
311.985;    4.025;  270.000;   93.000
312.122; -125.200; -932.000; -762.000
312.259; -143.125; -941.000; -994.000
312.396; -106.350; -508.000; -551.000
312.533; -108.825; -812.000; -790.000
312.670; -161.325;-1070.000; -898.000
312.807;  -61.675; -352.000; -367.000
312.944; -108.725; -513.000; -611.000
313.081;  -58.375; -150.000; -415.000
313.218; -150.525;-1111.000; -867.000
313.355;  -63.050; -531.000; -449.000
313.492;  -66.525; -455.000; -292.000
313.629;   65.100;  815.000;  735.000
313.766; -187.100;-1176.000;-1008.000
313.902;  -30.475; -186.000;   21.000
314.039;  -74.625; -372.000; -289.000
314.176;    5.550;  286.000;  192.000
314.313; -103.025; -569.000; -473.000
314.450; -115.450; -788.000; -684.000
314.587;  -92.975; -468.000; -480.000
314.723;  -28.250;  -78.000;  130.000
314.860;   -6.000;  318.000;  332.000
314.997;   -9.100;  223.000;  142.000
315.134;  -83.100; -385.000; -368.000
315.270;  -79.200; -480.000; -496.000
315.407; -166.125;-1094.000; -967.000
315.544;  -88.825; -657.000; -538.000
315.681; -116.250; -681.000; -565.000
315.817;  -46.525; -133.000; -176.000
315.954;  -91.400; -613.000; -392.000
316.091; -159.250;-1045.000;-1023.000
316.227;  -49.600;  -71.000; -179.000
316.364;  -23.225;   23.000;    6.000
316.500;  -60.750; -113.000; -300.000
316.637;  -62.875; -181.000; -302.000
316.774; -109.100; -625.000; -358.000
316.910;  -96.050; -598.000; -629.000
317.047;  -95.225; -487.000; -351.000
317.183;  -87.450; -435.000; -566.000
317.320;  -79.800; -367.000; -321.000
317.456; -120.425; -733.000; -805.000
317.593; -111.925; -598.000; -641.000
317.729;  -11.925;  168.000;  -67.000
317.866; -201.000;-1434.000;-1285.000
318.002; -109.325; -708.000; -948.000
318.139; -134.250; -883.000; -867.000
318.275; -120.200;-1003.000; -738.000
318.412;  -96.025; -517.000; -336.000
318.548; -112.575; -751.000; -720.000
318.685; -144.300; -985.000; -888.000
318.821; -121.200; -762.000; -735.000
318.957;  -50.325;   34.000;  -23.000
319.094;   15.050;  297.000;  154.000
319.230; -130.925; -756.000; -742.000
319.367;  -87.525; -471.000; -520.000
319.503;  -88.700; -538.000; -436.000
319.639; -130.225; -877.000; -793.000
319.775; -129.525; -750.000; -685.000
319.912;  -73.350; -424.000; -519.000
320.048; -181.500;-1184.000;-1184.000
320.184;  -15.150;   59.000;   70.000
320.321;  -88.950; -497.000; -467.000
320.457;   26.950;  475.000;  662.000
320.593;  -88.875; -375.000; -382.000
320.729; -115.725; -732.000; -734.000
320.866; -114.025; -577.000; -635.000
321.002; -121.300; -759.000; -809.000
321.138;  -75.775; -135.000; -211.000
321.274;  -39.350; -148.000; -115.000
321.410;  -95.600; -585.000; -353.000
321.546; -140.625;-1011.000; -911.000
321.683;    2.950;  400.000;  185.000
321.819;  -24.875;  -48.000; -117.000
321.955; -138.250; -743.000; -722.000
322.091; -102.050; -585.000; -540.000
322.227;  -75.875; -382.000; -202.000
322.363;  -64.000; -320.000; -215.000
322.499;  -67.650; -343.000; -331.000
322.635;   36.000;  636.000;  443.000
322.771;  -37.050; -139.000;   12.000
322.907;   25.100;  129.000;  327.000
323.043;  -72.975; -115.000; -206.000
323.179;  -79.375; -394.000; -363.000
323.315;  -84.750; -401.000; -371.000
323.451;  -81.950; -328.000; -236.000
323.587;  -65.675;  -60.000;  -77.000
323.723; -100.625; -682.000; -601.000
323.859;  -64.375; -258.000;  -76.000
323.995;  -65.025; -467.000; -409.000
324.131; -150.300; -967.000; -892.000
324.267;  -57.925; -254.000; -276.000
324.402; -170.500; -960.000; -983.000
324.538;  -58.200; -279.000; -104.000
324.674;  -27.300;  164.000;   77.000
324.810;  -11.225;  226.000;  308.000
324.946;  -91.525; -810.000; -658.000
325.082;  -88.400; -568.000; -475.000
325.217;  -43.750;  -62.000;   16.000
325.353; -113.500; -764.000; -659.000
325.489; -109.600; -540.000; -506.000
325.625; -103.425; -579.000; -525.000
325.760;    5.700;  517.000;  376.000
325.896;  -82.650; -515.000; -702.000
326.032;  -77.875; -403.000; -352.000
326.168;  -80.775; -462.000; -369.000
326.303;  -88.250; -352.000; -461.000
326.439;  -58.625; -336.000; -276.000
326.575;  -48.150; -190.000;  -29.000
326.710;  -38.925; -156.000;  -30.000
326.846;  -24.375;  146.000;  103.000
326.982; -104.950; -530.000; -548.000
327.117; -103.075; -481.000; -442.000
327.253; -118.050; -745.000; -742.000
327.388; -197.225;-1137.000;-1153.000
327.524; -117.000; -811.000; -578.000
327.659;  -39.025;  -58.000;  -22.000
327.795;  -28.225;   69.000;   45.000
327.931; -116.125; -723.000; -499.000
328.066;  -55.950; -417.000; -276.000
328.202;  -67.775;   12.000; -129.000
328.337;   62.875;  957.000;  713.000
328.473;    8.900;  -12.000;  -74.000
328.608;  -43.075; -256.000; -267.000
328.743; -128.500; -799.000; -664.000
328.879;   -5.850;  214.000;  114.000
329.014;  -37.950; -102.000; -122.000
329.150; -101.125; -358.000; -483.000
329.285;  -96.450; -465.000; -466.000
329.421;  -69.650; -548.000; -246.000
329.556;  -47.175;  -36.000;   85.000
329.691; -113.375; -633.000; -615.000
329.827; -102.150; -626.000; -480.000
329.962;  -15.500;  131.000; -301.000
330.097; -109.450; -673.000; -585.000
330.233;  -66.325; -410.000; -223.000
330.368; -138.675; -839.000; -628.000
330.503;  -27.725;    3.000;   98.000
330.638;  -47.775;  -93.000; -125.000
330.774; -107.700; -609.000; -530.000
330.909;  -67.275; -434.000; -244.000
331.044; -105.475; -714.000; -708.000
331.179; -182.400;-1217.000;-1109.000
331.315;  -13.850;   77.000;   20.000
331.450;   -6.150;  157.000;  285.000
331.585; -118.400; -805.000; -706.000
331.720; -105.625; -510.000; -460.000
331.855;  -46.150;  -35.000; -102.000
331.990;  -39.275;   62.000;  138.000
332.126;  -22.825; -110.000;   71.000
332.261;  -84.150; -379.000; -265.000
332.396;  -59.450; -135.000; -242.000
332.531; -155.250;-1074.000;-1031.000
332.666;  -66.875; -519.000; -363.000
332.801; -123.900; -726.000; -807.000
332.936;  -39.975; -192.000; -122.000
333.071; -144.075; -870.000; -817.000
333.206;    7.925;  307.000;  379.000
333.341;    4.125;  344.000;  418.000
333.476; -105.925; -627.000; -623.000
333.611;  -65.550; -251.000; -173.000
333.746;  -63.525; -381.000; -464.000
333.881; -152.600; -973.000; -935.000
334.016; -149.250; -936.000; -917.000
334.151; -143.100; -746.000; -702.000
334.286;  -12.075;  152.000;  186.000
334.421;  -65.325; -125.000; -178.000
334.556;  -98.600; -611.000; -567.000
334.690; -114.125; -631.000; -577.000
334.825;   20.300;  381.000;   83.000
334.960;  -97.025; -285.000; -413.000
335.095;  -29.850;  135.000;  -91.000
335.230; -132.050; -722.000; -738.000
335.365; -158.825;-1084.000; -990.000
335.499; -177.025;-1108.000;-1037.000
335.634;  -23.125;    9.000;  534.000
335.769; -136.800; -755.000; -720.000
335.904; -103.325; -603.000; -561.000
336.038; -117.450; -735.000; -657.000
336.173; -174.275;-1206.000;-1194.000
336.308;  -66.400; -116.000; -189.000
336.443;  -92.600; -544.000; -634.000
336.577; -152.825; -936.000; -787.000
336.712;  -34.050;   -4.000;  -12.000
336.847; -130.625; -724.000; -607.000
336.981;  -68.450; -272.000; -208.000
337.116;    8.375;  615.000;  501.000
337.250;  -85.225; -434.000; -421.000
337.385;  -71.675; -297.000; -208.000
337.520; -114.550; -632.000; -603.000
337.654;  -68.400; -215.000; -126.000
337.789; -143.525; -989.000; -933.000
337.923;  -69.475; -104.000; -205.000
338.058; -115.975; -673.000; -738.000
338.192; -102.450; -611.000; -488.000
338.327;  -35.250;  -18.000; -155.000
338.461; -111.025; -299.000; -469.000
338.596; -106.725; -780.000; -638.000
338.730; -130.925; -767.000; -803.000
338.865;  -38.000;  -46.000; -140.000
338.999; -136.175; -846.000; -702.000
339.134; -106.725; -634.000; -536.000
339.268; -120.375; -741.000; -603.000
339.403; -127.800; -740.000; -775.000
339.537; -143.350; -894.000; -820.000
339.671; -128.950; -829.000; -813.000
339.806; -116.725; -556.000; -512.000
339.940;  -61.125; -261.000; -235.000
340.074; -117.525; -685.000; -510.000
340.209;  -60.100; -351.000; -230.000
340.343; -117.675; -517.000; -573.000
340.477;   94.225;  998.000; 1036.000
340.612; -153.425;-1033.000; -900.000
340.746;  -70.350; -199.000; -243.000
340.880; -150.825; -924.000; -785.000
341.014;  -47.025;  -45.000; -154.000
341.149; -135.075; -756.000; -718.000
341.283; -129.275; -839.000; -754.000
341.417; -160.400;-1124.000; -938.000
341.551; -120.575; -768.000; -708.000
341.685; -113.575; -633.000; -611.000
341.820;  -95.775; -562.000; -493.000
341.954;  -84.950; -218.000; -349.000
342.088; -158.750;-1102.000;-1019.000
342.222;   20.325;  565.000;  618.000
342.356;  -93.225; -395.000; -335.000
342.490; -135.325; -880.000; -841.000
342.624;  -73.675; -339.000; -242.000
342.758;  -81.025; -364.000; -312.000
342.892;  -95.325; -710.000; -585.000
343.026;  -63.475;  -58.000; -116.000
343.160;  -79.725; -426.000; -376.000
343.294;  -96.150; -474.000; -337.000
343.428;  -98.000; -488.000; -448.000
343.562;  -56.175; -172.000;  -23.000
343.696;  -60.375; -385.000; -314.000
343.830;  -81.700; -362.000; -356.000
343.964;  -58.950; -231.000; -168.000
344.098;  -37.225;  199.000;   70.000
344.232;  -60.900; -266.000; -127.000
344.366; -109.875; -567.000; -453.000
344.500; -119.400; -665.000; -744.000
344.634;  -68.500; -324.000; -164.000
344.768; -105.075; -531.000; -341.000
344.902;  -12.275;  278.000;  256.000
345.035;  -93.425; -556.000; -496.000
345.169; -150.300; -933.000; -656.000
345.303;  -84.675; -308.000; -482.000
345.437; -142.275; -826.000; -717.000
345.571; -116.600; -675.000; -594.000
345.704;  -96.000; -309.000; -532.000
345.838;  -72.300; -331.000; -284.000
345.972; -114.100; -543.000; -495.000
346.106;  -39.850; -179.000; -190.000
346.239;  -65.725; -312.000; -243.000
346.373;  -73.725; -343.000; -302.000
346.507; -163.850; -950.000; -962.000
346.640;  -45.525;  -30.000;   13.000
346.774; -142.950; -650.000; -797.000
346.908;  -24.825; -138.000;  -11.000
347.041; -111.450; -646.000; -593.000
347.175;  -23.900;  259.000;   27.000
347.309; -120.625; -698.000; -628.000
347.442; -134.625; -883.000; -732.000
347.576;   41.900;  670.000;  668.000
347.709;  -53.950; -123.000;  -52.000
347.843; -148.325; -933.000; -825.000
347.976;  -10.275;  235.000;  294.000
348.110; -185.475;-1268.000;-1186.000
348.243; -119.700; -679.000; -772.000
348.377;  -37.250;  -26.000;   60.000
348.510;    3.700;  403.000;  540.000
348.644;  -60.825;  -37.000; -159.000
348.777;  -19.425;  180.000;  191.000
348.911;  -81.050; -142.000; -112.000
349.044;    9.000;  471.000;  448.000
349.178; -167.625;-1069.000;-1006.000
349.311;   -5.775;  141.000;  255.000
349.444; -154.000; -927.000; -813.000
349.578;  -60.800; -347.000; -200.000
349.711; -154.175; -959.000; -862.000
349.845; -106.275; -661.000; -591.000
349.978; -183.875;-1224.000;-1137.000
350.111; -105.200; -546.000; -612.000
350.244; -125.850; -596.000; -700.000
350.378;  -94.575; -392.000; -393.000
350.511; -107.700; -393.000; -426.000
350.644; -124.625; -808.000; -806.000
350.778;  -39.200;  168.000;  104.000
350.911;  -23.825;  134.000;  140.000
351.044; -116.925; -685.000; -615.000
351.177;  -61.275; -321.000; -281.000
351.310;  -47.375;    3.000; -131.000
351.444; -129.125; -888.000; -788.000
351.577;  -33.125;  140.000;   90.000
351.710;   39.725;  593.000;  417.000
351.843;  -55.000; -165.000;  -77.000
351.976;  -28.575;  149.000;  -79.000
352.109; -132.850; -621.000; -612.000
352.242;  -80.175; -464.000; -419.000
352.376; -121.250; -580.000; -636.000
352.509;  -79.225; -437.000; -356.000
352.642; -161.650; -654.000; -604.000
352.775;  -57.525; -141.000;  -98.000
352.908; -161.875; -933.000; -904.000
353.041; -129.225; -814.000; -824.000
353.174; -106.675; -551.000; -424.000
353.307; -140.400; -753.000; -764.000
353.440;    1.400;  541.000;  453.000
353.573; -161.825; -957.000;-1008.000
353.706; -126.075; -384.000; -558.000
353.839;  -69.575; -264.000; -220.000
353.971; -120.800; -657.000; -512.000
354.104; -143.925; -896.000; -835.000
354.237; -125.050; -627.000; -662.000
354.370; -117.400; -846.000; -879.000
354.503; -196.750;-1231.000;-1308.000
354.636;  -80.100; -529.000; -348.000
354.769; -166.525; -937.000; -860.000
354.902;  -58.300; -230.000; -139.000
355.034;  -63.225; -164.000; -220.000
355.167;  -60.125; -262.000; -162.000
355.300; -168.575;-1061.000; -880.000
355.433;  -36.875;  -71.000;  -14.000
355.565;  -94.175; -402.000; -384.000
355.698;  -72.725; -356.000; -296.000
355.831; -137.450; -882.000; -801.000
355.964;  -58.425; -285.000; -170.000
356.096; -155.750; -856.000; -843.000
356.229; -101.525; -523.000; -530.000
356.362;  -74.775; -373.000; -266.000
356.494;  -55.200; -229.000; -162.000
356.627;  -21.125;  269.000;  377.000
356.760;  -21.425;  120.000;   53.000
356.892;  -77.225; -286.000; -601.000
357.025;   18.000;  403.000;  389.000
357.157;  -68.375; -167.000; -179.000
357.290; -133.350; -856.000; -713.000
357.423; -130.575; -667.000; -556.000
357.555;  -60.850; -217.000; -228.000
357.688; -103.475; -483.000; -364.000
357.820; -144.900; -870.000; -877.000
357.953; -117.675; -563.000; -589.000
358.085; -124.350; -632.000; -612.000
358.218; -176.875;-1131.000; -932.000
358.350;  -29.800;  -58.000;  312.000
358.483; -200.050;-1300.000;-1187.000
358.615; -157.950;-1182.000;-1078.000
358.747; -187.375;-1187.000;-1058.000
358.880; -120.500; -810.000; -744.000
359.012;  -76.125; -376.000; -202.000
359.145;  -91.025; -480.000; -511.000
359.277; -162.700; -962.000; -913.000
359.409;   26.200;  536.000;  231.000
359.542; -151.150; -738.000; -688.000
359.674;  -35.950;   46.000;   13.000
359.806; -109.175; -565.000; -438.000
359.939;  -83.525; -617.000; -516.000
360.071; -132.150; -583.000; -579.000
360.203;  -81.225; -411.000; -364.000
360.335;  -38.975;  164.000;  -16.000
360.468;  -65.675; -249.000; -307.000
360.600; -114.075; -547.000; -454.000
360.732; -113.575; -546.000; -423.000
360.864; -187.625;-1216.000;-1044.000
360.996;  -89.525; -516.000; -554.000
361.129; -116.825; -389.000; -598.000
361.261;  -25.875;  110.000; -113.000
361.393;  -73.450; -252.000; -214.000
361.525;  -41.875;   94.000;  244.000
361.657; -124.325; -821.000; -703.000
361.789;  -48.400; -139.000; -155.000
361.921; -119.475; -642.000; -593.000
362.053;   31.750;  524.000;  541.000
362.185;  -32.100;  288.000;   72.000
362.318; -129.925; -709.000; -705.000
362.450;  -16.825;  294.000;  444.000
362.582; -136.450; -913.000; -870.000
362.714;  -92.125; -353.000; -332.000
362.846; -100.125; -606.000; -490.000
362.978; -177.000; -941.000; -811.000
363.109;  -72.650; -161.000; -260.000
363.241; -146.050; -739.000; -749.000
363.373; -105.675; -649.000; -564.000
363.505;  -68.200; -186.000;  -91.000
363.637;  -99.500; -787.000; -601.000
363.769; -191.850;-1067.000;-1080.000
363.901; -110.650; -596.000; -654.000
364.033; -199.700;-1103.000;-1062.000
364.165;  -66.550; -283.000; -283.000
364.296;  -75.875; -316.000; -177.000
364.428; -200.650;-1344.000;-1220.000
364.560; -122.250; -679.000; -661.000
364.692; -118.250; -738.000; -835.000
364.824; -107.050; -588.000; -456.000
364.955;  -82.275; -402.000; -564.000
365.087; -170.150;-1097.000; -852.000
365.219; -130.000; -686.000; -816.000
365.351; -112.625; -526.000; -572.000
365.482;   -4.350;  300.000;  240.000
365.614;  -88.350; -402.000; -314.000
365.746; -130.800; -729.000; -752.000
365.877; -136.400; -706.000; -672.000
366.009;  -48.175;  -35.000;  -62.000
366.141; -198.325;-1249.000;-1134.000
366.272; -126.675; -803.000; -719.000
366.404; -139.400;-1005.000; -874.000
366.535;  -48.050; -139.000;  -12.000
366.667; -133.675; -644.000; -649.000
366.799;    4.300;  353.000;  203.000
366.930; -156.550; -862.000; -996.000
367.062;  -98.150; -639.000; -613.000
367.193; -146.775; -872.000; -842.000
367.325; -103.450; -580.000; -684.000
367.456;  -76.650; -246.000;   31.000
367.588;  -74.575; -371.000; -318.000
367.719;  -71.600;  -44.000;  -45.000
367.851;  -66.775; -222.000; -241.000
367.982; -150.200; -875.000; -732.000
368.113;  -80.700; -475.000; -358.000
368.245; -155.950; -960.000; -841.000
368.376;  -63.050; -254.000; -302.000
368.508;  -68.900; -188.000; -263.000
368.639; -175.725;-1166.000;-1034.000
368.770; -129.300; -670.000; -589.000
368.902; -144.725; -836.000; -926.000
369.033; -157.725; -906.000; -855.000
369.164; -114.125; -720.000; -653.000
369.296; -140.675; -452.000; -601.000
369.427;  -57.375; -209.000; -144.000
369.558; -119.050; -593.000; -377.000
369.689; -115.000; -721.000; -569.000
369.821; -164.100; -951.000; -845.000
369.952;  -45.575;   42.000; -108.000
370.083;  -81.075; -229.000; -108.000
370.214; -119.250; -735.000; -650.000
370.345;  -45.550;   65.000;   81.000
370.477; -132.250; -810.000; -790.000
370.608;  -81.100; -328.000; -264.000
370.739; -189.875;-1233.000;-1292.000
370.870; -154.975;-1102.000; -923.000
371.001;  -98.100; -378.000; -467.000
371.132; -120.625; -754.000; -735.000
371.263;  -58.400;  -42.000; -148.000
371.394; -152.750; -841.000; -748.000
371.525;  -14.625;  345.000;  225.000
371.657; -145.750; -808.000; -670.000
371.788;  -18.025;  103.000;  199.000
371.919;  -92.200; -384.000; -304.000
372.050;  -52.225;  -91.000; -156.000
372.181;  -68.950; -188.000; -294.000
372.311;  -41.300;   42.000; -127.000
372.442;  -98.575; -457.000; -451.000
372.573;  -71.925; -444.000; -340.000
372.704; -173.825;-1008.000; -980.000
372.835;  -76.875; -228.000; -289.000
372.966; -108.775; -646.000; -554.000
373.097; -128.500; -575.000; -711.000
373.228; -136.625; -717.000; -542.000
373.359; -120.525; -824.000; -536.000
373.490; -151.050; -881.000; -727.000
373.620; -155.925;-1001.000; -803.000
373.751; -104.425; -332.000; -396.000
373.882; -113.900; -663.000; -733.000
374.013;  -84.850; -449.000; -262.000
374.143; -114.575; -581.000; -659.000
374.274; -177.250; -987.000; -908.000
374.405;  -84.400; -388.000; -276.000
374.536; -107.900; -526.000; -387.000
374.666; -133.075; -759.000; -807.000
374.797; -154.925; -817.000; -868.000
374.928; -125.175; -710.000; -560.000
375.058; -125.075; -535.000; -500.000
375.189;  -47.750;  -59.000;  -93.000
375.320; -182.950; -928.000;-1034.000
375.450; -117.375; -625.000; -616.000
375.581; -111.725; -526.000; -436.000
375.712;  -79.550; -574.000; -250.000
375.842; -111.600; -438.000; -415.000
375.973; -111.825; -554.000; -513.000
376.103; -127.150; -665.000; -648.000
376.234; -112.350; -531.000; -552.000
376.364; -149.900; -944.000; -867.000
376.495;   52.500;  925.000;  529.000
376.625; -116.250; -472.000; -485.000
376.756; -128.400; -709.000; -678.000
376.886; -191.075;-1178.000;-1026.000
377.017; -172.350;-1048.000;-1061.000
377.147; -160.400; -786.000; -782.000
377.278;  -22.100;  174.000;  228.000
377.408; -162.325; -801.000; -815.000
377.538; -124.175; -707.000; -693.000
377.669; -130.725; -537.000; -613.000
377.799; -128.975; -645.000; -635.000
377.929; -122.100; -610.000; -428.000
378.060; -147.825; -781.000; -847.000
378.190; -145.725; -726.000; -531.000
378.320; -100.950; -401.000; -406.000
378.451;  -61.275; -131.000;  -22.000
378.581;  -53.200;  -67.000; -110.000
378.711;   48.025; 1035.000;  866.000
378.841; -116.750; -533.000; -675.000
378.972; -162.800; -871.000; -751.000
379.102; -118.350; -652.000; -579.000
379.232;  -81.675; -126.000;  -73.000
379.362; -161.600;-1001.000; -885.000
379.492; -109.600; -373.000; -424.000
379.623;  -20.750;    0.000;  111.000
379.753; -169.475;-1107.000; -974.000
379.883;  -35.100;   59.000;  156.000
380.013; -189.350;-1081.000;-1017.000
380.143; -176.275;-1097.000;-1056.000
380.273; -163.925; -985.000; -861.000
380.403;  -74.525; -344.000; -257.000
380.533; -151.475; -651.000; -664.000
380.663;  -30.500;  173.000;  128.000
380.793; -186.275;-1027.000;-1074.000
380.923;  -63.050; -103.000;  -34.000
381.053; -135.600; -613.000; -623.000
381.183;  -61.650; -106.000; -248.000
381.313; -131.950; -656.000; -470.000
381.443; -108.575; -692.000; -473.000
381.573; -111.675; -402.000; -409.000
381.703; -195.675;-1249.000;-1095.000
381.833; -225.550;-1454.000;-1336.000
381.963;  -49.675; -134.000;  -87.000
382.093; -171.075; -925.000; -909.000
382.223; -130.450; -713.000; -602.000
382.353; -137.950; -801.000; -608.000
382.482; -178.825;-1091.000; -964.000
382.612; -144.975; -872.000; -644.000
382.742; -112.250; -695.000; -622.000
382.872; -119.050; -565.000; -551.000
383.002;  -36.300;  347.000; -132.000
383.131;  -93.575; -226.000; -160.000
383.261; -129.825; -706.000; -768.000
383.391; -114.450; -552.000; -377.000
383.521;  -10.575;  451.000;  263.000
383.650; -177.750; -947.000; -904.000
383.780; -127.575; -783.000; -656.000
383.910;   29.050;  880.000;  802.000
384.039; -149.175; -794.000; -656.000
384.169; -199.350;-1205.000;-1017.000
384.299; -117.825; -650.000; -662.000
384.428; -149.825; -764.000; -680.000
384.558;  -83.225; -308.000; -275.000
384.687; -103.775; -414.000; -334.000
384.817;  -52.450;   75.000;   -2.000
384.947;  -83.950; -234.000; -141.000
385.076;   60.400;  982.000;  912.000
385.206;   -1.375;  369.000;  480.000
385.335;  -99.550; -549.000; -417.000
385.465; -126.525; -655.000; -663.000
385.594;  -70.250;  -53.000;  -44.000
385.724; -163.775; -868.000; -838.000
385.853;  -84.275; -296.000; -270.000
385.982; -153.275; -743.000; -787.000
386.112; -158.275;-1052.000; -871.000
386.241;  -98.750; -307.000; -312.000
386.371;  -80.100; -174.000;  -87.000
386.500; -157.025; -825.000; -789.000
386.629; -137.025; -874.000; -817.000
386.759;  -48.425;  -43.000;   68.000
386.888;  -59.175; -170.000; -250.000
387.017; -126.425; -648.000; -620.000
387.147; -134.575; -771.000; -798.000
387.276; -131.100; -410.000; -397.000
387.405;  -84.225; -398.000; -342.000
387.535; -109.600; -452.000; -361.000
387.664; -116.325; -692.000; -620.000
387.793;  -88.425; -198.000; -113.000
387.922;  -25.225;  255.000;  200.000
388.052; -131.025; -576.000; -423.000
388.181; -111.550; -342.000; -472.000
388.310; -153.675; -889.000; -710.000
388.439; -164.175; -749.000; -742.000
388.568;  -25.425;  365.000;  244.000
388.697; -122.250; -756.000; -653.000
388.826; -138.475; -768.000; -666.000
388.956;  -85.850; -285.000; -307.000
389.085;  -89.525; -347.000; -287.000
389.214; -143.825; -842.000; -872.000
389.343; -138.250; -645.000; -413.000
389.472;  -23.675;  126.000;  149.000
389.601;  -42.725;   91.000;    0.000
389.730; -108.450; -568.000; -687.000
389.859;  -13.650;  226.000;   46.000
389.988;  -92.700; -423.000; -408.000
390.117;  -94.375; -168.000; -146.000
390.246;  -93.400; -331.000; -320.000
390.375; -147.075; -673.000; -626.000
390.504; -116.325; -703.000; -621.000
390.633; -148.250; -672.000; -726.000
390.761; -122.625; -732.000; -645.000
390.890;  -72.550;   -4.000; -130.000
391.019; -117.325; -421.000; -441.000
391.148; -166.700; -826.000; -855.000
391.277; -124.800; -576.000; -493.000
391.406; -159.875; -821.000; -805.000
391.534;  -23.325;  574.000; -301.000
391.663; -122.800; -583.000; -645.000
391.792; -132.625; -673.000; -701.000
391.921;  -46.275;   -3.000;   15.000
392.050;  -87.150; -287.000; -228.000
392.178; -204.550;-1206.000;-1061.000
392.307; -152.100; -758.000; -712.000
392.436; -117.700; -427.000; -641.000
392.564;  -34.550;  166.000;   -6.000
392.693; -156.575; -860.000; -682.000
392.822; -115.025; -529.000; -534.000
392.950; -151.925; -880.000; -714.000
393.079;  -88.900; -188.000; -328.000
393.208; -114.975; -488.000; -511.000
393.336;  -65.050; -170.000; -145.000
393.465;  -84.150; -317.000; -199.000
393.593;  -37.650;   62.000;   79.000
393.722; -184.175;-1121.000; -916.000
393.850;  -66.325; -188.000;  -61.000
393.979; -182.175; -926.000; -805.000
394.107; -112.550; -517.000; -537.000
394.236; -126.100; -570.000; -507.000
394.364;  -22.425;  383.000;  206.000
394.493; -160.600; -911.000; -767.000
394.621; -158.050; -955.000; -916.000
394.750; -161.900; -873.000; -923.000
394.878;  -70.400; -247.000; -149.000
395.007; -152.925; -721.000; -807.000
395.135; -141.275; -790.000; -721.000
395.263; -179.500;-1038.000;-1040.000
395.392;  -47.250;  -25.000; -107.000
395.520; -161.975; -818.000; -679.000
395.648; -142.675; -865.000; -915.000
395.777; -113.875; -366.000; -405.000
395.905;  -95.625; -449.000; -564.000
396.033;  -40.050;  217.000;  172.000
396.162;  -87.425; -399.000; -453.000
396.290;  -82.200;  -17.000;   -2.000
396.418; -113.075; -555.000; -514.000
396.546; -115.425; -571.000; -466.000
396.674; -155.675; -850.000; -878.000
396.803;  -60.875;  -72.000;  -23.000
396.931;  -70.375; -179.000; -199.000
397.059; -179.975;-1026.000; -989.000
397.187; -160.750;-1026.000; -975.000
397.315; -150.150; -884.000; -649.000
397.443; -125.400; -592.000; -443.000
397.572; -134.125; -578.000; -424.000
397.700; -113.600; -607.000; -614.000
397.828;  -76.475;  120.000;  -90.000
397.956; -100.775; -508.000; -478.000
398.084; -146.150; -767.000; -626.000
398.212;  -40.625;  137.000;  124.000
398.340;  -58.500;  -56.000;  159.000
398.468;  -92.775; -390.000; -169.000
398.596; -174.025; -993.000; -953.000
398.724; -136.950; -762.000; -767.000
398.852; -168.475;-1024.000; -976.000
398.980; -111.900; -560.000; -560.000
399.108; -146.875; -982.000; -735.000
399.236;  -45.825;   13.000;    8.000
399.363;  -41.650;  222.000;  196.000
399.491; -111.325; -404.000; -398.000
399.619; -160.050; -829.000; -800.000
399.747; -149.750; -859.000; -771.000
399.875;  -15.600;  220.000;  234.000
400.003;  -81.175; -359.000; -284.000
400.130; -102.675; -421.000; -341.000
400.258;  -58.225;  -83.000;   38.000
400.386;  -92.975; -352.000; -168.000
400.514; -119.950; -526.000; -587.000
400.641; -175.825; -928.000; -802.000
400.769; -162.500; -979.000; -888.000
400.897; -162.050; -838.000; -793.000
401.025;  -66.350; -166.000; -152.000
401.152;  -47.525;  220.000;   38.000
401.280; -107.625; -430.000; -429.000
401.408; -148.100; -712.000; -576.000
401.535; -130.450; -735.000; -758.000
401.663; -200.650;-1134.000;-1054.000
401.790; -108.425; -514.000; -525.000
401.918;    0.475;  436.000;  405.000
402.046;  -38.150;  134.000;  122.000
402.173;  -80.050;  -18.000;    7.000
402.301;  -99.050; -519.000; -397.000
402.428;  -12.525;  528.000;  383.000
402.556; -176.600;-1188.000; -913.000
402.683;  -56.025;  -20.000;   -1.000
402.811;  -51.425;  -37.000; -206.000
402.938;  -58.425;   20.000;   27.000
403.066; -124.025; -574.000; -558.000
403.193;  -53.050;  299.000;  239.000
403.321;  -99.825; -396.000; -574.000
403.448;  -49.550;   83.000;   27.000
403.575;  -53.975;  -90.000;  -46.000
403.703; -151.650; -732.000; -557.000
403.830;  -97.625; -531.000; -496.000
403.957; -191.225;-1117.000;-1023.000
404.085;  -68.675;  -61.000; -172.000
404.212;  -55.750;  -50.000;   63.000
404.339;  -97.875; -566.000; -306.000
404.467; -109.825; -612.000; -524.000
404.594;  -78.425; -287.000; -227.000
404.721; -149.025; -869.000; -764.000
404.848;  -77.250; -113.000; -202.000
404.976; -159.675; -856.000; -783.000
405.103;  -55.575;  -14.000;  -82.000
405.230;  -50.925;  190.000;  226.000
405.357;  -46.150;  117.000;   44.000
405.484;  -82.475;  -49.000;    5.000
405.612; -123.750; -548.000; -563.000
405.739; -105.575; -488.000; -243.000
405.866;   12.800;  669.000;  385.000
405.993;  -95.025; -398.000; -102.000
406.120; -151.750; -801.000; -887.000
406.247; -103.025; -323.000; -342.000
406.374;   29.025;  540.000;  629.000
406.501; -136.075; -632.000; -702.000
406.628; -121.725; -621.000; -589.000
406.755; -147.300; -803.000; -620.000
406.882;  -86.275; -228.000; -277.000
407.009; -136.925; -719.000; -628.000
407.136;  -94.300; -480.000; -401.000
407.263; -183.650; -939.000; -829.000
407.390; -133.525; -692.000; -614.000
407.517; -195.900;-1139.000;-1187.000
407.644;  -96.775; -332.000; -256.000
407.771; -172.000; -249.000; -287.000
407.898;  -33.250;  168.000;  328.000
408.025; -111.775; -421.000; -313.000
408.151;  -32.975;   82.000;  153.000
408.278; -103.000; -267.000; -216.000
408.405; -159.425; -931.000; -899.000
408.532; -129.475; -549.000; -542.000
408.659; -133.475; -677.000; -648.000
408.785; -207.175;-1298.000;-1170.000
408.912;  -84.125; -412.000; -296.000
409.039; -132.325; -610.000; -686.000
409.166; -129.150; -591.000; -555.000
409.292; -120.625; -571.000; -534.000
409.419; -121.250; -665.000; -649.000
409.546; -105.725; -431.000; -192.000
409.672; -133.050; -713.000; -545.000
409.799;  -75.250;  -36.000;   34.000
409.926;  -89.750; -180.000; -179.000
410.052; -204.025;-1127.000;-1091.000
410.179; -104.150; -368.000; -392.000
410.305; -104.200; -375.000; -493.000
410.432;  -75.675; -220.000; -333.000
410.558; -119.025; -305.000; -380.000
410.685; -122.150; -688.000; -431.000
410.812; -131.300; -409.000; -588.000
410.938; -156.375; -964.000; -808.000
411.065; -133.450; -671.000; -645.000
411.191;  -74.350; -189.000; -174.000
411.317; -149.100; -823.000; -742.000
411.444;  -84.975; -317.000; -246.000
411.570;  -96.700; -339.000; -294.000
411.697; -136.650; -758.000; -752.000
411.823; -192.050; -989.000; -999.000
411.949;  -74.025;  -56.000;   17.000
412.076; -136.850; -539.000; -519.000
412.202; -136.625; -758.000; -757.000
412.329; -149.625; -798.000; -752.000
412.455; -131.225; -821.000; -657.000
412.581;  -58.850;  -15.000;  172.000
412.707; -133.925; -540.000; -457.000
412.834;  -38.475;  156.000;  219.000
412.960; -158.750; -785.000; -784.000
413.086; -158.950; -743.000; -701.000
413.212;    8.850;  604.000;  578.000
413.339; -147.675; -685.000; -701.000
413.465; -108.250; -364.000; -310.000
413.591; -153.975; -757.000; -474.000
413.717;  -83.250; -358.000; -366.000
413.843; -167.600; -839.000; -861.000
413.969;  -92.850;  -47.000; -292.000
414.096; -138.075; -679.000; -679.000
414.222;  -52.325;  -33.000;   85.000
414.348; -143.350; -652.000; -385.000
414.474;  -56.200;   38.000;  -52.000
414.600;  -64.825; -126.000; -144.000
414.726;  -77.925;  -96.000;  -55.000
414.852; -114.100; -365.000; -342.000
414.978;  -42.775;  104.000;  -18.000
415.104;  -56.700;   38.000;   80.000
415.230;  -83.525; -329.000; -330.000
415.356; -137.075; -409.000; -514.000
415.482;  -59.100;   13.000;  -35.000
415.608; -107.450; -247.000; -323.000
415.734;  -41.100;   67.000;   38.000
415.860; -164.925; -875.000; -767.000
415.986; -139.375; -685.000; -607.000
416.111; -155.675; -798.000; -652.000
416.237; -117.850; -424.000; -571.000
416.363; -165.575; -765.000; -733.000
416.489;  -99.275; -324.000; -251.000
416.615; -161.250; -707.000; -742.000
416.741; -139.275; -677.000; -784.000
416.866; -147.025; -673.000; -736.000
416.992; -169.375; -801.000; -818.000
417.118;  -87.800;  -41.000;  -80.000
417.244; -149.375; -798.000; -531.000
417.369; -153.700; -801.000; -612.000
417.495;  -90.625; -325.000; -254.000
417.621; -178.600;-1015.000; -803.000
417.746; -123.350; -579.000; -572.000
417.872;  -78.075; -254.000; -144.000
417.998; -115.875; -515.000; -530.000
418.123; -179.150;-1073.000; -845.000
418.249; -120.800; -512.000; -601.000
418.374; -172.575; -916.000; -824.000
418.500; -115.125; -383.000; -482.000
418.626;  -53.775;   70.000;  -59.000
418.751; -108.225; -549.000; -448.000
418.877; -135.975; -637.000; -643.000
419.002; -120.975; -688.000; -560.000
419.128; -171.750; -930.000; -721.000
419.253; -167.750; -967.000; -837.000
419.379; -130.600; -391.000; -338.000
419.504;   -3.850;  325.000;  415.000
419.629;  -81.050; -393.000; -212.000
419.755;  -71.825; -317.000; -254.000
419.880;  -94.425;  -98.000;   67.000
420.006;  -80.700; -280.000; -221.000
420.131; -142.825; -662.000; -775.000
420.256;  -90.225; -315.000; -316.000
420.382; -134.975; -665.000; -687.000
420.507; -141.550; -649.000; -778.000
420.632; -114.950; -337.000; -339.000
420.758;  -78.175; -251.000; -425.000
420.883; -148.350; -876.000; -672.000
421.008; -142.375; -775.000; -619.000
421.133; -131.950; -509.000; -467.000
421.259;  -79.275; -325.000; -259.000
421.384; -166.625; -834.000; -693.000
421.509; -157.350;-1052.000; -862.000
421.634; -176.150; -936.000; -820.000
421.759; -115.300; -359.000; -327.000
421.885; -136.025; -717.000; -656.000
422.010; -118.625; -673.000; -542.000
422.135; -180.925; -695.000; -727.000
422.260;  -13.450;  340.000;  280.000
422.385;  -81.050;   12.000;  -98.000
422.510;  -35.225;  151.000;  -26.000
422.635;  -72.475;  -87.000;  -43.000
422.760; -131.800; -766.000; -791.000
422.885;  -68.450;  -57.000;  -80.000
423.010;  -69.950; -112.000; -169.000
423.135; -128.775; -481.000; -561.000
423.260;  -77.575; -150.000; -245.000
423.385;  -24.175;  476.000;  222.000
423.510;  -34.900;   71.000;  -22.000
423.635;  -65.350;  133.000;   45.000
423.760;  -15.325;  383.000;  328.000
423.885;  -29.625;  336.000;  391.000
424.010;  -59.275;  -68.000;  -13.000
424.135;  -65.100;    5.000;  -33.000
424.259; -134.050; -654.000; -457.000
424.384; -110.125; -279.000; -272.000
424.509;  -80.475; -260.000; -186.000
424.634; -161.475; -761.000; -623.000
424.759; -133.125; -688.000; -544.000
424.883; -130.225; -506.000; -527.000
425.008; -122.925; -502.000; -410.000
425.133; -150.775; -679.000; -653.000
425.258; -122.850; -517.000; -381.000
425.382; -149.375; -867.000; -774.000
425.507; -126.750; -487.000; -543.000
425.632; -173.225; -802.000; -663.000
425.756;  -85.775; -256.000; -146.000
425.881; -172.675; -831.000; -857.000
426.006; -112.975; -604.000; -355.000
426.130; -145.325; -696.000; -508.000
426.255; -115.725; -611.000; -491.000
426.379;  -79.775; -189.000; -577.000
426.504;   19.800;  660.000;  544.000
426.629; -135.525; -519.000; -466.000
426.753;  -67.275;   64.000;  -46.000
426.878;  -92.825; -252.000; -288.000
427.002; -148.675; -651.000; -668.000
427.127;  -82.850;  -35.000; -158.000
427.251;  -18.925;  372.000;  401.000
427.375; -107.175; -191.000; -173.000
427.500; -130.250; -616.000; -610.000
427.624;  -95.050; -234.000; -400.000
427.749;  -95.150; -216.000; -225.000
427.873; -123.900; -499.000; -412.000
427.997;  -91.375; -222.000; -230.000
428.122;   13.400;  795.000;  703.000
428.246;  -10.275;  433.000;  434.000
428.371; -167.775; -869.000; -773.000
428.495; -139.350; -624.000; -646.000
428.619; -101.025; -186.000; -117.000
428.743;  -44.150;   65.000;  132.000
428.868; -156.250; -732.000; -643.000
428.992; -104.400; -219.000; -326.000
429.116; -110.750; -329.000; -357.000
429.240;  -12.325;  419.000;  426.000
429.365; -111.250; -454.000; -574.000
429.489; -123.600; -638.000; -647.000
429.613;  -87.575; -236.000; -177.000
429.737; -116.750; -563.000; -432.000
429.861;  -92.225; -247.000; -133.000
429.985; -116.150; -425.000; -305.000
430.109; -166.250; -770.000; -908.000
430.234;  -31.650;   76.000;  -50.000
430.358; -106.425; -250.000; -160.000
430.482; -135.075; -672.000; -564.000
430.606; -138.950; -655.000; -375.000
430.730; -120.125; -437.000; -388.000
430.854; -161.000; -909.000; -835.000
430.978; -146.325; -795.000; -764.000
431.102; -139.150; -499.000; -422.000
431.226; -173.800; -874.000; -815.000
431.350;  -35.500;  345.000;  422.000
431.474; -122.325; -661.000; -373.000
431.597; -196.250;-1060.000; -848.000
431.721; -109.975; -276.000; -267.000
431.845; -155.350; -704.000; -472.000
431.969; -102.475; -304.000; -349.000
432.093; -123.050; -395.000; -317.000
432.217;  -59.150;   32.000;   82.000
432.341; -118.000; -523.000; -518.000
432.464;  -54.800;   96.000;   40.000
432.588; -133.475; -401.000; -329.000
432.712;  -57.925;  -52.000;  -52.000
432.836;  -33.650;  213.000;  263.000
432.959;  -96.125; -372.000; -311.000
433.083;  -63.625;   11.000;    2.000
433.207;    0.025;  285.000;  930.000
433.330;  -88.650; -391.000; -200.000
433.454; -123.500; -654.000; -638.000
433.578;   -7.125;  583.000;  278.000
433.701; -141.875; -623.000; -675.000
433.825; -127.525; -292.000; -299.000
433.949;  -65.950;   28.000;  -72.000
434.072; -110.825; -410.000; -323.000
434.196;  -81.925; -309.000; -117.000
434.319; 3389.000;25482.000;25124.000
434.443; -134.675; -656.000; -603.000
434.566;  -46.075;  281.000;   62.000
434.690; -129.325; -637.000; -383.000
434.813; -104.275; -251.000; -173.000
434.937; -124.500; -569.000; -696.000
435.060; -127.075; -423.000; -332.000
435.184;  -92.200; -492.000; -217.000
435.307;  -65.025;  159.000;  102.000
435.431;  -49.075;  -40.000;   24.000
435.554; -115.150; -399.000; -240.000
435.677;  -99.900; -350.000; -258.000
435.801;  -76.350;  -25.000;   49.000
435.924;  -60.625;    1.000;  -67.000
436.048; -183.975;-1019.000; -732.000
436.171;  -97.425; -240.000;  -66.000
436.294;  -85.850; -248.000; -229.000
436.417; -177.375; -963.000; -849.000
436.541; -171.675; -814.000; -840.000
436.664;  -83.575; -242.000; -316.000
436.787;  -69.800;   13.000;  113.000
436.910; -136.050; -792.000; -422.000
437.034;  -53.450;  142.000;  143.000
437.157;  -56.600;  -11.000;    0.000
437.280; -125.100; -392.000; -292.000
437.403; -170.625; -982.000; -869.000
437.526; -183.000; -903.000; -865.000
437.649; -114.875; -505.000; -332.000
437.772; -162.050; -692.000; -540.000
437.896;  -13.975;  700.000;  544.000
438.019; -143.375; -758.000; -503.000
438.142; -121.500; -596.000; -506.000
438.265; -151.150; -639.000; -670.000
438.388;  -88.975; -520.000; -410.000
438.511; -130.575; -597.000; -394.000
438.634; -110.375; -247.000; -125.000
438.757; -159.925; -693.000; -619.000
438.880;  -80.125;  -34.000;  -57.000
439.003; -121.475; -417.000; -437.000
439.126;  -89.850; -287.000; -167.000
439.248;  -74.400;  -98.000; -139.000
439.371;  -71.725;    9.000;  -53.000
439.494;  -14.375;  510.000;  439.000
439.617;  -66.375;   65.000;  -88.000
439.740; -178.825; -968.000; -816.000
439.863; -156.600; -755.000; -595.000
439.986; -145.100; -476.000; -431.000
440.108;  -85.075; -161.000; -112.000
440.231; -198.500; -950.000; -836.000
440.354;  -79.975;  -64.000; -150.000
440.477; -148.675; -566.000; -542.000
440.599; -116.475; -200.000; -225.000
440.722; -148.950; -709.000; -586.000
440.845;   42.550;  751.000;  928.000
440.968; -130.025; -415.000; -311.000
441.090;  -84.650; -199.000;  -33.000
441.213; -171.825;-1021.000; -825.000
441.336;  -67.825; -159.000;   -5.000
441.458; -126.050; -549.000; -396.000
441.581; -137.400; -628.000; -629.000
441.703;  -91.950; -152.000;   13.000
441.826; -128.175; -557.000; -400.000
441.948;  -71.125;   56.000;   51.000
442.071;    5.150;  555.000;  424.000
442.193; -145.025; -531.000; -485.000
442.316;  -43.875;  152.000;   97.000
442.438; -100.050; -233.000;  -10.000
442.561;  -19.225;  272.000;  262.000
442.683; -161.275; -809.000; -522.000
442.806;  -69.750;   -8.000;   74.000
442.928; -180.650; -859.000; -604.000
443.051; -122.325; -577.000; -373.000
443.173; -115.450; -341.000; -339.000
443.295; -109.775; -263.000; -371.000
443.418; -119.825; -321.000;  -29.000
443.540;  -65.475; -106.000;   -4.000
443.662; -151.300; -563.000; -465.000
443.785;  -36.250;  335.000;  199.000
443.907; -109.875; -362.000; -208.000
444.029; -144.600; -767.000; -494.000
444.152; -152.150; -644.000; -554.000
444.274;  -72.475;  -18.000;  -24.000
444.396; -131.475; -461.000; -221.000
444.518; -134.375; -691.000; -454.000
444.640; -130.825; -268.000; -111.000
444.763;  -42.400;  388.000;  249.000
444.885; -144.350; -432.000; -392.000
445.007;  -51.400;   35.000;   86.000
445.129; -128.150; -610.000; -515.000
445.251; -127.650; -372.000; -439.000
445.373; -154.750; -537.000; -386.000
445.495;  -35.250;  242.000;  350.000
445.617;    8.275;  853.000;  753.000
445.739;  -99.550; -215.000;  -97.000
445.861;  -91.400; -245.000; -112.000
445.984;  -85.825; -267.000; -101.000
446.105; -124.950; -418.000; -251.000
446.227;  -64.125; -176.000;  -19.000
446.349; -137.975; -358.000; -249.000
446.471; -133.575; -615.000; -448.000
446.593; -102.050; -316.000;   19.000
446.715;  -71.200;  -67.000;   41.000
446.837;   19.850;  697.000;  832.000
446.959; -124.900; -457.000; -478.000
447.081; -151.325; -628.000; -518.000
447.203;   27.825;  862.000;  834.000
447.325; -100.200; -270.000;   42.000
447.446;  -40.375;  286.000;  530.000
447.568; -186.475; -921.000; -803.000
447.690; -121.375; -236.000; -245.000
447.812; -163.300; -798.000; -519.000
447.933;  -66.550;  155.000;  127.000
448.055; -100.150; -306.000; -261.000
448.177;  -61.450;   31.000;   79.000
448.299; -191.175; -935.000; -727.000
448.420;  -57.150;  -25.000;  159.000
448.542;  -76.700;   -3.000;   33.000
448.664;  -40.850;  109.000;  322.000
448.785;  -61.450;  265.000;   83.000
448.907; -144.425; -614.000; -353.000
449.028; -156.600; -771.000; -471.000
449.150;   19.475;  492.000;  589.000
449.272; -194.675;-1044.000; -913.000
449.393;   13.975;  612.000;  694.000
449.515; -155.325; -634.000; -581.000
449.636;  -99.200; -264.000; -155.000
449.758;    4.675;  763.000;  622.000
449.879; -105.525; -498.000; -396.000
450.001; -116.450; -149.000;  -49.000
450.122;  -60.400;  -95.000;  162.000
450.244;  -64.700;   37.000;  364.000
450.365; -125.575; -495.000; -301.000
450.486;  -68.125;   80.000;  268.000
450.608;  -30.875;  393.000;  326.000
450.729;  -20.525;  578.000;  645.000
450.850; -139.850; -574.000; -466.000
450.972; -159.975; -552.000; -389.000
451.093;  -21.900;  190.000;  588.000
451.214; -127.200; -516.000; -337.000
451.336;  -14.325;  773.000;  579.000
451.457;  -39.900;  264.000;  393.000
451.578;  -80.025; -118.000;  -74.000
451.699; -141.350; -546.000; -540.000
451.821;  -94.025; -284.000;  -50.000
451.942;  -50.500;  278.000;  285.000
452.063;  -33.375;  228.000;  419.000
452.184;  -87.900;  -54.000;  -49.000
452.305;  -43.425;  103.000;  170.000
452.427; -137.200; -549.000; -301.000
452.548;  -84.250;   23.000;   79.000
452.669;  -98.500; -257.000;  -89.000
452.790;  -81.125;    3.000;  -18.000
452.911;  -63.075;  195.000;  259.000
453.032;  -97.625; -289.000;  -60.000
453.153;  -83.575;  -29.000;   81.000
453.274;   35.775;  737.000;  868.000
453.395;  -90.050;  -51.000;  175.000
453.516;   83.175; 1317.000; 1388.000
453.637;  -97.850; -205.000; -150.000
453.758;  -82.175;   15.000;   69.000
453.879; -129.400; -462.000; -250.000
454.000;   40.650; 1086.000;  948.000
454.121; -160.850; -554.000; -326.000
454.242; -144.175; -599.000; -383.000
454.362;  -91.375;  -99.000;  114.000
454.483; -112.025; -309.000; -229.000
454.604;  -31.375;  512.000;  580.000
454.725; -154.725; -627.000; -555.000
454.846; -142.325; -474.000; -406.000
454.967;  -28.475;  230.000;  539.000
455.087;  -55.675;  179.000;  153.000
455.208;   -2.650;  554.000;  856.000
455.329;  -79.575;  -22.000;   82.000
455.450;  -19.875;  473.000;  633.000
455.570; -110.425; -234.000; -211.000
455.691;  -60.775;  201.000;  407.000
455.812; -116.600; -270.000;  -92.000
455.932;  -64.800;  107.000;  -97.000
456.053;  -93.175;   36.000;   24.000
456.173; -117.100; -433.000; -355.000
456.294; -136.325; -476.000; -303.000
456.415;  -79.175;  -73.000;   70.000
456.535;  -45.925;  297.000;  273.000
456.656;  -55.250;  132.000;  240.000
456.776;  -73.975;    3.000;  298.000
456.897;  -26.825;  308.000;  513.000
457.017;  -93.725; -153.000;   -3.000
457.138; -116.825; -402.000; -249.000
457.258;  -61.650;  263.000;  224.000
457.379;  -12.650;  509.000;  521.000
457.499;  -41.400;  443.000;  432.000
457.620; -117.550; -407.000; -231.000
457.740; -101.950; -132.000;  -11.000
457.860;  -77.675;   87.000;   44.000
457.981;  -84.850;  132.000;  124.000
458.101;  -96.950;  -89.000;   40.000
458.221;  -31.125;  336.000;  402.000
458.342;  -68.000;   -4.000;  -37.000
458.462;  -44.075;  617.000;  352.000
458.582;  -95.025; -302.000; -294.000
458.703;  -68.800;  303.000;  154.000
458.823;  -76.450;   22.000;  163.000
458.943;  -38.725;  341.000;  467.000
459.063;  -65.250; 1124.000;  192.000
459.183;  -64.625;  328.000;  313.000
459.304;  -24.675;  315.000;  517.000
459.424; -113.050; -246.000;  -89.000
459.544;   -2.950;  388.000;  764.000
459.664;  -15.525;  499.000;  506.000
459.784;   38.550; 1004.000; 1175.000
459.904;   -5.525;  867.000;  744.000
460.024;   21.675;  867.000;  684.000
460.144;  -34.175;  449.000;  554.000
460.264;  -25.450;  515.000;  327.000
460.385;  -98.250; -145.000; -119.000
460.505;   21.625;  905.000;  858.000
460.625; -108.200;  -17.000;  -68.000
460.745;  -27.300;  396.000;  541.000
460.864;  -72.500;  153.000;  469.000
460.984;  -21.050;  499.000;  573.000
461.104;   88.575; 1656.000; 1775.000
461.224;   -0.350;  657.000;  650.000
461.344;  -51.600;  431.000;  360.000
461.464;  -57.175;  258.000;  513.000
461.584;  -39.950;  283.000;  466.000
461.704;  -81.350;   58.000;  108.000
461.824;  -77.825;  238.000;  259.000
461.943;  -50.700;  191.000;  130.000
462.063;  -90.450;    2.000;  324.000
462.183;    4.725;  639.000;  717.000
462.303;   69.550; 1678.000; 1230.000
462.422;   13.750;  781.000;  840.000
462.542;  -70.125;  271.000;  391.000
462.662;  -38.100;  353.000;  380.000
462.782;   -8.875;  833.000;  572.000
462.901;  -20.475;  545.000;  717.000
463.021;  105.975; 1702.000; 1638.000
463.141;  -38.850;  337.000;  770.000
463.260;  -31.750;  614.000;  474.000
463.380;    1.950;  902.000;  884.000
463.499;  -64.475;  342.000;  332.000
463.619;  -55.250;  581.000;  559.000
463.738;   79.575; 1644.000;  903.000
463.858;   -2.900;  657.000;  811.000
463.978;  -53.950;  542.000;  396.000
464.097;   22.400;  921.000; 1114.000
464.217;   48.100; 1196.000; 1143.000
464.336;   64.000; 1068.000; 1130.000
464.455;  -49.150;  328.000;  659.000
464.575;  -19.650;  597.000;  602.000
464.694;   29.900; 1204.000; 1179.000
464.814;   30.150; 1190.000; 1138.000
464.933;   23.800; 1095.000; 1027.000
465.052;   63.450; 1412.000; 1054.000
465.172;    2.100;  922.000;  799.000
465.291;   67.300; 1376.000; 1320.000
465.410;   -5.975;  462.000;  735.000
465.530;   64.400; 1355.000; 1310.000
465.649;   44.075; 1209.000; 1273.000
465.768;   99.125; 1673.000; 1508.000
465.888;   16.025;  941.000; 1174.000
466.007;   77.475; 1335.000; 1440.000
466.126;  -21.475;  721.000;  641.000
466.245;   26.250; 1176.000; 1187.000
466.364;    5.725;  950.000; 1060.000
466.484;   38.225; 1024.000; 1213.000
466.603;    9.200; 1101.000; 1222.000
466.722;   93.975; 1490.000; 1769.000
466.841;   42.200; 1151.000; 1401.000
466.960;   29.800; 1069.000;  972.000
467.079;   99.800; 1971.000; 1786.000
467.198;   35.400; 1238.000; 1181.000
467.317;   61.350; 1768.000; 1162.000
467.436;   67.350; 1709.000; 1261.000
467.555;  110.150; 1796.000; 1746.000
467.674;   70.800; 1227.000; 1329.000
467.793;   47.350; 1376.000; 1374.000
467.912;   86.900; 1658.000; 1539.000
468.031;  124.175; 2038.000; 1930.000
468.150;  110.300; 1842.000; 1837.000
468.269;  160.475; 2313.000; 2090.000
468.388;  175.950; 2168.000; 2339.000
468.507;  225.875; 2884.000; 2903.000
468.626;  211.900; 2555.000; 2541.000
468.744;  122.850; 2018.000; 2174.000
468.863;  182.725; 2312.000; 2523.000
468.982;   89.850; 1503.000; 1555.000
469.101;  202.400; 2788.000; 2692.000
469.220;  139.500; 2333.000; 2176.000
469.338;  233.100; 2935.000; 3051.000
469.457;  180.525; 2719.000; 2545.000
469.576;  333.900; 3953.000; 3784.000
469.695;  222.325; 2877.000; 3066.000
469.813;  384.100; 4148.000; 4192.000
469.932;  357.700; 4255.000; 4485.000
470.051;  312.250; 4075.000; 4161.000
470.169;  366.800; 4470.000; 4338.000
470.288;  410.200; 4700.000; 4809.000
470.406;  457.650; 5059.000; 5194.000
470.525;  553.200; 6101.000; 5787.000
470.644;  606.375; 6847.000; 6794.000
470.762;  767.850; 8397.000; 7873.000
470.881;  796.425; 8651.000; 8464.000
470.999;  939.075; 9685.000; 9151.000
471.118; 1056.425;11174.000;10711.000

