
Integration time [ms]: 100.000
Averaging Nr. [scans]: 40
Smoothing Nr. [pixels]: 0
Data measured with spectrometer [name]: 2101012U2
Wave   ;Sample   ;Dark     ;Reference
[nm]   ;[counts] ;[counts] ;[counts] 

197.733;   54.600;  516.000;  404.000
197.879;  -81.000; -610.000; -634.000
198.025;  -51.075; -475.000; -420.000
198.171;  -83.675; -602.000; -612.000
198.317;  -27.650; -401.000; -316.000
198.463;  -48.675; -655.000; -404.000
198.609;   32.875;  181.000; -137.000
198.755;  -64.400; -644.000; -410.000
198.901;  -68.175; -505.000; -424.000
199.047;  -51.500; -615.000; -488.000
199.193;  -30.275; -230.000; -468.000
199.339;  -32.775; -222.000; -369.000
199.485;   50.975;  330.000;  271.000
199.631;   14.525;  227.000;  310.000
199.777;  -40.650; -466.000; -398.000
199.923;  -64.125; -610.000; -424.000
200.069;   -8.850; -141.000;  -58.000
200.215;   58.025;  128.000;  453.000
200.361;   40.625;  243.000;  477.000
200.507;  -63.700; -600.000; -373.000
200.653;  -17.550; -371.000; -194.000
200.798;  -31.225; -215.000; -125.000
200.944;    3.750; -146.000;  -41.000
201.090;   46.175;   61.000;  222.000
201.236;    0.000; -116.000; -158.000
201.382;  126.175;  874.000;  903.000
201.528;   14.750;  -58.000;  -48.000
201.674;  -58.450; -386.000; -293.000
201.819;  -58.700; -540.000; -439.000
201.965;  -88.650; -699.000; -447.000
202.111;  -24.000; -273.000; -226.000
202.257;  -38.075; -250.000; -238.000
202.402;   10.825;   13.000;  -36.000
202.548;  -26.000; -169.000; -116.000
202.694;   78.025;  410.000; -183.000
202.840;  -70.350; -603.000; -531.000
202.985;  -78.425; -681.000; -639.000
203.131;  -95.900; -832.000; -666.000
203.277;  -11.525; -199.000; -262.000
203.423;  -43.925; -434.000; -520.000
203.568;  -32.550; -462.000; -237.000
203.714;  -45.050; -535.000; -542.000
203.860;  -76.775; -682.000; -641.000
204.005;   17.750;  112.000;  167.000
204.151;   64.600;  561.000;  556.000
204.296;  -39.475; -354.000; -221.000
204.442;  -57.725; -600.000; -547.000
204.588;  -60.325; -592.000; -579.000
204.733;   17.025;  178.000;  168.000
204.879; -132.050;-1018.000; -822.000
205.025;   21.375;  -99.000;  126.000
205.170;    2.850;  -17.000;   94.000
205.316;   87.050;  438.000;  661.000
205.461;  -72.025; -698.000; -554.000
205.607;   77.475;  609.000;  665.000
205.752;  -74.700; -626.000; -551.000
205.898;  -55.700; -501.000; -391.000
206.043;  -60.375; -578.000; -506.000
206.189;  -40.875; -243.000; -285.000
206.334;   89.625;  554.000;  606.000
206.480;   79.375;  409.000;  239.000
206.625;  -80.900; -529.000; -552.000
206.771;  -50.850; -451.000; -373.000
206.916;  -29.325; -210.000; -537.000
207.062;  -78.450; -545.000; -591.000
207.207;  -56.600; -546.000; -443.000
207.353;   62.200;  185.000;  460.000
207.498;   10.800;  196.000;   85.000
207.643;  -45.775; -501.000; -370.000
207.789; -118.375;-1069.000; -910.000
207.934;  -88.450; -665.000; -713.000
208.080;  -30.025; -154.000;   66.000
208.225;  -11.350;  -22.000;  -57.000
208.370;  -79.225; -727.000; -619.000
208.516;  -68.000; -741.000; -487.000
208.661;  -30.950; -127.000;  -69.000
208.806;  -18.525; -165.000; -171.000
208.952; -124.750;-1044.000; -731.000
209.097;   61.725;  378.000;  349.000
209.242;  -52.700; -307.000; -382.000
209.387;   52.225;  392.000;  350.000
209.533;  -47.525; -321.000; -350.000
209.678;   88.150;  472.000;  543.000
209.823;  -46.475; -408.000; -310.000
209.969; -105.625; -860.000; -757.000
210.114;  -94.250; -907.000; -719.000
210.259; -104.750; -939.000; -889.000
210.404;  -13.500; -171.000;  103.000
210.549;   11.975;  108.000;    3.000
210.695;  -13.350;   -3.000;  -95.000
210.840;   25.375;   94.000;   67.000
210.985;  -57.225; -484.000; -303.000
211.130;   64.450;  268.000;  406.000
211.275;   18.850;  207.000;  199.000
211.420;  -46.375; -300.000; -289.000
211.566;  -67.575; -536.000; -489.000
211.711;   21.575;  218.000;  157.000
211.856;  -56.000; -545.000; -519.000
212.001;    6.950;  151.000;   44.000
212.146;   27.250;  153.000;   49.000
212.291;  -14.875; -210.000; -186.000
212.436;  -24.075; -280.000;   -6.000
212.581;  -86.075; -685.000; -653.000
212.726;  -67.400; -487.000; -538.000
212.871;  -38.850; -552.000; -217.000
213.016; -145.500;-1172.000;-1029.000
213.161;   56.000;  406.000;  291.000
213.306;  -71.900; -435.000; -577.000
213.451;  -87.625; -778.000; -689.000
213.596;  -47.425; -455.000; -347.000
213.741;  -43.725; -448.000; -538.000
213.886;  -75.300; -498.000; -517.000
214.031;  -25.025; -294.000; -124.000
214.176;  -49.050; -408.000; -341.000
214.321;  -15.950; -296.000; -157.000
214.466;  -30.125; -163.000;  -43.000
214.611;   -8.650;  -61.000;  -10.000
214.756; -122.375; -948.000; -858.000
214.901;  -31.925; -388.000; -226.000
215.046; -110.225; -797.000; -825.000
215.191;   31.525;  128.000;   35.000
215.336;   -7.425; -157.000;  -19.000
215.480;  -57.975; -684.000; -505.000
215.625;   -2.075; -175.000;  -19.000
215.770;  -81.075; -757.000; -662.000
215.915;   -2.425;   -5.000;  -97.000
216.060;  -18.325; -113.000;  -21.000
216.205; -105.925; -731.000; -779.000
216.349;  -59.300; -470.000; -533.000
216.494; -123.650; -939.000; -867.000
216.639; -113.775; -823.000; -888.000
216.784;  -84.775; -577.000; -525.000
216.929;   49.675;  392.000;  281.000
217.073;  -10.025; -244.000;  -31.000
217.218;    4.700;   78.000;  -47.000
217.363;  -88.375; -656.000; -618.000
217.507;  -73.150; -623.000; -588.000
217.652; -127.450; -845.000; -874.000
217.797;  -83.200; -708.000; -659.000
217.942; -117.375; -856.000; -720.000
218.086;   67.300;  608.000;  539.000
218.231;  -14.375; -174.000;  -26.000
218.376;  -40.350; -337.000; -229.000
218.520;    6.550;  -41.000;   96.000
218.665;  -30.400; -338.000; -204.000
218.810;  -41.400; -275.000; -233.000
218.954;   24.350;  201.000;   35.000
219.099; -111.700; -713.000; -963.000
219.243;  -69.800; -589.000; -554.000
219.388;  -33.950; -264.000; -136.000
219.532;  -12.175; -116.000; -116.000
219.677;  -81.325; -564.000; -521.000
219.822;    0.800;   33.000;   89.000
219.966;    5.725;   17.000;  -99.000
220.111;  -47.425; -328.000;  -40.000
220.255;  -94.750; -797.000; -750.000
220.400;  -30.275; -180.000; -146.000
220.544;  -63.050; -516.000; -450.000
220.689;  -50.175; -422.000; -451.000
220.833;   -2.650; -123.000;  -58.000
220.978;  -40.575; -393.000; -563.000
221.122;   23.575;  319.000;  307.000
221.267; -110.600; -906.000; -837.000
221.411;  -53.525; -478.000; -394.000
221.555;  -12.775; -104.000;  -23.000
221.700;  -47.750; -329.000; -222.000
221.844;   28.825;  255.000;  272.000
221.989;  -41.900; -328.000; -311.000
222.133;  -46.750; -289.000; -307.000
222.277;   -2.000;    5.000;   78.000
222.422;    9.100;  227.000;  113.000
222.566;  -30.150; -381.000; -214.000
222.711;  -55.975; -414.000; -479.000
222.855;  -52.975; -643.000; -586.000
222.999;  -89.100; -642.000; -717.000
223.144;  -22.400; -195.000; -194.000
223.288;   47.000;  423.000;  251.000
223.432;   30.100;  184.000;  230.000
223.576;   20.800;  152.000;  -21.000
223.721;   32.425;  364.000;  273.000
223.865;  -62.975; -472.000; -475.000
224.009;  236.325; 1673.000; 1631.000
224.153;  -77.525; -660.000; -671.000
224.298;  -60.800; -531.000; -489.000
224.442;  -16.400;  -74.000;  -33.000
224.586;  -11.050; -169.000; -106.000
224.730;  -97.750; -858.000; -670.000
224.875; -106.400; -739.000; -688.000
225.019;   21.450;  102.000;  188.000
225.163;   59.975;  208.000;  341.000
225.307;    2.550;   97.000;  -91.000
225.451;   47.525;  360.000;  481.000
225.595;   27.100;  264.000;  176.000
225.739;  -10.150; -170.000;  -94.000
225.884;    5.725;   86.000;    5.000
226.028; -102.875; -760.000; -626.000
226.172;  -42.000; -260.000; -273.000
226.316; -107.775; -941.000; -902.000
226.460;  -73.275; -645.000; -493.000
226.604;  -58.900; -406.000; -400.000
226.748;  -95.150; -836.000; -733.000
226.892;  -28.225; -227.000; -181.000
227.036;  -46.825; -537.000; -447.000
227.180;  -49.025; -551.000; -375.000
227.324;  -61.250; -561.000; -580.000
227.468;  -91.325; -819.000; -717.000
227.612;    5.075;  242.000;  -28.000
227.756; -105.475; -845.000; -698.000
227.900;   41.800;  342.000;  441.000
228.044;  -61.000; -509.000; -290.000
228.188;   62.250;  448.000;  568.000
228.332;  -79.825; -546.000; -472.000
228.476;  -30.700; -223.000; -149.000
228.620;  -21.475; -210.000; -150.000
228.764;   69.025;  431.000;  349.000
228.908;  -24.150; -155.000;   30.000
229.052;  -61.100; -615.000; -528.000
229.195;  -15.475; -172.000;   13.000
229.339;  -22.700; -235.000; -305.000
229.483;  -22.000;    5.000; -162.000
229.627;   -4.400; -156.000;  139.000
229.771;  -47.250; -218.000; -294.000
229.915;    5.875;  230.000;   79.000
230.059;  -89.600; -648.000; -663.000
230.202;  -39.825; -370.000; -317.000
230.346;  -14.175; -107.000;  107.000
230.490;  -61.025; -489.000; -521.000
230.634;  -98.500; -736.000; -553.000
230.777;   61.350;  478.000;  509.000
230.921;  -59.325; -450.000; -359.000
231.065;  -47.175; -246.000; -286.000
231.209;   38.975;  261.000;  265.000
231.352;   17.675;   54.000;   40.000
231.496;   14.625;  568.000;  188.000
231.640;  -73.950; -693.000; -621.000
231.783;   59.725;  546.000;  525.000
231.927;  -39.400; -294.000; -365.000
232.071; -110.800; -962.000; -736.000
232.214;  -97.775; -980.000; -764.000
232.358;  -99.650; -683.000; -599.000
232.502;    2.800;  -19.000;    7.000
232.645; -131.100;-1090.000; -927.000
232.789;  -25.075; -257.000; -218.000
232.933;  -39.650; -407.000; -224.000
233.076; -126.675;-1038.000; -897.000
233.220;  -98.450; -752.000; -777.000
233.363;  -61.125; -669.000; -477.000
233.507;   55.300;  371.000;  129.000
233.650;  -97.475; -764.000; -834.000
233.794;   50.075;  438.000;  461.000
233.938;  -63.625; -530.000; -362.000
234.081;  -17.150;  -93.000;   31.000
234.225;  -64.375; -631.000; -539.000
234.368; -104.825; -773.000; -723.000
234.512;  -40.300; -385.000; -299.000
234.655;  -76.350; -582.000; -555.000
234.798;  -63.375; -493.000; -466.000
234.942; -115.400; -884.000;-1002.000
235.085;  -68.325; -651.000; -443.000
235.229;  -74.450; -405.000; -410.000
235.372;  -49.100; -247.000; -191.000
235.516;  -60.700; -397.000; -321.000
235.659;   15.500;   92.000;  121.000
235.802;  -21.675;  -38.000;  -22.000
235.946;   26.625;  335.000;  215.000
236.089;   25.200;  126.000;  250.000
236.233;   47.475;  275.000;  298.000
236.376;  -39.625; -235.000; -378.000
236.519;  -47.725; -297.000; -319.000
236.663;  -18.125; -215.000; -117.000
236.806; -120.425;-1029.000; -999.000
236.949;   37.700;  543.000;  431.000
237.092;   65.075;  412.000;  391.000
237.236;  -81.325; -589.000; -502.000
237.379;   64.250;  352.000;  428.000
237.522; -119.200; -879.000; -768.000
237.666;  -17.900; -271.000;   18.000
237.809; -128.375; -851.000; -823.000
237.952;   44.300;  469.000;  271.000
238.095;  -49.700; -447.000; -442.000
238.238;   87.225;  688.000;  700.000
238.382;    8.975;  166.000;  103.000
238.525;  -67.850; -598.000; -511.000
238.668; -133.025;-1060.000; -985.000
238.811;  -85.100; -638.000; -643.000
238.954;  -61.525; -483.000; -334.000
239.097;   90.925;  617.000;  664.000
239.241;   20.200;  394.000;  326.000
239.384;  -38.000; -254.000; -214.000
239.527;  -66.250; -424.000; -224.000
239.670; -141.675; -994.000;-1091.000
239.813; -118.100; -696.000; -658.000
239.956;   75.300;  579.000;  473.000
240.099; -107.425; -778.000; -725.000
240.242;   62.900;  428.000;  432.000
240.385;   43.400;  466.000;  450.000
240.528;  -70.450; -706.000; -473.000
240.671;   30.525;  189.000;  134.000
240.814;  -50.875; -441.000; -158.000
240.957; -100.575; -767.000; -578.000
241.100;  -90.100; -779.000; -755.000
241.243; -139.600;-1234.000; -893.000
241.386;  -80.450; -508.000; -379.000
241.529;  -83.575; -735.000; -547.000
241.672;  -67.050; -566.000; -495.000
241.815; -117.550; -832.000; -808.000
241.958;  -24.125; -125.000; -182.000
242.101;  -84.025; -545.000; -390.000
242.244;  -43.300; -270.000; -325.000
242.387;  -39.150; -304.000; -246.000
242.530;   50.875;  470.000;  134.000
242.673;  -41.775; -381.000; -309.000
242.815; -128.175; -925.000; -899.000
242.958;  -64.850; -482.000; -381.000
243.101;    7.650;  132.000;  187.000
243.244;  -84.500; -564.000; -521.000
243.387;  -53.050; -313.000; -316.000
243.530;  -95.350; -657.000; -674.000
243.672;    0.575;   43.000;  -92.000
243.815;  -61.325; -355.000; -283.000
243.958;   -3.275;   98.000;  -26.000
244.101;   -3.975;   59.000;  -16.000
244.243;  -14.525;  -47.000;  101.000
244.386; -102.225; -761.000; -630.000
244.529;  -17.775; -132.000; -139.000
244.672; -145.825;-1154.000; -951.000
244.814; -100.600; -621.000; -794.000
244.957;  -41.450; -380.000; -304.000
245.100;  -66.450; -489.000; -489.000
245.242;  -59.525; -387.000; -374.000
245.385;  -14.900;  -59.000;  -39.000
245.528; -123.075; -871.000; -705.000
245.670;   77.700;  612.000;  634.000
245.813;  -73.875; -599.000; -547.000
245.956;  -33.275; -324.000; -275.000
246.098;  -73.425; -508.000; -650.000
246.241;   -0.725;  194.000;   48.000
246.383;  -23.425; -119.000;  -73.000
246.526;  -66.700; -454.000; -525.000
246.669; -107.050; -889.000; -780.000
246.811;    3.875;  172.000;   -1.000
246.954;  -64.875; -512.000; -426.000
247.096;  -31.025;  -84.000;   -6.000
247.239;  -65.200; -482.000; -445.000
247.381;  -67.600; -647.000; -488.000
247.524;   68.950;  645.000;  679.000
247.666;   -7.350;   58.000;   11.000
247.809; -112.350; -887.000; -691.000
247.951;   -6.525;  -75.000;  138.000
248.094;   36.575;  432.000;  308.000
248.236; -157.525;-1262.000;-1238.000
248.378;   16.475; -356.000;  -81.000
248.521;  -29.850; -334.000; -337.000
248.663;  -41.225; -236.000; -267.000
248.806;  -27.075; -300.000; -266.000
248.948;  -89.825; -886.000; -763.000
249.090;  -36.600; -428.000; -398.000
249.233;  -51.875; -344.000; -381.000
249.375;  -58.900; -474.000; -451.000
249.518;  -24.500;  -83.000; -133.000
249.660;  -17.175; -103.000;    3.000
249.802; -154.425;-1303.000;-1189.000
249.945;  -63.850; -612.000; -540.000
250.087; -118.875; -834.000; -768.000
250.229;  -61.225; -362.000; -480.000
250.371;  -75.725; -494.000; -439.000
250.514;  -54.575; -310.000; -244.000
250.656;   -6.425;   69.000;  102.000
250.798; -111.650; -849.000; -800.000
250.940;  -67.150; -322.000; -322.000
251.083;  -27.275; -335.000; -111.000
251.225;   49.225;  338.000;  310.000
251.367;  -41.925; -274.000; -373.000
251.509;  -19.000; -265.000; -210.000
251.651;  -95.325; -731.000; -671.000
251.794;   56.300;  538.000;  632.000
251.936; -101.600; -821.000; -747.000
252.078;  -72.625; -540.000; -461.000
252.220;  -72.375; -645.000; -477.000
252.362;   73.300;  344.000;  462.000
252.504;  -64.775; -677.000; -584.000
252.646; -116.350; -875.000; -722.000
252.788;    3.100;   14.000; -128.000
252.931;  -31.825; -257.000; -253.000
253.073;  -42.300; -376.000; -317.000
253.215;   -0.050;  141.000;  122.000
253.357;  -13.400;   82.000; -153.000
253.499;  -51.425; -374.000; -234.000
253.641;  -82.850; -749.000; -594.000
253.783; -100.600; -609.000; -527.000
253.925;  -79.225; -586.000; -591.000
254.067; -102.575; -744.000; -667.000
254.209;  -21.750; -391.000; -259.000
254.351; -126.325; -865.000; -883.000
254.493;  -57.025; -441.000; -417.000
254.635; -111.525; -936.000; -818.000
254.777;  -88.450; -752.000; -687.000
254.918;  -64.325; -512.000; -430.000
255.060;  -59.550; -551.000; -395.000
255.202;  -44.950; -473.000; -261.000
255.344;  -69.825; -658.000; -455.000
255.486;  -74.500; -471.000; -406.000
255.628; -113.450; -780.000; -781.000
255.770; -106.475; -676.000; -536.000
255.912;  -66.050; -559.000; -468.000
256.053;  -84.600; -730.000; -508.000
256.195;  155.950; 1008.000;  903.000
256.337; -107.600; -861.000; -595.000
256.479;   68.575;  532.000;  416.000
256.621;  -44.475; -394.000; -212.000
256.762;  -94.450; -789.000; -742.000
256.904;   50.150;  485.000;  487.000
257.046;  -46.950; -381.000; -271.000
257.188;  -43.475; -351.000; -264.000
257.329;  -78.500; -525.000; -464.000
257.471; -113.600; -939.000; -807.000
257.613;  -59.500; -584.000; -498.000
257.755; -144.975;-1073.000; -982.000
257.896;   45.975;  286.000;  392.000
258.038;  -66.550; -403.000; -352.000
258.180;  -33.675; -354.000; -279.000
258.321;  -74.950; -581.000; -457.000
258.463;   -6.050;  -71.000;  133.000
258.605;  -80.250; -562.000; -570.000
258.746;  -94.300; -886.000; -772.000
258.888; -141.650;-1026.000;-1020.000
259.029;   19.500;  121.000;   -8.000
259.171;  -89.050; -614.000; -550.000
259.313;  -14.025;  -49.000;  -47.000
259.454;  -60.650; -536.000; -414.000
259.596;  -51.025; -483.000; -390.000
259.737;  -73.075; -590.000; -474.000
259.879;   44.950;  217.000;  311.000
260.020;   80.725;  901.000;  636.000
260.162;  -20.425; -146.000; -253.000
260.303; -108.875; -768.000; -687.000
260.445;  -82.550; -609.000; -613.000
260.586;   25.900;  392.000;  157.000
260.728;  -55.525; -360.000; -248.000
260.869; -109.125; -350.000; -343.000
261.011;   74.325;  706.000;  537.000
261.152;  -61.850; -479.000; -319.000
261.293;  -77.050; -576.000; -595.000
261.435;  -21.975; -219.000; -184.000
261.576;  -50.000; -455.000; -325.000
261.718;   44.125;  420.000;  470.000
261.859; -128.950; -940.000; -949.000
262.000; -134.600; -951.000;-1016.000
262.142;  -25.750;  -52.000;  -60.000
262.283; -111.600; -808.000; -691.000
262.424;  -96.575; -666.000; -625.000
262.566; -160.100;-1161.000; -983.000
262.707; -111.775; -840.000; -830.000
262.848; -132.350; -769.000; -726.000
262.990;  -51.350; -362.000; -345.000
263.131;   88.450;  650.000;  681.000
263.272;   -5.950;  -61.000;  -41.000
263.413;  -92.925; -589.000; -561.000
263.555;  -65.875; -669.000; -143.000
263.696;  -86.875; -550.000; -641.000
263.837;  -64.950; -449.000; -551.000
263.978;    5.075;   -5.000;  -77.000
264.119;  -50.525; -283.000; -264.000
264.261; -104.825; -847.000; -630.000
264.402;    2.425;   33.000;   40.000
264.543;  -73.550; -509.000; -524.000
264.684;  -10.050;   61.000;  -50.000
264.825;  -56.575; -816.000; -538.000
264.966;   -6.425;  -84.000;  -67.000
265.107; -108.450; -646.000; -670.000
265.248; -134.425; -825.000; -812.000
265.390;    0.150;  152.000;   -9.000
265.531;  -27.175; -238.000; -107.000
265.672;  -89.200; -557.000; -630.000
265.813;   63.975;  563.000;  439.000
265.954; -136.275; -959.000; -940.000
266.095;  -19.200; -372.000; -322.000
266.236;  -96.675; -686.000; -548.000
266.377;  -47.900; -243.000; -297.000
266.518;  -66.175; -619.000; -547.000
266.659;   28.625;  170.000;  268.000
266.800;    1.225;   83.000;   85.000
266.941;  -77.125; -487.000; -478.000
267.082;    6.900;  354.000;   99.000
267.223;  -63.350; -344.000; -273.000
267.364; -106.825; -892.000; -686.000
267.504;  -17.400;    3.000;  135.000
267.645;  -10.325;  160.000;   67.000
267.786;  -27.375; -147.000;  -86.000
267.927;  -79.950; -473.000; -379.000
268.068;   -2.525; -186.000;  -61.000
268.209;  -48.150; -175.000; -413.000
268.350;  -61.300; -388.000; -532.000
268.490;  -83.325; -648.000; -521.000
268.631;   30.075;  127.000;  225.000
268.772; -109.725; -874.000; -647.000
268.913;  -58.175; -328.000; -476.000
269.054;  -11.100; -117.000;   12.000
269.194;  -55.250; -418.000; -402.000
269.335; -158.350;-1137.000;-1074.000
269.476;  -21.525;   33.000;  -35.000
269.617;  -32.525; -347.000; -392.000
269.757;  -94.900; -713.000; -646.000
269.898; -105.775; -856.000; -613.000
270.039;  -62.300; -415.000; -405.000
270.180; -137.725; -952.000; -816.000
270.320;  -27.675; -190.000; -250.000
270.461;  -46.250; -277.000; -249.000
270.602;  -13.850; -186.000; -156.000
270.742; -125.075; -868.000; -943.000
270.883;  -65.250; -442.000; -390.000
271.023;  -67.750; -358.000; -357.000
271.164;  -66.900; -607.000; -528.000
271.305;  -99.175; -666.000; -654.000
271.445;  -99.250; -722.000; -683.000
271.586;  -69.950; -462.000; -283.000
271.726;  -48.425; -397.000; -322.000
271.867;  -57.725; -594.000; -534.000
272.008;  181.600; -473.000; -285.000
272.148;  123.375;  462.000;  468.000
272.289;   -1.175; -113.000; -181.000
272.429;   11.025;   19.000;  185.000
272.570;  -89.075; -633.000; -737.000
272.710;  -84.975; -825.000; -775.000
272.851;  -20.200;  113.000; -130.000
272.991; -158.050;-1173.000;-1077.000
273.131;  -85.475; -419.000; -459.000
273.272;  -98.375; -683.000; -723.000
273.412;   20.900; -143.000;  -31.000
273.553;  -58.200; -488.000; -507.000
273.693;  130.425;  913.000;  858.000
273.834;  -63.950; -894.000; -692.000
273.974;  -69.850; -664.000; -615.000
274.114;  -97.850; -772.000; -560.000
274.255;   70.375;  414.000;  373.000
274.395;    5.725; -180.000; -125.000
274.535;   47.600;  199.000;  350.000
274.676;   21.800;  225.000;   94.000
274.816;   -3.250;  110.000;   34.000
274.956;  -93.025; -624.000; -690.000
275.097;  -60.600;-1014.000; -922.000
275.237; -104.000; -913.000; -803.000
275.377; -103.400; -778.000; -689.000
275.517; -142.225; -878.000; -937.000
275.658;  -58.650; -590.000; -555.000
275.798;  -73.950; -606.000; -413.000
275.938;   20.375;  215.000;  323.000
276.078;  -87.375; -626.000; -395.000
276.218;  -21.100;   99.000;  104.000
276.359; -124.325;-1026.000;-1024.000
276.499;  -70.650; -605.000; -446.000
276.639;  -36.275; -305.000; -151.000
276.779;  -44.000; -475.000; -357.000
276.919; -106.550; -783.000; -624.000
277.059;  -23.000; -261.000; -212.000
277.199;  -25.225; -357.000; -259.000
277.340;   39.425;  287.000;  175.000
277.480; -110.775; -840.000; -693.000
277.620;   33.300;  192.000;   16.000
277.760; -188.825;-1533.000;-1294.000
277.900;   15.375;  113.000;   33.000
278.040;    9.375;  137.000;  159.000
278.180;   33.600;  270.000;  170.000
278.320;   -1.750;   21.000;   56.000
278.460;  -65.425; -443.000; -469.000
278.600;  -80.725; -708.000; -598.000
278.740;   42.250;  448.000;  224.000
278.880;  -42.350; -768.000; -791.000
279.020;   -4.650; -194.000; -144.000
279.160;  -93.075; -672.000; -595.000
279.300; -107.000; -926.000; -873.000
279.440;  -81.450; -709.000; -622.000
279.579;  -11.875;-1014.000; -929.000
279.719;  -40.225; -410.000; -394.000
279.859;   69.825;   -4.000;   41.000
279.999;   34.750; -208.000;  101.000
280.139;  -19.025; -435.000; -387.000
280.279;  -75.675; -708.000; -745.000
280.419;  -13.775; -229.000; -147.000
280.559;  -34.325; -259.000; -180.000
280.698;  -85.225; -790.000; -639.000
280.838;  -78.450; -778.000; -800.000
280.978;  -97.150; -846.000; -790.000
281.118; -107.525; -811.000; -704.000
281.257;    2.125;   24.000;    6.000
281.397; -112.275;-1094.000; -960.000
281.537;  -84.300; -599.000; -712.000
281.677;  -20.925; -150.000; -101.000
281.816;  -97.500; -700.000; -630.000
281.956;  -35.275; -193.000; -257.000
282.096;  -64.425; -539.000; -396.000
282.235;  -96.525; -672.000; -638.000
282.375;  -11.750; -243.000;  -98.000
282.515;  -99.650; -715.000; -707.000
282.654;   14.500;   29.000;  106.000
282.794;   16.725;  388.000;  244.000
282.934;  -56.625; -530.000; -491.000
283.073; -133.475;-1030.000; -857.000
283.213;  -55.550; -460.000; -467.000
283.353;  -39.450; -408.000; -349.000
283.492;  -44.025; -264.000; -296.000
283.632;  -33.850; -254.000; -168.000
283.771;  -96.750; -859.000; -730.000
283.911;  -58.125; -369.000; -260.000
284.050; -102.825; -794.000; -748.000
284.190; -147.900;-1229.000;-1096.000
284.329; -147.325;-1055.000; -964.000
284.469;  -64.175; -516.000; -591.000
284.608;  -63.625; -559.000; -598.000
284.748;  -76.800; -614.000; -570.000
284.887;   -6.675;  -87.000;  -20.000
285.027; -122.525; -844.000; -892.000
285.166;  -34.200; -192.000; -249.000
285.306;    7.475; -116.000;  -33.000
285.445;  -33.625; -229.000; -343.000
285.584;  -92.575; -630.000; -494.000
285.724;  -28.525; -282.000; -322.000
285.863; -102.275; -857.000; -507.000
286.002;  -59.625; -366.000; -276.000
286.142;  -96.575; -715.000; -622.000
286.281;  -84.975; -525.000; -493.000
286.420;  -79.725; -554.000; -417.000
286.560;   76.150;  653.000;  623.000
286.699; -135.550; -958.000; -912.000
286.838;  -83.450; -590.000; -591.000
286.978;  -95.350; -533.000; -537.000
287.117; -123.825;-1085.000; -950.000
287.256;  -31.300; -228.000; -211.000
287.395;  -50.500; -197.000; -378.000
287.535;  -63.100; -370.000; -298.000
287.674;  -83.175; -509.000; -484.000
287.813;   48.375;  661.000;  533.000
287.952; -133.400;-1010.000; -871.000
288.091; -141.800;-1049.000; -915.000
288.231;    8.550;   13.000;   15.000
288.370; -167.600;-1217.000;-1200.000
288.509;  -86.000; -728.000; -645.000
288.648;  -83.975; -770.000; -548.000
288.787;  -27.350; -243.000;  -87.000
288.926;  -65.600; -454.000; -475.000
289.065;   92.700;  859.000;  672.000
289.204;  -43.900; -377.000; -217.000
289.344;  -98.800; -791.000; -690.000
289.483;   18.350;  416.000;  304.000
289.622;  -28.925; -291.000; -149.000
289.761;  -26.475; -309.000; -166.000
289.900;  -98.725; -785.000; -626.000
290.039;  -21.850;  -12.000;  -95.000
290.178;  -36.125; -274.000; -180.000
290.317;  -76.550; -618.000; -479.000
290.456;  -74.400; -463.000; -451.000
290.595; -116.075; -961.000; -833.000
290.734; -136.225; -904.000; -891.000
290.873;  -71.225; -456.000; -420.000
291.011; -113.200; -833.000; -843.000
291.150;  -95.125; -770.000; -682.000
291.289;  -24.975; -343.000; -110.000
291.428;  -92.400; -599.000; -480.000
291.567;  -44.850; -370.000; -442.000
291.706;   -0.325;  109.000;  154.000
291.845;  -80.300; -597.000; -505.000
291.984; -156.350;-1234.000;-1061.000
292.122;   74.675;  602.000;  582.000
292.261;   47.700;  620.000;  463.000
292.400;    7.100; -144.000;  211.000
292.539; -121.350; -959.000; -813.000
292.678;  -38.775; -325.000; -300.000
292.816; -151.925;-1136.000; -965.000
292.955;  -85.775; -844.000; -684.000
293.094;  -23.825; -173.000; -337.000
293.233;  -54.650; -556.000; -400.000
293.371;  -45.675; -225.000;  -84.000
293.510; -104.600; -866.000; -780.000
293.649; -131.400; -959.000; -924.000
293.787;  -58.175;-1083.000;-1012.000
293.926;   -3.725; -113.000;  -32.000
294.065;  -39.875; -379.000; -290.000
294.203;   44.250;  298.000;  406.000
294.342;    4.350;   74.000;  156.000
294.481; 6010.050;51180.000; -836.000
294.619;  -31.625; -425.000; -582.000
294.758; -129.650;-1230.000;-1137.000
294.896;   68.450; -125.000;    5.000
295.035; -120.000;-1040.000;-1006.000
295.174; -120.900;-1082.000; -954.000
295.312;  -38.600; -323.000; -203.000
295.451;  -10.150; -307.000; -428.000
295.589;  -52.475; -389.000; -518.000
295.728;   31.025; -292.000; -165.000
295.866;   12.625;  -36.000;  -51.000
296.005;  -56.675; -584.000; -341.000
296.143;  -60.550; -558.000; -596.000
296.282; -106.575; -957.000; -881.000
296.420;  -79.550; -657.000; -557.000
296.559;  -81.925; -892.000; -633.000
296.697;   42.150; -847.000; -665.000
296.835;   64.000;-1141.000;-1002.000
296.974;   52.225;  -23.000;   39.000
297.112;   17.375; -443.000; -504.000
297.251;  -78.025; -815.000; -755.000
297.389;   99.125; -576.000; -438.000
297.527;   39.525; -145.000;  -83.000
297.666;  -51.175; -486.000; -438.000
297.804;  -56.500; -404.000; -264.000
297.942;   -2.800; -136.000; -161.000
298.081;   -1.325; -183.000;   63.000
298.219;   68.800;  -17.000;  -19.000
298.357;   64.700; -144.000;  -71.000
298.495;   44.150; -810.000; -812.000
298.634;   81.975;  245.000;  219.000
298.772;   64.425; -220.000; -338.000
298.910;  -42.225; -309.000; -182.000
299.048;  -12.600; -130.000; -153.000
299.187;  -34.775; -350.000; -250.000
299.325;    9.850;   52.000;  122.000
299.463;   69.225; -389.000; -299.000
299.601;  104.425; -327.000; -271.000
299.739;  -84.175; -908.000; -883.000
299.877;  -86.100; -791.000; -703.000
300.016;  -30.200;-1095.000; -935.000
300.154;  159.875;  -19.000; -161.000
300.292;   68.275; -428.000; -348.000
300.430;   34.500; -408.000; -291.000
300.568;  -96.700; -940.000; -874.000
300.706;  -59.950; -366.000; -469.000
300.844;  -65.475;-1108.000; -979.000
300.982;  110.775;  246.000;  282.000
301.120; -105.200; -965.000; -866.000
301.258;  -71.350; -812.000; -705.000
301.396;   35.550;  104.000;  -41.000
301.534;   75.025; -218.000; -293.000
301.672;  -13.125; -664.000; -521.000
301.810;   26.175; -613.000; -545.000
301.948;  125.375;   53.000;  149.000
302.086;  655.975; -250.000;  -32.000
302.224;  966.800; -610.000; -585.000
302.362;   35.075; -558.000; -622.000
302.500;  -10.075; -923.000; -893.000
302.638;  112.400;  128.000;  245.000
302.776;   -7.825; -352.000; -408.000
302.913;   46.725;  447.000;  236.000
303.051;   -3.425;  -86.000;  -23.000
303.189;   46.900;   90.000;  118.000
303.327;  -30.225; -341.000; -256.000
303.465;  -77.550; -832.000; -588.000
303.603;  -90.775; -805.000; -604.000
303.740;  100.625;  417.000;  241.000
303.878;   17.475; -800.000; -759.000
304.016;  -94.175; -915.000; -790.000
304.154; -115.100;-1123.000;-1152.000
304.291;  -37.325; -505.000; -554.000
304.429;   13.225;  102.000;   74.000
304.567; -119.675; -908.000; -893.000
304.705;  -54.525; -408.000; -515.000
304.842;   95.425; -616.000; -540.000
304.980;   43.650;  215.000;   35.000
305.118;   50.100; -367.000; -365.000
305.255;  -79.075; -945.000; -927.000
305.393;   48.850;  178.000;  239.000
305.531;  -93.350;-1173.000; -956.000
305.668;  -80.050; -663.000; -582.000
305.806;  101.350; -358.000; -439.000
305.943;  114.350; -629.000; -637.000
306.081;   54.525; -378.000; -267.000
306.219; -103.475; -863.000; -748.000
306.356;    8.300;  158.000;   27.000
306.494;  124.725;  981.000;  761.000
306.631;   -7.025;  -11.000;  -55.000
306.769;   13.450; -613.000; -485.000
306.906;  -15.225; -284.000; -258.000
307.044;  -56.850; -473.000; -488.000
307.181;  -60.025; -410.000; -332.000
307.319;    6.150;  112.000;   87.000
307.456; -157.500;-1191.000;-1153.000
307.594; -102.975; -980.000; -727.000
307.731;  -16.650; -371.000; -164.000
307.868;   -0.450;  -15.000;   20.000
308.006; -141.125; -961.000; -847.000
308.143;  -64.725; -618.000; -330.000
308.281;  185.650;  -37.000; -254.000
308.418;   -3.900; -748.000; -640.000
308.555;  -68.850; -400.000; -250.000
308.693;  -76.425; -577.000; -573.000
308.830; -109.000; -712.000; -657.000
308.967;  -15.150; -215.000;  -95.000
309.105;  -42.475; -507.000; -396.000
309.242;   39.125; -468.000; -367.000
309.379;  355.950; -577.000; -655.000
309.517;  -49.000; -936.000; -948.000
309.654; -105.800; -910.000; -734.000
309.791;  -68.850; -662.000; -580.000
309.928; -113.250; -977.000; -914.000
310.065;  189.875;  819.000;  697.000
310.203;   -3.575; -825.000; -850.000
310.340;  -10.825; -465.000; -321.000
310.477;  -83.550; -412.000; -516.000
310.614;  -65.500; -383.000; -473.000
310.751;  -74.250; -427.000; -518.000
310.889;  -12.450;    1.000;   11.000
311.026; -156.750;-1161.000; -939.000
311.163;  -44.775; -386.000; -380.000
311.300;  -72.750; -512.000; -479.000
311.437;  -78.125; -658.000; -619.000
311.574; -151.275;-1226.000; -985.000
311.711;  -60.375; -595.000; -433.000
311.848;  -31.050; -380.000; -388.000
311.985;    8.100;  270.000;   93.000
312.122; -114.900; -932.000; -762.000
312.259; -111.475; -941.000; -994.000
312.396;  -74.850; -508.000; -551.000
312.533;  -87.375; -812.000; -790.000
312.670; -142.325;-1070.000; -898.000
312.807;  -32.100; -352.000; -367.000
312.944;  -70.400; -513.000; -611.000
313.081;  -47.925; -150.000; -415.000
313.218; -101.425;-1111.000; -867.000
313.355;   13.825; -531.000; -449.000
313.492;   11.275; -455.000; -292.000
313.629;  109.025;  815.000;  735.000
313.766; -158.375;-1176.000;-1008.000
313.902;  -25.000; -186.000;   21.000
314.039;  -50.550; -372.000; -289.000
314.176;   25.625;  286.000;  192.000
314.313;  -87.800; -569.000; -473.000
314.450;  -74.525; -788.000; -684.000
314.587;  -60.050; -468.000; -480.000
314.723;   15.425;  -78.000;  130.000
314.860;   27.675;  318.000;  332.000
314.997;   29.075;  223.000;  142.000
315.134;  -40.075; -385.000; -368.000
315.270;  -26.825; -480.000; -496.000
315.407; -117.150;-1094.000; -967.000
315.544;  -53.775; -657.000; -538.000
315.681;  -54.800; -681.000; -565.000
315.817;   27.600; -133.000; -176.000
315.954;    9.425; -613.000; -392.000
316.091; -125.400;-1045.000;-1023.000
316.227;  -28.125;  -71.000; -179.000
316.364;   -5.175;   23.000;    6.000
316.500;  -40.150; -113.000; -300.000
316.637;  -49.050; -181.000; -302.000
316.774;  -80.500; -625.000; -358.000
316.910;  -95.675; -598.000; -629.000
317.047;  -63.725; -487.000; -351.000
317.183;  -48.450; -435.000; -566.000
317.320;  -13.550; -367.000; -321.000
317.456;  -60.125; -733.000; -805.000
317.593;  -89.075; -598.000; -641.000
317.729;   -5.925;  168.000;  -67.000
317.866; -191.900;-1434.000;-1285.000
318.002;  -95.575; -708.000; -948.000
318.139;  -88.200; -883.000; -867.000
318.275; -106.100;-1003.000; -738.000
318.412;  -73.025; -517.000; -336.000
318.548;  -18.550; -751.000; -720.000
318.685;  -78.475; -985.000; -888.000
318.821;  -76.700; -762.000; -735.000
318.957;  -17.200;   34.000;  -23.000
319.094;   43.500;  297.000;  154.000
319.230;  -50.775; -756.000; -742.000
319.367;  127.100; -471.000; -520.000
319.503;   55.000; -538.000; -436.000
319.639;  -96.325; -877.000; -793.000
319.775;  -52.975; -750.000; -685.000
319.912;  -55.775; -424.000; -519.000
320.048;  -86.425;-1184.000;-1184.000
320.184;   82.750;   59.000;   70.000
320.321;  -67.125; -497.000; -467.000
320.457;   54.950;  475.000;  662.000
320.593;  -73.875; -375.000; -382.000
320.729;  -95.575; -732.000; -734.000
320.866;  -76.175; -577.000; -635.000
321.002;  -76.150; -759.000; -809.000
321.138;   -4.725; -135.000; -211.000
321.274;   66.500; -148.000; -115.000
321.410;  -15.450; -585.000; -353.000
321.546;  -16.650;-1011.000; -911.000
321.683;   39.025;  400.000;  185.000
321.819;    0.275;  -48.000; -117.000
321.955; -106.900; -743.000; -722.000
322.091;  -34.175; -585.000; -540.000
322.227;  -12.525; -382.000; -202.000
322.363;   -7.400; -320.000; -215.000
322.499;  -38.450; -343.000; -331.000
322.635;  165.500;  636.000;  443.000
322.771;   16.875; -139.000;   12.000
322.907;   79.475;  129.000;  327.000
323.043;  -20.000; -115.000; -206.000
323.179;  -35.275; -394.000; -363.000
323.315;   26.000; -401.000; -371.000
323.451;  100.875; -328.000; -236.000
323.587;   63.025;  -60.000;  -77.000
323.723;   24.350; -682.000; -601.000
323.859;  -22.075; -258.000;  -76.000
323.995;  -30.525; -467.000; -409.000
324.131; -125.850; -967.000; -892.000
324.267;  -47.075; -254.000; -276.000
324.402; -140.800; -960.000; -983.000
324.538;  -12.525; -279.000; -104.000
324.674;   12.525;  164.000;   77.000
324.810;  146.625;  226.000;  308.000
324.946;   11.650; -810.000; -658.000
325.082;  -68.150; -568.000; -475.000
325.217;   -6.650;  -62.000;   16.000
325.353; -108.150; -764.000; -659.000
325.489;  -71.875; -540.000; -506.000
325.625;  -75.025; -579.000; -525.000
325.760;   68.925;  517.000;  376.000
325.896;  -19.825; -515.000; -702.000
326.032;  -56.750; -403.000; -352.000
326.168;  -61.300; -462.000; -369.000
326.303;  -54.475; -352.000; -461.000
326.439;  -25.325; -336.000; -276.000
326.575;    1.000; -190.000;  -29.000
326.710;   -4.900; -156.000;  -30.000
326.846;   -7.350;  146.000;  103.000
326.982;  -94.050; -530.000; -548.000
327.117;  -69.900; -481.000; -442.000
327.253;  -94.350; -745.000; -742.000
327.388; -140.675;-1137.000;-1153.000
327.524;  -55.475; -811.000; -578.000
327.659;  -35.500;  -58.000;  -22.000
327.795;  -22.975;   69.000;   45.000
327.931;  -83.975; -723.000; -499.000
328.066;  -19.925; -417.000; -276.000
328.202;    1.425;   12.000; -129.000
328.337;   97.750;  957.000;  713.000
328.473;   31.175;  -12.000;  -74.000
328.608;  -21.225; -256.000; -267.000
328.743;  -75.325; -799.000; -664.000
328.879;   18.000;  214.000;  114.000
329.014;  -42.225; -102.000; -122.000
329.150;  -92.825; -358.000; -483.000
329.285;  -78.750; -465.000; -466.000
329.421;  -51.575; -548.000; -246.000
329.556;  -12.700;  -36.000;   85.000
329.691;  -97.075; -633.000; -615.000
329.827;  -79.525; -626.000; -480.000
329.962;  -44.000;  131.000; -301.000
330.097;  -87.400; -673.000; -585.000
330.233;  -50.300; -410.000; -223.000
330.368; -128.425; -839.000; -628.000
330.503;  -16.325;    3.000;   98.000
330.638;   10.150;  -93.000; -125.000
330.774;  -48.800; -609.000; -530.000
330.909;  -55.100; -434.000; -244.000
331.044;  -94.375; -714.000; -708.000
331.179; -175.450;-1217.000;-1109.000
331.315;   13.625;   77.000;   20.000
331.450;    8.100;  157.000;  285.000
331.585;  -96.650; -805.000; -706.000
331.720;  -88.025; -510.000; -460.000
331.855;  -14.925;  -35.000; -102.000
331.990;  234.800;   62.000;  138.000
332.126;  121.450; -110.000;   71.000
332.261;  -17.750; -379.000; -265.000
332.396;   -4.000; -135.000; -242.000
332.531;  -95.725;-1074.000;-1031.000
332.666;   26.875; -519.000; -363.000
332.801;  -99.500; -726.000; -807.000
332.936;  -28.600; -192.000; -122.000
333.071; -155.575; -870.000; -817.000
333.206;  -13.525;  307.000;  379.000
333.341;   35.975;  344.000;  418.000
333.476;  -82.925; -627.000; -623.000
333.611;  -37.000; -251.000; -173.000
333.746;  -36.225; -381.000; -464.000
333.881; -115.625; -973.000; -935.000
334.016; -126.825; -936.000; -917.000
334.151; -120.300; -746.000; -702.000
334.286;   14.125;  152.000;  186.000
334.421;  -25.025; -125.000; -178.000
334.556;  -75.250; -611.000; -567.000
334.690;  -80.700; -631.000; -577.000
334.825;   47.625;  381.000;   83.000
334.960;  -55.300; -285.000; -413.000
335.095;   12.275;  135.000;  -91.000
335.230; -102.525; -722.000; -738.000
335.365; -140.700;-1084.000; -990.000
335.499; -138.075;-1108.000;-1037.000
335.634;   13.475;    9.000;  534.000
335.769;  -95.200; -755.000; -720.000
335.904;  -57.325; -603.000; -561.000
336.038;  -49.600; -735.000; -657.000
336.173; -125.325;-1206.000;-1194.000
336.308;    4.225; -116.000; -189.000
336.443;   11.450; -544.000; -634.000
336.577;  -69.325; -936.000; -787.000
336.712;   55.600;   -4.000;  -12.000
336.847;  -49.200; -724.000; -607.000
336.981;   47.575; -272.000; -208.000
337.116;  277.725;  615.000;  501.000
337.250;  134.350; -434.000; -421.000
337.385;  248.650; -297.000; -208.000
337.520;   88.950; -632.000; -603.000
337.654;  -43.475; -215.000; -126.000
337.789; -131.000; -989.000; -933.000
337.923;  -29.600; -104.000; -205.000
338.058;  -89.775; -673.000; -738.000
338.192;  -22.500; -611.000; -488.000
338.327;  -19.750;  -18.000; -155.000
338.461;  -56.800; -299.000; -469.000
338.596; -104.300; -780.000; -638.000
338.730;  -87.950; -767.000; -803.000
338.865;   82.950;  -46.000; -140.000
338.999;  -50.575; -846.000; -702.000
339.134;  -24.275; -634.000; -536.000
339.268;   17.900; -741.000; -603.000
339.403;  369.300; -740.000; -775.000
339.537;  103.300; -894.000; -820.000
339.671; -122.075; -829.000; -813.000
339.806;  -57.200; -556.000; -512.000
339.940;   18.650; -261.000; -235.000
340.074; -100.575; -685.000; -510.000
340.209;  -48.000; -351.000; -230.000
340.343;  -83.425; -517.000; -573.000
340.477;  150.325;  998.000; 1036.000
340.612;  -58.475;-1033.000; -900.000
340.746;  130.050; -199.000; -243.000
340.880;  -60.300; -924.000; -785.000
341.014;  -19.600;  -45.000; -154.000
341.149; -106.050; -756.000; -718.000
341.283; -109.750; -839.000; -754.000
341.417;  -84.725;-1124.000; -938.000
341.551;  146.200; -768.000; -708.000
341.685;  -23.750; -633.000; -611.000
341.820;  -54.450; -562.000; -493.000
341.954;  -56.075; -218.000; -349.000
342.088; -139.025;-1102.000;-1019.000
342.222;   48.300;  565.000;  618.000
342.356;  -64.825; -395.000; -335.000
342.490;  -85.575; -880.000; -841.000
342.624;  -43.825; -339.000; -242.000
342.758;   -1.600; -364.000; -312.000
342.892;  -63.200; -710.000; -585.000
343.026;  -42.700;  -58.000; -116.000
343.160;  -68.850; -426.000; -376.000
343.294;  -84.825; -474.000; -337.000
343.428;  -23.050; -488.000; -448.000
343.562;   -7.775; -172.000;  -23.000
343.696;  -20.775; -385.000; -314.000
343.830;   -3.275; -362.000; -356.000
343.964;   11.275; -231.000; -168.000
344.098;  941.400;  199.000;   70.000
344.232;  784.650; -266.000; -127.000
344.366;  100.225; -567.000; -453.000
344.500;   58.050; -665.000; -744.000
344.634;   33.250; -324.000; -164.000
344.768;   -5.925; -531.000; -341.000
344.902;   19.975;  278.000;  256.000
345.035;  -80.425; -556.000; -496.000
345.169; -121.550; -933.000; -656.000
345.303;  -41.250; -308.000; -482.000
345.437;  -74.850; -826.000; -717.000
345.571;  -66.475; -675.000; -594.000
345.704;  -64.875; -309.000; -532.000
345.838;  -19.575; -331.000; -284.000
345.972;  -24.075; -543.000; -495.000
346.106;  171.000; -179.000; -190.000
346.239;  424.175; -312.000; -243.000
346.373;    2.750; -343.000; -302.000
346.507; -138.025; -950.000; -962.000
346.640;  147.500;  -30.000;   13.000
346.774;  -51.025; -650.000; -797.000
346.908;  -20.350; -138.000;  -11.000
347.041;  -89.075; -646.000; -593.000
347.175;    3.075;  259.000;   27.000
347.309;  -66.350; -698.000; -628.000
347.442; -100.600; -883.000; -732.000
347.576;  278.800;  670.000;  668.000
347.709;  196.450; -123.000;  -52.000
347.843;  -87.175; -933.000; -825.000
347.976;   28.425;  235.000;  294.000
348.110; -177.975;-1268.000;-1186.000
348.243;  -91.275; -679.000; -772.000
348.377;  -10.425;  -26.000;   60.000
348.510;   39.025;  403.000;  540.000
348.644;  -29.225;  -37.000; -159.000
348.777;    6.825;  180.000;  191.000
348.911;  -38.250; -142.000; -112.000
349.044;  183.575;  471.000;  448.000
349.178;  182.100;-1069.000;-1006.000
349.311;  120.425;  141.000;  255.000
349.444;    5.075; -927.000; -813.000
349.578;  -29.325; -347.000; -200.000
349.711;  -98.575; -959.000; -862.000
349.845;   -7.425; -661.000; -591.000
349.978; -151.025;-1224.000;-1137.000
350.111;  -85.250; -546.000; -612.000
350.244;  -67.850; -596.000; -700.000
350.378;    6.225; -392.000; -393.000
350.511;  -69.275; -393.000; -426.000
350.644; -101.250; -808.000; -806.000
350.778;   -1.025;  168.000;  104.000
350.911;   -0.275;  134.000;  140.000
351.044; -102.275; -685.000; -615.000
351.177;  -39.550; -321.000; -281.000
351.310;   -8.600;    3.000; -131.000
351.444;  -82.850; -888.000; -788.000
351.577;  111.150;  140.000;   90.000
351.710;   95.850;  593.000;  417.000
351.843;  -37.175; -165.000;  -77.000
351.976;   -5.100;  149.000;  -79.000
352.109;  -84.475; -621.000; -612.000
352.242;  -25.075; -464.000; -419.000
352.376;  -59.750; -580.000; -636.000
352.509;  171.575; -437.000; -356.000
352.642;   26.600; -654.000; -604.000
352.775;   64.000; -141.000;  -98.000
352.908; -118.550; -933.000; -904.000
353.041; -102.875; -814.000; -824.000
353.174;  -60.575; -551.000; -424.000
353.307;  -90.200; -753.000; -764.000
353.440;   62.875;  541.000;  453.000
353.573; -107.850; -957.000;-1008.000
353.706;  -51.700; -384.000; -558.000
353.839;  -15.650; -264.000; -220.000
353.971; -101.125; -657.000; -512.000
354.104;  -81.625; -896.000; -835.000
354.237;  -39.125; -627.000; -662.000
354.370;  -81.525; -846.000; -879.000
354.503; -173.600;-1231.000;-1308.000
354.636;  -33.950; -529.000; -348.000
354.769; -126.425; -937.000; -860.000
354.902;   -7.550; -230.000; -139.000
355.034;   -9.725; -164.000; -220.000
355.167;  -16.800; -262.000; -162.000
355.300; -100.500;-1061.000; -880.000
355.433;  989.850;  -71.000;  -14.000
355.565; 1556.775; -402.000; -384.000
355.698;  386.750; -356.000; -296.000
355.831;   -2.225; -882.000; -801.000
355.964;   73.925; -285.000; -170.000
356.096;  -86.125; -856.000; -843.000
356.229;   -0.800; -523.000; -530.000
356.362;  300.900; -373.000; -266.000
356.494;  604.525; -229.000; -162.000
356.627;  498.900;  269.000;  377.000
356.760;  677.525;  120.000;   53.000
356.892;  966.775; -286.000; -601.000
357.025;  676.125;  403.000;  389.000
357.157;  631.125; -167.000; -179.000
357.290;  657.200; -856.000; -713.000
357.423;  198.425; -667.000; -556.000
357.555;  110.325; -217.000; -228.000
357.688;  136.100; -483.000; -364.000
357.820;  465.050; -870.000; -877.000
357.953; 3798.725; -563.000; -589.000
358.085;  848.025; -632.000; -612.000
358.218; 1196.800;-1131.000; -932.000
358.350;  204.125;  -58.000;  312.000
358.483; -124.025;-1300.000;-1187.000
358.615;   -1.300;-1182.000;-1078.000
358.747;  -52.825;-1187.000;-1058.000
358.880;   25.850; -810.000; -744.000
359.012;    0.675; -376.000; -202.000
359.145;  -37.675; -480.000; -511.000
359.277;   77.775; -962.000; -913.000
359.409; 3127.850;  536.000;  231.000
359.542;  858.800; -738.000; -688.000
359.674;   65.675;   46.000;   13.000
359.806;  -54.400; -565.000; -438.000
359.939;  -41.425; -617.000; -516.000
360.071;   -5.650; -583.000; -579.000
360.203;  -27.925; -411.000; -364.000
360.335;   64.000;  164.000;  -16.000
360.468;  196.950; -249.000; -307.000
360.600; 2493.950; -547.000; -454.000
360.732; 2881.325; -546.000; -423.000
360.864;  422.800;-1216.000;-1044.000
360.996;  286.325; -516.000; -554.000
361.129;   68.800; -389.000; -598.000
361.261;   12.800;  110.000; -113.000
361.393;  -36.700; -252.000; -214.000
361.525;   16.600;   94.000;  244.000
361.657;  -29.700; -821.000; -703.000
361.789;   11.025; -139.000; -155.000
361.921;  236.275; -642.000; -593.000
362.053;  272.050;  524.000;  541.000
362.185;   55.075;  288.000;   72.000
362.318;  -87.225; -709.000; -705.000
362.450;  116.075;  294.000;  444.000
362.582;  108.700; -913.000; -870.000
362.714;  -36.900; -353.000; -332.000
362.846;  -79.575; -606.000; -490.000
362.978; -133.225; -941.000; -811.000
363.109;   60.375; -161.000; -260.000
363.241;  460.225; -739.000; -749.000
363.373;  441.150; -649.000; -564.000
363.505;  677.975; -186.000;  -91.000
363.637;  159.925; -787.000; -601.000
363.769; -109.300;-1067.000;-1080.000
363.901;  -66.875; -596.000; -654.000
364.033; -119.075;-1103.000;-1062.000
364.165;   -0.300; -283.000; -283.000
364.296;   63.725; -316.000; -177.000
364.428;   77.600;-1344.000;-1220.000
364.560;  -49.550; -679.000; -661.000
364.692;  -50.625; -738.000; -835.000
364.824;  272.875; -588.000; -456.000
364.955;  450.500; -402.000; -564.000
365.087;  952.550;-1097.000; -852.000
365.219;   35.250; -686.000; -816.000
365.351;  -60.725; -526.000; -572.000
365.482;   41.925;  300.000;  240.000
365.614;  -58.825; -402.000; -314.000
365.746; -101.450; -729.000; -752.000
365.877; -107.175; -706.000; -672.000
366.009;  253.225;  -35.000;  -62.000
366.141;  -77.100;-1249.000;-1134.000
366.272; -109.275; -803.000; -719.000
366.404; -111.300;-1005.000; -874.000
366.535;   -1.000; -139.000;  -12.000
366.667; -102.000; -644.000; -649.000
366.799;   31.200;  353.000;  203.000
366.930; -112.500; -862.000; -996.000
367.062;  126.050; -639.000; -613.000
367.193;  154.550; -872.000; -842.000
367.325;  -50.225; -580.000; -684.000
367.456;   60.100; -246.000;   31.000
367.588;  159.650; -371.000; -318.000
367.719;   26.825;  -44.000;  -45.000
367.851;  -15.900; -222.000; -241.000
367.982;  -42.125; -875.000; -732.000
368.113;  102.325; -475.000; -358.000
368.245; -125.375; -960.000; -841.000
368.376;  -15.275; -254.000; -302.000
368.508;  -33.875; -188.000; -263.000
368.639; -137.575;-1166.000;-1034.000
368.770;  -17.800; -670.000; -589.000
368.902;  -48.300; -836.000; -926.000
369.033; -101.000; -906.000; -855.000
369.164;  -56.900; -720.000; -653.000
369.296; -122.275; -452.000; -601.000
369.427;    8.750; -209.000; -144.000
369.558;  -51.225; -593.000; -377.000
369.689;  -81.850; -721.000; -569.000
369.821; -134.050; -951.000; -845.000
369.952;  -25.050;   42.000; -108.000
370.083;  -48.500; -229.000; -108.000
370.214;  -85.925; -735.000; -650.000
370.345;    6.250;   65.000;   81.000
370.477;  -97.400; -810.000; -790.000
370.608;  225.050; -328.000; -264.000
370.739;  -30.700;-1233.000;-1292.000
370.870;  -34.825;-1102.000; -923.000
371.001;  103.000; -378.000; -467.000
371.132;  -61.825; -754.000; -735.000
371.263;  -15.350;  -42.000; -148.000
371.394; -135.650; -841.000; -748.000
371.525;   22.800;  345.000;  225.000
371.657;  -89.575; -808.000; -670.000
371.788;   62.225;  103.000;  199.000
371.919;  190.775; -384.000; -304.000
372.050; 3723.100;  -91.000; -156.000
372.181; 1151.425; -188.000; -294.000
372.311;  391.350;   42.000; -127.000
372.442;   39.125; -457.000; -451.000
372.573;  -31.475; -444.000; -340.000
372.704; -124.900;-1008.000; -980.000
372.835;   86.625; -228.000; -289.000
372.966;  -63.400; -646.000; -554.000
373.097;  -58.625; -575.000; -711.000
373.228;  -32.650; -717.000; -542.000
373.359;  137.600; -824.000; -536.000
373.490;  958.475; -881.000; -727.000
373.620; 1242.300;-1001.000; -803.000
373.751; 1812.775; -332.000; -396.000
373.882;  845.250; -663.000; -733.000
374.013;   68.675; -449.000; -262.000
374.143;  -45.025; -581.000; -659.000
374.274;  -95.450; -987.000; -908.000
374.405;  194.425; -388.000; -276.000
374.536;  445.575; -526.000; -387.000
374.666; 1167.775; -759.000; -807.000
374.797;  246.325; -817.000; -868.000
374.928;  891.725; -710.000; -560.000
375.058;  936.700; -535.000; -500.000
375.189;   91.125;  -59.000;  -93.000
375.320;  -91.225; -928.000;-1034.000
375.450;  -43.550; -625.000; -616.000
375.581;  -46.700; -526.000; -436.000
375.712;  -41.850; -574.000; -250.000
375.842;  297.175; -438.000; -415.000
375.973;  242.275; -554.000; -513.000
376.103;  -50.175; -665.000; -648.000
376.234;  -80.850; -531.000; -552.000
376.364;  -24.700; -944.000; -867.000
376.495;  323.000;  925.000;  529.000
376.625;    6.575; -472.000; -485.000
376.756;   60.075; -709.000; -678.000
376.886;  -83.725;-1178.000;-1026.000
377.017;   56.600;-1048.000;-1061.000
377.147;  356.950; -786.000; -782.000
377.278;   58.950;  174.000;  228.000
377.408; -135.600; -801.000; -815.000
377.538;  -99.125; -707.000; -693.000
377.669;  -78.050; -537.000; -613.000
377.799;  -77.350; -645.000; -635.000
377.929;  -66.425; -610.000; -428.000
378.060; -127.200; -781.000; -847.000
378.190;  -56.700; -726.000; -531.000
378.320;  -45.800; -401.000; -406.000
378.451;  -32.425; -131.000;  -22.000
378.581;    1.825;  -67.000; -110.000
378.711;  146.075; 1035.000;  866.000
378.841;   -6.525; -533.000; -675.000
378.972;  -56.875; -871.000; -751.000
379.102;   -8.175; -652.000; -579.000
379.232;  -18.625; -126.000;  -73.000
379.362;  -99.725;-1001.000; -885.000
379.492;    6.575; -373.000; -424.000
379.623;  110.825;    0.000;  111.000
379.753;  -92.675;-1107.000; -974.000
379.883;  191.875;   59.000;  156.000
380.013;   24.075;-1081.000;-1017.000
380.143;  -90.125;-1097.000;-1056.000
380.273;  -93.100; -985.000; -861.000
380.403;   -2.475; -344.000; -257.000
380.533;  -19.950; -651.000; -664.000
380.663;   65.500;  173.000;  128.000
380.793;  -83.050;-1027.000;-1074.000
380.923;  -28.300; -103.000;  -34.000
381.053;  -95.150; -613.000; -623.000
381.183;  -26.925; -106.000; -248.000
381.313;   48.875; -656.000; -470.000
381.443;   43.375; -692.000; -473.000
381.573;  205.575; -402.000; -409.000
381.703;  301.100;-1249.000;-1095.000
381.833; -119.200;-1454.000;-1336.000
381.963;  105.700; -134.000;  -87.000
382.093; 1475.400; -925.000; -909.000
382.223;  468.150; -713.000; -602.000
382.353;  -17.850; -801.000; -608.000
382.482;  394.950;-1091.000; -964.000
382.612;  814.650; -872.000; -644.000
382.742;  474.850; -695.000; -622.000
382.872;  270.750; -565.000; -551.000
383.002;   72.350;  347.000; -132.000
383.131;  -14.025; -226.000; -160.000
383.261;  -44.100; -706.000; -768.000
383.391;  286.325; -552.000; -377.000
383.521; 3207.950;  451.000;  263.000
383.650;  830.075; -947.000; -904.000
383.780;   -6.800; -783.000; -656.000
383.910;  100.450;  880.000;  802.000
384.039;   36.825; -794.000; -656.000
384.169;  233.525;-1205.000;-1017.000
384.299;  -12.575; -650.000; -662.000
384.428;  -80.000; -764.000; -680.000
384.558;  -52.075; -308.000; -275.000
384.687;  -49.675; -414.000; -334.000
384.817;   17.675;   75.000;   -2.000
384.947;   13.100; -234.000; -141.000
385.076;  295.650;  982.000;  912.000
385.206;  104.650;  369.000;  480.000
385.335;  -31.900; -549.000; -417.000
385.465;  -68.300; -655.000; -663.000
385.594;  136.250;  -53.000;  -44.000
385.724;  441.850; -868.000; -838.000
385.853;  120.200; -296.000; -270.000
385.982; 1371.625; -743.000; -787.000
386.112; 2263.450;-1052.000; -871.000
386.241;  165.075; -307.000; -312.000
386.371;   32.375; -174.000;  -87.000
386.500;   14.325; -825.000; -789.000
386.629;   28.475; -874.000; -817.000
386.759;   72.250;  -43.000;   68.000
386.888;   -3.500; -170.000; -250.000
387.017;  -81.025; -648.000; -620.000
387.147;  -88.825; -771.000; -798.000
387.276;   -5.225; -410.000; -397.000
387.405;   13.900; -398.000; -342.000
387.535;  -23.200; -452.000; -361.000
387.664;  -65.875; -692.000; -620.000
387.793;   68.675; -198.000; -113.000
387.922;  513.325;  255.000;  200.000
388.052;   31.075; -576.000; -423.000
388.181;   -1.300; -342.000; -472.000
388.310;   -8.000; -889.000; -710.000
388.439;  -38.150; -749.000; -742.000
388.568;  196.250;  365.000;  244.000
388.697; 1072.400; -756.000; -653.000
388.826;  231.775; -768.000; -666.000
388.956;   54.450; -285.000; -307.000
389.085;  -35.925; -347.000; -287.000
389.214; -109.350; -842.000; -872.000
389.343;  -67.525; -645.000; -413.000
389.472;  387.100;  126.000;  149.000
389.601;  540.675;   91.000;    0.000
389.730;   26.775; -568.000; -687.000
389.859;   78.450;  226.000;   46.000
389.988;  182.675; -423.000; -408.000
390.117;  147.575; -168.000; -146.000
390.246;  -17.225; -331.000; -320.000
390.375;  121.825; -673.000; -626.000
390.504;  -52.900; -703.000; -621.000
390.633; -104.625; -672.000; -726.000
390.761;  -78.125; -732.000; -645.000
390.890;   14.900;   -4.000; -130.000
391.019;  -34.175; -421.000; -441.000
391.148; -124.725; -826.000; -855.000
391.277;  -54.175; -576.000; -493.000
391.406;  -86.800; -821.000; -805.000
391.534;    5.250;  574.000; -301.000
391.663;  -70.375; -583.000; -645.000
391.792;  -83.650; -673.000; -701.000
391.921;   90.525;   -3.000;   15.000
392.050;  169.925; -287.000; -228.000
392.178;  -23.625;-1206.000;-1061.000
392.307;  155.725; -758.000; -712.000
392.436;   85.675; -427.000; -641.000
392.564;   24.550;  166.000;   -6.000
392.693;  -97.300; -860.000; -682.000
392.822;  211.150; -529.000; -534.000
392.950;   91.300; -880.000; -714.000
393.079;  328.175; -188.000; -328.000
393.208;   36.550; -488.000; -511.000
393.336;  -14.575; -170.000; -145.000
393.465;  -48.600; -317.000; -199.000
393.593;   -0.900;   62.000;   79.000
393.722; -145.200;-1121.000; -916.000
393.850;  -46.850; -188.000;  -61.000
393.979; -143.900; -926.000; -805.000
394.107;  -64.625; -517.000; -537.000
394.236;  -19.175; -570.000; -507.000
394.364;  211.125;  383.000;  206.000
394.493;  400.300; -911.000; -767.000
394.621;    7.350; -955.000; -916.000
394.750;  711.775; -873.000; -923.000
394.878; 2928.700; -247.000; -149.000
395.007; 4183.425; -721.000; -807.000
395.135;  336.200; -790.000; -721.000
395.263;  -79.250;-1038.000;-1040.000
395.392;   -0.575;  -25.000; -107.000
395.520; -146.275; -818.000; -679.000
395.648;  -88.875; -865.000; -915.000
395.777;  -20.750; -366.000; -405.000
395.905;  -49.975; -449.000; -564.000
396.033;    8.400;  217.000;  172.000
396.162;  628.275; -399.000; -453.000
396.290;  599.675;  -17.000;   -2.000
396.418;  121.000; -555.000; -514.000
396.546;  -64.675; -571.000; -466.000
396.674;  -99.050; -850.000; -878.000
396.803;   22.400;  -72.000;  -23.000
396.931;   76.275; -179.000; -199.000
397.059;   69.625;-1026.000; -989.000
397.187; -100.675;-1026.000; -975.000
397.315; -130.175; -884.000; -649.000
397.443;  -89.825; -592.000; -443.000
397.572;  -93.000; -578.000; -424.000
397.700;   -4.850; -607.000; -614.000
397.828;   11.825;  120.000;  -90.000
397.956;  -48.575; -508.000; -478.000
398.084;  -62.950; -767.000; -626.000
398.212;   28.600;  137.000;  124.000
398.340;    3.875;  -56.000;  159.000
398.468;   46.775; -390.000; -169.000
398.596; -133.475; -993.000; -953.000
398.724; -117.250; -762.000; -767.000
398.852; -163.275;-1024.000; -976.000
398.980;  -79.825; -560.000; -560.000
399.108;  -38.150; -982.000; -735.000
399.236;   31.350;   13.000;    8.000
399.363;   21.550;  222.000;  196.000
399.491;  -62.775; -404.000; -398.000
399.619; -120.350; -829.000; -800.000
399.747; -103.750; -859.000; -771.000
399.875;   90.075;  220.000;  234.000
400.003;  -47.025; -359.000; -284.000
400.130;  -84.700; -421.000; -341.000
400.258;  -38.450;  -83.000;   38.000
400.386;  -73.425; -352.000; -168.000
400.514;  -43.575; -526.000; -587.000
400.641;  -70.300; -928.000; -802.000
400.769; -141.225; -979.000; -888.000
400.897; -108.150; -838.000; -793.000
401.025;   -8.875; -166.000; -152.000
401.152;   -2.350;  220.000;   38.000
401.280;  -85.075; -430.000; -429.000
401.408; -117.425; -712.000; -576.000
401.535;  -91.925; -735.000; -758.000
401.663; -179.950;-1134.000;-1054.000
401.790;  -89.350; -514.000; -525.000
401.918;   42.000;  436.000;  405.000
402.046;  -28.575;  134.000;  122.000
402.173;  -35.275;  -18.000;    7.000
402.301;  -68.775; -519.000; -397.000
402.428;   41.900;  528.000;  383.000
402.556; -149.550;-1188.000; -913.000
402.683;  -32.750;  -20.000;   -1.000
402.811;  -24.875;  -37.000; -206.000
402.938;  -18.850;   20.000;   27.000
403.066;  190.875; -574.000; -558.000
403.193;  357.300;  299.000;  239.000
403.321;  261.975; -396.000; -574.000
403.448;  347.450;   83.000;   27.000
403.575;  161.500;  -90.000;  -46.000
403.703;  -89.925; -732.000; -557.000
403.830;  -54.075; -531.000; -496.000
403.957; -145.475;-1117.000;-1023.000
404.085;    7.025;  -61.000; -172.000
404.212;  116.400;  -50.000;   63.000
404.339;  271.575; -566.000; -306.000
404.467; 5773.375; -612.000; -524.000
404.594; 4053.925; -287.000; -227.000
404.721;  966.725; -869.000; -764.000
404.848;   96.075; -113.000; -202.000
404.976; -103.425; -856.000; -783.000
405.103;  -17.925;  -14.000;  -82.000
405.230;   -9.175;  190.000;  226.000
405.357;   14.975;  117.000;   44.000
405.484;  275.725;  -49.000;    5.000
405.612;   45.975; -548.000; -563.000
405.739;  -61.300; -488.000; -243.000
405.866;   90.425;  669.000;  385.000
405.993;  -55.525; -398.000; -102.000
406.120; -129.425; -801.000; -887.000
406.247;  -52.075; -323.000; -342.000
406.374;  421.550;  540.000;  629.000
406.501;  139.100; -632.000; -702.000
406.628;  -76.325; -621.000; -589.000
406.755;  -96.775; -803.000; -620.000
406.882;  -43.100; -228.000; -277.000
407.009; -100.575; -719.000; -628.000
407.136;   48.600; -480.000; -401.000
407.263;  161.800; -939.000; -829.000
407.390;  -68.775; -692.000; -614.000
407.517; -157.950;-1139.000;-1187.000
407.644;  -67.900; -332.000; -256.000
407.771;  -65.050; -249.000; -287.000
407.898;   -7.600;  168.000;  328.000
408.025;  -74.100; -421.000; -313.000
408.151;  -13.550;   82.000;  153.000
408.278;  -70.450; -267.000; -216.000
408.405; -113.250; -931.000; -899.000
408.532;  -58.925; -549.000; -542.000
408.659; -110.150; -677.000; -648.000
408.785; -197.700;-1298.000;-1170.000
408.912;  -65.225; -412.000; -296.000
409.039; -115.700; -610.000; -686.000
409.166;  -98.825; -591.000; -555.000
409.292; -102.875; -571.000; -534.000
409.419; -107.900; -665.000; -649.000
409.546;  -80.625; -431.000; -192.000
409.672; -118.800; -713.000; -545.000
409.799;  -20.250;  -36.000;   34.000
409.926;  -41.225; -180.000; -179.000
410.052; -172.150;-1127.000;-1091.000
410.179;  -69.000; -368.000; -392.000
410.305;  -91.250; -375.000; -493.000
410.432;  -43.350; -220.000; -333.000
410.558;  -73.625; -305.000; -380.000
410.685; -114.700; -688.000; -431.000
410.812;  -83.300; -409.000; -588.000
410.938; -130.250; -964.000; -808.000
411.065;  -83.750; -671.000; -645.000
411.191;  -24.600; -189.000; -174.000
411.317; -117.275; -823.000; -742.000
411.444;  -63.800; -317.000; -246.000
411.570;  -67.800; -339.000; -294.000
411.697; -122.950; -758.000; -752.000
411.823; -174.300; -989.000; -999.000
411.949;  -30.525;  -56.000;   17.000
412.076; -118.650; -539.000; -519.000
412.202; -124.450; -758.000; -757.000
412.329; -121.150; -798.000; -752.000
412.455; -116.325; -821.000; -657.000
412.581;  -19.400;  -15.000;  172.000
412.707;  -64.500; -540.000; -457.000
412.834;   23.550;  156.000;  219.000
412.960;  -80.050; -785.000; -784.000
413.086;  -95.375; -743.000; -701.000
413.212;  145.250;  604.000;  578.000
413.339;  -48.925; -685.000; -701.000
413.465;   17.700; -364.000; -310.000
413.591;  -88.900; -757.000; -474.000
413.717;  -43.575; -358.000; -366.000
413.843; -133.800; -839.000; -861.000
413.969;  -59.400;  -47.000; -292.000
414.096; -107.425; -679.000; -679.000
414.222;   -1.550;  -33.000;   85.000
414.348;  -26.950; -652.000; -385.000
414.474;  102.225;   38.000;  -52.000
414.600;  -17.400; -126.000; -144.000
414.726;   -1.275;  -96.000;  -55.000
414.852;  -65.450; -365.000; -342.000
414.978;   28.850;  104.000;  -18.000
415.104;   47.225;   38.000;   80.000
415.230;   21.525; -329.000; -330.000
415.356;   44.850; -409.000; -514.000
415.482;  213.450;   13.000;  -35.000
415.608;  276.975; -247.000; -323.000
415.734;  954.700;   67.000;   38.000
415.860;19948.775; -875.000; -767.000
415.986;15623.900; -685.000; -607.000
416.111; 1386.225; -798.000; -652.000
416.237;  273.625; -424.000; -571.000
416.363; 1088.150; -765.000; -733.000
416.489; 4353.750; -324.000; -251.000
416.615;  500.050; -707.000; -742.000
416.741;  -10.750; -677.000; -784.000
416.866;  -84.600; -673.000; -736.000
416.992; -117.300; -801.000; -818.000
417.118;  -14.950;  -41.000;  -80.000
417.244;  -58.300; -798.000; -531.000
417.369;  -69.550; -801.000; -612.000
417.495;  -13.875; -325.000; -254.000
417.621;  -79.525;-1015.000; -803.000
417.746;   17.500; -579.000; -572.000
417.872;   33.750; -254.000; -144.000
417.998;   45.275; -515.000; -530.000
418.123; 1014.500;-1073.000; -845.000
418.249; 5581.875; -512.000; -601.000
418.374;  863.600; -916.000; -824.000
418.500;  115.550; -383.000; -482.000
418.626;  110.875;   70.000;  -59.000
418.751;  137.925; -549.000; -448.000
418.877;  207.175; -637.000; -643.000
419.002; 1715.350; -688.000; -560.000
419.128;12916.850; -930.000; -721.000
419.253; 3425.625; -967.000; -837.000
419.379;  456.775; -391.000; -338.000
419.504;  391.000;  325.000;  415.000
419.629;  524.550; -393.000; -212.000
419.755; 3428.800; -317.000; -254.000
419.880;21521.850;  -98.000;   67.000
420.006;11675.850; -280.000; -221.000
420.131;30697.100; -662.000; -775.000
420.256; 4751.725; -315.000; -316.000
420.382;  636.175; -665.000; -687.000
420.507;   76.700; -649.000; -778.000
420.632;  135.825; -337.000; -339.000
420.758;  256.200; -251.000; -425.000
420.883;  -82.550; -876.000; -672.000
421.008;  -97.925; -775.000; -619.000
421.133;  -81.625; -509.000; -467.000
421.259;  -60.650; -325.000; -259.000
421.384; -122.650; -834.000; -693.000
421.509;  -52.675;-1052.000; -862.000
421.634; 1129.575; -936.000; -820.000
421.759;  535.375; -359.000; -327.000
421.885;  -45.825; -717.000; -656.000
422.010;  -61.200; -673.000; -542.000
422.135; -148.975; -695.000; -727.000
422.260;   39.250;  340.000;  280.000
422.385;  -19.775;   12.000;  -98.000
422.510;   16.325;  151.000;  -26.000
422.635;    3.150;  -87.000;  -43.000
422.760;  117.050; -766.000; -791.000
422.885;   60.350;  -57.000;  -80.000
423.010;  -35.575; -112.000; -169.000
423.135;  -94.075; -481.000; -561.000
423.260;  -24.700; -150.000; -245.000
423.385;   56.950;  476.000;  222.000
423.510;   24.875;   71.000;  -22.000
423.635;   76.750;  133.000;   45.000
423.760;   67.800;  383.000;  328.000
423.885;   41.875;  336.000;  391.000
424.010;   15.800;  -68.000;  -13.000
424.135;  -20.375;    5.000;  -33.000
424.259;  -94.400; -654.000; -457.000
424.384;  -61.225; -279.000; -272.000
424.509;  -23.775; -260.000; -186.000
424.634; -102.100; -761.000; -623.000
424.759;  -35.225; -688.000; -544.000
424.883;    1.750; -506.000; -527.000
425.008;  161.825; -502.000; -410.000
425.133; 2039.475; -679.000; -653.000
425.258; 1026.200; -517.000; -381.000
425.382; 1002.250; -867.000; -774.000
425.507; 2737.025; -487.000; -543.000
425.632;  489.975; -802.000; -663.000
425.756;  467.375; -256.000; -146.000
425.881; 6271.075; -831.000; -857.000
426.006;18281.950; -604.000; -355.000
426.130; 3125.975; -696.000; -508.000
426.255;  375.800; -611.000; -491.000
426.379;  167.800; -189.000; -577.000
426.504;  352.800;  660.000;  544.000
426.629; 4007.900; -519.000; -466.000
426.753; 3028.750;   64.000;  -46.000
426.878;  355.125; -252.000; -288.000
427.002;  156.125; -651.000; -668.000
427.127; 1530.675;  -35.000; -158.000
427.251;11548.850;  372.000;  401.000
427.375; 3656.350; -191.000; -173.000
427.500; 2323.750; -616.000; -610.000
427.624;  873.925; -234.000; -400.000
427.749;  100.325; -216.000; -225.000
427.873;  -25.000; -499.000; -412.000
427.997;  -42.350; -222.000; -230.000
428.122;   70.025;  795.000;  703.000
428.246;   66.050;  433.000;  434.000
428.371; -122.125; -869.000; -773.000
428.495; -108.175; -624.000; -646.000
428.619;  -27.250; -186.000; -117.000
428.743;   27.475;   65.000;  132.000
428.868;    4.400; -732.000; -643.000
428.992; 1411.875; -219.000; -326.000
429.116;  616.900; -329.000; -357.000
429.240;  274.675;  419.000;  426.000
429.365;   -3.700; -454.000; -574.000
429.489;  -43.950; -638.000; -647.000
429.613;   22.625; -236.000; -177.000
429.737;   46.175; -563.000; -432.000
429.861;  266.025; -247.000; -133.000
429.985; 5493.975; -425.000; -305.000
430.109; 6544.925; -770.000; -908.000
430.234;  792.175;   76.000;  -50.000
430.358;   84.875; -250.000; -160.000
430.482;  -62.625; -672.000; -564.000
430.606;  -53.300; -655.000; -375.000
430.730;   13.975; -437.000; -388.000
430.854;  133.300; -909.000; -835.000
430.978;  -75.150; -795.000; -764.000
431.102;  -83.825; -499.000; -422.000
431.226; -118.200; -874.000; -815.000
431.350;   25.100;  345.000;  422.000
431.474;  -71.200; -661.000; -373.000
431.597; -138.125;-1060.000; -848.000
431.721;  -92.075; -276.000; -267.000
431.845; -122.925; -704.000; -472.000
431.969;  -80.325; -304.000; -349.000
432.093; -101.875; -395.000; -317.000
432.217;  -10.100;   32.000;   82.000
432.341;  -87.800; -523.000; -518.000
432.464;   -3.025;   96.000;   40.000
432.588;  206.875; -401.000; -329.000
432.712;  109.000;  -52.000;  -52.000
432.836;   53.000;  213.000;  263.000
432.959;  -10.150; -372.000; -311.000
433.083;   79.100;   11.000;    2.000
433.207;  387.000;  285.000;  930.000
433.330; 4936.275; -391.000; -200.000
433.454; 6592.300; -654.000; -638.000
433.578; 3751.425;  583.000;  278.000
433.701;  764.150; -623.000; -675.000
433.825;  173.750; -292.000; -299.000
433.949;  170.400;   28.000;  -72.000
434.072;   74.600; -410.000; -323.000
434.196;   -8.225; -309.000; -117.000
434.319; 3577.775;25482.000;25124.000
434.443;  704.875; -656.000; -603.000
434.566; 2760.375;  281.000;   62.000
434.690;  529.100; -637.000; -383.000
434.813;   60.350; -251.000; -173.000
434.937;  -74.025; -569.000; -696.000
435.060;  -45.725; -423.000; -332.000
435.184;  286.600; -492.000; -217.000
435.307;  195.075;  159.000;  102.000
435.431;  -13.750;  -40.000;   24.000
435.554;  -80.825; -399.000; -240.000
435.677;  -86.175; -350.000; -258.000
435.801;  -39.650;  -25.000;   49.000
435.924;  -23.450;    1.000;  -67.000
436.048; -106.525;-1019.000; -732.000
436.171;  -75.050; -240.000;  -66.000
436.294;  -36.425; -248.000; -229.000
436.417;   93.525; -963.000; -849.000
436.541;  -71.400; -814.000; -840.000
436.664;  -61.525; -242.000; -316.000
436.787;  -21.350;   13.000;  113.000
436.910; -114.425; -792.000; -422.000
437.034;  -11.275;  142.000;  143.000
437.157;   40.975;  -11.000;    0.000
437.280;  -50.350; -392.000; -292.000
437.403;  -85.725; -982.000; -869.000
437.526;  555.925; -903.000; -865.000
437.649; 2255.950; -505.000; -332.000
437.772;  363.375; -692.000; -540.000
437.896;  119.400;  700.000;  544.000
438.019; -100.550; -758.000; -503.000
438.142;  -90.225; -596.000; -506.000
438.265;  -21.525; -639.000; -670.000
438.388;  557.650; -520.000; -410.000
438.511;  111.550; -597.000; -394.000
438.634;  -37.175; -247.000; -125.000
438.757; -131.400; -693.000; -619.000
438.880;  -24.700;  -34.000;  -57.000
439.003;  -75.775; -417.000; -437.000
439.126;  -62.600; -287.000; -167.000
439.248;  -67.050;  -98.000; -139.000
439.371;  -60.300;    9.000;  -53.000
439.494;   20.825;  510.000;  439.000
439.617;  -54.275;   65.000;  -88.000
439.740; -179.150; -968.000; -816.000
439.863; -140.275; -755.000; -595.000
439.986; -122.425; -476.000; -431.000
440.108;  -46.600; -161.000; -112.000
440.231; -162.750; -950.000; -836.000
440.354;  -42.650;  -64.000; -150.000
440.477;   35.150; -566.000; -542.000
440.599;    5.225; -200.000; -225.000
440.722; -124.000; -709.000; -586.000
440.845;   64.750;  751.000;  928.000
440.968; -109.425; -415.000; -311.000
441.090;  -70.650; -199.000;  -33.000
441.213; -169.475;-1021.000; -825.000
441.336;  -58.800; -159.000;   -5.000
441.458;  -68.000; -549.000; -396.000
441.581;  -75.400; -628.000; -629.000
441.703;  -76.450; -152.000;   13.000
441.826; -109.700; -557.000; -400.000
441.948;  -53.850;   56.000;   51.000
442.071;   13.625;  555.000;  424.000
442.193; -113.875; -531.000; -485.000
442.316;   16.675;  152.000;   97.000
442.438;   39.700; -233.000;  -10.000
442.561;   82.750;  272.000;  262.000
442.683;  492.200; -809.000; -522.000
442.806; 1197.600;   -8.000;   74.000
442.928;   35.525; -859.000; -604.000
443.051;  -61.125; -577.000; -373.000
443.173;  -90.700; -341.000; -339.000
443.295;  -83.725; -263.000; -371.000
443.418;  -74.450; -321.000;  -29.000
443.540;  -15.300; -106.000;   -4.000
443.662; -127.750; -563.000; -465.000
443.785;   -2.400;  335.000;  199.000
443.907; -111.575; -362.000; -208.000
444.029; -127.225; -767.000; -494.000
444.152; -145.450; -644.000; -554.000
444.274;  -43.075;  -18.000;  -24.000
444.396; -111.050; -461.000; -221.000
444.518; -135.500; -691.000; -454.000
444.640; -107.200; -268.000; -111.000
444.763;  -22.125;  388.000;  249.000
444.885; -109.775; -432.000; -392.000
445.007;  -28.025;   35.000;   86.000
445.129; -119.225; -610.000; -515.000
445.251; -107.025; -372.000; -439.000
445.373; -142.325; -537.000; -386.000
445.495;   -6.900;  242.000;  350.000
445.617;   42.775;  853.000;  753.000
445.739;  -66.725; -215.000;  -97.000
445.861;  -28.450; -245.000; -112.000
445.984;  -35.550; -267.000; -101.000
446.105;  181.575; -418.000; -251.000
446.227;  616.000; -176.000;  -19.000
446.349;   12.375; -358.000; -249.000
446.471;  -84.500; -615.000; -448.000
446.593;  -71.175; -316.000;   19.000
446.715;   -3.975;  -67.000;   41.000
446.837;   51.400;  697.000;  832.000
446.959;  -99.800; -457.000; -478.000
447.081; -137.325; -628.000; -518.000
447.203;   49.250;  862.000;  834.000
447.325;  -89.075; -270.000;   42.000
447.446;   -7.825;  286.000;  530.000
447.568; -145.975; -921.000; -803.000
447.690;  -85.225; -236.000; -245.000
447.812; -144.350; -798.000; -519.000
447.933;  -38.950;  155.000;  127.000
448.055;  -74.900; -306.000; -261.000
448.177;  129.425;   31.000;   79.000
448.299;   99.250; -935.000; -727.000
448.420;   28.900;  -25.000;  159.000
448.542;  -45.950;   -3.000;   33.000
448.664;  -31.775;  109.000;  322.000
448.785;  -25.750;  265.000;   83.000
448.907;  -86.500; -614.000; -353.000
449.028;  -27.025; -771.000; -471.000
449.150;   54.825;  492.000;  589.000
449.272; -175.525;-1044.000; -913.000
449.393;   20.850;  612.000;  694.000
449.515; -131.650; -634.000; -581.000
449.636;  -53.675; -264.000; -155.000
449.758;   70.050;  763.000;  622.000
449.879;  -98.000; -498.000; -396.000
450.001;  -78.175; -149.000;  -49.000
450.122;  -32.650;  -95.000;  162.000
450.244;  -19.225;   37.000;  364.000
450.365;  -84.050; -495.000; -301.000
450.486;  -23.775;   80.000;  268.000
450.608;   17.575;  393.000;  326.000
450.729;   74.175;  578.000;  645.000
450.850;   14.925; -574.000; -466.000
450.972;  693.200; -552.000; -389.000
451.093; 4943.950;  190.000;  588.000
451.214; 2362.125; -516.000; -337.000
451.336;  424.475;  773.000;  579.000
451.457;   60.100;  264.000;  393.000
451.578;  -29.900; -118.000;  -74.000
451.699; -110.900; -546.000; -540.000
451.821;  -67.275; -284.000;  -50.000
451.942;    3.675;  278.000;  285.000
452.063;   39.575;  228.000;  419.000
452.184;  535.675;  -54.000;  -49.000
452.305; 1173.750;  103.000;  170.000
452.427;  171.750; -549.000; -301.000
452.548;  -19.350;   23.000;   79.000
452.669;  -46.400; -257.000;  -89.000
452.790;  -47.200;    3.000;  -18.000
452.911;  -13.375;  195.000;  259.000
453.032;  -60.775; -289.000;  -60.000
453.153;  -51.675;  -29.000;   81.000
453.274;   55.350;  737.000;  868.000
453.395;  -57.075;  -51.000;  175.000
453.516;  122.100; 1317.000; 1388.000
453.637;  -52.975; -205.000; -150.000
453.758;  -49.725;   15.000;   69.000
453.879; -123.050; -462.000; -250.000
454.000;   68.325; 1086.000;  948.000
454.121; -100.700; -554.000; -326.000
454.242; -101.475; -599.000; -383.000
454.362;  -65.225;  -99.000;  114.000
454.483;  -34.925; -309.000; -229.000
454.604;   59.475;  512.000;  580.000
454.725; -125.925; -627.000; -555.000
454.846; -120.450; -474.000; -406.000
454.967;  -23.675;  230.000;  539.000
455.087;  -40.875;  179.000;  153.000
455.208;    5.475;  554.000;  856.000
455.329;  -64.800;  -22.000;   82.000
455.450;   21.350;  473.000;  633.000
455.570;  -74.325; -234.000; -211.000
455.691;  -47.975;  201.000;  407.000
455.812;  -94.475; -270.000;  -92.000
455.932;  -57.775;  107.000;  -97.000
456.053;  -71.300;   36.000;   24.000
456.173; -112.125; -433.000; -355.000
456.294; -140.275; -476.000; -303.000
456.415;  -65.550;  -73.000;   70.000
456.535;  -28.700;  297.000;  273.000
456.656;  -38.850;  132.000;  240.000
456.776;  -59.425;    3.000;  298.000
456.897;   -3.875;  308.000;  513.000
457.017;  -76.950; -153.000;   -3.000
457.138; -102.825; -402.000; -249.000
457.258;  -32.450;  263.000;  224.000
457.379;  -18.500;  509.000;  521.000
457.499;  -33.075;  443.000;  432.000
457.620; -114.100; -407.000; -231.000
457.740; -101.150; -132.000;  -11.000
457.860;  -47.425;   87.000;   44.000
457.981;  -59.625;  132.000;  124.000
458.101;  -67.525;  -89.000;   40.000
458.221;  -27.650;  336.000;  402.000
458.342;  -50.275;   -4.000;  -37.000
458.462;   13.775;  617.000;  352.000
458.582;  -38.350; -302.000; -294.000
458.703;    2.575;  303.000;  154.000
458.823;   -6.550;   22.000;  163.000
458.943;   16.950;  341.000;  467.000
459.063;   -6.550; 1124.000;  192.000
459.183;  -27.725;  328.000;  313.000
459.304;   -1.775;  315.000;  517.000
459.424;  -63.575; -246.000;  -89.000
459.544;  304.175;  388.000;  764.000
459.664;  851.250;  499.000;  506.000
459.784;  331.550; 1004.000; 1175.000
459.904;   75.525;  867.000;  744.000
460.024;   58.050;  867.000;  684.000
460.144;    0.250;  449.000;  554.000
460.264;   -1.300;  515.000;  327.000
460.385; -103.150; -145.000; -119.000
460.505;   41.250;  905.000;  858.000
460.625; -101.575;  -17.000;  -68.000
460.745;  -12.375;  396.000;  541.000
460.864;  -42.875;  153.000;  469.000
460.984;    4.850;  499.000;  573.000
461.104;  143.850; 1656.000; 1775.000
461.224;   18.200;  657.000;  650.000
461.344;  -28.550;  431.000;  360.000
461.464;  -36.375;  258.000;  513.000
461.584;  -13.250;  283.000;  466.000
461.704;  -43.975;   58.000;  108.000
461.824;  -51.575;  238.000;  259.000
461.943;  -41.875;  191.000;  130.000
462.063;  -81.575;    2.000;  324.000
462.183;   39.300;  639.000;  717.000
462.303;  100.775; 1678.000; 1230.000
462.422;   29.775;  781.000;  840.000
462.542;  -28.400;  271.000;  391.000
462.662;   41.950;  353.000;  380.000
462.782;  245.550;  833.000;  572.000
462.901;  497.975;  545.000;  717.000
463.021;  290.000; 1702.000; 1638.000
463.141;   -9.100;  337.000;  770.000
463.260;  -13.775;  614.000;  474.000
463.380;    1.125;  902.000;  884.000
463.499;  -40.425;  342.000;  332.000
463.619;  -45.525;  581.000;  559.000
463.738;   94.075; 1644.000;  903.000
463.858;    8.775;  657.000;  811.000
463.978;  -22.800;  542.000;  396.000
464.097;   54.225;  921.000; 1114.000
464.217;  127.700; 1196.000; 1143.000
464.336;  104.675; 1068.000; 1130.000
464.455;  -37.000;  328.000;  659.000
464.575;   37.725;  597.000;  602.000
464.694;  167.950; 1204.000; 1179.000
464.814;  115.825; 1190.000; 1138.000
464.933;   82.450; 1095.000; 1027.000
465.052;   98.900; 1412.000; 1054.000
465.172;   79.650;  922.000;  799.000
465.291;  139.575; 1376.000; 1320.000
465.410;   15.125;  462.000;  735.000
465.530;   71.175; 1355.000; 1310.000
465.649;   84.550; 1209.000; 1273.000
465.768;  132.450; 1673.000; 1508.000
465.888;   60.800;  941.000; 1174.000
466.007;   92.925; 1335.000; 1440.000
466.126;    5.475;  721.000;  641.000
466.245;   34.050; 1176.000; 1187.000
466.364;   27.800;  950.000; 1060.000
466.484;   60.600; 1024.000; 1213.000
466.603;   35.125; 1101.000; 1222.000
466.722;  106.850; 1490.000; 1769.000
466.841;   85.825; 1151.000; 1401.000
466.960;   33.625; 1069.000;  972.000
467.079;  124.125; 1971.000; 1786.000
467.198;   45.425; 1238.000; 1181.000
467.317;   73.275; 1768.000; 1162.000
467.436;   87.375; 1709.000; 1261.000
467.555;  119.225; 1796.000; 1746.000
467.674;   56.950; 1227.000; 1329.000
467.793;   51.025; 1376.000; 1374.000
467.912;   93.325; 1658.000; 1539.000
468.031;  131.975; 2038.000; 1930.000
468.150;  147.175; 1842.000; 1837.000
468.269;  192.025; 2313.000; 2090.000
468.388;  198.725; 2168.000; 2339.000
468.507;  268.825; 2884.000; 2903.000
468.626;  273.825; 2555.000; 2541.000
468.744;  157.225; 2018.000; 2174.000
468.863;  188.400; 2312.000; 2523.000
468.982;   92.175; 1503.000; 1555.000
469.101;  223.425; 2788.000; 2692.000
469.220;  152.025; 2333.000; 2176.000
469.338;  245.250; 2935.000; 3051.000
469.457;  193.175; 2719.000; 2545.000
469.576;  328.450; 3953.000; 3784.000
469.695;  213.075; 2877.000; 3066.000
469.813;  430.400; 4148.000; 4192.000
469.932;  385.250; 4255.000; 4485.000
470.051;  433.950; 4075.000; 4161.000
470.169;  850.200; 4470.000; 4338.000
470.288; 1502.625; 4700.000; 4809.000
470.406;  935.800; 5059.000; 5194.000
470.525;  640.550; 6101.000; 5787.000
470.644;  652.225; 6847.000; 6794.000
470.762;  804.700; 8397.000; 7873.000
470.881;  897.050; 8651.000; 8464.000
470.999; 1045.850; 9685.000; 9151.000
471.118; 1119.000;11174.000;10711.000

