
Integration time [ms]: 100.000
Averaging Nr. [scans]: 40
Smoothing Nr. [pixels]: 0
Data measured with spectrometer [name]: 2101012U2
Wave   ;Sample   ;Dark     ;Reference
[nm]   ;[counts] ;[counts] ;[counts] 

197.733;   56.950;  516.000;  404.000
197.879;  -79.975; -610.000; -634.000
198.025;  -51.200; -475.000; -420.000
198.171;  -69.750; -602.000; -612.000
198.317;  -29.650; -401.000; -316.000
198.463;  -53.050; -655.000; -404.000
198.609;   31.775;  181.000; -137.000
198.755;  -82.150; -644.000; -410.000
198.901;  -56.925; -505.000; -424.000
199.047;  -68.625; -615.000; -488.000
199.193;  -38.900; -230.000; -468.000
199.339;  -45.075; -222.000; -369.000
199.485;   31.575;  330.000;  271.000
199.631;   13.475;  227.000;  310.000
199.777;  -41.600; -466.000; -398.000
199.923;  -61.850; -610.000; -424.000
200.069;  -10.400; -141.000;  -58.000
200.215;   46.325;  128.000;  453.000
200.361;   46.350;  243.000;  477.000
200.507;  -50.200; -600.000; -373.000
200.653;  -18.250; -371.000; -194.000
200.798;  -40.850; -215.000; -125.000
200.944;  -11.175; -146.000;  -41.000
201.090;   51.425;   61.000;  222.000
201.236;  -22.200; -116.000; -158.000
201.382;  117.075;  874.000;  903.000
201.528;   -1.850;  -58.000;  -48.000
201.674;  -56.875; -386.000; -293.000
201.819;  -53.500; -540.000; -439.000
201.965;  -74.025; -699.000; -447.000
202.111;  -25.000; -273.000; -226.000
202.257;  -47.425; -250.000; -238.000
202.402;    3.825;   13.000;  -36.000
202.548;  -19.025; -169.000; -116.000
202.694;   80.525;  410.000; -183.000
202.840;  -65.950; -603.000; -531.000
202.985;  -65.900; -681.000; -639.000
203.131; -105.400; -832.000; -666.000
203.277;  -23.600; -199.000; -262.000
203.423;  -53.600; -434.000; -520.000
203.568;  -36.725; -462.000; -237.000
203.714;  -66.125; -535.000; -542.000
203.860;  -70.700; -682.000; -641.000
204.005;   10.475;  112.000;  167.000
204.151;   68.750;  561.000;  556.000
204.296;  -47.350; -354.000; -221.000
204.442;  -68.725; -600.000; -547.000
204.588;  -70.025; -592.000; -579.000
204.733;   31.100;  178.000;  168.000
204.879; -126.650;-1018.000; -822.000
205.025;    5.500;  -99.000;  126.000
205.170;    2.800;  -17.000;   94.000
205.316;   85.900;  438.000;  661.000
205.461;  -88.300; -698.000; -554.000
205.607;   86.075;  609.000;  665.000
205.752;  -68.350; -626.000; -551.000
205.898;  -47.325; -501.000; -391.000
206.043;  -50.950; -578.000; -506.000
206.189;  -47.500; -243.000; -285.000
206.334;   74.750;  554.000;  606.000
206.480;   72.925;  409.000;  239.000
206.625;  -87.375; -529.000; -552.000
206.771;  -51.550; -451.000; -373.000
206.916;  -24.900; -210.000; -537.000
207.062;  -69.175; -545.000; -591.000
207.207;  -62.075; -546.000; -443.000
207.353;   54.900;  185.000;  460.000
207.498;    3.625;  196.000;   85.000
207.643;  -57.475; -501.000; -370.000
207.789; -128.550;-1069.000; -910.000
207.934;  -92.725; -665.000; -713.000
208.080;  -19.250; -154.000;   66.000
208.225;   -4.500;  -22.000;  -57.000
208.370;  -91.625; -727.000; -619.000
208.516;  -73.775; -741.000; -487.000
208.661;  -33.325; -127.000;  -69.000
208.806;  -21.950; -165.000; -171.000
208.952; -120.675;-1044.000; -731.000
209.097;   75.600;  378.000;  349.000
209.242;  -45.200; -307.000; -382.000
209.387;   51.875;  392.000;  350.000
209.533;  -44.850; -321.000; -350.000
209.678;   87.000;  472.000;  543.000
209.823;  -49.950; -408.000; -310.000
209.969;  -94.775; -860.000; -757.000
210.114; -101.050; -907.000; -719.000
210.259; -107.225; -939.000; -889.000
210.404;   -0.850; -171.000;  103.000
210.549;    8.075;  108.000;    3.000
210.695;  -22.975;   -3.000;  -95.000
210.840;   25.725;   94.000;   67.000
210.985;  -65.725; -484.000; -303.000
211.130;   67.675;  268.000;  406.000
211.275;   15.800;  207.000;  199.000
211.420;  -52.475; -300.000; -289.000
211.566;  -70.525; -536.000; -489.000
211.711;   25.650;  218.000;  157.000
211.856;  -66.650; -545.000; -519.000
212.001;   12.600;  151.000;   44.000
212.146;   18.225;  153.000;   49.000
212.291;  -12.200; -210.000; -186.000
212.436;  -18.825; -280.000;   -6.000
212.581;  -73.825; -685.000; -653.000
212.726;  -78.525; -487.000; -538.000
212.871;  -49.525; -552.000; -217.000
213.016; -147.900;-1172.000;-1029.000
213.161;   61.050;  406.000;  291.000
213.306;  -67.425; -435.000; -577.000
213.451; -102.200; -778.000; -689.000
213.596;  -45.550; -455.000; -347.000
213.741;  -40.500; -448.000; -538.000
213.886;  -82.325; -498.000; -517.000
214.031;  -21.750; -294.000; -124.000
214.176;  -54.125; -408.000; -341.000
214.321;  -27.375; -296.000; -157.000
214.466;  -24.100; -163.000;  -43.000
214.611;   -5.675;  -61.000;  -10.000
214.756; -124.425; -948.000; -858.000
214.901;  -34.325; -388.000; -226.000
215.046; -122.750; -797.000; -825.000
215.191;   22.850;  128.000;   35.000
215.336;  -15.750; -157.000;  -19.000
215.480;  -67.075; -684.000; -505.000
215.625;  -15.550; -175.000;  -19.000
215.770;  -92.075; -757.000; -662.000
215.915;   -2.300;   -5.000;  -97.000
216.060;   -6.675; -113.000;  -21.000
216.205;  -96.900; -731.000; -779.000
216.349;  -65.000; -470.000; -533.000
216.494; -140.775; -939.000; -867.000
216.639; -113.625; -823.000; -888.000
216.784;  -88.725; -577.000; -525.000
216.929;   36.550;  392.000;  281.000
217.073;  -24.550; -244.000;  -31.000
217.218;    0.975;   78.000;  -47.000
217.363;  -81.850; -656.000; -618.000
217.507;  -77.425; -623.000; -588.000
217.652; -118.075; -845.000; -874.000
217.797;  -84.825; -708.000; -659.000
217.942; -113.775; -856.000; -720.000
218.086;   64.650;  608.000;  539.000
218.231;  -19.950; -174.000;  -26.000
218.376;  -38.200; -337.000; -229.000
218.520;   -8.550;  -41.000;   96.000
218.665;  -24.050; -338.000; -204.000
218.810;  -41.525; -275.000; -233.000
218.954;   26.600;  201.000;   35.000
219.099; -108.350; -713.000; -963.000
219.243;  -56.400; -589.000; -554.000
219.388;  -37.750; -264.000; -136.000
219.532;   -2.475; -116.000; -116.000
219.677;  -79.775; -564.000; -521.000
219.822;   -1.450;   33.000;   89.000
219.966;   -0.600;   17.000;  -99.000
220.111;  -26.300; -328.000;  -40.000
220.255;  -93.650; -797.000; -750.000
220.400;  -10.475; -180.000; -146.000
220.544;  -75.925; -516.000; -450.000
220.689;  -55.300; -422.000; -451.000
220.833;  -16.675; -123.000;  -58.000
220.978;  -29.500; -393.000; -563.000
221.122;   21.375;  319.000;  307.000
221.267; -121.900; -906.000; -837.000
221.411;  -62.650; -478.000; -394.000
221.555;   -9.950; -104.000;  -23.000
221.700;  -56.875; -329.000; -222.000
221.844;   40.875;  255.000;  272.000
221.989;  -42.800; -328.000; -311.000
222.133;  -43.575; -289.000; -307.000
222.277;   -4.925;    5.000;   78.000
222.422;   17.750;  227.000;  113.000
222.566;  -40.425; -381.000; -214.000
222.711;  -57.300; -414.000; -479.000
222.855;  -67.650; -643.000; -586.000
222.999;  -88.425; -642.000; -717.000
223.144;  -27.050; -195.000; -194.000
223.288;   44.800;  423.000;  251.000
223.432;   37.725;  184.000;  230.000
223.576;   11.150;  152.000;  -21.000
223.721;   41.300;  364.000;  273.000
223.865;  -62.925; -472.000; -475.000
224.009;  237.175; 1673.000; 1631.000
224.153;  -77.400; -660.000; -671.000
224.298;  -70.650; -531.000; -489.000
224.442;  -19.300;  -74.000;  -33.000
224.586;  -21.425; -169.000; -106.000
224.730;  -95.100; -858.000; -670.000
224.875; -107.300; -739.000; -688.000
225.019;   26.850;  102.000;  188.000
225.163;   61.075;  208.000;  341.000
225.307;   15.075;   97.000;  -91.000
225.451;   38.775;  360.000;  481.000
225.595;   27.975;  264.000;  176.000
225.739;  -15.275; -170.000;  -94.000
225.884;   17.100;   86.000;    5.000
226.028;  -92.675; -760.000; -626.000
226.172;  -38.025; -260.000; -273.000
226.316; -102.275; -941.000; -902.000
226.460;  -59.625; -645.000; -493.000
226.604;  -56.675; -406.000; -400.000
226.748;  -95.375; -836.000; -733.000
226.892;  -34.825; -227.000; -181.000
227.036;  -46.825; -537.000; -447.000
227.180;  -60.700; -551.000; -375.000
227.324;  -48.575; -561.000; -580.000
227.468; -121.600; -819.000; -717.000
227.612;    5.300;  242.000;  -28.000
227.756;  -97.200; -845.000; -698.000
227.900;   55.775;  342.000;  441.000
228.044;  -51.375; -509.000; -290.000
228.188;   51.900;  448.000;  568.000
228.332;  -79.850; -546.000; -472.000
228.476;  -30.000; -223.000; -149.000
228.620;  -26.150; -210.000; -150.000
228.764;   60.025;  431.000;  349.000
228.908;  -17.125; -155.000;   30.000
229.052;  -58.900; -615.000; -528.000
229.195;  -15.625; -172.000;   13.000
229.339;  -14.875; -235.000; -305.000
229.483;  -20.100;    5.000; -162.000
229.627;   12.725; -156.000;  139.000
229.771;  -40.275; -218.000; -294.000
229.915;    0.975;  230.000;   79.000
230.059;  -91.375; -648.000; -663.000
230.202;  -41.025; -370.000; -317.000
230.346;  -22.550; -107.000;  107.000
230.490;  -61.875; -489.000; -521.000
230.634; -105.200; -736.000; -553.000
230.777;   82.175;  478.000;  509.000
230.921;  -49.050; -450.000; -359.000
231.065;  -41.400; -246.000; -286.000
231.209;   23.350;  261.000;  265.000
231.352;   12.525;   54.000;   40.000
231.496;    8.850;  568.000;  188.000
231.640;  -84.900; -693.000; -621.000
231.783;   53.925;  546.000;  525.000
231.927;  -41.600; -294.000; -365.000
232.071; -116.950; -962.000; -736.000
232.214; -102.075; -980.000; -764.000
232.358; -113.125; -683.000; -599.000
232.502;   11.625;  -19.000;    7.000
232.645; -131.825;-1090.000; -927.000
232.789;  -38.625; -257.000; -218.000
232.933;  -43.725; -407.000; -224.000
233.076; -123.750;-1038.000; -897.000
233.220; -116.125; -752.000; -777.000
233.363;  -71.975; -669.000; -477.000
233.507;   37.750;  371.000;  129.000
233.650; -105.675; -764.000; -834.000
233.794;   41.250;  438.000;  461.000
233.938;  -53.650; -530.000; -362.000
234.081;  -15.850;  -93.000;   31.000
234.225;  -65.875; -631.000; -539.000
234.368; -118.550; -773.000; -723.000
234.512;  -44.900; -385.000; -299.000
234.655;  -78.475; -582.000; -555.000
234.798;  -78.475; -493.000; -466.000
234.942; -127.225; -884.000;-1002.000
235.085;  -67.075; -651.000; -443.000
235.229;  -80.325; -405.000; -410.000
235.372;  -49.825; -247.000; -191.000
235.516;  -75.450; -397.000; -321.000
235.659;    6.100;   92.000;  121.000
235.802;   -9.975;  -38.000;  -22.000
235.946;   26.225;  335.000;  215.000
236.089;   23.375;  126.000;  250.000
236.233;   46.400;  275.000;  298.000
236.376;  -44.175; -235.000; -378.000
236.519;  -51.425; -297.000; -319.000
236.663;  -29.975; -215.000; -117.000
236.806; -125.525;-1029.000; -999.000
236.949;   50.950;  543.000;  431.000
237.092;   68.025;  412.000;  391.000
237.236;  -82.850; -589.000; -502.000
237.379;   56.150;  352.000;  428.000
237.522; -112.375; -879.000; -768.000
237.666;  -17.525; -271.000;   18.000
237.809; -129.975; -851.000; -823.000
237.952;   16.800;  469.000;  271.000
238.095;  -59.100; -447.000; -442.000
238.238;   78.375;  688.000;  700.000
238.382;    2.875;  166.000;  103.000
238.525;  -66.425; -598.000; -511.000
238.668; -140.750;-1060.000; -985.000
238.811;  -90.850; -638.000; -643.000
238.954;  -60.975; -483.000; -334.000
239.097;   89.500;  617.000;  664.000
239.241;   21.950;  394.000;  326.000
239.384;  -30.950; -254.000; -214.000
239.527;  -60.075; -424.000; -224.000
239.670; -142.975; -994.000;-1091.000
239.813;  -93.400; -696.000; -658.000
239.956;   68.475;  579.000;  473.000
240.099; -117.750; -778.000; -725.000
240.242;   50.125;  428.000;  432.000
240.385;   46.650;  466.000;  450.000
240.528;  -68.675; -706.000; -473.000
240.671;   13.725;  189.000;  134.000
240.814;  -45.600; -441.000; -158.000
240.957;  -95.650; -767.000; -578.000
241.100;  -86.650; -779.000; -755.000
241.243; -147.150;-1234.000; -893.000
241.386;  -66.825; -508.000; -379.000
241.529;  -87.550; -735.000; -547.000
241.672;  -60.100; -566.000; -495.000
241.815; -117.200; -832.000; -808.000
241.958;  -29.100; -125.000; -182.000
242.101;  -80.175; -545.000; -390.000
242.244;  -45.625; -270.000; -325.000
242.387;  -45.775; -304.000; -246.000
242.530;   60.250;  470.000;  134.000
242.673;  -35.100; -381.000; -309.000
242.815; -121.450; -925.000; -899.000
242.958;  -72.975; -482.000; -381.000
243.101;   12.525;  132.000;  187.000
243.244;  -84.300; -564.000; -521.000
243.387;  -49.900; -313.000; -316.000
243.530;  -97.600; -657.000; -674.000
243.672;   -5.850;   43.000;  -92.000
243.815;  -46.925; -355.000; -283.000
243.958;  -14.425;   98.000;  -26.000
244.101;  -16.200;   59.000;  -16.000
244.243;  -13.750;  -47.000;  101.000
244.386; -112.075; -761.000; -630.000
244.529;  -27.450; -132.000; -139.000
244.672; -149.475;-1154.000; -951.000
244.814;  -96.175; -621.000; -794.000
244.957;  -71.600; -380.000; -304.000
245.100;  -73.225; -489.000; -489.000
245.242;  -67.050; -387.000; -374.000
245.385;   -7.650;  -59.000;  -39.000
245.528; -107.000; -871.000; -705.000
245.670;   85.400;  612.000;  634.000
245.813;  -92.050; -599.000; -547.000
245.956;  -20.850; -324.000; -275.000
246.098;  -68.350; -508.000; -650.000
246.241;    9.200;  194.000;   48.000
246.383;  -15.875; -119.000;  -73.000
246.526;  -72.250; -454.000; -525.000
246.669; -106.100; -889.000; -780.000
246.811;   19.125;  172.000;   -1.000
246.954;  -62.050; -512.000; -426.000
247.096;  -21.200;  -84.000;   -6.000
247.239;  -73.975; -482.000; -445.000
247.381;  -69.700; -647.000; -488.000
247.524;   87.475;  645.000;  679.000
247.666;  -20.675;   58.000;   11.000
247.809; -112.950; -887.000; -691.000
247.951;   -8.375;  -75.000;  138.000
248.094;   17.275;  432.000;  308.000
248.236; -146.325;-1262.000;-1238.000
248.378;    8.000; -356.000;  -81.000
248.521;  -18.025; -334.000; -337.000
248.663;  -32.450; -236.000; -267.000
248.806;   -6.975; -300.000; -266.000
248.948;  -90.875; -886.000; -763.000
249.090;  -30.675; -428.000; -398.000
249.233;  -43.075; -344.000; -381.000
249.375;  -81.375; -474.000; -451.000
249.518;  -37.750;  -83.000; -133.000
249.660;   -2.825; -103.000;    3.000
249.802; -173.175;-1303.000;-1189.000
249.945;  -74.625; -612.000; -540.000
250.087; -112.225; -834.000; -768.000
250.229;  -46.775; -362.000; -480.000
250.371;  -63.325; -494.000; -439.000
250.514;  -56.475; -310.000; -244.000
250.656;  -10.950;   69.000;  102.000
250.798; -118.925; -849.000; -800.000
250.940;  -54.625; -322.000; -322.000
251.083;  -33.425; -335.000; -111.000
251.225;   48.425;  338.000;  310.000
251.367;  -42.400; -274.000; -373.000
251.509;  -35.850; -265.000; -210.000
251.651;  -89.075; -731.000; -671.000
251.794;   44.650;  538.000;  632.000
251.936; -118.050; -821.000; -747.000
252.078;  -75.275; -540.000; -461.000
252.220;  -67.800; -645.000; -477.000
252.362;   90.375;  344.000;  462.000
252.504;  -67.125; -677.000; -584.000
252.646; -117.350; -875.000; -722.000
252.788;    7.525;   14.000; -128.000
252.931;  -48.425; -257.000; -253.000
253.073;  -47.650; -376.000; -317.000
253.215;    2.725;  141.000;  122.000
253.357;  -22.675;   82.000; -153.000
253.499;  -53.225; -374.000; -234.000
253.641;  -96.525; -749.000; -594.000
253.783;  -88.950; -609.000; -527.000
253.925;  -88.325; -586.000; -591.000
254.067;  -96.925; -744.000; -667.000
254.209;  -19.200; -391.000; -259.000
254.351; -127.625; -865.000; -883.000
254.493;  -52.650; -441.000; -417.000
254.635; -125.300; -936.000; -818.000
254.777;  -85.175; -752.000; -687.000
254.918;  -60.425; -512.000; -430.000
255.060;  -66.325; -551.000; -395.000
255.202;  -58.225; -473.000; -261.000
255.344;  -86.975; -658.000; -455.000
255.486;  -68.250; -471.000; -406.000
255.628; -109.225; -780.000; -781.000
255.770; -111.975; -676.000; -536.000
255.912;  -61.325; -559.000; -468.000
256.053; -103.125; -730.000; -508.000
256.195;  156.725; 1008.000;  903.000
256.337; -110.775; -861.000; -595.000
256.479;   61.325;  532.000;  416.000
256.621;  -47.750; -394.000; -212.000
256.762;  -98.175; -789.000; -742.000
256.904;   58.250;  485.000;  487.000
257.046;  -66.475; -381.000; -271.000
257.188;  -40.625; -351.000; -264.000
257.329;  -68.125; -525.000; -464.000
257.471; -116.525; -939.000; -807.000
257.613;  -64.500; -584.000; -498.000
257.755; -159.475;-1073.000; -982.000
257.896;   25.425;  286.000;  392.000
258.038;  -77.300; -403.000; -352.000
258.180;  -33.600; -354.000; -279.000
258.321;  -79.525; -581.000; -457.000
258.463;    5.725;  -71.000;  133.000
258.605;  -89.250; -562.000; -570.000
258.746; -107.475; -886.000; -772.000
258.888; -147.575;-1026.000;-1020.000
259.029;   23.750;  121.000;   -8.000
259.171;  -88.725; -614.000; -550.000
259.313;   10.125;  -49.000;  -47.000
259.454;  -71.725; -536.000; -414.000
259.596;  -64.925; -483.000; -390.000
259.737;  -81.100; -590.000; -474.000
259.879;   31.475;  217.000;  311.000
260.020;   84.850;  901.000;  636.000
260.162;  -30.800; -146.000; -253.000
260.303; -111.375; -768.000; -687.000
260.445;  -72.150; -609.000; -613.000
260.586;   29.625;  392.000;  157.000
260.728;  -43.300; -360.000; -248.000
260.869; -113.175; -350.000; -343.000
261.011;   86.625;  706.000;  537.000
261.152;  -57.575; -479.000; -319.000
261.293;  -70.300; -576.000; -595.000
261.435;  -18.075; -219.000; -184.000
261.576;  -54.550; -455.000; -325.000
261.718;   37.775;  420.000;  470.000
261.859; -125.775; -940.000; -949.000
262.000; -118.525; -951.000;-1016.000
262.142;  -28.525;  -52.000;  -60.000
262.283; -108.075; -808.000; -691.000
262.424;  -85.825; -666.000; -625.000
262.566; -143.450;-1161.000; -983.000
262.707; -116.875; -840.000; -830.000
262.848; -118.700; -769.000; -726.000
262.990;  -40.075; -362.000; -345.000
263.131;   71.600;  650.000;  681.000
263.272;    2.475;  -61.000;  -41.000
263.413;  -96.025; -589.000; -561.000
263.555;  -73.075; -669.000; -143.000
263.696;  -82.700; -550.000; -641.000
263.837;  -77.600; -449.000; -551.000
263.978;   -5.250;   -5.000;  -77.000
264.119;  -45.275; -283.000; -264.000
264.261; -112.500; -847.000; -630.000
264.402;    5.300;   33.000;   40.000
264.543;  -73.075; -509.000; -524.000
264.684;   -3.650;   61.000;  -50.000
264.825;  -76.750; -816.000; -538.000
264.966;   -1.125;  -84.000;  -67.000
265.107; -113.050; -646.000; -670.000
265.248; -130.225; -825.000; -812.000
265.390;  -10.025;  152.000;   -9.000
265.531;  -31.025; -238.000; -107.000
265.672;  -84.150; -557.000; -630.000
265.813;   59.625;  563.000;  439.000
265.954; -131.550; -959.000; -940.000
266.095;  -11.950; -372.000; -322.000
266.236;  -82.800; -686.000; -548.000
266.377;  -41.350; -243.000; -297.000
266.518;  -86.775; -619.000; -547.000
266.659;   16.150;  170.000;  268.000
266.800;  -10.550;   83.000;   85.000
266.941;  -82.900; -487.000; -478.000
267.082;    7.600;  354.000;   99.000
267.223;  -43.900; -344.000; -273.000
267.364; -115.125; -892.000; -686.000
267.504;  -15.775;    3.000;  135.000
267.645;   -6.075;  160.000;   67.000
267.786;  -24.975; -147.000;  -86.000
267.927;  -57.975; -473.000; -379.000
268.068;  -19.125; -186.000;  -61.000
268.209;  -42.225; -175.000; -413.000
268.350;  -56.950; -388.000; -532.000
268.490;  -81.325; -648.000; -521.000
268.631;   30.500;  127.000;  225.000
268.772; -115.450; -874.000; -647.000
268.913;  -51.975; -328.000; -476.000
269.054;  -12.100; -117.000;   12.000
269.194;  -59.875; -418.000; -402.000
269.335; -158.550;-1137.000;-1074.000
269.476;  -11.225;   33.000;  -35.000
269.617;  -50.050; -347.000; -392.000
269.757;  -80.125; -713.000; -646.000
269.898; -108.375; -856.000; -613.000
270.039;  -51.150; -415.000; -405.000
270.180; -137.625; -952.000; -816.000
270.320;  -18.825; -190.000; -250.000
270.461;  -34.200; -277.000; -249.000
270.602;  -16.900; -186.000; -156.000
270.742; -128.150; -868.000; -943.000
270.883;  -53.875; -442.000; -390.000
271.023;  -54.525; -358.000; -357.000
271.164;  -71.925; -607.000; -528.000
271.305; -103.475; -666.000; -654.000
271.445;  -80.550; -722.000; -683.000
271.586;  -81.125; -462.000; -283.000
271.726;  -48.750; -397.000; -322.000
271.867;  -43.425; -594.000; -534.000
272.008;  201.825; -473.000; -285.000
272.148;  144.525;  462.000;  468.000
272.289;   26.600; -113.000; -181.000
272.429;   23.300;   19.000;  185.000
272.570;  -88.150; -633.000; -737.000
272.710;  -97.450; -825.000; -775.000
272.851;  -27.750;  113.000; -130.000
272.991; -151.525;-1173.000;-1077.000
273.131;  -53.675; -419.000; -459.000
273.272;  -95.525; -683.000; -723.000
273.412;   22.125; -143.000;  -31.000
273.553;  -55.875; -488.000; -507.000
273.693;  133.550;  913.000;  858.000
273.834;  -72.950; -894.000; -692.000
273.974;  -79.700; -664.000; -615.000
274.114; -104.400; -772.000; -560.000
274.255;   89.450;  414.000;  373.000
274.395;   14.275; -180.000; -125.000
274.535;   41.950;  199.000;  350.000
274.676;   18.975;  225.000;   94.000
274.816;    8.500;  110.000;   34.000
274.956;  -70.550; -624.000; -690.000
275.097;  -56.925;-1014.000; -922.000
275.237; -109.100; -913.000; -803.000
275.377;  -87.350; -778.000; -689.000
275.517; -134.450; -878.000; -937.000
275.658;  -47.300; -590.000; -555.000
275.798;  -58.725; -606.000; -413.000
275.938;   22.225;  215.000;  323.000
276.078; -101.050; -626.000; -395.000
276.218;    5.150;   99.000;  104.000
276.359; -121.350;-1026.000;-1024.000
276.499;  -68.175; -605.000; -446.000
276.639;  -39.375; -305.000; -151.000
276.779;  -48.850; -475.000; -357.000
276.919; -104.050; -783.000; -624.000
277.059;  -38.900; -261.000; -212.000
277.199;  -46.325; -357.000; -259.000
277.340;   45.625;  287.000;  175.000
277.480; -117.050; -840.000; -693.000
277.620;   18.625;  192.000;   16.000
277.760; -181.600;-1533.000;-1294.000
277.900;    4.250;  113.000;   33.000
278.040;   22.025;  137.000;  159.000
278.180;   49.775;  270.000;  170.000
278.320;    0.925;   21.000;   56.000
278.460;  -67.225; -443.000; -469.000
278.600;  -82.600; -708.000; -598.000
278.740;   47.025;  448.000;  224.000
278.880;  -33.800; -768.000; -791.000
279.020;  -19.500; -194.000; -144.000
279.160;  -74.825; -672.000; -595.000
279.300; -108.750; -926.000; -873.000
279.440;  -77.300; -709.000; -622.000
279.579;    1.700;-1014.000; -929.000
279.719;  -46.300; -410.000; -394.000
279.859;   91.325;   -4.000;   41.000
279.999;   38.500; -208.000;  101.000
280.139;   -5.200; -435.000; -387.000
280.279;  -70.000; -708.000; -745.000
280.419;  -14.700; -229.000; -147.000
280.559;  -34.325; -259.000; -180.000
280.698;  -67.425; -790.000; -639.000
280.838;  -87.900; -778.000; -800.000
280.978;  -94.275; -846.000; -790.000
281.118; -116.125; -811.000; -704.000
281.257;    0.500;   24.000;    6.000
281.397;  -91.950;-1094.000; -960.000
281.537;  -84.825; -599.000; -712.000
281.677;  -21.900; -150.000; -101.000
281.816;  -79.575; -700.000; -630.000
281.956;  -21.000; -193.000; -257.000
282.096;  -60.425; -539.000; -396.000
282.235; -108.625; -672.000; -638.000
282.375;  -15.325; -243.000;  -98.000
282.515;  -93.525; -715.000; -707.000
282.654;   28.700;   29.000;  106.000
282.794;   28.375;  388.000;  244.000
282.934;  -54.950; -530.000; -491.000
283.073; -128.425;-1030.000; -857.000
283.213;  -55.675; -460.000; -467.000
283.353;  -39.350; -408.000; -349.000
283.492;  -20.675; -264.000; -296.000
283.632;  -38.700; -254.000; -168.000
283.771;  -96.250; -859.000; -730.000
283.911;  -63.625; -369.000; -260.000
284.050; -101.975; -794.000; -748.000
284.190; -156.375;-1229.000;-1096.000
284.329; -134.125;-1055.000; -964.000
284.469;  -57.750; -516.000; -591.000
284.608;  -51.175; -559.000; -598.000
284.748;  -87.875; -614.000; -570.000
284.887;    0.000;  -87.000;  -20.000
285.027; -129.800; -844.000; -892.000
285.166;  -29.650; -192.000; -249.000
285.306;   10.325; -116.000;  -33.000
285.445;  -40.400; -229.000; -343.000
285.584;  -89.475; -630.000; -494.000
285.724;  -45.900; -282.000; -322.000
285.863; -108.575; -857.000; -507.000
286.002;  -53.300; -366.000; -276.000
286.142; -102.000; -715.000; -622.000
286.281;  -65.475; -525.000; -493.000
286.420;  -77.825; -554.000; -417.000
286.560;   95.325;  653.000;  623.000
286.699; -137.900; -958.000; -912.000
286.838;  -81.425; -590.000; -591.000
286.978;  -86.225; -533.000; -537.000
287.117; -140.650;-1085.000; -950.000
287.256;  -36.050; -228.000; -211.000
287.395;  -54.325; -197.000; -378.000
287.535;  -53.350; -370.000; -298.000
287.674;  -61.975; -509.000; -484.000
287.813;   46.325;  661.000;  533.000
287.952; -123.025;-1010.000; -871.000
288.091; -147.650;-1049.000; -915.000
288.231;   18.150;   13.000;   15.000
288.370; -169.600;-1217.000;-1200.000
288.509;  -77.375; -728.000; -645.000
288.648;  -94.750; -770.000; -548.000
288.787;  -23.850; -243.000;  -87.000
288.926;  -64.100; -454.000; -475.000
289.065;  114.500;  859.000;  672.000
289.204;  -53.475; -377.000; -217.000
289.344;  -91.125; -791.000; -690.000
289.483;   26.150;  416.000;  304.000
289.622;  -19.750; -291.000; -149.000
289.761;  -22.150; -309.000; -166.000
289.900; -112.175; -785.000; -626.000
290.039;  -20.325;  -12.000;  -95.000
290.178;  -25.275; -274.000; -180.000
290.317;  -74.950; -618.000; -479.000
290.456;  -55.525; -463.000; -451.000
290.595; -122.475; -961.000; -833.000
290.734; -135.850; -904.000; -891.000
290.873;  -49.975; -456.000; -420.000
291.011;  -95.600; -833.000; -843.000
291.150; -101.700; -770.000; -682.000
291.289;   -4.000; -343.000; -110.000
291.428;  -86.700; -599.000; -480.000
291.567;  -55.900; -370.000; -442.000
291.706;    2.975;  109.000;  154.000
291.845;  -90.725; -597.000; -505.000
291.984; -168.350;-1234.000;-1061.000
292.122;   53.125;  602.000;  582.000
292.261;   45.500;  620.000;  463.000
292.400;   10.300; -144.000;  211.000
292.539; -116.475; -959.000; -813.000
292.678;  -31.350; -325.000; -300.000
292.816; -149.300;-1136.000; -965.000
292.955;  -85.800; -844.000; -684.000
293.094;  -25.750; -173.000; -337.000
293.233;  -63.350; -556.000; -400.000
293.371;  -31.000; -225.000;  -84.000
293.510; -101.525; -866.000; -780.000
293.649; -115.525; -959.000; -924.000
293.787;  -46.575;-1083.000;-1012.000
293.926;    1.525; -113.000;  -32.000
294.065;  -48.900; -379.000; -290.000
294.203;   44.625;  298.000;  406.000
294.342;   22.350;   74.000;  156.000
294.481; 6267.675;51180.000; -836.000
294.619;  -27.375; -425.000; -582.000
294.758; -129.400;-1230.000;-1137.000
294.896;   75.750; -125.000;    5.000
295.035; -129.825;-1040.000;-1006.000
295.174; -109.675;-1082.000; -954.000
295.312;  -32.800; -323.000; -203.000
295.451;   12.375; -307.000; -428.000
295.589;  -53.125; -389.000; -518.000
295.728;   31.525; -292.000; -165.000
295.866;    2.175;  -36.000;  -51.000
296.005;  -61.000; -584.000; -341.000
296.143;  -57.725; -558.000; -596.000
296.282;  -84.425; -957.000; -881.000
296.420;  -69.725; -657.000; -557.000
296.559;  -90.850; -892.000; -633.000
296.697;   38.500; -847.000; -665.000
296.835;   96.050;-1141.000;-1002.000
296.974;   55.275;  -23.000;   39.000
297.112;   23.550; -443.000; -504.000
297.251;  -69.425; -815.000; -755.000
297.389;  114.800; -576.000; -438.000
297.527;   30.200; -145.000;  -83.000
297.666;  -43.475; -486.000; -438.000
297.804;  -57.625; -404.000; -264.000
297.942;   -8.200; -136.000; -161.000
298.081;    1.375; -183.000;   63.000
298.219;   72.150;  -17.000;  -19.000
298.357;   65.075; -144.000;  -71.000
298.495;   54.725; -810.000; -812.000
298.634;   89.875;  245.000;  219.000
298.772;   78.600; -220.000; -338.000
298.910;  -28.025; -309.000; -182.000
299.048;   -9.400; -130.000; -153.000
299.187;  -37.275; -350.000; -250.000
299.325;   18.975;   52.000;  122.000
299.463;   88.850; -389.000; -299.000
299.601;  134.550; -327.000; -271.000
299.739;  -95.500; -908.000; -883.000
299.877;  -73.450; -791.000; -703.000
300.016;  -26.650;-1095.000; -935.000
300.154;  195.825;  -19.000; -161.000
300.292;   71.100; -428.000; -348.000
300.430;   54.350; -408.000; -291.000
300.568;  -93.375; -940.000; -874.000
300.706;  -44.825; -366.000; -469.000
300.844;  -44.750;-1108.000; -979.000
300.982;  132.875;  246.000;  282.000
301.120;  -94.775; -965.000; -866.000
301.258;  -53.900; -812.000; -705.000
301.396;   30.000;  104.000;  -41.000
301.534;  105.175; -218.000; -293.000
301.672;    8.550; -664.000; -521.000
301.810;   63.450; -613.000; -545.000
301.948;  127.475;   53.000;  149.000
302.086;  735.550; -250.000;  -32.000
302.224; 1113.350; -610.000; -585.000
302.362;   61.325; -558.000; -622.000
302.500;    8.625; -923.000; -893.000
302.638;  121.050;  128.000;  245.000
302.776;    7.250; -352.000; -408.000
302.913;   40.225;  447.000;  236.000
303.051;    1.125;  -86.000;  -23.000
303.189;   58.400;   90.000;  118.000
303.327;  -35.575; -341.000; -256.000
303.465;  -80.275; -832.000; -588.000
303.603;  -89.125; -805.000; -604.000
303.740;  100.750;  417.000;  241.000
303.878;   48.725; -800.000; -759.000
304.016;  -85.775; -915.000; -790.000
304.154; -113.275;-1123.000;-1152.000
304.291;  -28.275; -505.000; -554.000
304.429;    0.150;  102.000;   74.000
304.567; -119.025; -908.000; -893.000
304.705;  -59.875; -408.000; -515.000
304.842;  135.575; -616.000; -540.000
304.980;   43.225;  215.000;   35.000
305.118;   69.875; -367.000; -365.000
305.255;  -65.025; -945.000; -927.000
305.393;   55.275;  178.000;  239.000
305.531;  -90.550;-1173.000; -956.000
305.668;  -61.875; -663.000; -582.000
305.806;  124.800; -358.000; -439.000
305.943;  126.225; -629.000; -637.000
306.081;   78.900; -378.000; -267.000
306.219;  -97.575; -863.000; -748.000
306.356;   -0.925;  158.000;   27.000
306.494;   92.425;  981.000;  761.000
306.631;   -4.150;  -11.000;  -55.000
306.769;   13.700; -613.000; -485.000
306.906;    0.525; -284.000; -258.000
307.044;  -53.125; -473.000; -488.000
307.181;  -60.300; -410.000; -332.000
307.319;   13.675;  112.000;   87.000
307.456; -159.950;-1191.000;-1153.000
307.594;  -97.675; -980.000; -727.000
307.731;    8.025; -371.000; -164.000
307.868;    8.750;  -15.000;   20.000
308.006; -133.975; -961.000; -847.000
308.143;  -58.975; -618.000; -330.000
308.281;  208.825;  -37.000; -254.000
308.418;    7.625; -748.000; -640.000
308.555;  -58.200; -400.000; -250.000
308.693;  -69.225; -577.000; -573.000
308.830; -105.450; -712.000; -657.000
308.967;  -25.350; -215.000;  -95.000
309.105;  -48.500; -507.000; -396.000
309.242;   69.050; -468.000; -367.000
309.379;  390.075; -577.000; -655.000
309.517;  -53.100; -936.000; -948.000
309.654;  -91.900; -910.000; -734.000
309.791;  -72.200; -662.000; -580.000
309.928; -105.575; -977.000; -914.000
310.065;  196.200;  819.000;  697.000
310.203;   16.775; -825.000; -850.000
310.340;    5.625; -465.000; -321.000
310.477;  -79.000; -412.000; -516.000
310.614;  -61.750; -383.000; -473.000
310.751;  -75.625; -427.000; -518.000
310.889;  -19.075;    1.000;   11.000
311.026; -147.225;-1161.000; -939.000
311.163;  -42.975; -386.000; -380.000
311.300;  -82.650; -512.000; -479.000
311.437;  -59.425; -658.000; -619.000
311.574; -143.750;-1226.000; -985.000
311.711;  -55.775; -595.000; -433.000
311.848;  -46.300; -380.000; -388.000
311.985;    6.775;  270.000;   93.000
312.122; -106.200; -932.000; -762.000
312.259; -125.525; -941.000; -994.000
312.396;  -81.400; -508.000; -551.000
312.533;  -81.625; -812.000; -790.000
312.670; -120.675;-1070.000; -898.000
312.807;  -46.000; -352.000; -367.000
312.944;  -83.250; -513.000; -611.000
313.081;  -11.675; -150.000; -415.000
313.218; -117.500;-1111.000; -867.000
313.355;   33.175; -531.000; -449.000
313.492;    9.925; -455.000; -292.000
313.629;  130.750;  815.000;  735.000
313.766; -162.075;-1176.000;-1008.000
313.902;   -9.550; -186.000;   21.000
314.039;  -56.050; -372.000; -289.000
314.176;   33.225;  286.000;  192.000
314.313;  -67.000; -569.000; -473.000
314.450;  -68.075; -788.000; -684.000
314.587;  -58.200; -468.000; -480.000
314.723;    9.900;  -78.000;  130.000
314.860;   28.100;  318.000;  332.000
314.997;   22.950;  223.000;  142.000
315.134;  -42.600; -385.000; -368.000
315.270;  -21.300; -480.000; -496.000
315.407; -129.650;-1094.000; -967.000
315.544;  -35.700; -657.000; -538.000
315.681;  -55.875; -681.000; -565.000
315.817;   33.325; -133.000; -176.000
315.954;   31.800; -613.000; -392.000
316.091; -115.475;-1045.000;-1023.000
316.227;  -21.325;  -71.000; -179.000
316.364;   -3.250;   23.000;    6.000
316.500;  -47.925; -113.000; -300.000
316.637;  -38.325; -181.000; -302.000
316.774;  -85.175; -625.000; -358.000
316.910;  -81.500; -598.000; -629.000
317.047;  -59.225; -487.000; -351.000
317.183;  -51.175; -435.000; -566.000
317.320;  -12.125; -367.000; -321.000
317.456;  -65.700; -733.000; -805.000
317.593;  -89.800; -598.000; -641.000
317.729;    0.175;  168.000;  -67.000
317.866; -192.200;-1434.000;-1285.000
318.002;  -86.225; -708.000; -948.000
318.139;  -76.125; -883.000; -867.000
318.275;  -97.275;-1003.000; -738.000
318.412;  -60.775; -517.000; -336.000
318.548;  -18.475; -751.000; -720.000
318.685;  -92.150; -985.000; -888.000
318.821;  -90.600; -762.000; -735.000
318.957;  -16.375;   34.000;  -23.000
319.094;   36.925;  297.000;  154.000
319.230;  -49.725; -756.000; -742.000
319.367;  166.275; -471.000; -520.000
319.503;   81.825; -538.000; -436.000
319.639;  -95.025; -877.000; -793.000
319.775;  -58.350; -750.000; -685.000
319.912;  -51.200; -424.000; -519.000
320.048;  -76.975;-1184.000;-1184.000
320.184;   69.675;   59.000;   70.000
320.321;  -72.750; -497.000; -467.000
320.457;   61.400;  475.000;  662.000
320.593;  -58.750; -375.000; -382.000
320.729;  -99.725; -732.000; -734.000
320.866;  -76.825; -577.000; -635.000
321.002;  -66.550; -759.000; -809.000
321.138;  -16.725; -135.000; -211.000
321.274;   91.750; -148.000; -115.000
321.410;  -17.925; -585.000; -353.000
321.546;    4.075;-1011.000; -911.000
321.683;   61.400;  400.000;  185.000
321.819;    5.100;  -48.000; -117.000
321.955; -106.525; -743.000; -722.000
322.091;  -44.950; -585.000; -540.000
322.227;    3.150; -382.000; -202.000
322.363;    6.025; -320.000; -215.000
322.499;  -28.275; -343.000; -331.000
322.635;  178.625;  636.000;  443.000
322.771;   42.550; -139.000;   12.000
322.907;   95.400;  129.000;  327.000
323.043;  -16.675; -115.000; -206.000
323.179;  -20.200; -394.000; -363.000
323.315;   60.625; -401.000; -371.000
323.451;  116.800; -328.000; -236.000
323.587;   64.000;  -60.000;  -77.000
323.723;   40.450; -682.000; -601.000
323.859;   -8.100; -258.000;  -76.000
323.995;  -32.275; -467.000; -409.000
324.131; -117.575; -967.000; -892.000
324.267;  -30.550; -254.000; -276.000
324.402; -112.300; -960.000; -983.000
324.538;   -3.375; -279.000; -104.000
324.674;   26.375;  164.000;   77.000
324.810;  161.900;  226.000;  308.000
324.946;   13.775; -810.000; -658.000
325.082;  -73.725; -568.000; -475.000
325.217;    1.625;  -62.000;   16.000
325.353;  -87.425; -764.000; -659.000
325.489;  -75.500; -540.000; -506.000
325.625;  -72.800; -579.000; -525.000
325.760;   55.350;  517.000;  376.000
325.896;  -28.650; -515.000; -702.000
326.032;  -50.075; -403.000; -352.000
326.168;  -63.825; -462.000; -369.000
326.303;  -58.250; -352.000; -461.000
326.439;  -14.800; -336.000; -276.000
326.575;   12.125; -190.000;  -29.000
326.710;   11.100; -156.000;  -30.000
326.846;    3.825;  146.000;  103.000
326.982;  -88.900; -530.000; -548.000
327.117;  -69.800; -481.000; -442.000
327.253;  -85.075; -745.000; -742.000
327.388; -153.900;-1137.000;-1153.000
327.524;  -22.025; -811.000; -578.000
327.659;  -18.100;  -58.000;  -22.000
327.795;   -9.725;   69.000;   45.000
327.931;  -80.175; -723.000; -499.000
328.066;  -29.675; -417.000; -276.000
328.202;    3.050;   12.000; -129.000
328.337;  101.875;  957.000;  713.000
328.473;   30.800;  -12.000;  -74.000
328.608;  -20.700; -256.000; -267.000
328.743;  -83.100; -799.000; -664.000
328.879;   13.125;  214.000;  114.000
329.014;  -37.600; -102.000; -122.000
329.150;  -78.500; -358.000; -483.000
329.285;  -78.175; -465.000; -466.000
329.421;  -39.800; -548.000; -246.000
329.556;  -19.825;  -36.000;   85.000
329.691;  -86.575; -633.000; -615.000
329.827;  -75.650; -626.000; -480.000
329.962;  -50.150;  131.000; -301.000
330.097;  -91.825; -673.000; -585.000
330.233;  -56.775; -410.000; -223.000
330.368; -116.875; -839.000; -628.000
330.503;  -29.900;    3.000;   98.000
330.638;    5.500;  -93.000; -125.000
330.774;  -43.350; -609.000; -530.000
330.909;  -44.775; -434.000; -244.000
331.044;  -87.750; -714.000; -708.000
331.179; -168.400;-1217.000;-1109.000
331.315;    6.125;   77.000;   20.000
331.450;    5.200;  157.000;  285.000
331.585;  -98.275; -805.000; -706.000
331.720;  -77.400; -510.000; -460.000
331.855;   -4.400;  -35.000; -102.000
331.990;  218.425;   62.000;  138.000
332.126;  124.825; -110.000;   71.000
332.261;  -17.625; -379.000; -265.000
332.396;   -0.725; -135.000; -242.000
332.531;  -92.000;-1074.000;-1031.000
332.666;   33.575; -519.000; -363.000
332.801; -106.125; -726.000; -807.000
332.936;  -22.750; -192.000; -122.000
333.071; -150.225; -870.000; -817.000
333.206;   19.550;  307.000;  379.000
333.341;   43.250;  344.000;  418.000
333.476;  -69.600; -627.000; -623.000
333.611;  -33.900; -251.000; -173.000
333.746;  -47.500; -381.000; -464.000
333.881;  -96.050; -973.000; -935.000
334.016; -125.725; -936.000; -917.000
334.151; -119.475; -746.000; -702.000
334.286;   32.625;  152.000;  186.000
334.421;   -9.475; -125.000; -178.000
334.556;  -64.850; -611.000; -567.000
334.690;  -93.100; -631.000; -577.000
334.825;   48.575;  381.000;   83.000
334.960;  -49.725; -285.000; -413.000
335.095;    9.150;  135.000;  -91.000
335.230;  -87.750; -722.000; -738.000
335.365; -128.375;-1084.000; -990.000
335.499; -115.150;-1108.000;-1037.000
335.634;   20.575;    9.000;  534.000
335.769; -101.025; -755.000; -720.000
335.904;  -47.975; -603.000; -561.000
336.038;  -54.925; -735.000; -657.000
336.173; -109.450;-1206.000;-1194.000
336.308;   10.775; -116.000; -189.000
336.443;   11.950; -544.000; -634.000
336.577;  -72.925; -936.000; -787.000
336.712;   73.675;   -4.000;  -12.000
336.847;  -18.025; -724.000; -607.000
336.981;   96.100; -272.000; -208.000
337.116;  332.750;  615.000;  501.000
337.250;  199.700; -434.000; -421.000
337.385;  237.375; -297.000; -208.000
337.520;   79.650; -632.000; -603.000
337.654;  -31.400; -215.000; -126.000
337.789; -124.075; -989.000; -933.000
337.923;  -39.800; -104.000; -205.000
338.058;  -79.375; -673.000; -738.000
338.192;  -23.350; -611.000; -488.000
338.327;   -5.225;  -18.000; -155.000
338.461;  -40.625; -299.000; -469.000
338.596;  -94.400; -780.000; -638.000
338.730; -111.725; -767.000; -803.000
338.865;   92.800;  -46.000; -140.000
338.999;  -40.125; -846.000; -702.000
339.134;  -25.300; -634.000; -536.000
339.268;   20.275; -741.000; -603.000
339.403;  367.150; -740.000; -775.000
339.537;   93.050; -894.000; -820.000
339.671;  -97.625; -829.000; -813.000
339.806;  -55.450; -556.000; -512.000
339.940;    1.650; -261.000; -235.000
340.074;  -92.750; -685.000; -510.000
340.209;  -45.250; -351.000; -230.000
340.343;  -92.700; -517.000; -573.000
340.477;  150.175;  998.000; 1036.000
340.612;  -49.525;-1033.000; -900.000
340.746;  118.525; -199.000; -243.000
340.880;  -43.425; -924.000; -785.000
341.014;  -20.000;  -45.000; -154.000
341.149; -114.000; -756.000; -718.000
341.283;  -92.550; -839.000; -754.000
341.417;  -69.025;-1124.000; -938.000
341.551;  180.875; -768.000; -708.000
341.685;  -24.675; -633.000; -611.000
341.820;  -58.100; -562.000; -493.000
341.954;  -28.750; -218.000; -349.000
342.088; -136.750;-1102.000;-1019.000
342.222;   63.850;  565.000;  618.000
342.356;  -44.250; -395.000; -335.000
342.490;  -75.225; -880.000; -841.000
342.624;  -44.025; -339.000; -242.000
342.758;   14.025; -364.000; -312.000
342.892;  -57.125; -710.000; -585.000
343.026;  -29.800;  -58.000; -116.000
343.160;  -60.425; -426.000; -376.000
343.294;  -81.875; -474.000; -337.000
343.428;   -7.600; -488.000; -448.000
343.562;  -12.450; -172.000;  -23.000
343.696;  -14.900; -385.000; -314.000
343.830;   -9.825; -362.000; -356.000
343.964;   17.950; -231.000; -168.000
344.098; 1086.450;  199.000;   70.000
344.232;  888.300; -266.000; -127.000
344.366;  113.050; -567.000; -453.000
344.500;  102.800; -665.000; -744.000
344.634;   47.100; -324.000; -164.000
344.768;   11.250; -531.000; -341.000
344.902;   35.900;  278.000;  256.000
345.035;  -71.050; -556.000; -496.000
345.169; -123.025; -933.000; -656.000
345.303;  -18.925; -308.000; -482.000
345.437;  -61.550; -826.000; -717.000
345.571;  -77.200; -675.000; -594.000
345.704;  -64.300; -309.000; -532.000
345.838;  -17.725; -331.000; -284.000
345.972;  -31.700; -543.000; -495.000
346.106;  180.625; -179.000; -190.000
346.239;  458.025; -312.000; -243.000
346.373;   34.525; -343.000; -302.000
346.507; -134.250; -950.000; -962.000
346.640;  181.900;  -30.000;   13.000
346.774;  -16.650; -650.000; -797.000
346.908;  -12.075; -138.000;  -11.000
347.041;  -88.375; -646.000; -593.000
347.175;    4.800;  259.000;   27.000
347.309;  -46.875; -698.000; -628.000
347.442;  -98.275; -883.000; -732.000
347.576;  318.775;  670.000;  668.000
347.709;  241.475; -123.000;  -52.000
347.843;  -83.425; -933.000; -825.000
347.976;   45.775;  235.000;  294.000
348.110; -171.000;-1268.000;-1186.000
348.243; -106.900; -679.000; -772.000
348.377;   18.075;  -26.000;   60.000
348.510;   55.300;  403.000;  540.000
348.644;  -26.650;  -37.000; -159.000
348.777;    0.550;  180.000;  191.000
348.911;  -44.425; -142.000; -112.000
349.044;  196.250;  471.000;  448.000
349.178;  209.525;-1069.000;-1006.000
349.311;  122.000;  141.000;  255.000
349.444;   -8.250; -927.000; -813.000
349.578;    1.300; -347.000; -200.000
349.711;  -85.900; -959.000; -862.000
349.845;   12.050; -661.000; -591.000
349.978; -131.950;-1224.000;-1137.000
350.111;  -82.275; -546.000; -612.000
350.244;  -70.175; -596.000; -700.000
350.378;   26.625; -392.000; -393.000
350.511;  -67.700; -393.000; -426.000
350.644;  -93.625; -808.000; -806.000
350.778;   15.175;  168.000;  104.000
350.911;    0.325;  134.000;  140.000
351.044;  -87.850; -685.000; -615.000
351.177;  -13.450; -321.000; -281.000
351.310;  -29.275;    3.000; -131.000
351.444;  -60.325; -888.000; -788.000
351.577;  131.725;  140.000;   90.000
351.710;  103.250;  593.000;  417.000
351.843;  -39.750; -165.000;  -77.000
351.976;    4.175;  149.000;  -79.000
352.109;  -93.450; -621.000; -612.000
352.242;  -12.000; -464.000; -419.000
352.376;  -48.175; -580.000; -636.000
352.509;  231.750; -437.000; -356.000
352.642;   57.325; -654.000; -604.000
352.775;   82.675; -141.000;  -98.000
352.908; -107.675; -933.000; -904.000
353.041; -100.050; -814.000; -824.000
353.174;  -63.150; -551.000; -424.000
353.307;  -72.200; -753.000; -764.000
353.440;   74.700;  541.000;  453.000
353.573;  -92.975; -957.000;-1008.000
353.706;  -32.875; -384.000; -558.000
353.839;  -13.450; -264.000; -220.000
353.971;  -84.950; -657.000; -512.000
354.104;  -78.850; -896.000; -835.000
354.237;  -28.425; -627.000; -662.000
354.370;  -71.950; -846.000; -879.000
354.503; -161.550;-1231.000;-1308.000
354.636;  -42.400; -529.000; -348.000
354.769; -124.750; -937.000; -860.000
354.902;   -1.725; -230.000; -139.000
355.034;  -19.825; -164.000; -220.000
355.167;  -22.625; -262.000; -162.000
355.300;  -77.275;-1061.000; -880.000
355.433;  938.475;  -71.000;  -14.000
355.565; 1490.600; -402.000; -384.000
355.698;  381.675; -356.000; -296.000
355.831;    7.400; -882.000; -801.000
355.964;  117.600; -285.000; -170.000
356.096;  -64.350; -856.000; -843.000
356.229;   17.050; -523.000; -530.000
356.362;  317.275; -373.000; -266.000
356.494;  587.100; -229.000; -162.000
356.627;  545.000;  269.000;  377.000
356.760;  659.175;  120.000;   53.000
356.892;  922.900; -286.000; -601.000
357.025;  763.700;  403.000;  389.000
357.157;  721.350; -167.000; -179.000
357.290;  630.025; -856.000; -713.000
357.423;  186.975; -667.000; -556.000
357.555;  130.450; -217.000; -228.000
357.688;  143.125; -483.000; -364.000
357.820;  529.400; -870.000; -877.000
357.953; 4130.250; -563.000; -589.000
358.085;  985.000; -632.000; -612.000
358.218; 1452.425;-1131.000; -932.000
358.350;  265.525;  -58.000;  312.000
358.483; -100.550;-1300.000;-1187.000
358.615;   31.225;-1182.000;-1078.000
358.747;  -29.800;-1187.000;-1058.000
358.880;   54.575; -810.000; -744.000
359.012;    9.200; -376.000; -202.000
359.145;  -25.775; -480.000; -511.000
359.277;  100.300; -962.000; -913.000
359.409; 3413.875;  536.000;  231.000
359.542;  951.475; -738.000; -688.000
359.674;   85.025;   46.000;   13.000
359.806;  -52.275; -565.000; -438.000
359.939;  -30.625; -617.000; -516.000
360.071;  -13.600; -583.000; -579.000
360.203;  -12.400; -411.000; -364.000
360.335;   64.900;  164.000;  -16.000
360.468;  218.225; -249.000; -307.000
360.600; 2707.125; -547.000; -454.000
360.732; 2776.350; -546.000; -423.000
360.864;  387.175;-1216.000;-1044.000
360.996;  358.250; -516.000; -554.000
361.129;   71.600; -389.000; -598.000
361.261;   26.000;  110.000; -113.000
361.393;  -14.425; -252.000; -214.000
361.525;   27.925;   94.000;  244.000
361.657;  -25.500; -821.000; -703.000
361.789;   23.800; -139.000; -155.000
361.921;  321.950; -642.000; -593.000
362.053;  296.050;  524.000;  541.000
362.185;   63.250;  288.000;   72.000
362.318;  -57.350; -709.000; -705.000
362.450;  145.425;  294.000;  444.000
362.582;  171.550; -913.000; -870.000
362.714;  -25.225; -353.000; -332.000
362.846;  -82.475; -606.000; -490.000
362.978; -125.500; -941.000; -811.000
363.109;   82.450; -161.000; -260.000
363.241;  531.800; -739.000; -749.000
363.373;  443.850; -649.000; -564.000
363.505;  622.600; -186.000;  -91.000
363.637;  171.625; -787.000; -601.000
363.769;  -98.325;-1067.000;-1080.000
363.901;  -57.100; -596.000; -654.000
364.033; -106.025;-1103.000;-1062.000
364.165;   16.150; -283.000; -283.000
364.296;   76.100; -316.000; -177.000
364.428;   67.650;-1344.000;-1220.000
364.560;  -63.475; -679.000; -661.000
364.692;  -50.700; -738.000; -835.000
364.824;  341.700; -588.000; -456.000
364.955;  467.825; -402.000; -564.000
365.087;  860.575;-1097.000; -852.000
365.219;   27.575; -686.000; -816.000
365.351;  -65.650; -526.000; -572.000
365.482;   59.425;  300.000;  240.000
365.614;  -38.400; -402.000; -314.000
365.746;  -80.925; -729.000; -752.000
365.877;  -95.825; -706.000; -672.000
366.009;  249.350;  -35.000;  -62.000
366.141;  -89.750;-1249.000;-1134.000
366.272; -106.575; -803.000; -719.000
366.404; -105.325;-1005.000; -874.000
366.535;   -3.400; -139.000;  -12.000
366.667; -106.400; -644.000; -649.000
366.799;   32.075;  353.000;  203.000
366.930; -102.825; -862.000; -996.000
367.062;  119.500; -639.000; -613.000
367.193;  146.625; -872.000; -842.000
367.325;  -55.850; -580.000; -684.000
367.456;   82.400; -246.000;   31.000
367.588;  165.275; -371.000; -318.000
367.719;   33.725;  -44.000;  -45.000
367.851;    3.675; -222.000; -241.000
367.982;  -26.500; -875.000; -732.000
368.113;  150.950; -475.000; -358.000
368.245; -101.150; -960.000; -841.000
368.376;    4.575; -254.000; -302.000
368.508;  -23.850; -188.000; -263.000
368.639; -120.050;-1166.000;-1034.000
368.770;    2.575; -670.000; -589.000
368.902;  -24.925; -836.000; -926.000
369.033;  -94.900; -906.000; -855.000
369.164;  -37.625; -720.000; -653.000
369.296; -111.850; -452.000; -601.000
369.427;    0.875; -209.000; -144.000
369.558;  -37.150; -593.000; -377.000
369.689;  -78.025; -721.000; -569.000
369.821; -121.600; -951.000; -845.000
369.952;  -10.425;   42.000; -108.000
370.083;  -49.925; -229.000; -108.000
370.214;  -69.900; -735.000; -650.000
370.345;   -9.275;   65.000;   81.000
370.477;  -75.475; -810.000; -790.000
370.608;  280.100; -328.000; -264.000
370.739;  -11.300;-1233.000;-1292.000
370.870;    8.700;-1102.000; -923.000
371.001;  128.600; -378.000; -467.000
371.132;  -68.500; -754.000; -735.000
371.263;  -19.100;  -42.000; -148.000
371.394; -130.125; -841.000; -748.000
371.525;   31.975;  345.000;  225.000
371.657;  -89.675; -808.000; -670.000
371.788;   85.250;  103.000;  199.000
371.919;  223.825; -384.000; -304.000
372.050; 4172.225;  -91.000; -156.000
372.181; 1314.800; -188.000; -294.000
372.311;  440.700;   42.000; -127.000
372.442;   70.550; -457.000; -451.000
372.573;  -17.400; -444.000; -340.000
372.704; -108.050;-1008.000; -980.000
372.835;  108.600; -228.000; -289.000
372.966;  -53.275; -646.000; -554.000
373.097;  -58.625; -575.000; -711.000
373.228;   -9.175; -717.000; -542.000
373.359;  190.325; -824.000; -536.000
373.490; 1112.625; -881.000; -727.000
373.620; 1420.350;-1001.000; -803.000
373.751; 2109.100; -332.000; -396.000
373.882;  980.275; -663.000; -733.000
374.013;  108.825; -449.000; -262.000
374.143;  -27.825; -581.000; -659.000
374.274;  -84.650; -987.000; -908.000
374.405;  214.150; -388.000; -276.000
374.536;  542.050; -526.000; -387.000
374.666; 1374.400; -759.000; -807.000
374.797;  286.075; -817.000; -868.000
374.928; 1066.225; -710.000; -560.000
375.058; 1109.525; -535.000; -500.000
375.189;  115.500;  -59.000;  -93.000
375.320;  -96.050; -928.000;-1034.000
375.450;  -27.825; -625.000; -616.000
375.581;  -44.575; -526.000; -436.000
375.712;  -29.575; -574.000; -250.000
375.842;  376.500; -438.000; -415.000
375.973;  291.300; -554.000; -513.000
376.103;  -18.900; -665.000; -648.000
376.234;  -72.025; -531.000; -552.000
376.364;   -1.925; -944.000; -867.000
376.495;  376.300;  925.000;  529.000
376.625;   22.100; -472.000; -485.000
376.756;   99.525; -709.000; -678.000
376.886;  -49.100;-1178.000;-1026.000
377.017;   51.950;-1048.000;-1061.000
377.147;  336.050; -786.000; -782.000
377.278;   56.300;  174.000;  228.000
377.408; -124.900; -801.000; -815.000
377.538; -107.575; -707.000; -693.000
377.669;  -67.150; -537.000; -613.000
377.799;  -88.750; -645.000; -635.000
377.929;  -49.450; -610.000; -428.000
378.060; -125.550; -781.000; -847.000
378.190;  -68.350; -726.000; -531.000
378.320;  -38.225; -401.000; -406.000
378.451;    1.300; -131.000;  -22.000
378.581;  -10.850;  -67.000; -110.000
378.711;  160.100; 1035.000;  866.000
378.841;    2.150; -533.000; -675.000
378.972;  -63.600; -871.000; -751.000
379.102;   14.300; -652.000; -579.000
379.232;   -9.900; -126.000;  -73.000
379.362;  -93.875;-1001.000; -885.000
379.492;   31.400; -373.000; -424.000
379.623;  135.475;    0.000;  111.000
379.753;  -72.775;-1107.000; -974.000
379.883;  244.675;   59.000;  156.000
380.013;   41.750;-1081.000;-1017.000
380.143;  -74.125;-1097.000;-1056.000
380.273;  -83.525; -985.000; -861.000
380.403;    1.400; -344.000; -257.000
380.533;  -16.875; -651.000; -664.000
380.663;   88.475;  173.000;  128.000
380.793;  -69.250;-1027.000;-1074.000
380.923;  -16.975; -103.000;  -34.000
381.053;  -90.825; -613.000; -623.000
381.183;  -18.700; -106.000; -248.000
381.313;   58.675; -656.000; -470.000
381.443;   73.675; -692.000; -473.000
381.573;  248.650; -402.000; -409.000
381.703;  384.325;-1249.000;-1095.000
381.833;  -95.925;-1454.000;-1336.000
381.963;  128.325; -134.000;  -87.000
382.093; 1609.675; -925.000; -909.000
382.223;  540.600; -713.000; -602.000
382.353;    4.625; -801.000; -608.000
382.482;  471.950;-1091.000; -964.000
382.612;  926.625; -872.000; -644.000
382.742;  565.000; -695.000; -622.000
382.872;  344.900; -565.000; -551.000
383.002;   80.025;  347.000; -132.000
383.131;   -2.375; -226.000; -160.000
383.261;  -25.675; -706.000; -768.000
383.391;  305.025; -552.000; -377.000
383.521; 3060.025;  451.000;  263.000
383.650;  735.425; -947.000; -904.000
383.780;    0.325; -783.000; -656.000
383.910;  116.475;  880.000;  802.000
384.039;   42.875; -794.000; -656.000
384.169;  309.475;-1205.000;-1017.000
384.299;   11.125; -650.000; -662.000
384.428;  -73.525; -764.000; -680.000
384.558;  -33.675; -308.000; -275.000
384.687;  -24.075; -414.000; -334.000
384.817;   24.350;   75.000;   -2.000
384.947;   49.325; -234.000; -141.000
385.076;  305.700;  982.000;  912.000
385.206;  120.625;  369.000;  480.000
385.335;  -22.150; -549.000; -417.000
385.465;  -61.700; -655.000; -663.000
385.594;  161.700;  -53.000;  -44.000
385.724;  530.475; -868.000; -838.000
385.853;  161.875; -296.000; -270.000
385.982; 1605.250; -743.000; -787.000
386.112; 2607.100;-1052.000; -871.000
386.241;  212.725; -307.000; -312.000
386.371;   46.675; -174.000;  -87.000
386.500;   23.725; -825.000; -789.000
386.629;   54.475; -874.000; -817.000
386.759;   70.625;  -43.000;   68.000
386.888;    6.025; -170.000; -250.000
387.017;  -52.025; -648.000; -620.000
387.147;  -67.875; -771.000; -798.000
387.276;    9.675; -410.000; -397.000
387.405;   32.825; -398.000; -342.000
387.535;  -25.675; -452.000; -361.000
387.664;  -44.050; -692.000; -620.000
387.793;   70.275; -198.000; -113.000
387.922;  621.900;  255.000;  200.000
388.052;   62.550; -576.000; -423.000
388.181;   40.350; -342.000; -472.000
388.310;   40.475; -889.000; -710.000
388.439;  -12.450; -749.000; -742.000
388.568;  233.300;  365.000;  244.000
388.697; 1281.700; -756.000; -653.000
388.826;  283.825; -768.000; -666.000
388.956;   76.550; -285.000; -307.000
389.085;  -27.125; -347.000; -287.000
389.214;  -90.050; -842.000; -872.000
389.343;  -57.950; -645.000; -413.000
389.472;  395.975;  126.000;  149.000
389.601;  551.725;   91.000;    0.000
389.730;   44.325; -568.000; -687.000
389.859;   77.525;  226.000;   46.000
389.988;  236.025; -423.000; -408.000
390.117;  188.225; -168.000; -146.000
390.246;   13.825; -331.000; -320.000
390.375;  143.025; -673.000; -626.000
390.504;  -52.500; -703.000; -621.000
390.633;  -88.725; -672.000; -726.000
390.761;  -53.950; -732.000; -645.000
390.890;   21.025;   -4.000; -130.000
391.019;  -12.900; -421.000; -441.000
391.148; -120.650; -826.000; -855.000
391.277;  -48.925; -576.000; -493.000
391.406;  -60.375; -821.000; -805.000
391.534;   19.450;  574.000; -301.000
391.663;  -53.650; -583.000; -645.000
391.792;  -79.025; -673.000; -701.000
391.921;  127.300;   -3.000;   15.000
392.050;  254.550; -287.000; -228.000
392.178;    0.575;-1206.000;-1061.000
392.307;  187.475; -758.000; -712.000
392.436;  112.300; -427.000; -641.000
392.564;   24.450;  166.000;   -6.000
392.693;  -76.525; -860.000; -682.000
392.822;  257.225; -529.000; -534.000
392.950;  153.925; -880.000; -714.000
393.079;  405.375; -188.000; -328.000
393.208;   53.075; -488.000; -511.000
393.336;   -0.800; -170.000; -145.000
393.465;  -43.475; -317.000; -199.000
393.593;    2.450;   62.000;   79.000
393.722; -150.250;-1121.000; -916.000
393.850;  -34.100; -188.000;  -61.000
393.979; -160.175; -926.000; -805.000
394.107;  -58.575; -517.000; -537.000
394.236;    0.200; -570.000; -507.000
394.364;  247.475;  383.000;  206.000
394.493;  471.350; -911.000; -767.000
394.621;   12.975; -955.000; -916.000
394.750;  667.675; -873.000; -923.000
394.878; 2839.375; -247.000; -149.000
395.007; 4010.675; -721.000; -807.000
395.135;  313.150; -790.000; -721.000
395.263;  -95.575;-1038.000;-1040.000
395.392;   15.250;  -25.000; -107.000
395.520; -129.025; -818.000; -679.000
395.648;  -78.850; -865.000; -915.000
395.777;    2.550; -366.000; -405.000
395.905;  -38.925; -449.000; -564.000
396.033;   18.125;  217.000;  172.000
396.162;  695.200; -399.000; -453.000
396.290;  649.525;  -17.000;   -2.000
396.418;  144.900; -555.000; -514.000
396.546;  -46.675; -571.000; -466.000
396.674;  -90.400; -850.000; -878.000
396.803;   18.450;  -72.000;  -23.000
396.931;  115.400; -179.000; -199.000
397.059;  128.825;-1026.000; -989.000
397.187;  -96.475;-1026.000; -975.000
397.315; -118.600; -884.000; -649.000
397.443;  -99.850; -592.000; -443.000
397.572;  -88.325; -578.000; -424.000
397.700;   10.050; -607.000; -614.000
397.828;   20.775;  120.000;  -90.000
397.956;  -34.750; -508.000; -478.000
398.084;  -55.575; -767.000; -626.000
398.212;   50.250;  137.000;  124.000
398.340;    8.250;  -56.000;  159.000
398.468;   55.350; -390.000; -169.000
398.596; -131.975; -993.000; -953.000
398.724; -117.475; -762.000; -767.000
398.852; -164.850;-1024.000; -976.000
398.980;  -58.575; -560.000; -560.000
399.108;  -24.325; -982.000; -735.000
399.236;   60.850;   13.000;    8.000
399.363;   14.550;  222.000;  196.000
399.491;  -62.400; -404.000; -398.000
399.619; -121.675; -829.000; -800.000
399.747;  -95.750; -859.000; -771.000
399.875;   98.850;  220.000;  234.000
400.003;  -50.050; -359.000; -284.000
400.130;  -88.275; -421.000; -341.000
400.258;  -34.650;  -83.000;   38.000
400.386;  -74.975; -352.000; -168.000
400.514;  -33.375; -526.000; -587.000
400.641;  -61.750; -928.000; -802.000
400.769; -134.900; -979.000; -888.000
400.897;  -94.400; -838.000; -793.000
401.025;  -26.950; -166.000; -152.000
401.152;  -11.925;  220.000;   38.000
401.280;  -73.200; -430.000; -429.000
401.408; -118.400; -712.000; -576.000
401.535; -103.500; -735.000; -758.000
401.663; -191.175;-1134.000;-1054.000
401.790;  -85.275; -514.000; -525.000
401.918;   37.025;  436.000;  405.000
402.046;  -23.825;  134.000;  122.000
402.173;  -35.400;  -18.000;    7.000
402.301;  -66.700; -519.000; -397.000
402.428;   38.400;  528.000;  383.000
402.556; -140.325;-1188.000; -913.000
402.683;  -26.775;  -20.000;   -1.000
402.811;  -14.550;  -37.000; -206.000
402.938;  -13.150;   20.000;   27.000
403.066;  240.575; -574.000; -558.000
403.193;  418.350;  299.000;  239.000
403.321;  323.375; -396.000; -574.000
403.448;  384.725;   83.000;   27.000
403.575;  187.900;  -90.000;  -46.000
403.703;  -90.200; -732.000; -557.000
403.830;  -75.625; -531.000; -496.000
403.957; -138.650;-1117.000;-1023.000
404.085;    2.225;  -61.000; -172.000
404.212;  106.375;  -50.000;   63.000
404.339;  255.000; -566.000; -306.000
404.467; 5535.000; -612.000; -524.000
404.594; 4055.600; -287.000; -227.000
404.721; 1044.200; -869.000; -764.000
404.848;   96.775; -113.000; -202.000
404.976;  -97.650; -856.000; -783.000
405.103;  -11.700;  -14.000;  -82.000
405.230;  -15.700;  190.000;  226.000
405.357;   17.850;  117.000;   44.000
405.484;  243.450;  -49.000;    5.000
405.612;   53.425; -548.000; -563.000
405.739;  -64.250; -488.000; -243.000
405.866;   86.925;  669.000;  385.000
405.993;  -36.925; -398.000; -102.000
406.120; -133.850; -801.000; -887.000
406.247;  -47.075; -323.000; -342.000
406.374;  517.925;  540.000;  629.000
406.501;  176.500; -632.000; -702.000
406.628;  -67.525; -621.000; -589.000
406.755;  -87.675; -803.000; -620.000
406.882;  -22.000; -228.000; -277.000
407.009; -112.875; -719.000; -628.000
407.136;   67.125; -480.000; -401.000
407.263;  202.700; -939.000; -829.000
407.390;  -61.750; -692.000; -614.000
407.517; -158.175;-1139.000;-1187.000
407.644;  -57.100; -332.000; -256.000
407.771;  -69.475; -249.000; -287.000
407.898;    5.575;  168.000;  328.000
408.025;  -71.000; -421.000; -313.000
408.151;   -0.225;   82.000;  153.000
408.278;  -57.775; -267.000; -216.000
408.405; -102.650; -931.000; -899.000
408.532;  -58.125; -549.000; -542.000
408.659; -110.500; -677.000; -648.000
408.785; -195.825;-1298.000;-1170.000
408.912;  -68.125; -412.000; -296.000
409.039; -111.175; -610.000; -686.000
409.166; -105.425; -591.000; -555.000
409.292; -107.325; -571.000; -534.000
409.419; -113.425; -665.000; -649.000
409.546;  -85.475; -431.000; -192.000
409.672; -104.625; -713.000; -545.000
409.799;  -23.975;  -36.000;   34.000
409.926;  -45.075; -180.000; -179.000
410.052; -171.275;-1127.000;-1091.000
410.179;  -50.050; -368.000; -392.000
410.305;  -89.825; -375.000; -493.000
410.432;  -32.025; -220.000; -333.000
410.558;  -91.650; -305.000; -380.000
410.685; -109.675; -688.000; -431.000
410.812;  -97.025; -409.000; -588.000
410.938; -133.475; -964.000; -808.000
411.065;  -87.725; -671.000; -645.000
411.191;   -8.375; -189.000; -174.000
411.317; -111.775; -823.000; -742.000
411.444;  -59.300; -317.000; -246.000
411.570;  -67.500; -339.000; -294.000
411.697; -120.175; -758.000; -752.000
411.823; -162.200; -989.000; -999.000
411.949;  -31.375;  -56.000;   17.000
412.076;  -96.025; -539.000; -519.000
412.202; -112.975; -758.000; -757.000
412.329; -118.225; -798.000; -752.000
412.455; -101.075; -821.000; -657.000
412.581;  -13.925;  -15.000;  172.000
412.707;  -71.525; -540.000; -457.000
412.834;    8.925;  156.000;  219.000
412.960;  -73.000; -785.000; -784.000
413.086; -105.175; -743.000; -701.000
413.212;  173.725;  604.000;  578.000
413.339;  -51.875; -685.000; -701.000
413.465;   17.675; -364.000; -310.000
413.591;  -69.475; -757.000; -474.000
413.717;  -50.850; -358.000; -366.000
413.843; -131.525; -839.000; -861.000
413.969;  -48.125;  -47.000; -292.000
414.096; -104.925; -679.000; -679.000
414.222;   -1.500;  -33.000;   85.000
414.348;  -20.650; -652.000; -385.000
414.474;  130.625;   38.000;  -52.000
414.600;  -12.075; -126.000; -144.000
414.726;  -15.300;  -96.000;  -55.000
414.852;  -49.225; -365.000; -342.000
414.978;   33.300;  104.000;  -18.000
415.104;   41.925;   38.000;   80.000
415.230;   40.725; -329.000; -330.000
415.356;   41.375; -409.000; -514.000
415.482;  204.625;   13.000;  -35.000
415.608;  265.625; -247.000; -323.000
415.734;  960.750;   67.000;   38.000
415.860;19276.875; -875.000; -767.000
415.986;15153.325; -685.000; -607.000
416.111; 1345.900; -798.000; -652.000
416.237;  278.075; -424.000; -571.000
416.363; 1041.975; -765.000; -733.000
416.489; 4116.300; -324.000; -251.000
416.615;  480.075; -707.000; -742.000
416.741;   -5.775; -677.000; -784.000
416.866;  -80.100; -673.000; -736.000
416.992; -120.650; -801.000; -818.000
417.118;  -30.600;  -41.000;  -80.000
417.244;  -42.775; -798.000; -531.000
417.369;  -87.450; -801.000; -612.000
417.495;    5.325; -325.000; -254.000
417.621;  -87.525;-1015.000; -803.000
417.746;   20.100; -579.000; -572.000
417.872;   55.700; -254.000; -144.000
417.998;   48.625; -515.000; -530.000
418.123;  969.900;-1073.000; -845.000
418.249; 5318.525; -512.000; -601.000
418.374;  811.225; -916.000; -824.000
418.500;  115.100; -383.000; -482.000
418.626;  118.675;   70.000;  -59.000
418.751;  139.075; -549.000; -448.000
418.877;  218.425; -637.000; -643.000
419.002; 1656.525; -688.000; -560.000
419.128;12302.175; -930.000; -721.000
419.253; 3223.625; -967.000; -837.000
419.379;  431.175; -391.000; -338.000
419.504;  398.725;  325.000;  415.000
419.629;  487.625; -393.000; -212.000
419.755; 3246.350; -317.000; -254.000
419.880;20206.900;  -98.000;   67.000
420.006;11099.850; -280.000; -221.000
420.131;29360.675; -662.000; -775.000
420.256; 4578.450; -315.000; -316.000
420.382;  614.875; -665.000; -687.000
420.507;   93.725; -649.000; -778.000
420.632;  162.350; -337.000; -339.000
420.758;  321.175; -251.000; -425.000
420.883;  -69.825; -876.000; -672.000
421.008;  -90.100; -775.000; -619.000
421.133;  -78.625; -509.000; -467.000
421.259;  -44.775; -325.000; -259.000
421.384; -100.675; -834.000; -693.000
421.509;  -14.725;-1052.000; -862.000
421.634; 1390.400; -936.000; -820.000
421.759;  670.025; -359.000; -327.000
421.885;  -38.125; -717.000; -656.000
422.010;  -72.675; -673.000; -542.000
422.135; -138.425; -695.000; -727.000
422.260;   34.825;  340.000;  280.000
422.385;  -36.875;   12.000;  -98.000
422.510;    5.800;  151.000;  -26.000
422.635;   23.600;  -87.000;  -43.000
422.760;  134.050; -766.000; -791.000
422.885;   73.150;  -57.000;  -80.000
423.010;  -24.925; -112.000; -169.000
423.135;  -84.500; -481.000; -561.000
423.260;  -10.725; -150.000; -245.000
423.385;   82.325;  476.000;  222.000
423.510;   41.125;   71.000;  -22.000
423.635;   95.225;  133.000;   45.000
423.760;   59.125;  383.000;  328.000
423.885;   55.125;  336.000;  391.000
424.010;   17.775;  -68.000;  -13.000
424.135;  -18.550;    5.000;  -33.000
424.259;  -80.675; -654.000; -457.000
424.384;  -61.100; -279.000; -272.000
424.509;  -24.775; -260.000; -186.000
424.634;  -88.025; -761.000; -623.000
424.759;   -7.650; -688.000; -544.000
424.883;   -8.675; -506.000; -527.000
425.008;  173.875; -502.000; -410.000
425.133; 1938.025; -679.000; -653.000
425.258;  985.750; -517.000; -381.000
425.382; 1119.350; -867.000; -774.000
425.507; 3048.350; -487.000; -543.000
425.632;  514.625; -802.000; -663.000
425.756;  449.550; -256.000; -146.000
425.881; 5812.275; -831.000; -857.000
426.006;16966.350; -604.000; -355.000
426.130; 2880.225; -696.000; -508.000
426.255;  380.600; -611.000; -491.000
426.379;  144.825; -189.000; -577.000
426.504;  355.925;  660.000;  544.000
426.629; 3926.675; -519.000; -466.000
426.753; 2939.325;   64.000;  -46.000
426.878;  360.350; -252.000; -288.000
427.002;  154.975; -651.000; -668.000
427.127; 1513.750;  -35.000; -158.000
427.251;11063.450;  372.000;  401.000
427.375; 3460.575; -191.000; -173.000
427.500; 2594.775; -616.000; -610.000
427.624;  988.275; -234.000; -400.000
427.749;  122.075; -216.000; -225.000
427.873;  -28.000; -499.000; -412.000
427.997;  -26.450; -222.000; -230.000
428.122;   72.450;  795.000;  703.000
428.246;   85.450;  433.000;  434.000
428.371; -119.300; -869.000; -773.000
428.495; -107.575; -624.000; -646.000
428.619;  -25.400; -186.000; -117.000
428.743;   22.550;   65.000;  132.000
428.868;   28.850; -732.000; -643.000
428.992; 1592.800; -219.000; -326.000
429.116;  721.650; -329.000; -357.000
429.240;  330.375;  419.000;  426.000
429.365;   -8.000; -454.000; -574.000
429.489;  -35.375; -638.000; -647.000
429.613;   14.900; -236.000; -177.000
429.737;   46.575; -563.000; -432.000
429.861;  268.350; -247.000; -133.000
429.985; 5320.475; -425.000; -305.000
430.109; 6266.025; -770.000; -908.000
430.234;  743.300;   76.000;  -50.000
430.358;   87.150; -250.000; -160.000
430.482;  -70.675; -672.000; -564.000
430.606;  -49.800; -655.000; -375.000
430.730;   37.700; -437.000; -388.000
430.854;  191.950; -909.000; -835.000
430.978;  -33.775; -795.000; -764.000
431.102;  -85.175; -499.000; -422.000
431.226;  -93.400; -874.000; -815.000
431.350;   31.675;  345.000;  422.000
431.474;  -69.225; -661.000; -373.000
431.597; -145.550;-1060.000; -848.000
431.721;  -79.275; -276.000; -267.000
431.845; -143.975; -704.000; -472.000
431.969;  -64.900; -304.000; -349.000
432.093;  -80.175; -395.000; -317.000
432.217;  -24.200;   32.000;   82.000
432.341;  -95.950; -523.000; -518.000
432.464;    6.550;   96.000;   40.000
432.588;  242.250; -401.000; -329.000
432.712;  131.950;  -52.000;  -52.000
432.836;   48.125;  213.000;  263.000
432.959;  -30.275; -372.000; -311.000
433.083;   75.800;   11.000;    2.000
433.207;  359.675;  285.000;  930.000
433.330; 4727.225; -391.000; -200.000
433.454; 6261.925; -654.000; -638.000
433.578; 3591.700;  583.000;  278.000
433.701;  744.300; -623.000; -675.000
433.825;  175.650; -292.000; -299.000
433.949;  233.125;   28.000;  -72.000
434.072;   84.875; -410.000; -323.000
434.196;  -28.575; -309.000; -117.000
434.319; 3542.175;25482.000;25124.000
434.443;  715.925; -656.000; -603.000
434.566; 2637.675;  281.000;   62.000
434.690;  495.425; -637.000; -383.000
434.813;   57.825; -251.000; -173.000
434.937;  -73.400; -569.000; -696.000
435.060;  -44.375; -423.000; -332.000
435.184;  405.800; -492.000; -217.000
435.307;  223.775;  159.000;  102.000
435.431;  -12.575;  -40.000;   24.000
435.554;  -73.850; -399.000; -240.000
435.677;  -85.350; -350.000; -258.000
435.801;  -39.325;  -25.000;   49.000
435.924;  -14.975;    1.000;  -67.000
436.048; -107.175;-1019.000; -732.000
436.171;  -69.900; -240.000;  -66.000
436.294;  -34.500; -248.000; -229.000
436.417;   84.500; -963.000; -849.000
436.541;  -77.200; -814.000; -840.000
436.664;  -60.000; -242.000; -316.000
436.787;  -26.150;   13.000;  113.000
436.910; -116.600; -792.000; -422.000
437.034;    9.675;  142.000;  143.000
437.157;   70.725;  -11.000;    0.000
437.280;  -30.225; -392.000; -292.000
437.403;  -70.775; -982.000; -869.000
437.526;  709.375; -903.000; -865.000
437.649; 2847.950; -505.000; -332.000
437.772;  479.025; -692.000; -540.000
437.896;  141.100;  700.000;  544.000
438.019;  -79.700; -758.000; -503.000
438.142;  -74.575; -596.000; -506.000
438.265;    6.025; -639.000; -670.000
438.388;  716.050; -520.000; -410.000
438.511;  170.125; -597.000; -394.000
438.634;  -40.600; -247.000; -125.000
438.757; -131.200; -693.000; -619.000
438.880;  -43.200;  -34.000;  -57.000
439.003;  -65.000; -417.000; -437.000
439.126;  -67.750; -287.000; -167.000
439.248;  -56.625;  -98.000; -139.000
439.371;  -47.425;    9.000;  -53.000
439.494;   15.475;  510.000;  439.000
439.617;  -45.775;   65.000;  -88.000
439.740; -179.100; -968.000; -816.000
439.863; -147.050; -755.000; -595.000
439.986; -120.400; -476.000; -431.000
440.108;  -46.275; -161.000; -112.000
440.231; -156.225; -950.000; -836.000
440.354;  -42.450;  -64.000; -150.000
440.477;   52.575; -566.000; -542.000
440.599;   33.150; -200.000; -225.000
440.722; -111.825; -709.000; -586.000
440.845;   67.325;  751.000;  928.000
440.968; -113.050; -415.000; -311.000
441.090;  -72.575; -199.000;  -33.000
441.213; -174.225;-1021.000; -825.000
441.336;  -44.350; -159.000;   -5.000
441.458;  -73.725; -549.000; -396.000
441.581;  -58.350; -628.000; -629.000
441.703;  -72.625; -152.000;   13.000
441.826; -100.575; -557.000; -400.000
441.948;  -58.750;   56.000;   51.000
442.071;   46.000;  555.000;  424.000
442.193;  -99.750; -531.000; -485.000
442.316;   27.375;  152.000;   97.000
442.438;   36.600; -233.000;  -10.000
442.561;   92.000;  272.000;  262.000
442.683;  616.200; -809.000; -522.000
442.806; 1452.200;   -8.000;   74.000
442.928;   80.300; -859.000; -604.000
443.051;  -66.225; -577.000; -373.000
443.173;  -94.925; -341.000; -339.000
443.295;  -78.150; -263.000; -371.000
443.418;  -63.800; -321.000;  -29.000
443.540;    0.075; -106.000;   -4.000
443.662; -118.325; -563.000; -465.000
443.785;  -18.775;  335.000;  199.000
443.907; -102.475; -362.000; -208.000
444.029; -119.925; -767.000; -494.000
444.152; -139.425; -644.000; -554.000
444.274;  -46.250;  -18.000;  -24.000
444.396; -104.950; -461.000; -221.000
444.518; -134.375; -691.000; -454.000
444.640;  -93.375; -268.000; -111.000
444.763;  -14.650;  388.000;  249.000
444.885; -127.200; -432.000; -392.000
445.007;  -37.700;   35.000;   86.000
445.129; -126.225; -610.000; -515.000
445.251;  -82.075; -372.000; -439.000
445.373; -126.750; -537.000; -386.000
445.495;    2.725;  242.000;  350.000
445.617;   48.575;  853.000;  753.000
445.739;  -52.700; -215.000;  -97.000
445.861;  -21.300; -245.000; -112.000
445.984;  -28.775; -267.000; -101.000
446.105;  243.200; -418.000; -251.000
446.227;  736.475; -176.000;  -19.000
446.349;   57.400; -358.000; -249.000
446.471;  -94.100; -615.000; -448.000
446.593;  -61.025; -316.000;   19.000
446.715;   -6.225;  -67.000;   41.000
446.837;   51.525;  697.000;  832.000
446.959;  -98.200; -457.000; -478.000
447.081; -122.550; -628.000; -518.000
447.203;   50.325;  862.000;  834.000
447.325;  -83.700; -270.000;   42.000
447.446;  -15.325;  286.000;  530.000
447.568; -154.300; -921.000; -803.000
447.690;  -69.950; -236.000; -245.000
447.812; -146.800; -798.000; -519.000
447.933;  -30.700;  155.000;  127.000
448.055;  -71.825; -306.000; -261.000
448.177;  161.175;   31.000;   79.000
448.299;  139.025; -935.000; -727.000
448.420;   29.475;  -25.000;  159.000
448.542;  -49.550;   -3.000;   33.000
448.664;  -16.675;  109.000;  322.000
448.785;  -48.225;  265.000;   83.000
448.907;  -72.200; -614.000; -353.000
449.028;  -15.550; -771.000; -471.000
449.150;   68.475;  492.000;  589.000
449.272; -167.525;-1044.000; -913.000
449.393;   25.000;  612.000;  694.000
449.515; -141.650; -634.000; -581.000
449.636;  -53.750; -264.000; -155.000
449.758;   75.150;  763.000;  622.000
449.879;  -92.825; -498.000; -396.000
450.001;  -79.925; -149.000;  -49.000
450.122;  -33.700;  -95.000;  162.000
450.244;  -28.150;   37.000;  364.000
450.365;  -85.175; -495.000; -301.000
450.486;  -41.700;   80.000;  268.000
450.608;   -2.375;  393.000;  326.000
450.729;   50.650;  578.000;  645.000
450.850;   -1.550; -574.000; -466.000
450.972;  676.050; -552.000; -389.000
451.093; 4635.875;  190.000;  588.000
451.214; 2219.000; -516.000; -337.000
451.336;  403.525;  773.000;  579.000
451.457;   55.725;  264.000;  393.000
451.578;  -51.325; -118.000;  -74.000
451.699; -127.400; -546.000; -540.000
451.821;  -62.925; -284.000;  -50.000
451.942;   -1.750;  278.000;  285.000
452.063;   33.375;  228.000;  419.000
452.184;  501.350;  -54.000;  -49.000
452.305; 1089.750;  103.000;  170.000
452.427;  153.075; -549.000; -301.000
452.548;  -22.400;   23.000;   79.000
452.669;  -37.950; -257.000;  -89.000
452.790;  -41.225;    3.000;  -18.000
452.911;    1.650;  195.000;  259.000
453.032;  -61.425; -289.000;  -60.000
453.153;  -40.875;  -29.000;   81.000
453.274;   61.000;  737.000;  868.000
453.395;  -31.750;  -51.000;  175.000
453.516;   51.375; 1317.000; 1388.000
453.637;  -50.700; -205.000; -150.000
453.758;  -46.750;   15.000;   69.000
453.879; -109.525; -462.000; -250.000
454.000;   66.650; 1086.000;  948.000
454.121; -113.325; -554.000; -326.000
454.242; -118.350; -599.000; -383.000
454.362;  -36.950;  -99.000;  114.000
454.483;  -40.975; -309.000; -229.000
454.604;   67.000;  512.000;  580.000
454.725; -118.450; -627.000; -555.000
454.846; -141.400; -474.000; -406.000
454.967;  -15.175;  230.000;  539.000
455.087;  -54.675;  179.000;  153.000
455.208;   10.175;  554.000;  856.000
455.329;  -59.825;  -22.000;   82.000
455.450;   30.525;  473.000;  633.000
455.570;  -81.275; -234.000; -211.000
455.691;  -44.350;  201.000;  407.000
455.812; -104.825; -270.000;  -92.000
455.932;  -69.125;  107.000;  -97.000
456.053;  -93.800;   36.000;   24.000
456.173; -106.975; -433.000; -355.000
456.294; -133.075; -476.000; -303.000
456.415;  -69.275;  -73.000;   70.000
456.535;  -36.975;  297.000;  273.000
456.656;  -39.325;  132.000;  240.000
456.776;  -68.700;    3.000;  298.000
456.897;  -14.750;  308.000;  513.000
457.017;  -83.175; -153.000;   -3.000
457.138;  -98.875; -402.000; -249.000
457.258;  -23.225;  263.000;  224.000
457.379;  -11.425;  509.000;  521.000
457.499;  -38.250;  443.000;  432.000
457.620; -118.200; -407.000; -231.000
457.740; -111.150; -132.000;  -11.000
457.860;  -53.850;   87.000;   44.000
457.981;  -40.025;  132.000;  124.000
458.101;  -79.075;  -89.000;   40.000
458.221;  -28.725;  336.000;  402.000
458.342;  -54.200;   -4.000;  -37.000
458.462;   20.125;  617.000;  352.000
458.582;  -34.975; -302.000; -294.000
458.703;    9.275;  303.000;  154.000
458.823;  -31.475;   22.000;  163.000
458.943;   33.025;  341.000;  467.000
459.063;  -18.300; 1124.000;  192.000
459.183;   -7.525;  328.000;  313.000
459.304;  -10.475;  315.000;  517.000
459.424;  -60.350; -246.000;  -89.000
459.544;  292.500;  388.000;  764.000
459.664;  810.125;  499.000;  506.000
459.784;  336.700; 1004.000; 1175.000
459.904;   60.950;  867.000;  744.000
460.024;   60.675;  867.000;  684.000
460.144;   17.250;  449.000;  554.000
460.264;    5.250;  515.000;  327.000
460.385;  -90.650; -145.000; -119.000
460.505;   29.475;  905.000;  858.000
460.625; -108.350;  -17.000;  -68.000
460.745;  -27.900;  396.000;  541.000
460.864;  -49.600;  153.000;  469.000
460.984;    9.600;  499.000;  573.000
461.104;  129.475; 1656.000; 1775.000
461.224;   25.175;  657.000;  650.000
461.344;  -31.650;  431.000;  360.000
461.464;  -24.625;  258.000;  513.000
461.584;  -19.875;  283.000;  466.000
461.704;  -26.900;   58.000;  108.000
461.824;  -60.475;  238.000;  259.000
461.943;  -46.025;  191.000;  130.000
462.063;  -84.225;    2.000;  324.000
462.183;   40.050;  639.000;  717.000
462.303;  116.275; 1678.000; 1230.000
462.422;   33.675;  781.000;  840.000
462.542;  -30.825;  271.000;  391.000
462.662;   40.225;  353.000;  380.000
462.782;  236.725;  833.000;  572.000
462.901;  479.025;  545.000;  717.000
463.021;  296.450; 1702.000; 1638.000
463.141;    1.200;  337.000;  770.000
463.260;  -20.925;  614.000;  474.000
463.380;    6.775;  902.000;  884.000
463.499;  -42.650;  342.000;  332.000
463.619;  -35.375;  581.000;  559.000
463.738;  114.350; 1644.000;  903.000
463.858;   20.450;  657.000;  811.000
463.978;  -30.075;  542.000;  396.000
464.097;   46.025;  921.000; 1114.000
464.217;  117.175; 1196.000; 1143.000
464.336;  111.725; 1068.000; 1130.000
464.455;  -32.775;  328.000;  659.000
464.575;   54.675;  597.000;  602.000
464.694;  184.550; 1204.000; 1179.000
464.814;  132.650; 1190.000; 1138.000
464.933;   83.175; 1095.000; 1027.000
465.052;   93.925; 1412.000; 1054.000
465.172;   91.400;  922.000;  799.000
465.291;  142.575; 1376.000; 1320.000
465.410;   34.275;  462.000;  735.000
465.530;   82.975; 1355.000; 1310.000
465.649;   61.750; 1209.000; 1273.000
465.768;  149.900; 1673.000; 1508.000
465.888;   46.575;  941.000; 1174.000
466.007;   93.500; 1335.000; 1440.000
466.126;    2.325;  721.000;  641.000
466.245;   40.875; 1176.000; 1187.000
466.364;   32.550;  950.000; 1060.000
466.484;   58.275; 1024.000; 1213.000
466.603;   35.775; 1101.000; 1222.000
466.722;  125.700; 1490.000; 1769.000
466.841;   78.400; 1151.000; 1401.000
466.960;   46.275; 1069.000;  972.000
467.079;  116.175; 1971.000; 1786.000
467.198;   44.275; 1238.000; 1181.000
467.317;   78.850; 1768.000; 1162.000
467.436;   63.100; 1709.000; 1261.000
467.555;  125.975; 1796.000; 1746.000
467.674;   64.450; 1227.000; 1329.000
467.793;   47.875; 1376.000; 1374.000
467.912;   97.325; 1658.000; 1539.000
468.031;  128.125; 2038.000; 1930.000
468.150;  137.100; 1842.000; 1837.000
468.269;  191.650; 2313.000; 2090.000
468.388;  203.050; 2168.000; 2339.000
468.507;  243.775; 2884.000; 2903.000
468.626;  273.725; 2555.000; 2541.000
468.744;  134.200; 2018.000; 2174.000
468.863;  189.925; 2312.000; 2523.000
468.982;   96.725; 1503.000; 1555.000
469.101;  211.225; 2788.000; 2692.000
469.220;  162.175; 2333.000; 2176.000
469.338;  258.875; 2935.000; 3051.000
469.457;  198.500; 2719.000; 2545.000
469.576;  347.425; 3953.000; 3784.000
469.695;  227.850; 2877.000; 3066.000
469.813;  417.350; 4148.000; 4192.000
469.932;  408.900; 4255.000; 4485.000
470.051;  413.500; 4075.000; 4161.000
470.169;  808.125; 4470.000; 4338.000
470.288; 1435.075; 4700.000; 4809.000
470.406;  884.900; 5059.000; 5194.000
470.525;  634.525; 6101.000; 5787.000
470.644;  645.450; 6847.000; 6794.000
470.762;  794.000; 8397.000; 7873.000
470.881;  896.750; 8651.000; 8464.000
470.999; 1035.000; 9685.000; 9151.000
471.118; 1102.350;11174.000;10711.000

