
Integration time [ms]: 100.000
Averaging Nr. [scans]: 40
Smoothing Nr. [pixels]: 0
Data measured with spectrometer [name]: 2101012U2
Wave   ;Sample   ;Dark     ;Reference
[nm]   ;[counts] ;[counts] ;[counts] 

197.733;   62.575;  516.000;  404.000
197.879;  -77.675; -610.000; -634.000
198.025;  -44.025; -475.000; -420.000
198.171;  -73.125; -602.000; -612.000
198.317;  -23.125; -401.000; -316.000
198.463;  -57.575; -655.000; -404.000
198.609;   33.400;  181.000; -137.000
198.755;  -81.875; -644.000; -410.000
198.901;  -69.625; -505.000; -424.000
199.047;  -66.600; -615.000; -488.000
199.193;  -37.475; -230.000; -468.000
199.339;  -34.550; -222.000; -369.000
199.485;   21.200;  330.000;  271.000
199.631;   20.325;  227.000;  310.000
199.777;  -36.800; -466.000; -398.000
199.923;  -67.550; -610.000; -424.000
200.069;   -3.975; -141.000;  -58.000
200.215;   63.850;  128.000;  453.000
200.361;   48.850;  243.000;  477.000
200.507;  -62.925; -600.000; -373.000
200.653;  -21.500; -371.000; -194.000
200.798;  -41.125; -215.000; -125.000
200.944;   -4.100; -146.000;  -41.000
201.090;   53.550;   61.000;  222.000
201.236;  -11.875; -116.000; -158.000
201.382;  125.775;  874.000;  903.000
201.528;   -1.675;  -58.000;  -48.000
201.674;  -55.975; -386.000; -293.000
201.819;  -55.550; -540.000; -439.000
201.965;  -86.675; -699.000; -447.000
202.111;  -27.875; -273.000; -226.000
202.257;  -47.025; -250.000; -238.000
202.402;   16.175;   13.000;  -36.000
202.548;  -23.550; -169.000; -116.000
202.694;  104.025;  410.000; -183.000
202.840;  -73.975; -603.000; -531.000
202.985;  -67.775; -681.000; -639.000
203.131; -105.925; -832.000; -666.000
203.277;  -37.725; -199.000; -262.000
203.423;  -65.375; -434.000; -520.000
203.568;  -38.925; -462.000; -237.000
203.714;  -64.525; -535.000; -542.000
203.860;  -86.575; -682.000; -641.000
204.005;   12.200;  112.000;  167.000
204.151;   82.700;  561.000;  556.000
204.296;  -50.175; -354.000; -221.000
204.442;  -56.675; -600.000; -547.000
204.588;  -77.050; -592.000; -579.000
204.733;   23.800;  178.000;  168.000
204.879; -136.925;-1018.000; -822.000
205.025;    4.150;  -99.000;  126.000
205.170;   -7.125;  -17.000;   94.000
205.316;   88.325;  438.000;  661.000
205.461;  -78.650; -698.000; -554.000
205.607;   95.225;  609.000;  665.000
205.752;  -76.750; -626.000; -551.000
205.898;  -64.575; -501.000; -391.000
206.043;  -61.875; -578.000; -506.000
206.189;  -37.450; -243.000; -285.000
206.334;   86.875;  554.000;  606.000
206.480;   88.025;  409.000;  239.000
206.625;  -94.925; -529.000; -552.000
206.771;  -51.025; -451.000; -373.000
206.916;  -41.275; -210.000; -537.000
207.062;  -86.175; -545.000; -591.000
207.207;  -71.150; -546.000; -443.000
207.353;   44.100;  185.000;  460.000
207.498;   13.625;  196.000;   85.000
207.643;  -66.900; -501.000; -370.000
207.789; -144.225;-1069.000; -910.000
207.934;  -92.500; -665.000; -713.000
208.080;  -38.775; -154.000;   66.000
208.225;  -12.225;  -22.000;  -57.000
208.370;  -74.350; -727.000; -619.000
208.516;  -72.375; -741.000; -487.000
208.661;  -27.875; -127.000;  -69.000
208.806;  -28.025; -165.000; -171.000
208.952; -118.750;-1044.000; -731.000
209.097;   75.350;  378.000;  349.000
209.242;  -53.875; -307.000; -382.000
209.387;   72.875;  392.000;  350.000
209.533;  -59.575; -321.000; -350.000
209.678;   82.375;  472.000;  543.000
209.823;  -58.800; -408.000; -310.000
209.969;  -96.025; -860.000; -757.000
210.114; -113.675; -907.000; -719.000
210.259; -114.425; -939.000; -889.000
210.404;  -10.100; -171.000;  103.000
210.549;   13.100;  108.000;    3.000
210.695;  -11.675;   -3.000;  -95.000
210.840;   39.575;   94.000;   67.000
210.985;  -58.800; -484.000; -303.000
211.130;   78.400;  268.000;  406.000
211.275;   20.200;  207.000;  199.000
211.420;  -57.975; -300.000; -289.000
211.566;  -68.925; -536.000; -489.000
211.711;    6.025;  218.000;  157.000
211.856;  -63.225; -545.000; -519.000
212.001;   15.600;  151.000;   44.000
212.146;   13.800;  153.000;   49.000
212.291;  -21.650; -210.000; -186.000
212.436;  -26.525; -280.000;   -6.000
212.581;  -73.650; -685.000; -653.000
212.726;  -79.750; -487.000; -538.000
212.871;  -49.125; -552.000; -217.000
213.016; -155.450;-1172.000;-1029.000
213.161;   67.075;  406.000;  291.000
213.306;  -62.575; -435.000; -577.000
213.451;  -94.700; -778.000; -689.000
213.596;  -44.500; -455.000; -347.000
213.741;  -61.200; -448.000; -538.000
213.886;  -79.875; -498.000; -517.000
214.031;  -28.550; -294.000; -124.000
214.176;  -57.675; -408.000; -341.000
214.321;  -21.800; -296.000; -157.000
214.466;  -35.250; -163.000;  -43.000
214.611;   -5.600;  -61.000;  -10.000
214.756; -125.050; -948.000; -858.000
214.901;  -26.650; -388.000; -226.000
215.046; -132.025; -797.000; -825.000
215.191;   19.950;  128.000;   35.000
215.336;  -11.600; -157.000;  -19.000
215.480;  -61.000; -684.000; -505.000
215.625;   -0.350; -175.000;  -19.000
215.770;  -85.225; -757.000; -662.000
215.915;  -20.675;   -5.000;  -97.000
216.060;    7.075; -113.000;  -21.000
216.205; -115.175; -731.000; -779.000
216.349;  -75.450; -470.000; -533.000
216.494; -134.525; -939.000; -867.000
216.639; -108.775; -823.000; -888.000
216.784;  -91.850; -577.000; -525.000
216.929;   45.050;  392.000;  281.000
217.073;  -16.000; -244.000;  -31.000
217.218;    5.625;   78.000;  -47.000
217.363;  -88.200; -656.000; -618.000
217.507;  -84.600; -623.000; -588.000
217.652; -123.075; -845.000; -874.000
217.797;  -91.150; -708.000; -659.000
217.942; -111.625; -856.000; -720.000
218.086;   63.625;  608.000;  539.000
218.231;  -27.200; -174.000;  -26.000
218.376;  -28.875; -337.000; -229.000
218.520;    2.775;  -41.000;   96.000
218.665;  -31.650; -338.000; -204.000
218.810;  -44.925; -275.000; -233.000
218.954;   22.350;  201.000;   35.000
219.099; -128.100; -713.000; -963.000
219.243;  -73.450; -589.000; -554.000
219.388;  -25.425; -264.000; -136.000
219.532;   -0.050; -116.000; -116.000
219.677;  -76.525; -564.000; -521.000
219.822;   13.825;   33.000;   89.000
219.966;   -5.475;   17.000;  -99.000
220.111;  -33.000; -328.000;  -40.000
220.255;  -88.550; -797.000; -750.000
220.400;  -27.850; -180.000; -146.000
220.544;  -73.525; -516.000; -450.000
220.689;  -56.375; -422.000; -451.000
220.833;  -24.675; -123.000;  -58.000
220.978;  -53.675; -393.000; -563.000
221.122;   27.350;  319.000;  307.000
221.267; -113.325; -906.000; -837.000
221.411;  -71.775; -478.000; -394.000
221.555;  -12.025; -104.000;  -23.000
221.700;  -62.425; -329.000; -222.000
221.844;   29.375;  255.000;  272.000
221.989;  -47.325; -328.000; -311.000
222.133;  -42.600; -289.000; -307.000
222.277;    1.775;    5.000;   78.000
222.422;   16.300;  227.000;  113.000
222.566;  -49.300; -381.000; -214.000
222.711;  -59.575; -414.000; -479.000
222.855;  -86.200; -643.000; -586.000
222.999;  -68.575; -642.000; -717.000
223.144;  -31.850; -195.000; -194.000
223.288;   34.600;  423.000;  251.000
223.432;   37.750;  184.000;  230.000
223.576;   22.100;  152.000;  -21.000
223.721;   37.000;  364.000;  273.000
223.865;  -67.650; -472.000; -475.000
224.009;  206.450; 1673.000; 1631.000
224.153;  -93.425; -660.000; -671.000
224.298;  -87.200; -531.000; -489.000
224.442;   -8.325;  -74.000;  -33.000
224.586;  -14.975; -169.000; -106.000
224.730; -102.600; -858.000; -670.000
224.875; -106.725; -739.000; -688.000
225.019;   11.125;  102.000;  188.000
225.163;   58.125;  208.000;  341.000
225.307;   20.500;   97.000;  -91.000
225.451;   38.325;  360.000;  481.000
225.595;   36.050;  264.000;  176.000
225.739;  -22.525; -170.000;  -94.000
225.884;   -0.325;   86.000;    5.000
226.028; -100.425; -760.000; -626.000
226.172;  -49.750; -260.000; -273.000
226.316; -109.500; -941.000; -902.000
226.460;  -67.925; -645.000; -493.000
226.604;  -56.600; -406.000; -400.000
226.748; -104.475; -836.000; -733.000
226.892;  -46.625; -227.000; -181.000
227.036;  -39.325; -537.000; -447.000
227.180;  -59.275; -551.000; -375.000
227.324;  -64.800; -561.000; -580.000
227.468; -112.525; -819.000; -717.000
227.612;    8.500;  242.000;  -28.000
227.756; -105.925; -845.000; -698.000
227.900;   48.325;  342.000;  441.000
228.044;  -72.275; -509.000; -290.000
228.188;   61.625;  448.000;  568.000
228.332;  -91.250; -546.000; -472.000
228.476;  -25.050; -223.000; -149.000
228.620;  -36.275; -210.000; -150.000
228.764;   82.950;  431.000;  349.000
228.908;  -18.900; -155.000;   30.000
229.052;  -64.225; -615.000; -528.000
229.195;   -6.300; -172.000;   13.000
229.339;  -35.650; -235.000; -305.000
229.483;  -24.850;    5.000; -162.000
229.627;    2.675; -156.000;  139.000
229.771;  -58.125; -218.000; -294.000
229.915;   -1.000;  230.000;   79.000
230.059;  -97.675; -648.000; -663.000
230.202;  -39.150; -370.000; -317.000
230.346;  -11.375; -107.000;  107.000
230.490;  -64.450; -489.000; -521.000
230.634; -107.875; -736.000; -553.000
230.777;   81.350;  478.000;  509.000
230.921;  -52.250; -450.000; -359.000
231.065;  -54.275; -246.000; -286.000
231.209;   28.100;  261.000;  265.000
231.352;   26.425;   54.000;   40.000
231.496;   10.450;  568.000;  188.000
231.640;  -87.100; -693.000; -621.000
231.783;   58.975;  546.000;  525.000
231.927;  -43.075; -294.000; -365.000
232.071; -124.575; -962.000; -736.000
232.214; -110.375; -980.000; -764.000
232.358; -100.725; -683.000; -599.000
232.502;   12.825;  -19.000;    7.000
232.645; -149.900;-1090.000; -927.000
232.789;  -29.750; -257.000; -218.000
232.933;  -43.900; -407.000; -224.000
233.076; -124.125;-1038.000; -897.000
233.220; -114.075; -752.000; -777.000
233.363;  -80.700; -669.000; -477.000
233.507;   55.000;  371.000;  129.000
233.650;  -90.050; -764.000; -834.000
233.794;   35.050;  438.000;  461.000
233.938;  -61.850; -530.000; -362.000
234.081;  -19.575;  -93.000;   31.000
234.225;  -60.275; -631.000; -539.000
234.368; -127.375; -773.000; -723.000
234.512;  -39.450; -385.000; -299.000
234.655;  -87.450; -582.000; -555.000
234.798;  -72.325; -493.000; -466.000
234.942; -141.725; -884.000;-1002.000
235.085;  -83.100; -651.000; -443.000
235.229;  -72.100; -405.000; -410.000
235.372;  -46.825; -247.000; -191.000
235.516;  -67.525; -397.000; -321.000
235.659;   28.725;   92.000;  121.000
235.802;  -12.950;  -38.000;  -22.000
235.946;   17.650;  335.000;  215.000
236.089;   29.600;  126.000;  250.000
236.233;   50.750;  275.000;  298.000
236.376;  -51.900; -235.000; -378.000
236.519;  -50.575; -297.000; -319.000
236.663;  -19.200; -215.000; -117.000
236.806; -144.200;-1029.000; -999.000
236.949;   55.075;  543.000;  431.000
237.092;   68.725;  412.000;  391.000
237.236;  -83.150; -589.000; -502.000
237.379;   67.400;  352.000;  428.000
237.522; -128.900; -879.000; -768.000
237.666;  -23.150; -271.000;   18.000
237.809; -124.800; -851.000; -823.000
237.952;   33.325;  469.000;  271.000
238.095;  -51.900; -447.000; -442.000
238.238;   78.225;  688.000;  700.000
238.382;   -4.650;  166.000;  103.000
238.525;  -66.325; -598.000; -511.000
238.668; -143.400;-1060.000; -985.000
238.811;  -85.300; -638.000; -643.000
238.954;  -62.650; -483.000; -334.000
239.097;   88.450;  617.000;  664.000
239.241;   21.500;  394.000;  326.000
239.384;  -34.175; -254.000; -214.000
239.527;  -63.725; -424.000; -224.000
239.670; -144.300; -994.000;-1091.000
239.813; -112.125; -696.000; -658.000
239.956;   78.225;  579.000;  473.000
240.099; -121.975; -778.000; -725.000
240.242;   56.950;  428.000;  432.000
240.385;   45.075;  466.000;  450.000
240.528;  -68.250; -706.000; -473.000
240.671;   17.450;  189.000;  134.000
240.814;  -45.925; -441.000; -158.000
240.957; -103.925; -767.000; -578.000
241.100;  -86.650; -779.000; -755.000
241.243; -145.725;-1234.000; -893.000
241.386;  -60.700; -508.000; -379.000
241.529;  -89.700; -735.000; -547.000
241.672;  -59.750; -566.000; -495.000
241.815; -138.250; -832.000; -808.000
241.958;  -34.875; -125.000; -182.000
242.101;  -85.550; -545.000; -390.000
242.244;  -47.975; -270.000; -325.000
242.387;  -27.725; -304.000; -246.000
242.530;   64.400;  470.000;  134.000
242.673;  -36.950; -381.000; -309.000
242.815; -111.925; -925.000; -899.000
242.958;  -70.775; -482.000; -381.000
243.101;    4.575;  132.000;  187.000
243.244;  -81.600; -564.000; -521.000
243.387;  -39.250; -313.000; -316.000
243.530; -106.175; -657.000; -674.000
243.672;   -3.450;   43.000;  -92.000
243.815;  -59.625; -355.000; -283.000
243.958;   -5.725;   98.000;  -26.000
244.101;   -1.650;   59.000;  -16.000
244.243;  -23.375;  -47.000;  101.000
244.386; -100.225; -761.000; -630.000
244.529;  -32.700; -132.000; -139.000
244.672; -146.375;-1154.000; -951.000
244.814; -105.450; -621.000; -794.000
244.957;  -66.525; -380.000; -304.000
245.100;  -86.750; -489.000; -489.000
245.242;  -63.125; -387.000; -374.000
245.385;   -4.150;  -59.000;  -39.000
245.528; -127.675; -871.000; -705.000
245.670;   85.575;  612.000;  634.000
245.813;  -90.700; -599.000; -547.000
245.956;  -28.425; -324.000; -275.000
246.098;  -74.250; -508.000; -650.000
246.241;   12.050;  194.000;   48.000
246.383;   -5.700; -119.000;  -73.000
246.526;  -78.200; -454.000; -525.000
246.669; -120.225; -889.000; -780.000
246.811;   27.575;  172.000;   -1.000
246.954;  -61.900; -512.000; -426.000
247.096;  -18.175;  -84.000;   -6.000
247.239;  -74.975; -482.000; -445.000
247.381;  -78.525; -647.000; -488.000
247.524;   79.325;  645.000;  679.000
247.666;  -10.675;   58.000;   11.000
247.809; -113.675; -887.000; -691.000
247.951;  -20.050;  -75.000;  138.000
248.094;   45.750;  432.000;  308.000
248.236; -156.000;-1262.000;-1238.000
248.378;    8.850; -356.000;  -81.000
248.521;  -28.250; -334.000; -337.000
248.663;  -45.650; -236.000; -267.000
248.806;  -26.675; -300.000; -266.000
248.948; -102.325; -886.000; -763.000
249.090;  -51.425; -428.000; -398.000
249.233;  -57.650; -344.000; -381.000
249.375;  -57.625; -474.000; -451.000
249.518;  -41.250;  -83.000; -133.000
249.660;   -6.425; -103.000;    3.000
249.802; -163.000;-1303.000;-1189.000
249.945;  -69.600; -612.000; -540.000
250.087; -116.675; -834.000; -768.000
250.229;  -58.875; -362.000; -480.000
250.371;  -69.875; -494.000; -439.000
250.514;  -62.200; -310.000; -244.000
250.656;  -36.575;   69.000;  102.000
250.798; -120.625; -849.000; -800.000
250.940;  -66.825; -322.000; -322.000
251.083;  -35.650; -335.000; -111.000
251.225;   56.900;  338.000;  310.000
251.367;  -38.200; -274.000; -373.000
251.509;  -44.175; -265.000; -210.000
251.651;  -91.925; -731.000; -671.000
251.794;   65.525;  538.000;  632.000
251.936; -101.700; -821.000; -747.000
252.078;  -66.650; -540.000; -461.000
252.220;  -76.650; -645.000; -477.000
252.362;   80.550;  344.000;  462.000
252.504;  -73.375; -677.000; -584.000
252.646; -127.750; -875.000; -722.000
252.788;   -5.350;   14.000; -128.000
252.931;  -34.650; -257.000; -253.000
253.073;  -46.925; -376.000; -317.000
253.215;   -5.225;  141.000;  122.000
253.357;  -14.150;   82.000; -153.000
253.499;  -63.700; -374.000; -234.000
253.641;  -81.800; -749.000; -594.000
253.783;  -92.375; -609.000; -527.000
253.925;  -91.525; -586.000; -591.000
254.067; -111.150; -744.000; -667.000
254.209;  -23.550; -391.000; -259.000
254.351; -146.350; -865.000; -883.000
254.493;  -63.500; -441.000; -417.000
254.635; -139.950; -936.000; -818.000
254.777;  -87.000; -752.000; -687.000
254.918;  -66.150; -512.000; -430.000
255.060;  -54.050; -551.000; -395.000
255.202;  -63.750; -473.000; -261.000
255.344;  -74.900; -658.000; -455.000
255.486;  -67.025; -471.000; -406.000
255.628; -103.000; -780.000; -781.000
255.770; -128.875; -676.000; -536.000
255.912;  -66.175; -559.000; -468.000
256.053;  -96.650; -730.000; -508.000
256.195;  153.550; 1008.000;  903.000
256.337; -103.800; -861.000; -595.000
256.479;   62.675;  532.000;  416.000
256.621;  -40.650; -394.000; -212.000
256.762; -103.200; -789.000; -742.000
256.904;   57.900;  485.000;  487.000
257.046;  -44.400; -381.000; -271.000
257.188;  -51.975; -351.000; -264.000
257.329;  -80.800; -525.000; -464.000
257.471; -138.000; -939.000; -807.000
257.613;  -71.825; -584.000; -498.000
257.755; -144.175;-1073.000; -982.000
257.896;   38.075;  286.000;  392.000
258.038;  -77.725; -403.000; -352.000
258.180;  -37.575; -354.000; -279.000
258.321;  -83.625; -581.000; -457.000
258.463;   -3.925;  -71.000;  133.000
258.605;  -95.400; -562.000; -570.000
258.746; -120.275; -886.000; -772.000
258.888; -151.650;-1026.000;-1020.000
259.029;    8.225;  121.000;   -8.000
259.171;  -97.325; -614.000; -550.000
259.313;  -13.300;  -49.000;  -47.000
259.454;  -68.250; -536.000; -414.000
259.596;  -63.650; -483.000; -390.000
259.737;  -79.375; -590.000; -474.000
259.879;   18.925;  217.000;  311.000
260.020;   95.900;  901.000;  636.000
260.162;  -17.125; -146.000; -253.000
260.303; -126.850; -768.000; -687.000
260.445;  -77.325; -609.000; -613.000
260.586;   13.675;  392.000;  157.000
260.728;  -41.275; -360.000; -248.000
260.869; -116.650; -350.000; -343.000
261.011;   67.800;  706.000;  537.000
261.152;  -70.175; -479.000; -319.000
261.293;  -88.925; -576.000; -595.000
261.435;  -22.925; -219.000; -184.000
261.576;  -56.725; -455.000; -325.000
261.718;   44.200;  420.000;  470.000
261.859; -134.825; -940.000; -949.000
262.000; -135.550; -951.000;-1016.000
262.142;  -25.550;  -52.000;  -60.000
262.283; -125.175; -808.000; -691.000
262.424;  -92.925; -666.000; -625.000
262.566; -157.600;-1161.000; -983.000
262.707; -124.250; -840.000; -830.000
262.848; -130.700; -769.000; -726.000
262.990;  -54.100; -362.000; -345.000
263.131;   85.925;  650.000;  681.000
263.272;  -23.425;  -61.000;  -41.000
263.413;  -80.350; -589.000; -561.000
263.555;  -72.850; -669.000; -143.000
263.696;  -90.425; -550.000; -641.000
263.837;  -64.100; -449.000; -551.000
263.978;   -5.800;   -5.000;  -77.000
264.119;  -55.250; -283.000; -264.000
264.261; -131.225; -847.000; -630.000
264.402;   -0.650;   33.000;   40.000
264.543;  -77.350; -509.000; -524.000
264.684;  -19.575;   61.000;  -50.000
264.825;  -88.850; -816.000; -538.000
264.966;   -1.275;  -84.000;  -67.000
265.107; -125.600; -646.000; -670.000
265.248; -133.175; -825.000; -812.000
265.390;  -25.575;  152.000;   -9.000
265.531;  -24.250; -238.000; -107.000
265.672;  -99.775; -557.000; -630.000
265.813;   55.150;  563.000;  439.000
265.954; -163.600; -959.000; -940.000
266.095;  -24.625; -372.000; -322.000
266.236;  -99.450; -686.000; -548.000
266.377;  -45.450; -243.000; -297.000
266.518;  -67.975; -619.000; -547.000
266.659;   23.800;  170.000;  268.000
266.800;   -2.625;   83.000;   85.000
266.941;  -85.125; -487.000; -478.000
267.082;   30.525;  354.000;   99.000
267.223;  -42.050; -344.000; -273.000
267.364; -129.550; -892.000; -686.000
267.504;  -20.475;    3.000;  135.000
267.645;   -9.675;  160.000;   67.000
267.786;  -34.275; -147.000;  -86.000
267.927;  -77.075; -473.000; -379.000
268.068;  -25.800; -186.000;  -61.000
268.209;  -47.400; -175.000; -413.000
268.350;  -61.300; -388.000; -532.000
268.490;  -87.325; -648.000; -521.000
268.631;   21.325;  127.000;  225.000
268.772; -105.525; -874.000; -647.000
268.913;  -63.150; -328.000; -476.000
269.054;  -28.975; -117.000;   12.000
269.194;  -57.225; -418.000; -402.000
269.335; -166.325;-1137.000;-1074.000
269.476;  -11.525;   33.000;  -35.000
269.617;  -44.925; -347.000; -392.000
269.757;  -92.475; -713.000; -646.000
269.898;  -99.850; -856.000; -613.000
270.039;  -78.175; -415.000; -405.000
270.180; -140.700; -952.000; -816.000
270.320;  -32.900; -190.000; -250.000
270.461;  -48.500; -277.000; -249.000
270.602;  -12.375; -186.000; -156.000
270.742; -127.650; -868.000; -943.000
270.883;  -57.250; -442.000; -390.000
271.023;  -56.725; -358.000; -357.000
271.164;  -82.600; -607.000; -528.000
271.305; -104.450; -666.000; -654.000
271.445;  -87.550; -722.000; -683.000
271.586;  -56.550; -462.000; -283.000
271.726;  -54.550; -397.000; -322.000
271.867;  -61.450; -594.000; -534.000
272.008;  164.350; -473.000; -285.000
272.148;  113.675;  462.000;  468.000
272.289;   28.125; -113.000; -181.000
272.429;    4.650;   19.000;  185.000
272.570;  -89.475; -633.000; -737.000
272.710; -107.575; -825.000; -775.000
272.851;  -26.975;  113.000; -130.000
272.991; -163.650;-1173.000;-1077.000
273.131;  -71.225; -419.000; -459.000
273.272; -103.300; -683.000; -723.000
273.412;    0.475; -143.000;  -31.000
273.553;  -59.650; -488.000; -507.000
273.693;  119.000;  913.000;  858.000
273.834; -100.125; -894.000; -692.000
273.974;  -93.375; -664.000; -615.000
274.114;  -95.225; -772.000; -560.000
274.255;   79.625;  414.000;  373.000
274.395;   -3.925; -180.000; -125.000
274.535;   41.700;  199.000;  350.000
274.676;   19.425;  225.000;   94.000
274.816;    2.175;  110.000;   34.000
274.956;  -93.725; -624.000; -690.000
275.097;  -65.875;-1014.000; -922.000
275.237; -121.850; -913.000; -803.000
275.377; -101.600; -778.000; -689.000
275.517; -163.775; -878.000; -937.000
275.658;  -65.775; -590.000; -555.000
275.798;  -68.275; -606.000; -413.000
275.938;   19.100;  215.000;  323.000
276.078; -105.000; -626.000; -395.000
276.218;   -3.725;   99.000;  104.000
276.359; -132.000;-1026.000;-1024.000
276.499;  -78.650; -605.000; -446.000
276.639;  -17.700; -305.000; -151.000
276.779;  -59.425; -475.000; -357.000
276.919; -103.425; -783.000; -624.000
277.059;  -22.200; -261.000; -212.000
277.199;  -43.650; -357.000; -259.000
277.340;   33.725;  287.000;  175.000
277.480; -119.225; -840.000; -693.000
277.620;   22.850;  192.000;   16.000
277.760; -196.625;-1533.000;-1294.000
277.900;   17.025;  113.000;   33.000
278.040;   20.750;  137.000;  159.000
278.180;   25.125;  270.000;  170.000
278.320;   -9.450;   21.000;   56.000
278.460;  -66.550; -443.000; -469.000
278.600;  -95.875; -708.000; -598.000
278.740;   52.450;  448.000;  224.000
278.880;  -62.000; -768.000; -791.000
279.020;   -8.350; -194.000; -144.000
279.160; -109.000; -672.000; -595.000
279.300; -123.775; -926.000; -873.000
279.440;  -91.925; -709.000; -622.000
279.579;  -25.375;-1014.000; -929.000
279.719;  -48.450; -410.000; -394.000
279.859;   69.900;   -4.000;   41.000
279.999;   13.350; -208.000;  101.000
280.139;  -24.175; -435.000; -387.000
280.279;  -69.800; -708.000; -745.000
280.419;  -24.625; -229.000; -147.000
280.559;  -32.600; -259.000; -180.000
280.698;  -95.775; -790.000; -639.000
280.838; -106.975; -778.000; -800.000
280.978; -108.225; -846.000; -790.000
281.118; -119.125; -811.000; -704.000
281.257;   -1.875;   24.000;    6.000
281.397; -132.050;-1094.000; -960.000
281.537;  -92.775; -599.000; -712.000
281.677;  -30.525; -150.000; -101.000
281.816;  -94.275; -700.000; -630.000
281.956;  -37.975; -193.000; -257.000
282.096;  -63.400; -539.000; -396.000
282.235; -107.925; -672.000; -638.000
282.375;  -43.700; -243.000;  -98.000
282.515; -109.750; -715.000; -707.000
282.654;    8.500;   29.000;  106.000
282.794;   20.950;  388.000;  244.000
282.934;  -65.950; -530.000; -491.000
283.073; -133.900;-1030.000; -857.000
283.213;  -63.450; -460.000; -467.000
283.353;  -48.925; -408.000; -349.000
283.492;  -38.250; -264.000; -296.000
283.632;  -38.950; -254.000; -168.000
283.771; -104.600; -859.000; -730.000
283.911;  -50.725; -369.000; -260.000
284.050; -117.150; -794.000; -748.000
284.190; -166.025;-1229.000;-1096.000
284.329; -143.375;-1055.000; -964.000
284.469;  -69.700; -516.000; -591.000
284.608;  -55.725; -559.000; -598.000
284.748;  -79.575; -614.000; -570.000
284.887;  -11.500;  -87.000;  -20.000
285.027; -119.325; -844.000; -892.000
285.166;  -53.250; -192.000; -249.000
285.306;    3.125; -116.000;  -33.000
285.445;  -51.450; -229.000; -343.000
285.584;  -88.175; -630.000; -494.000
285.724;  -46.950; -282.000; -322.000
285.863; -122.325; -857.000; -507.000
286.002;  -62.775; -366.000; -276.000
286.142; -107.375; -715.000; -622.000
286.281;  -75.275; -525.000; -493.000
286.420;  -79.850; -554.000; -417.000
286.560;   98.125;  653.000;  623.000
286.699; -148.475; -958.000; -912.000
286.838;  -90.300; -590.000; -591.000
286.978;  -95.900; -533.000; -537.000
287.117; -142.075;-1085.000; -950.000
287.256;  -29.800; -228.000; -211.000
287.395;  -57.375; -197.000; -378.000
287.535;  -66.725; -370.000; -298.000
287.674;  -80.225; -509.000; -484.000
287.813;   43.775;  661.000;  533.000
287.952; -149.875;-1010.000; -871.000
288.091; -150.625;-1049.000; -915.000
288.231;    1.300;   13.000;   15.000
288.370; -181.700;-1217.000;-1200.000
288.509;  -94.950; -728.000; -645.000
288.648;  -95.000; -770.000; -548.000
288.787;  -37.900; -243.000;  -87.000
288.926;  -72.150; -454.000; -475.000
289.065;  113.025;  859.000;  672.000
289.204;  -55.800; -377.000; -217.000
289.344; -111.275; -791.000; -690.000
289.483;    8.550;  416.000;  304.000
289.622;  -30.925; -291.000; -149.000
289.761;  -21.025; -309.000; -166.000
289.900; -106.925; -785.000; -626.000
290.039;  -25.550;  -12.000;  -95.000
290.178;  -30.775; -274.000; -180.000
290.317;  -91.075; -618.000; -479.000
290.456;  -83.050; -463.000; -451.000
290.595; -138.425; -961.000; -833.000
290.734; -146.550; -904.000; -891.000
290.873;  -65.275; -456.000; -420.000
291.011; -107.425; -833.000; -843.000
291.150; -101.875; -770.000; -682.000
291.289;  -23.700; -343.000; -110.000
291.428;  -97.450; -599.000; -480.000
291.567;  -67.250; -370.000; -442.000
291.706;    6.425;  109.000;  154.000
291.845;  -83.425; -597.000; -505.000
291.984; -172.075;-1234.000;-1061.000
292.122;   72.050;  602.000;  582.000
292.261;   27.225;  620.000;  463.000
292.400;    2.300; -144.000;  211.000
292.539; -128.150; -959.000; -813.000
292.678;  -49.500; -325.000; -300.000
292.816; -161.725;-1136.000; -965.000
292.955;  -95.850; -844.000; -684.000
293.094;  -38.650; -173.000; -337.000
293.233;  -65.825; -556.000; -400.000
293.371;  -46.975; -225.000;  -84.000
293.510; -110.925; -866.000; -780.000
293.649; -128.225; -959.000; -924.000
293.787;  -70.300;-1083.000;-1012.000
293.926;   -9.350; -113.000;  -32.000
294.065;  -53.875; -379.000; -290.000
294.203;   45.400;  298.000;  406.000
294.342;   25.100;   74.000;  156.000
294.481; 5582.800;51180.000; -836.000
294.619;  -40.550; -425.000; -582.000
294.758; -150.250;-1230.000;-1137.000
294.896;   66.700; -125.000;    5.000
295.035; -135.350;-1040.000;-1006.000
295.174; -133.800;-1082.000; -954.000
295.312;  -43.275; -323.000; -203.000
295.451;  -19.000; -307.000; -428.000
295.589;  -70.275; -389.000; -518.000
295.728;   22.600; -292.000; -165.000
295.866;   -2.400;  -36.000;  -51.000
296.005;  -62.675; -584.000; -341.000
296.143;  -69.475; -558.000; -596.000
296.282; -105.425; -957.000; -881.000
296.420;  -85.850; -657.000; -557.000
296.559;  -96.350; -892.000; -633.000
296.697;   17.875; -847.000; -665.000
296.835;   25.400;-1141.000;-1002.000
296.974;   43.050;  -23.000;   39.000
297.112;   10.975; -443.000; -504.000
297.251;  -80.625; -815.000; -755.000
297.389;   63.925; -576.000; -438.000
297.527;   18.100; -145.000;  -83.000
297.666;  -49.825; -486.000; -438.000
297.804;  -47.725; -404.000; -264.000
297.942;   -8.075; -136.000; -161.000
298.081;   -7.125; -183.000;   63.000
298.219;   66.775;  -17.000;  -19.000
298.357;   33.750; -144.000;  -71.000
298.495;   12.775; -810.000; -812.000
298.634;   76.750;  245.000;  219.000
298.772;   41.300; -220.000; -338.000
298.910;  -38.825; -309.000; -182.000
299.048;  -15.375; -130.000; -153.000
299.187;  -26.850; -350.000; -250.000
299.325;   13.200;   52.000;  122.000
299.463;   38.250; -389.000; -299.000
299.601;   91.450; -327.000; -271.000
299.739; -101.275; -908.000; -883.000
299.877;  -87.275; -791.000; -703.000
300.016;  -57.875;-1095.000; -935.000
300.154;  143.975;  -19.000; -161.000
300.292;   43.100; -428.000; -348.000
300.430;   16.600; -408.000; -291.000
300.568; -125.250; -940.000; -874.000
300.706;  -51.575; -366.000; -469.000
300.844;  -91.775;-1108.000; -979.000
300.982;  108.650;  246.000;  282.000
301.120; -116.725; -965.000; -866.000
301.258;  -80.925; -812.000; -705.000
301.396;   25.450;  104.000;  -41.000
301.534;   74.225; -218.000; -293.000
301.672;  -16.550; -664.000; -521.000
301.810;   32.975; -613.000; -545.000
301.948;   99.475;   53.000;  149.000
302.086;  565.100; -250.000;  -32.000
302.224;  876.575; -610.000; -585.000
302.362;   20.800; -558.000; -622.000
302.500;  -30.950; -923.000; -893.000
302.638;   99.225;  128.000;  245.000
302.776;  -21.550; -352.000; -408.000
302.913;   42.600;  447.000;  236.000
303.051;   -6.800;  -86.000;  -23.000
303.189;   48.325;   90.000;  118.000
303.327;  -39.050; -341.000; -256.000
303.465;  -94.500; -832.000; -588.000
303.603;  -96.700; -805.000; -604.000
303.740;   86.900;  417.000;  241.000
303.878;    9.200; -800.000; -759.000
304.016; -105.625; -915.000; -790.000
304.154; -132.475;-1123.000;-1152.000
304.291;  -49.775; -505.000; -554.000
304.429;    4.125;  102.000;   74.000
304.567; -133.175; -908.000; -893.000
304.705;  -55.850; -408.000; -515.000
304.842;   71.600; -616.000; -540.000
304.980;   41.075;  215.000;   35.000
305.118;   31.875; -367.000; -365.000
305.255;  -78.225; -945.000; -927.000
305.393;   46.000;  178.000;  239.000
305.531; -106.625;-1173.000; -956.000
305.668;  -77.625; -663.000; -582.000
305.806;  100.025; -358.000; -439.000
305.943;   95.825; -629.000; -637.000
306.081;   50.550; -378.000; -267.000
306.219; -102.250; -863.000; -748.000
306.356;    3.625;  158.000;   27.000
306.494;  108.575;  981.000;  761.000
306.631;   -9.350;  -11.000;  -55.000
306.769;  -11.575; -613.000; -485.000
306.906;  -14.425; -284.000; -258.000
307.044;  -69.100; -473.000; -488.000
307.181;  -68.900; -410.000; -332.000
307.319;    6.700;  112.000;   87.000
307.456; -167.525;-1191.000;-1153.000
307.594; -115.325; -980.000; -727.000
307.731;  -15.000; -371.000; -164.000
307.868;    7.850;  -15.000;   20.000
308.006; -139.725; -961.000; -847.000
308.143;  -67.300; -618.000; -330.000
308.281;  104.700;  -37.000; -254.000
308.418;  -29.850; -748.000; -640.000
308.555;  -70.275; -400.000; -250.000
308.693;  -69.725; -577.000; -573.000
308.830; -103.500; -712.000; -657.000
308.967;  -13.825; -215.000;  -95.000
309.105;  -63.350; -507.000; -396.000
309.242;    9.150; -468.000; -367.000
309.379;  216.625; -577.000; -655.000
309.517;  -72.450; -936.000; -948.000
309.654; -118.325; -910.000; -734.000
309.791;  -77.125; -662.000; -580.000
309.928; -119.775; -977.000; -914.000
310.065;  168.575;  819.000;  697.000
310.203;   -5.050; -825.000; -850.000
310.340;  -15.850; -465.000; -321.000
310.477;  -97.200; -412.000; -516.000
310.614;  -68.450; -383.000; -473.000
310.751;  -85.725; -427.000; -518.000
310.889;  -21.050;    1.000;   11.000
311.026; -162.075;-1161.000; -939.000
311.163;  -49.475; -386.000; -380.000
311.300;  -87.625; -512.000; -479.000
311.437;  -85.500; -658.000; -619.000
311.574; -166.150;-1226.000; -985.000
311.711;  -70.550; -595.000; -433.000
311.848;  -47.225; -380.000; -388.000
311.985;    4.975;  270.000;   93.000
312.122; -123.650; -932.000; -762.000
312.259; -120.175; -941.000; -994.000
312.396;  -89.825; -508.000; -551.000
312.533;  -82.075; -812.000; -790.000
312.670; -148.400;-1070.000; -898.000
312.807;  -36.025; -352.000; -367.000
312.944;  -85.600; -513.000; -611.000
313.081;  -40.575; -150.000; -415.000
313.218; -116.700;-1111.000; -867.000
313.355;    8.400; -531.000; -449.000
313.492;    7.950; -455.000; -292.000
313.629;  126.375;  815.000;  735.000
313.766; -163.350;-1176.000;-1008.000
313.902;  -26.825; -186.000;   21.000
314.039;  -52.400; -372.000; -289.000
314.176;   25.825;  286.000;  192.000
314.313;  -81.300; -569.000; -473.000
314.450;  -87.100; -788.000; -684.000
314.587;  -55.900; -468.000; -480.000
314.723;   -4.800;  -78.000;  130.000
314.860;   31.300;  318.000;  332.000
314.997;   27.200;  223.000;  142.000
315.134;  -48.225; -385.000; -368.000
315.270;  -34.125; -480.000; -496.000
315.407; -137.775;-1094.000; -967.000
315.544;  -59.400; -657.000; -538.000
315.681;  -67.850; -681.000; -565.000
315.817;   20.325; -133.000; -176.000
315.954;   -0.700; -613.000; -392.000
316.091; -130.900;-1045.000;-1023.000
316.227;  -29.950;  -71.000; -179.000
316.364;   -4.725;   23.000;    6.000
316.500;  -41.900; -113.000; -300.000
316.637;  -42.050; -181.000; -302.000
316.774;  -92.675; -625.000; -358.000
316.910;  -93.500; -598.000; -629.000
317.047;  -73.750; -487.000; -351.000
317.183;  -51.400; -435.000; -566.000
317.320;  -14.800; -367.000; -321.000
317.456;  -73.675; -733.000; -805.000
317.593;  -92.850; -598.000; -641.000
317.729;    5.375;  168.000;  -67.000
317.866; -215.825;-1434.000;-1285.000
318.002;  -96.925; -708.000; -948.000
318.139; -107.500; -883.000; -867.000
318.275; -116.450;-1003.000; -738.000
318.412;  -64.500; -517.000; -336.000
318.548;  -43.700; -751.000; -720.000
318.685; -111.900; -985.000; -888.000
318.821; -102.225; -762.000; -735.000
318.957;  -12.075;   34.000;  -23.000
319.094;   37.725;  297.000;  154.000
319.230;  -79.950; -756.000; -742.000
319.367;  122.450; -471.000; -520.000
319.503;   44.175; -538.000; -436.000
319.639;  -94.575; -877.000; -793.000
319.775;  -69.175; -750.000; -685.000
319.912;  -53.225; -424.000; -519.000
320.048;  -92.475;-1184.000;-1184.000
320.184;   72.850;   59.000;   70.000
320.321;  -64.125; -497.000; -467.000
320.457;   54.650;  475.000;  662.000
320.593;  -76.175; -375.000; -382.000
320.729; -112.600; -732.000; -734.000
320.866;  -82.525; -577.000; -635.000
321.002;  -98.450; -759.000; -809.000
321.138;  -12.550; -135.000; -211.000
321.274;   82.350; -148.000; -115.000
321.410;  -22.900; -585.000; -353.000
321.546;  -48.125;-1011.000; -911.000
321.683;   53.925;  400.000;  185.000
321.819;   -1.950;  -48.000; -117.000
321.955;  -96.850; -743.000; -722.000
322.091;  -50.450; -585.000; -540.000
322.227;  -10.650; -382.000; -202.000
322.363;  -22.250; -320.000; -215.000
322.499;  -54.625; -343.000; -331.000
322.635;  156.650;  636.000;  443.000
322.771;    1.650; -139.000;   12.000
322.907;   79.125;  129.000;  327.000
323.043;  -31.975; -115.000; -206.000
323.179;  -27.850; -394.000; -363.000
323.315;   -5.225; -401.000; -371.000
323.451;   73.700; -328.000; -236.000
323.587;   57.700;  -60.000;  -77.000
323.723;   10.500; -682.000; -601.000
323.859;  -26.850; -258.000;  -76.000
323.995;  -40.750; -467.000; -409.000
324.131; -125.975; -967.000; -892.000
324.267;  -63.450; -254.000; -276.000
324.402; -135.775; -960.000; -983.000
324.538;  -25.900; -279.000; -104.000
324.674;    7.150;  164.000;   77.000
324.810;   99.025;  226.000;  308.000
324.946;  -14.300; -810.000; -658.000
325.082;  -74.400; -568.000; -475.000
325.217;  -25.125;  -62.000;   16.000
325.353; -124.575; -764.000; -659.000
325.489;  -98.550; -540.000; -506.000
325.625;  -83.625; -579.000; -525.000
325.760;   61.875;  517.000;  376.000
325.896;  -34.675; -515.000; -702.000
326.032;  -59.850; -403.000; -352.000
326.168;  -69.025; -462.000; -369.000
326.303;  -67.675; -352.000; -461.000
326.439;  -20.250; -336.000; -276.000
326.575;   -1.475; -190.000;  -29.000
326.710;  -14.400; -156.000;  -30.000
326.846;   -9.625;  146.000;  103.000
326.982;  -98.325; -530.000; -548.000
327.117;  -84.600; -481.000; -442.000
327.253;  -97.425; -745.000; -742.000
327.388; -182.500;-1137.000;-1153.000
327.524;  -62.250; -811.000; -578.000
327.659;  -26.375;  -58.000;  -22.000
327.795;  -14.975;   69.000;   45.000
327.931;  -90.525; -723.000; -499.000
328.066;  -22.575; -417.000; -276.000
328.202;  -24.475;   12.000; -129.000
328.337;   95.300;  957.000;  713.000
328.473;   37.775;  -12.000;  -74.000
328.608;  -35.025; -256.000; -267.000
328.743;  -94.775; -799.000; -664.000
328.879;   31.300;  214.000;  114.000
329.014;  -30.150; -102.000; -122.000
329.150;  -94.425; -358.000; -483.000
329.285;  -76.925; -465.000; -466.000
329.421;  -59.875; -548.000; -246.000
329.556;  -16.025;  -36.000;   85.000
329.691; -106.100; -633.000; -615.000
329.827;  -79.650; -626.000; -480.000
329.962;  -49.125;  131.000; -301.000
330.097;  -92.875; -673.000; -585.000
330.233;  -54.775; -410.000; -223.000
330.368; -134.050; -839.000; -628.000
330.503;  -21.075;    3.000;   98.000
330.638;   17.275;  -93.000; -125.000
330.774;  -66.100; -609.000; -530.000
330.909;  -49.900; -434.000; -244.000
331.044;  -95.525; -714.000; -708.000
331.179; -180.625;-1217.000;-1109.000
331.315;   -5.550;   77.000;   20.000
331.450;   13.175;  157.000;  285.000
331.585;  -84.625; -805.000; -706.000
331.720;  -85.350; -510.000; -460.000
331.855;  -21.350;  -35.000; -102.000
331.990;  262.100;   62.000;  138.000
332.126;  143.325; -110.000;   71.000
332.261;  -21.900; -379.000; -265.000
332.396;   -1.950; -135.000; -242.000
332.531; -114.125;-1074.000;-1031.000
332.666;   29.200; -519.000; -363.000
332.801; -102.950; -726.000; -807.000
332.936;  -30.025; -192.000; -122.000
333.071; -135.900; -870.000; -817.000
333.206;   14.900;  307.000;  379.000
333.341;   32.500;  344.000;  418.000
333.476;  -92.875; -627.000; -623.000
333.611;  -45.875; -251.000; -173.000
333.746;  -41.575; -381.000; -464.000
333.881; -118.050; -973.000; -935.000
334.016; -128.775; -936.000; -917.000
334.151; -131.400; -746.000; -702.000
334.286;   12.375;  152.000;  186.000
334.421;  -11.875; -125.000; -178.000
334.556;  -84.375; -611.000; -567.000
334.690; -100.275; -631.000; -577.000
334.825;   53.850;  381.000;   83.000
334.960;  -60.650; -285.000; -413.000
335.095;   -1.400;  135.000;  -91.000
335.230; -109.725; -722.000; -738.000
335.365; -146.825;-1084.000; -990.000
335.499; -135.875;-1108.000;-1037.000
335.634;    7.325;    9.000;  534.000
335.769; -117.375; -755.000; -720.000
335.904;  -60.725; -603.000; -561.000
336.038;  -58.975; -735.000; -657.000
336.173; -118.825;-1206.000;-1194.000
336.308;    2.200; -116.000; -189.000
336.443;   12.850; -544.000; -634.000
336.577;  -80.900; -936.000; -787.000
336.712;   55.050;   -4.000;  -12.000
336.847;  -42.150; -724.000; -607.000
336.981;   53.875; -272.000; -208.000
337.116;  279.650;  615.000;  501.000
337.250;  136.450; -434.000; -421.000
337.385;  241.775; -297.000; -208.000
337.520;   87.400; -632.000; -603.000
337.654;  -42.325; -215.000; -126.000
337.789; -128.200; -989.000; -933.000
337.923;  -38.100; -104.000; -205.000
338.058;  -80.150; -673.000; -738.000
338.192;  -36.300; -611.000; -488.000
338.327;  -10.300;  -18.000; -155.000
338.461;  -72.150; -299.000; -469.000
338.596;  -96.775; -780.000; -638.000
338.730; -101.675; -767.000; -803.000
338.865;   93.375;  -46.000; -140.000
338.999;  -55.575; -846.000; -702.000
339.134;  -31.675; -634.000; -536.000
339.268;    7.600; -741.000; -603.000
339.403;  350.450; -740.000; -775.000
339.537;  113.500; -894.000; -820.000
339.671; -117.325; -829.000; -813.000
339.806;  -47.525; -556.000; -512.000
339.940;    3.350; -261.000; -235.000
340.074; -107.075; -685.000; -510.000
340.209;  -46.725; -351.000; -230.000
340.343;  -87.625; -517.000; -573.000
340.477;  138.175;  998.000; 1036.000
340.612;  -61.900;-1033.000; -900.000
340.746;  120.200; -199.000; -243.000
340.880;  -77.275; -924.000; -785.000
341.014;  -24.150;  -45.000; -154.000
341.149; -122.675; -756.000; -718.000
341.283; -124.775; -839.000; -754.000
341.417; -108.925;-1124.000; -938.000
341.551;   97.950; -768.000; -708.000
341.685;  -36.050; -633.000; -611.000
341.820;  -70.450; -562.000; -493.000
341.954;  -55.175; -218.000; -349.000
342.088; -153.775;-1102.000;-1019.000
342.222;   58.900;  565.000;  618.000
342.356;  -68.650; -395.000; -335.000
342.490; -100.000; -880.000; -841.000
342.624;  -50.250; -339.000; -242.000
342.758;   -6.800; -364.000; -312.000
342.892;  -78.075; -710.000; -585.000
343.026;  -44.475;  -58.000; -116.000
343.160;  -57.925; -426.000; -376.000
343.294;  -80.950; -474.000; -337.000
343.428;  -31.325; -488.000; -448.000
343.562;  -26.050; -172.000;  -23.000
343.696;  -29.800; -385.000; -314.000
343.830;  -16.025; -362.000; -356.000
343.964;   20.375; -231.000; -168.000
344.098;  856.300;  199.000;   70.000
344.232;  712.825; -266.000; -127.000
344.366;   69.700; -567.000; -453.000
344.500;   30.000; -665.000; -744.000
344.634;   25.300; -324.000; -164.000
344.768;  -26.250; -531.000; -341.000
344.902;   10.050;  278.000;  256.000
345.035;  -81.250; -556.000; -496.000
345.169; -130.325; -933.000; -656.000
345.303;  -28.350; -308.000; -482.000
345.437;  -81.000; -826.000; -717.000
345.571;  -87.525; -675.000; -594.000
345.704;  -68.725; -309.000; -532.000
345.838;  -30.850; -331.000; -284.000
345.972;  -45.250; -543.000; -495.000
346.106;  165.450; -179.000; -190.000
346.239;  406.950; -312.000; -243.000
346.373;  -10.375; -343.000; -302.000
346.507; -149.400; -950.000; -962.000
346.640;  130.875;  -30.000;   13.000
346.774;  -46.075; -650.000; -797.000
346.908;  -20.050; -138.000;  -11.000
347.041; -121.725; -646.000; -593.000
347.175;   -1.675;  259.000;   27.000
347.309;  -82.200; -698.000; -628.000
347.442; -117.625; -883.000; -732.000
347.576;  274.400;  670.000;  668.000
347.709;  177.975; -123.000;  -52.000
347.843; -101.725; -933.000; -825.000
347.976;   29.225;  235.000;  294.000
348.110; -176.400;-1268.000;-1186.000
348.243; -106.975; -679.000; -772.000
348.377;   14.675;  -26.000;   60.000
348.510;   50.575;  403.000;  540.000
348.644;  -39.500;  -37.000; -159.000
348.777;   -3.775;  180.000;  191.000
348.911;  -54.650; -142.000; -112.000
349.044;  149.100;  471.000;  448.000
349.178;  144.625;-1069.000;-1006.000
349.311;   98.250;  141.000;  255.000
349.444;   -3.525; -927.000; -813.000
349.578;  -31.300; -347.000; -200.000
349.711; -106.975; -959.000; -862.000
349.845;  -24.375; -661.000; -591.000
349.978; -147.175;-1224.000;-1137.000
350.111;  -91.625; -546.000; -612.000
350.244;  -88.375; -596.000; -700.000
350.378;   13.725; -392.000; -393.000
350.511;  -74.950; -393.000; -426.000
350.644; -115.250; -808.000; -806.000
350.778;    4.625;  168.000;  104.000
350.911;   -7.700;  134.000;  140.000
351.044;  -96.250; -685.000; -615.000
351.177;  -40.925; -321.000; -281.000
351.310;  -18.375;    3.000; -131.000
351.444;  -85.650; -888.000; -788.000
351.577;  101.150;  140.000;   90.000
351.710;  100.175;  593.000;  417.000
351.843;  -38.850; -165.000;  -77.000
351.976;   -6.225;  149.000;  -79.000
352.109;  -86.875; -621.000; -612.000
352.242;  -45.625; -464.000; -419.000
352.376;  -75.500; -580.000; -636.000
352.509;  144.400; -437.000; -356.000
352.642;   -2.550; -654.000; -604.000
352.775;   38.875; -141.000;  -98.000
352.908; -129.800; -933.000; -904.000
353.041; -116.375; -814.000; -824.000
353.174;  -72.325; -551.000; -424.000
353.307;  -87.975; -753.000; -764.000
353.440;   78.800;  541.000;  453.000
353.573; -120.400; -957.000;-1008.000
353.706;  -56.725; -384.000; -558.000
353.839;  -28.425; -264.000; -220.000
353.971; -106.825; -657.000; -512.000
354.104;  -85.275; -896.000; -835.000
354.237;  -36.250; -627.000; -662.000
354.370; -101.525; -846.000; -879.000
354.503; -190.200;-1231.000;-1308.000
354.636;  -40.125; -529.000; -348.000
354.769; -131.275; -937.000; -860.000
354.902;  -29.150; -230.000; -139.000
355.034;  -26.875; -164.000; -220.000
355.167;  -22.850; -262.000; -162.000
355.300; -103.400;-1061.000; -880.000
355.433;  970.150;  -71.000;  -14.000
355.565; 1503.400; -402.000; -384.000
355.698;  376.500; -356.000; -296.000
355.831;  -17.975; -882.000; -801.000
355.964;   67.300; -285.000; -170.000
356.096;  -86.425; -856.000; -843.000
356.229;  -18.900; -523.000; -530.000
356.362;  329.700; -373.000; -266.000
356.494;  581.250; -229.000; -162.000
356.627;  455.775;  269.000;  377.000
356.760;  645.500;  120.000;   53.000
356.892;  953.950; -286.000; -601.000
357.025;  615.325;  403.000;  389.000
357.157;  562.300; -167.000; -179.000
357.290;  687.575; -856.000; -713.000
357.423;  198.300; -667.000; -556.000
357.555;  103.200; -217.000; -228.000
357.688;  112.875; -483.000; -364.000
357.820;  434.025; -870.000; -877.000
357.953; 3601.975; -563.000; -589.000
358.085;  752.200; -632.000; -612.000
358.218; 1009.425;-1131.000; -932.000
358.350;  174.900;  -58.000;  312.000
358.483; -146.875;-1300.000;-1187.000
358.615;  -32.825;-1182.000;-1078.000
358.747;  -73.650;-1187.000;-1058.000
358.880;   -5.975; -810.000; -744.000
359.012;   -7.300; -376.000; -202.000
359.145;  -46.600; -480.000; -511.000
359.277;   32.225; -962.000; -913.000
359.409; 2923.500;  536.000;  231.000
359.542;  750.500; -738.000; -688.000
359.674;   63.725;   46.000;   13.000
359.806;  -60.025; -565.000; -438.000
359.939;  -41.525; -617.000; -516.000
360.071;  -19.925; -583.000; -579.000
360.203;  -29.400; -411.000; -364.000
360.335;   44.250;  164.000;  -16.000
360.468;  179.575; -249.000; -307.000
360.600; 2365.875; -547.000; -454.000
360.732; 2904.050; -546.000; -423.000
360.864;  366.550;-1216.000;-1044.000
360.996;  248.700; -516.000; -554.000
361.129;   21.875; -389.000; -598.000
361.261;   10.600;  110.000; -113.000
361.393;  -27.850; -252.000; -214.000
361.525;   18.575;   94.000;  244.000
361.657;  -50.075; -821.000; -703.000
361.789;   10.625; -139.000; -155.000
361.921;  197.200; -642.000; -593.000
362.053;  245.125;  524.000;  541.000
362.185;   47.975;  288.000;   72.000
362.318;  -82.475; -709.000; -705.000
362.450;   99.825;  294.000;  444.000
362.582;   72.925; -913.000; -870.000
362.714;  -41.400; -353.000; -332.000
362.846;  -79.350; -606.000; -490.000
362.978; -141.075; -941.000; -811.000
363.109;   53.050; -161.000; -260.000
363.241;  400.650; -739.000; -749.000
363.373;  426.325; -649.000; -564.000
363.505;  671.150; -186.000;  -91.000
363.637;  144.425; -787.000; -601.000
363.769; -132.450;-1067.000;-1080.000
363.901;  -77.450; -596.000; -654.000
364.033; -136.350;-1103.000;-1062.000
364.165;  -31.425; -283.000; -283.000
364.296;   73.225; -316.000; -177.000
364.428;   62.775;-1344.000;-1220.000
364.560;  -81.950; -679.000; -661.000
364.692;  -71.450; -738.000; -835.000
364.824;  238.550; -588.000; -456.000
364.955;  422.325; -402.000; -564.000
365.087;  947.925;-1097.000; -852.000
365.219;   25.350; -686.000; -816.000
365.351;  -78.025; -526.000; -572.000
365.482;   43.575;  300.000;  240.000
365.614;  -66.250; -402.000; -314.000
365.746;  -97.050; -729.000; -752.000
365.877; -105.075; -706.000; -672.000
366.009;  261.375;  -35.000;  -62.000
366.141; -103.225;-1249.000;-1134.000
366.272; -110.175; -803.000; -719.000
366.404; -118.775;-1005.000; -874.000
366.535;  -25.900; -139.000;  -12.000
366.667; -122.600; -644.000; -649.000
366.799;   45.425;  353.000;  203.000
366.930; -117.250; -862.000; -996.000
367.062;  116.400; -639.000; -613.000
367.193;  144.550; -872.000; -842.000
367.325;  -72.750; -580.000; -684.000
367.456;   41.700; -246.000;   31.000
367.588;  159.700; -371.000; -318.000
367.719;   17.650;  -44.000;  -45.000
367.851;  -24.750; -222.000; -241.000
367.982;  -67.950; -875.000; -732.000
368.113;   75.425; -475.000; -358.000
368.245; -125.925; -960.000; -841.000
368.376;  -20.075; -254.000; -302.000
368.508;  -41.925; -188.000; -263.000
368.639; -148.300;-1166.000;-1034.000
368.770;  -24.225; -670.000; -589.000
368.902;  -79.600; -836.000; -926.000
369.033; -123.500; -906.000; -855.000
369.164;  -55.175; -720.000; -653.000
369.296; -104.825; -452.000; -601.000
369.427;  -12.350; -209.000; -144.000
369.558;  -53.100; -593.000; -377.000
369.689; -100.275; -721.000; -569.000
369.821; -130.425; -951.000; -845.000
369.952;  -20.975;   42.000; -108.000
370.083;  -57.500; -229.000; -108.000
370.214;  -94.125; -735.000; -650.000
370.345;   -6.775;   65.000;   81.000
370.477;  -92.225; -810.000; -790.000
370.608;  201.575; -328.000; -264.000
370.739;  -63.175;-1233.000;-1292.000
370.870;  -62.425;-1102.000; -923.000
371.001;   72.800; -378.000; -467.000
371.132;  -87.200; -754.000; -735.000
371.263;  -25.500;  -42.000; -148.000
371.394; -136.675; -841.000; -748.000
371.525;   23.650;  345.000;  225.000
371.657; -105.525; -808.000; -670.000
371.788;   66.450;  103.000;  199.000
371.919;  153.375; -384.000; -304.000
372.050; 3430.875;  -91.000; -156.000
372.181; 1011.450; -188.000; -294.000
372.311;  349.625;   42.000; -127.000
372.442;   15.350; -457.000; -451.000
372.573;  -33.075; -444.000; -340.000
372.704; -128.500;-1008.000; -980.000
372.835;   69.150; -228.000; -289.000
372.966;  -78.200; -646.000; -554.000
373.097;  -67.725; -575.000; -711.000
373.228;  -51.275; -717.000; -542.000
373.359;  109.400; -824.000; -536.000
373.490;  856.725; -881.000; -727.000
373.620; 1078.775;-1001.000; -803.000
373.751; 1670.375; -332.000; -396.000
373.882;  718.850; -663.000; -733.000
374.013;   63.300; -449.000; -262.000
374.143;  -48.950; -581.000; -659.000
374.274; -119.800; -987.000; -908.000
374.405;  162.875; -388.000; -276.000
374.536;  408.450; -526.000; -387.000
374.666; 1017.050; -759.000; -807.000
374.797;  183.750; -817.000; -868.000
374.928;  793.525; -710.000; -560.000
375.058;  812.725; -535.000; -500.000
375.189;   61.375;  -59.000;  -93.000
375.320; -108.250; -928.000;-1034.000
375.450;  -57.550; -625.000; -616.000
375.581;  -57.600; -526.000; -436.000
375.712;  -38.975; -574.000; -250.000
375.842;  276.700; -438.000; -415.000
375.973;  200.500; -554.000; -513.000
376.103;  -58.900; -665.000; -648.000
376.234;  -88.675; -531.000; -552.000
376.364;  -46.675; -944.000; -867.000
376.495;  298.475;  925.000;  529.000
376.625;  -22.900; -472.000; -485.000
376.756;   26.400; -709.000; -678.000
376.886;  -89.300;-1178.000;-1026.000
377.017;   40.750;-1048.000;-1061.000
377.147;  344.025; -786.000; -782.000
377.278;   55.400;  174.000;  228.000
377.408; -137.825; -801.000; -815.000
377.538; -109.075; -707.000; -693.000
377.669;  -84.050; -537.000; -613.000
377.799;  -92.800; -645.000; -635.000
377.929;  -59.400; -610.000; -428.000
378.060; -144.650; -781.000; -847.000
378.190;  -67.750; -726.000; -531.000
378.320;  -55.050; -401.000; -406.000
378.451;  -14.750; -131.000;  -22.000
378.581;  -13.450;  -67.000; -110.000
378.711;  150.275; 1035.000;  866.000
378.841;  -26.525; -533.000; -675.000
378.972;  -86.650; -871.000; -751.000
379.102;  -16.000; -652.000; -579.000
379.232;  -25.600; -126.000;  -73.000
379.362; -127.450;-1001.000; -885.000
379.492;  -17.950; -373.000; -424.000
379.623;   92.600;    0.000;  111.000
379.753; -100.300;-1107.000; -974.000
379.883;  180.675;   59.000;  156.000
380.013;  -22.100;-1081.000;-1017.000
380.143; -111.975;-1097.000;-1056.000
380.273; -100.550; -985.000; -861.000
380.403;   -1.775; -344.000; -257.000
380.533;  -44.225; -651.000; -664.000
380.663;   69.900;  173.000;  128.000
380.793; -119.400;-1027.000;-1074.000
380.923;  -24.975; -103.000;  -34.000
381.053; -104.975; -613.000; -623.000
381.183;  -32.975; -106.000; -248.000
381.313;   10.125; -656.000; -470.000
381.443;   23.425; -692.000; -473.000
381.573;  165.450; -402.000; -409.000
381.703;  226.050;-1249.000;-1095.000
381.833; -137.275;-1454.000;-1336.000
381.963;  109.300; -134.000;  -87.000
382.093; 1359.900; -925.000; -909.000
382.223;  391.525; -713.000; -602.000
382.353;  -25.775; -801.000; -608.000
382.482;  344.625;-1091.000; -964.000
382.612;  736.375; -872.000; -644.000
382.742;  381.650; -695.000; -622.000
382.872;  207.625; -565.000; -551.000
383.002;   59.500;  347.000; -132.000
383.131;  -22.100; -226.000; -160.000
383.261;  -53.200; -706.000; -768.000
383.391;  281.975; -552.000; -377.000
383.521; 3282.975;  451.000;  263.000
383.650;  741.550; -947.000; -904.000
383.780;  -22.075; -783.000; -656.000
383.910;  106.500;  880.000;  802.000
384.039;    6.000; -794.000; -656.000
384.169;  162.625;-1205.000;-1017.000
384.299;  -33.125; -650.000; -662.000
384.428;  -95.700; -764.000; -680.000
384.558;  -46.850; -308.000; -275.000
384.687;  -42.125; -414.000; -334.000
384.817;   -0.175;   75.000;   -2.000
384.947;   10.725; -234.000; -141.000
385.076;  266.225;  982.000;  912.000
385.206;   95.400;  369.000;  480.000
385.335;  -51.000; -549.000; -417.000
385.465;  -79.575; -655.000; -663.000
385.594;  116.300;  -53.000;  -44.000
385.724;  386.225; -868.000; -838.000
385.853;   98.600; -296.000; -270.000
385.982; 1290.775; -743.000; -787.000
386.112; 1990.200;-1052.000; -871.000
386.241;  126.100; -307.000; -312.000
386.371;   21.500; -174.000;  -87.000
386.500;  -16.225; -825.000; -789.000
386.629;   14.825; -874.000; -817.000
386.759;   61.300;  -43.000;   68.000
386.888;  -17.075; -170.000; -250.000
387.017;  -88.975; -648.000; -620.000
387.147; -102.100; -771.000; -798.000
387.276;  -14.825; -410.000; -397.000
387.405;   -8.100; -398.000; -342.000
387.535;  -56.575; -452.000; -361.000
387.664;  -61.900; -692.000; -620.000
387.793;   54.150; -198.000; -113.000
387.922;  473.975;  255.000;  200.000
388.052;   -3.000; -576.000; -423.000
388.181;  -32.950; -342.000; -472.000
388.310;  -19.975; -889.000; -710.000
388.439;  -68.475; -749.000; -742.000
388.568;  164.100;  365.000;  244.000
388.697;  952.600; -756.000; -653.000
388.826;  181.550; -768.000; -666.000
388.956;   35.200; -285.000; -307.000
389.085;  -41.175; -347.000; -287.000
389.214; -106.000; -842.000; -872.000
389.343;  -79.450; -645.000; -413.000
389.472;  406.200;  126.000;  149.000
389.601;  520.525;   91.000;    0.000
389.730;   -3.475; -568.000; -687.000
389.859;   68.625;  226.000;   46.000
389.988;  169.025; -423.000; -408.000
390.117;  117.425; -168.000; -146.000
390.246;  -29.850; -331.000; -320.000
390.375;   76.050; -673.000; -626.000
390.504;  -79.500; -703.000; -621.000
390.633; -111.375; -672.000; -726.000
390.761;  -64.375; -732.000; -645.000
390.890;   -4.325;   -4.000; -130.000
391.019;  -36.175; -421.000; -441.000
391.148; -138.575; -826.000; -855.000
391.277;  -79.150; -576.000; -493.000
391.406;  -95.225; -821.000; -805.000
391.534;    1.900;  574.000; -301.000
391.663;  -84.050; -583.000; -645.000
391.792;  -99.125; -673.000; -701.000
391.921;   74.600;   -3.000;   15.000
392.050;  147.975; -287.000; -228.000
392.178;  -69.225;-1206.000;-1061.000
392.307;  118.850; -758.000; -712.000
392.436;   59.600; -427.000; -641.000
392.564;    9.850;  166.000;   -6.000
392.693; -101.150; -860.000; -682.000
392.822;  180.375; -529.000; -534.000
392.950;   68.475; -880.000; -714.000
393.079;  306.300; -188.000; -328.000
393.208;   16.200; -488.000; -511.000
393.336;  -24.950; -170.000; -145.000
393.465;  -66.750; -317.000; -199.000
393.593;    1.900;   62.000;   79.000
393.722; -160.400;-1121.000; -916.000
393.850;  -54.125; -188.000;  -61.000
393.979; -155.425; -926.000; -805.000
394.107;  -65.750; -517.000; -537.000
394.236;  -27.425; -570.000; -507.000
394.364;  171.550;  383.000;  206.000
394.493;  235.075; -911.000; -767.000
394.621;  -20.275; -955.000; -916.000
394.750;  724.775; -873.000; -923.000
394.878; 3007.650; -247.000; -149.000
395.007; 3995.175; -721.000; -807.000
395.135;  286.725; -790.000; -721.000
395.263;  -90.100;-1038.000;-1040.000
395.392;   -0.600;  -25.000; -107.000
395.520; -149.075; -818.000; -679.000
395.648;  -98.750; -865.000; -915.000
395.777;  -32.300; -366.000; -405.000
395.905;  -39.225; -449.000; -564.000
396.033;    5.200;  217.000;  172.000
396.162;  419.250; -399.000; -453.000
396.290;  352.475;  -17.000;   -2.000
396.418;   70.975; -555.000; -514.000
396.546;  -82.575; -571.000; -466.000
396.674; -106.150; -850.000; -878.000
396.803;    2.150;  -72.000;  -23.000
396.931;   77.525; -179.000; -199.000
397.059;   16.725;-1026.000; -989.000
397.187; -132.400;-1026.000; -975.000
397.315; -149.200; -884.000; -649.000
397.443; -108.775; -592.000; -443.000
397.572;  -96.750; -578.000; -424.000
397.700;  -33.650; -607.000; -614.000
397.828;   -2.125;  120.000;  -90.000
397.956;  -53.775; -508.000; -478.000
398.084;  -70.425; -767.000; -626.000
398.212;   32.650;  137.000;  124.000
398.340;  -13.075;  -56.000;  159.000
398.468;   10.975; -390.000; -169.000
398.596; -150.175; -993.000; -953.000
398.724; -123.475; -762.000; -767.000
398.852; -167.775;-1024.000; -976.000
398.980;  -74.125; -560.000; -560.000
399.108;  -74.775; -982.000; -735.000
399.236;   15.650;   13.000;    8.000
399.363;    3.650;  222.000;  196.000
399.491;  -81.000; -404.000; -398.000
399.619; -114.300; -829.000; -800.000
399.747; -108.575; -859.000; -771.000
399.875;   64.650;  220.000;  234.000
400.003;  -62.925; -359.000; -284.000
400.130;  -95.150; -421.000; -341.000
400.258;  -39.575;  -83.000;   38.000
400.386;  -58.125; -352.000; -168.000
400.514;  -69.725; -526.000; -587.000
400.641; -106.225; -928.000; -802.000
400.769; -153.150; -979.000; -888.000
400.897; -127.400; -838.000; -793.000
401.025;  -26.000; -166.000; -152.000
401.152;  -16.925;  220.000;   38.000
401.280;  -96.375; -430.000; -429.000
401.408; -127.600; -712.000; -576.000
401.535; -118.975; -735.000; -758.000
401.663; -196.225;-1134.000;-1054.000
401.790;  -82.075; -514.000; -525.000
401.918;   36.875;  436.000;  405.000
402.046;  -15.700;  134.000;  122.000
402.173;  -46.300;  -18.000;    7.000
402.301;  -69.950; -519.000; -397.000
402.428;   29.175;  528.000;  383.000
402.556; -146.000;-1188.000; -913.000
402.683;  -46.425;  -20.000;   -1.000
402.811;  -19.250;  -37.000; -206.000
402.938;  -15.850;   20.000;   27.000
403.066;  176.350; -574.000; -558.000
403.193;  313.325;  299.000;  239.000
403.321;  245.750; -396.000; -574.000
403.448;  314.075;   83.000;   27.000
403.575;  136.650;  -90.000;  -46.000
403.703; -104.350; -732.000; -557.000
403.830;  -73.050; -531.000; -496.000
403.957; -143.650;-1117.000;-1023.000
404.085;   -7.350;  -61.000; -172.000
404.212;   94.225;  -50.000;   63.000
404.339;  260.725; -566.000; -306.000
404.467; 5906.225; -612.000; -524.000
404.594; 3800.050; -287.000; -227.000
404.721;  842.275; -869.000; -764.000
404.848;   77.700; -113.000; -202.000
404.976; -110.200; -856.000; -783.000
405.103;  -13.000;  -14.000;  -82.000
405.230;   -4.900;  190.000;  226.000
405.357;   22.725;  117.000;   44.000
405.484;  273.800;  -49.000;    5.000
405.612;   33.650; -548.000; -563.000
405.739;  -73.175; -488.000; -243.000
405.866;   84.250;  669.000;  385.000
405.993;  -53.200; -398.000; -102.000
406.120; -148.525; -801.000; -887.000
406.247;  -64.350; -323.000; -342.000
406.374;  399.400;  540.000;  629.000
406.501;   85.975; -632.000; -702.000
406.628;  -85.600; -621.000; -589.000
406.755; -113.225; -803.000; -620.000
406.882;  -54.825; -228.000; -277.000
407.009; -109.400; -719.000; -628.000
407.136;   23.750; -480.000; -401.000
407.263;   80.800; -939.000; -829.000
407.390;  -96.650; -692.000; -614.000
407.517; -192.625;-1139.000;-1187.000
407.644;  -72.600; -332.000; -256.000
407.771;  -74.675; -249.000; -287.000
407.898;    1.600;  168.000;  328.000
408.025;  -66.225; -421.000; -313.000
408.151;  -15.000;   82.000;  153.000
408.278;  -84.175; -267.000; -216.000
408.405; -119.825; -931.000; -899.000
408.532;  -66.325; -549.000; -542.000
408.659; -122.575; -677.000; -648.000
408.785; -211.225;-1298.000;-1170.000
408.912;  -73.575; -412.000; -296.000
409.039; -118.425; -610.000; -686.000
409.166; -109.575; -591.000; -555.000
409.292; -128.925; -571.000; -534.000
409.419; -124.825; -665.000; -649.000
409.546;  -97.600; -431.000; -192.000
409.672; -116.325; -713.000; -545.000
409.799;  -28.775;  -36.000;   34.000
409.926;  -49.050; -180.000; -179.000
410.052; -184.550;-1127.000;-1091.000
410.179;  -59.025; -368.000; -392.000
410.305;  -92.450; -375.000; -493.000
410.432;  -56.025; -220.000; -333.000
410.558;  -94.950; -305.000; -380.000
410.685; -116.400; -688.000; -431.000
410.812; -114.000; -409.000; -588.000
410.938; -158.600; -964.000; -808.000
411.065; -106.050; -671.000; -645.000
411.191;  -34.475; -189.000; -174.000
411.317; -112.350; -823.000; -742.000
411.444;  -71.425; -317.000; -246.000
411.570;  -78.675; -339.000; -294.000
411.697; -135.275; -758.000; -752.000
411.823; -168.925; -989.000; -999.000
411.949;  -42.125;  -56.000;   17.000
412.076; -129.775; -539.000; -519.000
412.202; -117.475; -758.000; -757.000
412.329; -136.350; -798.000; -752.000
412.455; -117.975; -821.000; -657.000
412.581;  -22.775;  -15.000;  172.000
412.707;  -76.025; -540.000; -457.000
412.834;   16.300;  156.000;  219.000
412.960;  -89.575; -785.000; -784.000
413.086; -105.225; -743.000; -701.000
413.212;  129.300;  604.000;  578.000
413.339;  -72.700; -685.000; -701.000
413.465;   -5.025; -364.000; -310.000
413.591;  -96.550; -757.000; -474.000
413.717;  -48.825; -358.000; -366.000
413.843; -147.575; -839.000; -861.000
413.969;  -61.100;  -47.000; -292.000
414.096; -122.325; -679.000; -679.000
414.222;  -30.750;  -33.000;   85.000
414.348;  -37.725; -652.000; -385.000
414.474;   62.400;   38.000;  -52.000
414.600;  -24.975; -126.000; -144.000
414.726;  -28.475;  -96.000;  -55.000
414.852;  -58.475; -365.000; -342.000
414.978;   16.575;  104.000;  -18.000
415.104;   33.450;   38.000;   80.000
415.230;   21.625; -329.000; -330.000
415.356;   26.225; -409.000; -514.000
415.482;  202.050;   13.000;  -35.000
415.608;  267.350; -247.000; -323.000
415.734;  963.225;   67.000;   38.000
415.860;20448.375; -875.000; -767.000
415.986;14377.525; -685.000; -607.000
416.111; 1219.750; -798.000; -652.000
416.237;  249.475; -424.000; -571.000
416.363; 1179.575; -765.000; -733.000
416.489; 4271.900; -324.000; -251.000
416.615;  432.875; -707.000; -742.000
416.741;  -18.375; -677.000; -784.000
416.866; -104.825; -673.000; -736.000
416.992; -124.400; -801.000; -818.000
417.118;  -29.650;  -41.000;  -80.000
417.244;  -77.850; -798.000; -531.000
417.369;  -99.450; -801.000; -612.000
417.495;  -20.425; -325.000; -254.000
417.621;  -86.150;-1015.000; -803.000
417.746;   -1.675; -579.000; -572.000
417.872;   39.600; -254.000; -144.000
417.998;   39.375; -515.000; -530.000
418.123; 1104.475;-1073.000; -845.000
418.249; 5517.475; -512.000; -601.000
418.374;  729.850; -916.000; -824.000
418.500;  100.525; -383.000; -482.000
418.626;  100.050;   70.000;  -59.000
418.751;  107.550; -549.000; -448.000
418.877;  200.150; -637.000; -643.000
419.002; 1875.225; -688.000; -560.000
419.128;12892.775; -930.000; -721.000
419.253; 3013.175; -967.000; -837.000
419.379;  399.225; -391.000; -338.000
419.504;  381.525;  325.000;  415.000
419.629;  515.650; -393.000; -212.000
419.755; 3800.400; -317.000; -254.000
419.880;21778.200;  -98.000;   67.000
420.006;11757.700; -280.000; -221.000
420.131;29775.625; -662.000; -775.000
420.256; 4154.800; -315.000; -316.000
420.382;  546.025; -665.000; -687.000
420.507;   42.900; -649.000; -778.000
420.632;  113.800; -337.000; -339.000
420.758;  214.300; -251.000; -425.000
420.883;  -88.925; -876.000; -672.000
421.008; -114.650; -775.000; -619.000
421.133;  -89.550; -509.000; -467.000
421.259;  -58.475; -325.000; -259.000
421.384; -118.300; -834.000; -693.000
421.509;  -59.575;-1052.000; -862.000
421.634; 1047.500; -936.000; -820.000
421.759;  436.000; -359.000; -327.000
421.885;  -65.400; -717.000; -656.000
422.010; -105.350; -673.000; -542.000
422.135; -155.225; -695.000; -727.000
422.260;   21.925;  340.000;  280.000
422.385;  -50.100;   12.000;  -98.000
422.510;   11.650;  151.000;  -26.000
422.635;    2.250;  -87.000;  -43.000
422.760;   90.125; -766.000; -791.000
422.885;   52.750;  -57.000;  -80.000
423.010;  -29.675; -112.000; -169.000
423.135;  -96.750; -481.000; -561.000
423.260;  -36.300; -150.000; -245.000
423.385;   55.475;  476.000;  222.000
423.510;   34.550;   71.000;  -22.000
423.635;   65.400;  133.000;   45.000
423.760;   62.875;  383.000;  328.000
423.885;   50.075;  336.000;  391.000
424.010;   -3.275;  -68.000;  -13.000
424.135;  -30.375;    5.000;  -33.000
424.259;  -94.850; -654.000; -457.000
424.384;  -81.000; -279.000; -272.000
424.509;  -45.575; -260.000; -186.000
424.634; -117.050; -761.000; -623.000
424.759;  -18.875; -688.000; -544.000
424.883;  -12.150; -506.000; -527.000
425.008;  151.900; -502.000; -410.000
425.133; 2043.325; -679.000; -653.000
425.258;  907.350; -517.000; -381.000
425.382;  996.950; -867.000; -774.000
425.507; 2442.650; -487.000; -543.000
425.632;  398.925; -802.000; -663.000
425.756;  465.900; -256.000; -146.000
425.881; 6941.050; -831.000; -857.000
426.006;18323.375; -604.000; -355.000
426.130; 2756.075; -696.000; -508.000
426.255;  344.275; -611.000; -491.000
426.379;  139.825; -189.000; -577.000
426.504;  377.875;  660.000;  544.000
426.629; 4120.600; -519.000; -466.000
426.753; 2741.450;   64.000;  -46.000
426.878;  297.275; -252.000; -288.000
427.002;  192.550; -651.000; -668.000
427.127; 1658.550;  -35.000; -158.000
427.251;11681.975;  372.000;  401.000
427.375; 3184.975; -191.000; -173.000
427.500; 2192.550; -616.000; -610.000
427.624;  721.800; -234.000; -400.000
427.749;   84.425; -216.000; -225.000
427.873;  -46.275; -499.000; -412.000
427.997;  -59.175; -222.000; -230.000
428.122;   70.475;  795.000;  703.000
428.246;   72.450;  433.000;  434.000
428.371; -127.050; -869.000; -773.000
428.495; -102.725; -624.000; -646.000
428.619;  -27.775; -186.000; -117.000
428.743;   26.425;   65.000;  132.000
428.868;    8.800; -732.000; -643.000
428.992; 1337.700; -219.000; -326.000
429.116;  506.375; -329.000; -357.000
429.240;  255.025;  419.000;  426.000
429.365;  -28.600; -454.000; -574.000
429.489;  -54.750; -638.000; -647.000
429.613;    5.275; -236.000; -177.000
429.737;    9.525; -563.000; -432.000
429.861;  260.725; -247.000; -133.000
429.985; 5781.775; -425.000; -305.000
430.109; 6129.600; -770.000; -908.000
430.234;  670.925;   76.000;  -50.000
430.358;   46.150; -250.000; -160.000
430.482;  -64.925; -672.000; -564.000
430.606;  -80.850; -655.000; -375.000
430.730;  -15.050; -437.000; -388.000
430.854;   89.925; -909.000; -835.000
430.978;  -87.750; -795.000; -764.000
431.102; -106.450; -499.000; -422.000
431.226; -137.575; -874.000; -815.000
431.350;   21.400;  345.000;  422.000
431.474;  -95.450; -661.000; -373.000
431.597; -153.900;-1060.000; -848.000
431.721;  -84.300; -276.000; -267.000
431.845; -134.775; -704.000; -472.000
431.969;  -90.400; -304.000; -349.000
432.093;  -98.325; -395.000; -317.000
432.217;  -19.050;   32.000;   82.000
432.341;  -92.875; -523.000; -518.000
432.464;   -4.100;   96.000;   40.000
432.588;  160.900; -401.000; -329.000
432.712;   83.325;  -52.000;  -52.000
432.836;   27.300;  213.000;  263.000
432.959;  -17.375; -372.000; -311.000
433.083;   90.650;   11.000;    2.000
433.207;  397.600;  285.000;  930.000
433.330; 5326.950; -391.000; -200.000
433.454; 6334.725; -654.000; -638.000
433.578; 3616.875;  583.000;  278.000
433.701;  626.825; -623.000; -675.000
433.825;  111.725; -292.000; -299.000
433.949;  132.575;   28.000;  -72.000
434.072;   36.675; -410.000; -323.000
434.196;  -10.075; -309.000; -117.000
434.319; 3820.150;25482.000;25124.000
434.443;  749.325; -656.000; -603.000
434.566; 2691.850;  281.000;   62.000
434.690;  438.275; -637.000; -383.000
434.813;   38.150; -251.000; -173.000
434.937;  -90.100; -569.000; -696.000
435.060;  -52.550; -423.000; -332.000
435.184;  257.300; -492.000; -217.000
435.307;  123.325;  159.000;  102.000
435.431;  -13.375;  -40.000;   24.000
435.554;  -93.275; -399.000; -240.000
435.677;  -86.900; -350.000; -258.000
435.801;  -37.350;  -25.000;   49.000
435.924;  -24.075;    1.000;  -67.000
436.048; -125.200;-1019.000; -732.000
436.171;  -87.650; -240.000;  -66.000
436.294;  -36.750; -248.000; -229.000
436.417;   73.950; -963.000; -849.000
436.541;  -83.925; -814.000; -840.000
436.664;  -53.925; -242.000; -316.000
436.787;  -43.975;   13.000;  113.000
436.910; -123.375; -792.000; -422.000
437.034;    4.150;  142.000;  143.000
437.157;   43.675;  -11.000;    0.000
437.280;  -73.800; -392.000; -292.000
437.403; -107.600; -982.000; -869.000
437.526;  544.100; -903.000; -865.000
437.649; 1990.525; -505.000; -332.000
437.772;  249.200; -692.000; -540.000
437.896;   95.475;  700.000;  544.000
438.019; -112.700; -758.000; -503.000
438.142;  -91.900; -596.000; -506.000
438.265;  -37.900; -639.000; -670.000
438.388;  503.850; -520.000; -410.000
438.511;   68.550; -597.000; -394.000
438.634;  -81.775; -247.000; -125.000
438.757; -143.475; -693.000; -619.000
438.880;  -28.625;  -34.000;  -57.000
439.003;  -86.850; -417.000; -437.000
439.126;  -65.775; -287.000; -167.000
439.248;  -66.900;  -98.000; -139.000
439.371;  -59.050;    9.000;  -53.000
439.494;    9.200;  510.000;  439.000
439.617;  -60.325;   65.000;  -88.000
439.740; -180.550; -968.000; -816.000
439.863; -156.675; -755.000; -595.000
439.986; -140.850; -476.000; -431.000
440.108;  -52.775; -161.000; -112.000
440.231; -164.400; -950.000; -836.000
440.354;  -58.650;  -64.000; -150.000
440.477;   11.225; -566.000; -542.000
440.599;  -14.300; -200.000; -225.000
440.722; -136.250; -709.000; -586.000
440.845;   66.125;  751.000;  928.000
440.968; -119.700; -415.000; -311.000
441.090;  -78.525; -199.000;  -33.000
441.213; -161.725;-1021.000; -825.000
441.336;  -57.850; -159.000;   -5.000
441.458;  -85.300; -549.000; -396.000
441.581; -101.650; -628.000; -629.000
441.703;  -70.050; -152.000;   13.000
441.826; -109.975; -557.000; -400.000
441.948;  -55.800;   56.000;   51.000
442.071;   16.275;  555.000;  424.000
442.193; -121.350; -531.000; -485.000
442.316;   11.350;  152.000;   97.000
442.438;   26.575; -233.000;  -10.000
442.561;   63.000;  272.000;  262.000
442.683;  476.900; -809.000; -522.000
442.806; 1027.550;   -8.000;   74.000
442.928;    4.650; -859.000; -604.000
443.051;  -84.375; -577.000; -373.000
443.173; -107.275; -341.000; -339.000
443.295;  -82.275; -263.000; -371.000
443.418;  -83.175; -321.000;  -29.000
443.540;  -27.225; -106.000;   -4.000
443.662; -135.675; -563.000; -465.000
443.785;  -18.450;  335.000;  199.000
443.907; -133.225; -362.000; -208.000
444.029; -148.375; -767.000; -494.000
444.152; -152.100; -644.000; -554.000
444.274;  -45.300;  -18.000;  -24.000
444.396; -114.675; -461.000; -221.000
444.518; -140.500; -691.000; -454.000
444.640; -121.875; -268.000; -111.000
444.763;  -26.850;  388.000;  249.000
444.885; -120.250; -432.000; -392.000
445.007;  -39.575;   35.000;   86.000
445.129; -130.275; -610.000; -515.000
445.251; -106.625; -372.000; -439.000
445.373; -142.975; -537.000; -386.000
445.495;    7.300;  242.000;  350.000
445.617;   45.025;  853.000;  753.000
445.739;  -82.350; -215.000;  -97.000
445.861;  -56.100; -245.000; -112.000
445.984;  -43.550; -267.000; -101.000
446.105;  186.175; -418.000; -251.000
446.227;  542.975; -176.000;  -19.000
446.349;   -8.325; -358.000; -249.000
446.471; -105.700; -615.000; -448.000
446.593;  -65.375; -316.000;   19.000
446.715;  -14.575;  -67.000;   41.000
446.837;   58.825;  697.000;  832.000
446.959; -102.350; -457.000; -478.000
447.081; -135.425; -628.000; -518.000
447.203;   50.075;  862.000;  834.000
447.325; -100.700; -270.000;   42.000
447.446;   -9.750;  286.000;  530.000
447.568; -162.525; -921.000; -803.000
447.690;  -90.875; -236.000; -245.000
447.812; -156.300; -798.000; -519.000
447.933;  -26.700;  155.000;  127.000
448.055;  -79.725; -306.000; -261.000
448.177;  127.550;   31.000;   79.000
448.299;   48.225; -935.000; -727.000
448.420;   -4.650;  -25.000;  159.000
448.542;  -57.425;   -3.000;   33.000
448.664;  -35.250;  109.000;  322.000
448.785;  -56.900;  265.000;   83.000
448.907;  -72.450; -614.000; -353.000
449.028;  -47.350; -771.000; -471.000
449.150;   61.600;  492.000;  589.000
449.272; -201.525;-1044.000; -913.000
449.393;   30.925;  612.000;  694.000
449.515; -153.100; -634.000; -581.000
449.636;  -73.200; -264.000; -155.000
449.758;   69.725;  763.000;  622.000
449.879;  -98.025; -498.000; -396.000
450.001;  -85.925; -149.000;  -49.000
450.122;  -38.850;  -95.000;  162.000
450.244;  -30.475;   37.000;  364.000
450.365; -101.000; -495.000; -301.000
450.486;  -38.375;   80.000;  268.000
450.608;   13.750;  393.000;  326.000
450.729;   74.375;  578.000;  645.000
450.850;   -2.125; -574.000; -466.000
450.972;  798.700; -552.000; -389.000
451.093; 5116.300;  190.000;  588.000
451.214; 2098.450; -516.000; -337.000
451.336;  380.150;  773.000;  579.000
451.457;   60.775;  264.000;  393.000
451.578;  -48.300; -118.000;  -74.000
451.699; -129.425; -546.000; -540.000
451.821;  -68.625; -284.000;  -50.000
451.942;   -7.200;  278.000;  285.000
452.063;   23.100;  228.000;  419.000
452.184;  562.025;  -54.000;  -49.000
452.305; 1112.950;  103.000;  170.000
452.427;  115.075; -549.000; -301.000
452.548;  -24.100;   23.000;   79.000
452.669;  -60.600; -257.000;  -89.000
452.790;  -56.750;    3.000;  -18.000
452.911;  -15.875;  195.000;  259.000
453.032;  -63.400; -289.000;  -60.000
453.153;  -48.450;  -29.000;   81.000
453.274;   55.450;  737.000;  868.000
453.395;  -55.450;  -51.000;  175.000
453.516;  128.125; 1317.000; 1388.000
453.637;  -76.725; -205.000; -150.000
453.758;  -68.750;   15.000;   69.000
453.879; -129.250; -462.000; -250.000
454.000;   64.325; 1086.000;  948.000
454.121; -129.900; -554.000; -326.000
454.242; -123.625; -599.000; -383.000
454.362;  -69.750;  -99.000;  114.000
454.483;  -48.525; -309.000; -229.000
454.604;   42.325;  512.000;  580.000
454.725; -140.550; -627.000; -555.000
454.846; -133.375; -474.000; -406.000
454.967;  -37.575;  230.000;  539.000
455.087;  -43.700;  179.000;  153.000
455.208;   12.500;  554.000;  856.000
455.329;  -75.975;  -22.000;   82.000
455.450;   29.050;  473.000;  633.000
455.570;  -88.350; -234.000; -211.000
455.691;  -55.625;  201.000;  407.000
455.812; -117.325; -270.000;  -92.000
455.932;  -75.350;  107.000;  -97.000
456.053;  -82.225;   36.000;   24.000
456.173; -115.150; -433.000; -355.000
456.294; -137.200; -476.000; -303.000
456.415;  -74.575;  -73.000;   70.000
456.535;  -40.650;  297.000;  273.000
456.656;  -50.425;  132.000;  240.000
456.776;  -71.875;    3.000;  298.000
456.897;  -19.400;  308.000;  513.000
457.017;  -85.050; -153.000;   -3.000
457.138; -121.650; -402.000; -249.000
457.258;  -38.825;  263.000;  224.000
457.379;  -21.575;  509.000;  521.000
457.499;  -26.425;  443.000;  432.000
457.620; -131.175; -407.000; -231.000
457.740; -107.425; -132.000;  -11.000
457.860;  -52.850;   87.000;   44.000
457.981;  -49.975;  132.000;  124.000
458.101;  -88.525;  -89.000;   40.000
458.221;  -23.225;  336.000;  402.000
458.342;  -74.625;   -4.000;  -37.000
458.462;   13.350;  617.000;  352.000
458.582;  -60.175; -302.000; -294.000
458.703;  -10.125;  303.000;  154.000
458.823;  -37.100;   22.000;  163.000
458.943;   10.625;  341.000;  467.000
459.063;  -16.825; 1124.000;  192.000
459.183;  -21.875;  328.000;  313.000
459.304;  -18.800;  315.000;  517.000
459.424;  -76.275; -246.000;  -89.000
459.544;  344.475;  388.000;  764.000
459.664;  838.050;  499.000;  506.000
459.784;  305.400; 1004.000; 1175.000
459.904;   51.450;  867.000;  744.000
460.024;   60.550;  867.000;  684.000
460.144;   -5.250;  449.000;  554.000
460.264;    1.725;  515.000;  327.000
460.385; -102.925; -145.000; -119.000
460.505;   39.700;  905.000;  858.000
460.625;  -89.325;  -17.000;  -68.000
460.745;  -25.175;  396.000;  541.000
460.864;  -72.050;  153.000;  469.000
460.984;    3.025;  499.000;  573.000
461.104;  133.150; 1656.000; 1775.000
461.224;   18.875;  657.000;  650.000
461.344;  -38.325;  431.000;  360.000
461.464;  -42.475;  258.000;  513.000
461.584;  -25.775;  283.000;  466.000
461.704;  -61.325;   58.000;  108.000
461.824;  -61.700;  238.000;  259.000
461.943;  -68.800;  191.000;  130.000
462.063;  -75.925;    2.000;  324.000
462.183;   27.075;  639.000;  717.000
462.303;   98.575; 1678.000; 1230.000
462.422;   23.550;  781.000;  840.000
462.542;  -54.700;  271.000;  391.000
462.662;   35.675;  353.000;  380.000
462.782;  247.625;  833.000;  572.000
462.901;  498.350;  545.000;  717.000
463.021;  274.650; 1702.000; 1638.000
463.141;    0.775;  337.000;  770.000
463.260;  -31.825;  614.000;  474.000
463.380;   17.125;  902.000;  884.000
463.499;  -44.475;  342.000;  332.000
463.619;  -39.675;  581.000;  559.000
463.738;  105.250; 1644.000;  903.000
463.858;    7.500;  657.000;  811.000
463.978;  -34.075;  542.000;  396.000
464.097;   45.450;  921.000; 1114.000
464.217;  105.675; 1196.000; 1143.000
464.336;   97.175; 1068.000; 1130.000
464.455;  -42.700;  328.000;  659.000
464.575;   39.850;  597.000;  602.000
464.694;  149.625; 1204.000; 1179.000
464.814;  124.550; 1190.000; 1138.000
464.933;   63.500; 1095.000; 1027.000
465.052;   89.300; 1412.000; 1054.000
465.172;   62.550;  922.000;  799.000
465.291;  131.675; 1376.000; 1320.000
465.410;    8.700;  462.000;  735.000
465.530;   99.275; 1355.000; 1310.000
465.649;   61.250; 1209.000; 1273.000
465.768;  145.075; 1673.000; 1508.000
465.888;   50.300;  941.000; 1174.000
466.007;   94.500; 1335.000; 1440.000
466.126;  -17.575;  721.000;  641.000
466.245;   28.125; 1176.000; 1187.000
466.364;   19.750;  950.000; 1060.000
466.484;   58.850; 1024.000; 1213.000
466.603;   21.225; 1101.000; 1222.000
466.722;  100.375; 1490.000; 1769.000
466.841;   59.900; 1151.000; 1401.000
466.960;   28.875; 1069.000;  972.000
467.079;  125.575; 1971.000; 1786.000
467.198;   47.500; 1238.000; 1181.000
467.317;   85.725; 1768.000; 1162.000
467.436;   58.225; 1709.000; 1261.000
467.555;  112.675; 1796.000; 1746.000
467.674;   49.700; 1227.000; 1329.000
467.793;   46.425; 1376.000; 1374.000
467.912;   92.750; 1658.000; 1539.000
468.031;  138.825; 2038.000; 1930.000
468.150;  134.000; 1842.000; 1837.000
468.269;  187.200; 2313.000; 2090.000
468.388;  184.500; 2168.000; 2339.000
468.507;  264.200; 2884.000; 2903.000
468.626;  245.975; 2555.000; 2541.000
468.744;  125.875; 2018.000; 2174.000
468.863;  195.050; 2312.000; 2523.000
468.982;   76.575; 1503.000; 1555.000
469.101;  206.450; 2788.000; 2692.000
469.220;  128.125; 2333.000; 2176.000
469.338;  243.250; 2935.000; 3051.000
469.457;  202.175; 2719.000; 2545.000
469.576;  351.325; 3953.000; 3784.000
469.695;  236.225; 2877.000; 3066.000
469.813;  435.275; 4148.000; 4192.000
469.932;  404.625; 4255.000; 4485.000
470.051;  425.925; 4075.000; 4161.000
470.169;  892.700; 4470.000; 4338.000
470.288; 1481.850; 4700.000; 4809.000
470.406;  868.525; 5059.000; 5194.000
470.525;  639.650; 6101.000; 5787.000
470.644;  638.900; 6847.000; 6794.000
470.762;  797.300; 8397.000; 7873.000
470.881;  927.575; 8651.000; 8464.000
470.999; 1066.450; 9685.000; 9151.000
471.118; 1106.975;11174.000;10711.000

