
Integration time [ms]: 100.000
Averaging Nr. [scans]: 40
Smoothing Nr. [pixels]: 0
Data measured with spectrometer [name]: 2101012U2
Wave   ;Sample   ;Dark     ;Reference
[nm]   ;[counts] ;[counts] ;[counts] 

197.733;   56.325;  516.000;  404.000
197.879;  -94.350; -610.000; -634.000
198.025;  -44.675; -475.000; -420.000
198.171;  -78.550; -602.000; -612.000
198.317;  -23.400; -401.000; -316.000
198.463;  -66.925; -655.000; -404.000
198.609;   37.225;  181.000; -137.000
198.755;  -78.475; -644.000; -410.000
198.901;  -57.375; -505.000; -424.000
199.047;  -65.550; -615.000; -488.000
199.193;  -28.225; -230.000; -468.000
199.339;  -43.775; -222.000; -369.000
199.485;   45.250;  330.000;  271.000
199.631;   24.075;  227.000;  310.000
199.777;  -38.925; -466.000; -398.000
199.923;  -70.775; -610.000; -424.000
200.069;    5.300; -141.000;  -58.000
200.215;   52.325;  128.000;  453.000
200.361;   47.750;  243.000;  477.000
200.507;  -72.825; -600.000; -373.000
200.653;  -27.500; -371.000; -194.000
200.798;  -31.825; -215.000; -125.000
200.944;    8.450; -146.000;  -41.000
201.090;   39.000;   61.000;  222.000
201.236;    3.100; -116.000; -158.000
201.382;  133.875;  874.000;  903.000
201.528;   23.125;  -58.000;  -48.000
201.674;  -68.600; -386.000; -293.000
201.819;  -49.400; -540.000; -439.000
201.965;  -86.075; -699.000; -447.000
202.111;  -17.075; -273.000; -226.000
202.257;  -34.725; -250.000; -238.000
202.402;    9.075;   13.000;  -36.000
202.548;  -32.900; -169.000; -116.000
202.694;   92.225;  410.000; -183.000
202.840;  -70.050; -603.000; -531.000
202.985;  -66.025; -681.000; -639.000
203.131; -106.225; -832.000; -666.000
203.277;  -18.400; -199.000; -262.000
203.423;  -74.600; -434.000; -520.000
203.568;  -41.000; -462.000; -237.000
203.714;  -68.625; -535.000; -542.000
203.860;  -76.300; -682.000; -641.000
204.005;    9.125;  112.000;  167.000
204.151;   73.550;  561.000;  556.000
204.296;  -35.450; -354.000; -221.000
204.442;  -66.300; -600.000; -547.000
204.588;  -73.125; -592.000; -579.000
204.733;   29.900;  178.000;  168.000
204.879; -139.900;-1018.000; -822.000
205.025;   13.400;  -99.000;  126.000
205.170;    3.300;  -17.000;   94.000
205.316;   89.500;  438.000;  661.000
205.461;  -78.425; -698.000; -554.000
205.607;   94.525;  609.000;  665.000
205.752;  -86.875; -626.000; -551.000
205.898;  -40.525; -501.000; -391.000
206.043;  -57.075; -578.000; -506.000
206.189;  -29.050; -243.000; -285.000
206.334;   56.050;  554.000;  606.000
206.480;   90.975;  409.000;  239.000
206.625;  -85.275; -529.000; -552.000
206.771;  -34.950; -451.000; -373.000
206.916;  -31.825; -210.000; -537.000
207.062;  -67.075; -545.000; -591.000
207.207;  -67.075; -546.000; -443.000
207.353;   71.750;  185.000;  460.000
207.498;   18.450;  196.000;   85.000
207.643;  -50.700; -501.000; -370.000
207.789; -132.425;-1069.000; -910.000
207.934;  -92.525; -665.000; -713.000
208.080;  -23.450; -154.000;   66.000
208.225;   -3.150;  -22.000;  -57.000
208.370;  -90.750; -727.000; -619.000
208.516;  -75.275; -741.000; -487.000
208.661;  -28.575; -127.000;  -69.000
208.806;  -10.900; -165.000; -171.000
208.952; -132.425;-1044.000; -731.000
209.097;   80.625;  378.000;  349.000
209.242;  -39.400; -307.000; -382.000
209.387;   69.450;  392.000;  350.000
209.533;  -57.025; -321.000; -350.000
209.678;   80.925;  472.000;  543.000
209.823;  -31.325; -408.000; -310.000
209.969;  -96.475; -860.000; -757.000
210.114; -102.900; -907.000; -719.000
210.259; -103.225; -939.000; -889.000
210.404;  -12.675; -171.000;  103.000
210.549;   16.800;  108.000;    3.000
210.695;  -18.075;   -3.000;  -95.000
210.840;   31.350;   94.000;   67.000
210.985;  -65.375; -484.000; -303.000
211.130;   76.800;  268.000;  406.000
211.275;   11.500;  207.000;  199.000
211.420;  -51.200; -300.000; -289.000
211.566;  -60.325; -536.000; -489.000
211.711;   18.700;  218.000;  157.000
211.856;  -72.425; -545.000; -519.000
212.001;   13.325;  151.000;   44.000
212.146;   20.250;  153.000;   49.000
212.291;  -14.275; -210.000; -186.000
212.436;  -27.750; -280.000;   -6.000
212.581;  -86.000; -685.000; -653.000
212.726;  -77.550; -487.000; -538.000
212.871;  -44.950; -552.000; -217.000
213.016; -149.225;-1172.000;-1029.000
213.161;   74.075;  406.000;  291.000
213.306;  -69.975; -435.000; -577.000
213.451;  -88.475; -778.000; -689.000
213.596;  -38.500; -455.000; -347.000
213.741;  -42.475; -448.000; -538.000
213.886;  -76.800; -498.000; -517.000
214.031;   -7.050; -294.000; -124.000
214.176;  -58.125; -408.000; -341.000
214.321;  -18.450; -296.000; -157.000
214.466;  -26.550; -163.000;  -43.000
214.611;    6.000;  -61.000;  -10.000
214.756; -127.625; -948.000; -858.000
214.901;  -14.925; -388.000; -226.000
215.046; -122.725; -797.000; -825.000
215.191;   27.675;  128.000;   35.000
215.336;  -19.050; -157.000;  -19.000
215.480;  -51.275; -684.000; -505.000
215.625;   -7.625; -175.000;  -19.000
215.770;  -84.125; -757.000; -662.000
215.915;  -12.425;   -5.000;  -97.000
216.060;    2.925; -113.000;  -21.000
216.205; -116.175; -731.000; -779.000
216.349;  -59.900; -470.000; -533.000
216.494; -127.575; -939.000; -867.000
216.639;  -94.225; -823.000; -888.000
216.784;  -93.425; -577.000; -525.000
216.929;   61.275;  392.000;  281.000
217.073;   -5.775; -244.000;  -31.000
217.218;    8.925;   78.000;  -47.000
217.363;  -70.450; -656.000; -618.000
217.507;  -77.725; -623.000; -588.000
217.652; -122.900; -845.000; -874.000
217.797;  -80.850; -708.000; -659.000
217.942; -118.025; -856.000; -720.000
218.086;   84.050;  608.000;  539.000
218.231;  -27.725; -174.000;  -26.000
218.376;  -34.775; -337.000; -229.000
218.520;    6.025;  -41.000;   96.000
218.665;  -24.475; -338.000; -204.000
218.810;  -43.250; -275.000; -233.000
218.954;   35.250;  201.000;   35.000
219.099; -115.000; -713.000; -963.000
219.243;  -51.575; -589.000; -554.000
219.388;  -35.400; -264.000; -136.000
219.532;  -20.050; -116.000; -116.000
219.677;  -86.650; -564.000; -521.000
219.822;    6.525;   33.000;   89.000
219.966;    7.425;   17.000;  -99.000
220.111;  -22.725; -328.000;  -40.000
220.255;  -82.850; -797.000; -750.000
220.400;  -19.775; -180.000; -146.000
220.544;  -59.425; -516.000; -450.000
220.689;  -56.525; -422.000; -451.000
220.833;  -30.825; -123.000;  -58.000
220.978;  -45.575; -393.000; -563.000
221.122;   28.200;  319.000;  307.000
221.267; -115.425; -906.000; -837.000
221.411;  -66.425; -478.000; -394.000
221.555;   -3.775; -104.000;  -23.000
221.700;  -52.425; -329.000; -222.000
221.844;   44.225;  255.000;  272.000
221.989;  -55.225; -328.000; -311.000
222.133;  -32.550; -289.000; -307.000
222.277;   -5.625;    5.000;   78.000
222.422;   12.850;  227.000;  113.000
222.566;  -44.300; -381.000; -214.000
222.711;  -51.675; -414.000; -479.000
222.855;  -88.525; -643.000; -586.000
222.999;  -79.400; -642.000; -717.000
223.144;  -27.575; -195.000; -194.000
223.288;   59.150;  423.000;  251.000
223.432;   24.275;  184.000;  230.000
223.576;   30.075;  152.000;  -21.000
223.721;   39.250;  364.000;  273.000
223.865;  -64.050; -472.000; -475.000
224.009;  269.350; 1673.000; 1631.000
224.153;  -75.125; -660.000; -671.000
224.298;  -64.375; -531.000; -489.000
224.442;    3.725;  -74.000;  -33.000
224.586;  -11.300; -169.000; -106.000
224.730;  -98.000; -858.000; -670.000
224.875; -121.350; -739.000; -688.000
225.019;   11.425;  102.000;  188.000
225.163;   50.300;  208.000;  341.000
225.307;   30.400;   97.000;  -91.000
225.451;   39.850;  360.000;  481.000
225.595;   39.350;  264.000;  176.000
225.739;  -28.200; -170.000;  -94.000
225.884;    2.825;   86.000;    5.000
226.028; -112.925; -760.000; -626.000
226.172;  -41.925; -260.000; -273.000
226.316; -115.750; -941.000; -902.000
226.460;  -68.850; -645.000; -493.000
226.604;  -47.475; -406.000; -400.000
226.748;  -97.075; -836.000; -733.000
226.892;  -38.050; -227.000; -181.000
227.036;  -48.300; -537.000; -447.000
227.180;  -45.875; -551.000; -375.000
227.324;  -58.300; -561.000; -580.000
227.468; -110.725; -819.000; -717.000
227.612;   15.650;  242.000;  -28.000
227.756;  -55.925; -845.000; -698.000
227.900;   58.200;  342.000;  441.000
228.044;  -55.125; -509.000; -290.000
228.188;   57.400;  448.000;  568.000
228.332;  -81.750; -546.000; -472.000
228.476;  -27.175; -223.000; -149.000
228.620;  -34.075; -210.000; -150.000
228.764;   78.775;  431.000;  349.000
228.908;  -19.000; -155.000;   30.000
229.052;  -60.700; -615.000; -528.000
229.195;  -11.425; -172.000;   13.000
229.339;  -22.200; -235.000; -305.000
229.483;  -22.225;    5.000; -162.000
229.627;    8.850; -156.000;  139.000
229.771;  -41.600; -218.000; -294.000
229.915;   26.000;  230.000;   79.000
230.059;  -91.150; -648.000; -663.000
230.202;  -32.750; -370.000; -317.000
230.346;  -18.450; -107.000;  107.000
230.490;  -59.425; -489.000; -521.000
230.634; -119.875; -736.000; -553.000
230.777;   88.800;  478.000;  509.000
230.921;  -60.525; -450.000; -359.000
231.065;  -33.100; -246.000; -286.000
231.209;   39.025;  261.000;  265.000
231.352;    2.650;   54.000;   40.000
231.496;   14.350;  568.000;  188.000
231.640;  -70.325; -693.000; -621.000
231.783;   74.525;  546.000;  525.000
231.927;  -27.550; -294.000; -365.000
232.071; -134.425; -962.000; -736.000
232.214; -109.100; -980.000; -764.000
232.358; -101.300; -683.000; -599.000
232.502;    7.525;  -19.000;    7.000
232.645; -139.725;-1090.000; -927.000
232.789;  -22.400; -257.000; -218.000
232.933;  -41.850; -407.000; -224.000
233.076; -126.150;-1038.000; -897.000
233.220; -103.000; -752.000; -777.000
233.363;  -79.325; -669.000; -477.000
233.507;   52.850;  371.000;  129.000
233.650;  -99.750; -764.000; -834.000
233.794;   48.725;  438.000;  461.000
233.938;  -64.075; -530.000; -362.000
234.081;  -14.950;  -93.000;   31.000
234.225;  -57.250; -631.000; -539.000
234.368; -122.925; -773.000; -723.000
234.512;  -39.950; -385.000; -299.000
234.655;  -92.800; -582.000; -555.000
234.798;  -59.225; -493.000; -466.000
234.942; -128.025; -884.000;-1002.000
235.085;  -75.575; -651.000; -443.000
235.229;  -78.650; -405.000; -410.000
235.372;  -29.050; -247.000; -191.000
235.516;  -67.850; -397.000; -321.000
235.659;   27.125;   92.000;  121.000
235.802;  -17.125;  -38.000;  -22.000
235.946;   29.925;  335.000;  215.000
236.089;   26.975;  126.000;  250.000
236.233;   48.300;  275.000;  298.000
236.376;  -54.000; -235.000; -378.000
236.519;  -56.800; -297.000; -319.000
236.663;  -26.050; -215.000; -117.000
236.806; -123.625;-1029.000; -999.000
236.949;   51.700;  543.000;  431.000
237.092;   58.850;  412.000;  391.000
237.236;  -93.200; -589.000; -502.000
237.379;   84.050;  352.000;  428.000
237.522; -118.000; -879.000; -768.000
237.666;  -13.875; -271.000;   18.000
237.809; -134.550; -851.000; -823.000
237.952;   40.075;  469.000;  271.000
238.095;  -69.625; -447.000; -442.000
238.238;   86.100;  688.000;  700.000
238.382;   -6.775;  166.000;  103.000
238.525;  -70.250; -598.000; -511.000
238.668; -145.525;-1060.000; -985.000
238.811;  -83.950; -638.000; -643.000
238.954;  -56.425; -483.000; -334.000
239.097;  104.850;  617.000;  664.000
239.241;   26.550;  394.000;  326.000
239.384;  -32.550; -254.000; -214.000
239.527;  -66.675; -424.000; -224.000
239.670; -144.900; -994.000;-1091.000
239.813; -109.900; -696.000; -658.000
239.956;   82.100;  579.000;  473.000
240.099; -112.450; -778.000; -725.000
240.242;   80.675;  428.000;  432.000
240.385;   47.175;  466.000;  450.000
240.528;  -60.175; -706.000; -473.000
240.671;    4.650;  189.000;  134.000
240.814;  -38.050; -441.000; -158.000
240.957;  -93.100; -767.000; -578.000
241.100; -103.900; -779.000; -755.000
241.243; -143.950;-1234.000; -893.000
241.386;  -67.625; -508.000; -379.000
241.529;  -95.500; -735.000; -547.000
241.672;  -53.500; -566.000; -495.000
241.815; -107.825; -832.000; -808.000
241.958;   -8.300; -125.000; -182.000
242.101;  -89.425; -545.000; -390.000
242.244;  -32.250; -270.000; -325.000
242.387;  -33.500; -304.000; -246.000
242.530;   73.150;  470.000;  134.000
242.673;  -49.675; -381.000; -309.000
242.815; -120.525; -925.000; -899.000
242.958;  -69.150; -482.000; -381.000
243.101;   13.400;  132.000;  187.000
243.244;  -81.250; -564.000; -521.000
243.387;  -43.450; -313.000; -316.000
243.530;  -99.575; -657.000; -674.000
243.672;   -6.600;   43.000;  -92.000
243.815;  -56.775; -355.000; -283.000
243.958;    4.600;   98.000;  -26.000
244.101;  -18.825;   59.000;  -16.000
244.243;  -10.175;  -47.000;  101.000
244.386; -113.700; -761.000; -630.000
244.529;  -15.700; -132.000; -139.000
244.672; -155.600;-1154.000; -951.000
244.814;  -94.825; -621.000; -794.000
244.957;  -64.400; -380.000; -304.000
245.100;  -61.275; -489.000; -489.000
245.242;  -60.275; -387.000; -374.000
245.385;   -8.600;  -59.000;  -39.000
245.528; -128.650; -871.000; -705.000
245.670;  105.600;  612.000;  634.000
245.813;  -99.425; -599.000; -547.000
245.956;  -27.350; -324.000; -275.000
246.098;  -78.750; -508.000; -650.000
246.241;   20.600;  194.000;   48.000
246.383;  -25.325; -119.000;  -73.000
246.526;  -71.975; -454.000; -525.000
246.669; -120.175; -889.000; -780.000
246.811;   19.225;  172.000;   -1.000
246.954;  -65.275; -512.000; -426.000
247.096;  -12.200;  -84.000;   -6.000
247.239;  -71.625; -482.000; -445.000
247.381;  -71.825; -647.000; -488.000
247.524;   80.850;  645.000;  679.000
247.666;   -5.800;   58.000;   11.000
247.809; -100.425; -887.000; -691.000
247.951;    2.600;  -75.000;  138.000
248.094;   26.250;  432.000;  308.000
248.236; -141.450;-1262.000;-1238.000
248.378;   -2.900; -356.000;  -81.000
248.521;  -10.825; -334.000; -337.000
248.663;  -45.075; -236.000; -267.000
248.806;  -20.000; -300.000; -266.000
248.948;  -91.775; -886.000; -763.000
249.090;  -40.825; -428.000; -398.000
249.233;  -54.650; -344.000; -381.000
249.375;  -74.000; -474.000; -451.000
249.518;  -19.675;  -83.000; -133.000
249.660;  -17.250; -103.000;    3.000
249.802; -169.625;-1303.000;-1189.000
249.945;  -79.525; -612.000; -540.000
250.087; -119.000; -834.000; -768.000
250.229;  -48.950; -362.000; -480.000
250.371;  -79.850; -494.000; -439.000
250.514;  -45.225; -310.000; -244.000
250.656;  -16.900;   69.000;  102.000
250.798; -107.850; -849.000; -800.000
250.940;  -67.300; -322.000; -322.000
251.083;  -14.775; -335.000; -111.000
251.225;   53.250;  338.000;  310.000
251.367;  -33.150; -274.000; -373.000
251.509;  -25.700; -265.000; -210.000
251.651;  -94.000; -731.000; -671.000
251.794;   83.475;  538.000;  632.000
251.936;  -89.925; -821.000; -747.000
252.078;  -70.250; -540.000; -461.000
252.220;  -70.525; -645.000; -477.000
252.362;   66.950;  344.000;  462.000
252.504;  -68.200; -677.000; -584.000
252.646; -110.250; -875.000; -722.000
252.788;    4.175;   14.000; -128.000
252.931;  -49.675; -257.000; -253.000
253.073;  -30.925; -376.000; -317.000
253.215;   -9.850;  141.000;  122.000
253.357;  -10.250;   82.000; -153.000
253.499;  -58.075; -374.000; -234.000
253.641;  -87.500; -749.000; -594.000
253.783;  -99.300; -609.000; -527.000
253.925;  -79.725; -586.000; -591.000
254.067; -114.725; -744.000; -667.000
254.209;  -26.150; -391.000; -259.000
254.351; -138.500; -865.000; -883.000
254.493;  -52.475; -441.000; -417.000
254.635; -130.475; -936.000; -818.000
254.777;  -78.775; -752.000; -687.000
254.918;  -69.825; -512.000; -430.000
255.060;  -49.400; -551.000; -395.000
255.202;  -55.600; -473.000; -261.000
255.344;  -70.025; -658.000; -455.000
255.486;  -73.625; -471.000; -406.000
255.628; -105.275; -780.000; -781.000
255.770;  -95.775; -676.000; -536.000
255.912;  -65.600; -559.000; -468.000
256.053;  -89.125; -730.000; -508.000
256.195;  155.650; 1008.000;  903.000
256.337;  -91.675; -861.000; -595.000
256.479;   72.200;  532.000;  416.000
256.621;  -37.350; -394.000; -212.000
256.762;  -91.325; -789.000; -742.000
256.904;   50.600;  485.000;  487.000
257.046;  -31.425; -381.000; -271.000
257.188;  -51.025; -351.000; -264.000
257.329;  -72.425; -525.000; -464.000
257.471; -122.475; -939.000; -807.000
257.613;  -65.325; -584.000; -498.000
257.755; -150.075;-1073.000; -982.000
257.896;   36.500;  286.000;  392.000
258.038;  -70.400; -403.000; -352.000
258.180;  -36.850; -354.000; -279.000
258.321;  -88.675; -581.000; -457.000
258.463;   -1.225;  -71.000;  133.000
258.605;  -93.375; -562.000; -570.000
258.746; -108.250; -886.000; -772.000
258.888; -145.000;-1026.000;-1020.000
259.029;   28.150;  121.000;   -8.000
259.171;  -83.500; -614.000; -550.000
259.313;   -0.550;  -49.000;  -47.000
259.454;  -75.075; -536.000; -414.000
259.596;  -55.350; -483.000; -390.000
259.737;  -68.750; -590.000; -474.000
259.879;   32.775;  217.000;  311.000
260.020;  107.400;  901.000;  636.000
260.162;  -22.400; -146.000; -253.000
260.303; -119.350; -768.000; -687.000
260.445;  -85.200; -609.000; -613.000
260.586;   24.000;  392.000;  157.000
260.728;  -37.175; -360.000; -248.000
260.869;  -67.400; -350.000; -343.000
261.011;   84.850;  706.000;  537.000
261.152;  -60.275; -479.000; -319.000
261.293;  -81.100; -576.000; -595.000
261.435;  -22.825; -219.000; -184.000
261.576;  -47.300; -455.000; -325.000
261.718;   56.025;  420.000;  470.000
261.859; -128.550; -940.000; -949.000
262.000; -137.625; -951.000;-1016.000
262.142;  -24.200;  -52.000;  -60.000
262.283; -117.200; -808.000; -691.000
262.424;  -85.525; -666.000; -625.000
262.566; -160.975;-1161.000; -983.000
262.707; -114.825; -840.000; -830.000
262.848; -124.950; -769.000; -726.000
262.990;  -52.175; -362.000; -345.000
263.131;   90.500;  650.000;  681.000
263.272;   -5.825;  -61.000;  -41.000
263.413;  -89.175; -589.000; -561.000
263.555;  -77.125; -669.000; -143.000
263.696;  -91.850; -550.000; -641.000
263.837;  -52.050; -449.000; -551.000
263.978;   -6.150;   -5.000;  -77.000
264.119;  -38.025; -283.000; -264.000
264.261; -112.050; -847.000; -630.000
264.402;    4.775;   33.000;   40.000
264.543;  -74.625; -509.000; -524.000
264.684;   -9.150;   61.000;  -50.000
264.825;  -78.825; -816.000; -538.000
264.966;  -10.100;  -84.000;  -67.000
265.107; -111.925; -646.000; -670.000
265.248; -121.250; -825.000; -812.000
265.390;   -3.050;  152.000;   -9.000
265.531;  -13.925; -238.000; -107.000
265.672;  -89.025; -557.000; -630.000
265.813;   65.250;  563.000;  439.000
265.954; -145.575; -959.000; -940.000
266.095;  -16.125; -372.000; -322.000
266.236; -110.375; -686.000; -548.000
266.377;  -39.000; -243.000; -297.000
266.518;  -78.350; -619.000; -547.000
266.659;   43.200;  170.000;  268.000
266.800;    9.275;   83.000;   85.000
266.941;  -76.200; -487.000; -478.000
267.082;   30.625;  354.000;   99.000
267.223;  -54.000; -344.000; -273.000
267.364; -120.450; -892.000; -686.000
267.504;   -4.900;    3.000;  135.000
267.645;    9.650;  160.000;   67.000
267.786;  -22.325; -147.000;  -86.000
267.927;  -77.550; -473.000; -379.000
268.068;   -7.650; -186.000;  -61.000
268.209;  -54.775; -175.000; -413.000
268.350;  -58.050; -388.000; -532.000
268.490;  -93.100; -648.000; -521.000
268.631;   31.975;  127.000;  225.000
268.772; -121.175; -874.000; -647.000
268.913;  -29.525; -328.000; -476.000
269.054;  -18.150; -117.000;   12.000
269.194;  -32.975; -418.000; -402.000
269.335; -159.575;-1137.000;-1074.000
269.476;   -8.450;   33.000;  -35.000
269.617;  -46.625; -347.000; -392.000
269.757;  -91.050; -713.000; -646.000
269.898; -117.425; -856.000; -613.000
270.039;  -57.125; -415.000; -405.000
270.180; -134.875; -952.000; -816.000
270.320;  -13.600; -190.000; -250.000
270.461;  -50.450; -277.000; -249.000
270.602;  -10.750; -186.000; -156.000
270.742; -115.850; -868.000; -943.000
270.883;  -59.300; -442.000; -390.000
271.023;  -61.700; -358.000; -357.000
271.164;  -79.275; -607.000; -528.000
271.305; -105.800; -666.000; -654.000
271.445;  -82.725; -722.000; -683.000
271.586;  -65.150; -462.000; -283.000
271.726;  -29.275; -397.000; -322.000
271.867;  -54.425; -594.000; -534.000
272.008;  195.800; -473.000; -285.000
272.148;  135.025;  462.000;  468.000
272.289;   20.675; -113.000; -181.000
272.429;   10.950;   19.000;  185.000
272.570;  -86.925; -633.000; -737.000
272.710;  -93.000; -825.000; -775.000
272.851;  -16.600;  113.000; -130.000
272.991; -149.775;-1173.000;-1077.000
273.131;  -59.125; -419.000; -459.000
273.272;  -91.325; -683.000; -723.000
273.412;    5.750; -143.000;  -31.000
273.553;  -64.975; -488.000; -507.000
273.693;  138.850;  913.000;  858.000
273.834;  -87.900; -894.000; -692.000
273.974;  -65.425; -664.000; -615.000
274.114;  -99.950; -772.000; -560.000
274.255;   86.950;  414.000;  373.000
274.395;   11.100; -180.000; -125.000
274.535;   53.450;  199.000;  350.000
274.676;   40.975;  225.000;   94.000
274.816;   17.250;  110.000;   34.000
274.956;  -86.450; -624.000; -690.000
275.097;  -63.725;-1014.000; -922.000
275.237; -112.150; -913.000; -803.000
275.377;  -90.925; -778.000; -689.000
275.517; -142.100; -878.000; -937.000
275.658;  -60.125; -590.000; -555.000
275.798;  -75.925; -606.000; -413.000
275.938;   24.975;  215.000;  323.000
276.078; -108.800; -626.000; -395.000
276.218;    7.100;   99.000;  104.000
276.359; -129.475;-1026.000;-1024.000
276.499;  -62.050; -605.000; -446.000
276.639;  -26.200; -305.000; -151.000
276.779;  -43.800; -475.000; -357.000
276.919; -101.850; -783.000; -624.000
277.059;  -14.025; -261.000; -212.000
277.199;  -37.650; -357.000; -259.000
277.340;   50.125;  287.000;  175.000
277.480; -125.875; -840.000; -693.000
277.620;   18.625;  192.000;   16.000
277.760; -199.075;-1533.000;-1294.000
277.900;   31.275;  113.000;   33.000
278.040;   27.800;  137.000;  159.000
278.180;   44.725;  270.000;  170.000
278.320;   -2.950;   21.000;   56.000
278.460;  -64.400; -443.000; -469.000
278.600;  -83.675; -708.000; -598.000
278.740;   60.050;  448.000;  224.000
278.880;  -39.350; -768.000; -791.000
279.020;    2.550; -194.000; -144.000
279.160; -100.125; -672.000; -595.000
279.300; -124.050; -926.000; -873.000
279.440;  -88.500; -709.000; -622.000
279.579;  -11.325;-1014.000; -929.000
279.719;  -51.250; -410.000; -394.000
279.859;   70.650;   -4.000;   41.000
279.999;   41.900; -208.000;  101.000
280.139;   -7.300; -435.000; -387.000
280.279;  -78.250; -708.000; -745.000
280.419;  -14.300; -229.000; -147.000
280.559;  -49.750; -259.000; -180.000
280.698;  -66.800; -790.000; -639.000
280.838;  -88.850; -778.000; -800.000
280.978;  -94.975; -846.000; -790.000
281.118; -112.525; -811.000; -704.000
281.257;   13.625;   24.000;    6.000
281.397;  -96.725;-1094.000; -960.000
281.537;  -77.025; -599.000; -712.000
281.677;  -25.500; -150.000; -101.000
281.816;  -83.425; -700.000; -630.000
281.956;  -35.100; -193.000; -257.000
282.096;  -56.250; -539.000; -396.000
282.235; -121.625; -672.000; -638.000
282.375;  -10.125; -243.000;  -98.000
282.515;  -91.900; -715.000; -707.000
282.654;   29.325;   29.000;  106.000
282.794;   36.150;  388.000;  244.000
282.934;  -40.425; -530.000; -491.000
283.073; -143.475;-1030.000; -857.000
283.213;  -40.075; -460.000; -467.000
283.353;  -37.900; -408.000; -349.000
283.492;  -32.675; -264.000; -296.000
283.632;  -40.100; -254.000; -168.000
283.771;  -94.175; -859.000; -730.000
283.911;  -52.150; -369.000; -260.000
284.050; -110.750; -794.000; -748.000
284.190; -161.725;-1229.000;-1096.000
284.329; -138.450;-1055.000; -964.000
284.469;  -66.100; -516.000; -591.000
284.608;  -43.775; -559.000; -598.000
284.748;  -83.025; -614.000; -570.000
284.887;    2.375;  -87.000;  -20.000
285.027; -125.975; -844.000; -892.000
285.166;  -29.875; -192.000; -249.000
285.306;    3.250; -116.000;  -33.000
285.445;  -27.050; -229.000; -343.000
285.584; -101.200; -630.000; -494.000
285.724;  -40.825; -282.000; -322.000
285.863; -111.225; -857.000; -507.000
286.002;  -44.300; -366.000; -276.000
286.142; -107.450; -715.000; -622.000
286.281;  -73.050; -525.000; -493.000
286.420;  -71.075; -554.000; -417.000
286.560;   98.275;  653.000;  623.000
286.699; -138.175; -958.000; -912.000
286.838;  -81.450; -590.000; -591.000
286.978;  -88.175; -533.000; -537.000
287.117; -134.825;-1085.000; -950.000
287.256;  -28.050; -228.000; -211.000
287.395;  -33.075; -197.000; -378.000
287.535;  -48.050; -370.000; -298.000
287.674;  -77.025; -509.000; -484.000
287.813;   53.225;  661.000;  533.000
287.952; -130.250;-1010.000; -871.000
288.091; -146.150;-1049.000; -915.000
288.231;   29.075;   13.000;   15.000
288.370; -169.075;-1217.000;-1200.000
288.509;  -91.100; -728.000; -645.000
288.648;  -95.475; -770.000; -548.000
288.787;  -26.000; -243.000;  -87.000
288.926;  -63.075; -454.000; -475.000
289.065;  124.875;  859.000;  672.000
289.204;  -61.425; -377.000; -217.000
289.344;  -82.450; -791.000; -690.000
289.483;   31.375;  416.000;  304.000
289.622;  -19.150; -291.000; -149.000
289.761;  -19.325; -309.000; -166.000
289.900;  -96.650; -785.000; -626.000
290.039;  -25.950;  -12.000;  -95.000
290.178;  -34.475; -274.000; -180.000
290.317;  -81.050; -618.000; -479.000
290.456;  -57.475; -463.000; -451.000
290.595; -139.575; -961.000; -833.000
290.734; -133.550; -904.000; -891.000
290.873;  -57.750; -456.000; -420.000
291.011; -101.825; -833.000; -843.000
291.150; -105.725; -770.000; -682.000
291.289;   -5.475; -343.000; -110.000
291.428; -100.425; -599.000; -480.000
291.567;  -52.025; -370.000; -442.000
291.706;    1.550;  109.000;  154.000
291.845;  -85.300; -597.000; -505.000
291.984; -160.025;-1234.000;-1061.000
292.122;   82.925;  602.000;  582.000
292.261;   56.275;  620.000;  463.000
292.400;   27.600; -144.000;  211.000
292.539; -112.050; -959.000; -813.000
292.678;  -24.800; -325.000; -300.000
292.816; -161.125;-1136.000; -965.000
292.955;  -90.200; -844.000; -684.000
293.094;  -25.000; -173.000; -337.000
293.233;  -53.075; -556.000; -400.000
293.371;  -23.500; -225.000;  -84.000
293.510; -111.850; -866.000; -780.000
293.649; -123.450; -959.000; -924.000
293.787;  -49.625;-1083.000;-1012.000
293.926;   -0.025; -113.000;  -32.000
294.065;  -53.225; -379.000; -290.000
294.203;   44.625;  298.000;  406.000
294.342;   32.200;   74.000;  156.000
294.481; 5694.600;51180.000; -836.000
294.619;  -24.175; -425.000; -582.000
294.758; -149.725;-1230.000;-1137.000
294.896;   91.000; -125.000;    5.000
295.035; -114.650;-1040.000;-1006.000
295.174; -109.150;-1082.000; -954.000
295.312;  -35.325; -323.000; -203.000
295.451;   11.650; -307.000; -428.000
295.589;  -59.775; -389.000; -518.000
295.728;   24.000; -292.000; -165.000
295.866;   13.675;  -36.000;  -51.000
296.005;  -54.075; -584.000; -341.000
296.143;  -66.950; -558.000; -596.000
296.282;  -93.725; -957.000; -881.000
296.420;  -80.650; -657.000; -557.000
296.559;  -71.975; -892.000; -633.000
296.697;   39.325; -847.000; -665.000
296.835;   91.150;-1141.000;-1002.000
296.974;   55.675;  -23.000;   39.000
297.112;   18.950; -443.000; -504.000
297.251;  -76.600; -815.000; -755.000
297.389;  119.050; -576.000; -438.000
297.527;   46.525; -145.000;  -83.000
297.666;  -61.825; -486.000; -438.000
297.804;  -55.225; -404.000; -264.000
297.942;    1.875; -136.000; -161.000
298.081;    5.775; -183.000;   63.000
298.219;   74.850;  -17.000;  -19.000
298.357;   69.475; -144.000;  -71.000
298.495;   53.425; -810.000; -812.000
298.634;   83.175;  245.000;  219.000
298.772;   81.500; -220.000; -338.000
298.910;  -50.825; -309.000; -182.000
299.048;   -6.525; -130.000; -153.000
299.187;  -28.800; -350.000; -250.000
299.325;   38.625;   52.000;  122.000
299.463;   69.875; -389.000; -299.000
299.601;  161.850; -327.000; -271.000
299.739;  -97.450; -908.000; -883.000
299.877;  -81.025; -791.000; -703.000
300.016;  -35.100;-1095.000; -935.000
300.154;  187.100;  -19.000; -161.000
300.292;   65.200; -428.000; -348.000
300.430;   44.050; -408.000; -291.000
300.568;  -92.575; -940.000; -874.000
300.706;  -39.150; -366.000; -469.000
300.844;  -75.775;-1108.000; -979.000
300.982;  121.825;  246.000;  282.000
301.120;  -98.050; -965.000; -866.000
301.258;  -62.650; -812.000; -705.000
301.396;   31.400;  104.000;  -41.000
301.534;  110.175; -218.000; -293.000
301.672;    4.975; -664.000; -521.000
301.810;   51.200; -613.000; -545.000
301.948;  134.300;   53.000;  149.000
302.086;  682.425; -250.000;  -32.000
302.224; 1079.850; -610.000; -585.000
302.362;   66.775; -558.000; -622.000
302.500;   -7.000; -923.000; -893.000
302.638;  130.875;  128.000;  245.000
302.776;   21.175; -352.000; -408.000
302.913;   56.025;  447.000;  236.000
303.051;    1.600;  -86.000;  -23.000
303.189;   63.525;   90.000;  118.000
303.327;  -36.775; -341.000; -256.000
303.465;  -77.925; -832.000; -588.000
303.603; -107.425; -805.000; -604.000
303.740;  114.125;  417.000;  241.000
303.878;   35.875; -800.000; -759.000
304.016;  -77.425; -915.000; -790.000
304.154; -126.850;-1123.000;-1152.000
304.291;  -23.900; -505.000; -554.000
304.429;    1.425;  102.000;   74.000
304.567; -117.050; -908.000; -893.000
304.705;  -46.125; -408.000; -515.000
304.842;  122.775; -616.000; -540.000
304.980;   52.825;  215.000;   35.000
305.118;   74.575; -367.000; -365.000
305.255;  -78.200; -945.000; -927.000
305.393;   64.400;  178.000;  239.000
305.531;  -97.425;-1173.000; -956.000
305.668;  -60.200; -663.000; -582.000
305.806;  116.950; -358.000; -439.000
305.943;  143.400; -629.000; -637.000
306.081;   69.025; -378.000; -267.000
306.219;  -82.425; -863.000; -748.000
306.356;   -3.000;  158.000;   27.000
306.494;  125.450;  981.000;  761.000
306.631;   -2.150;  -11.000;  -55.000
306.769;   11.125; -613.000; -485.000
306.906;  -14.100; -284.000; -258.000
307.044;  -49.325; -473.000; -488.000
307.181;  -51.075; -410.000; -332.000
307.319;   26.550;  112.000;   87.000
307.456; -163.250;-1191.000;-1153.000
307.594;  -79.675; -980.000; -727.000
307.731;   -4.675; -371.000; -164.000
307.868;  -14.475;  -15.000;   20.000
308.006; -133.625; -961.000; -847.000
308.143;  -61.875; -618.000; -330.000
308.281;  144.525;  -37.000; -254.000
308.418;   -8.450; -748.000; -640.000
308.555;  -62.150; -400.000; -250.000
308.693;  -67.575; -577.000; -573.000
308.830; -102.800; -712.000; -657.000
308.967;   -7.100; -215.000;  -95.000
309.105;  -42.725; -507.000; -396.000
309.242;   28.250; -468.000; -367.000
309.379;  294.050; -577.000; -655.000
309.517;  -61.000; -936.000; -948.000
309.654; -108.325; -910.000; -734.000
309.791;  -67.950; -662.000; -580.000
309.928; -118.200; -977.000; -914.000
310.065;  203.000;  819.000;  697.000
310.203;    6.600; -825.000; -850.000
310.340;    3.825; -465.000; -321.000
310.477;  -75.625; -412.000; -516.000
310.614;  -56.975; -383.000; -473.000
310.751;  -69.325; -427.000; -518.000
310.889;   -0.350;    1.000;   11.000
311.026; -147.900;-1161.000; -939.000
311.163;  -35.825; -386.000; -380.000
311.300;  -77.000; -512.000; -479.000
311.437;  -70.950; -658.000; -619.000
311.574; -157.375;-1226.000; -985.000
311.711;  -50.125; -595.000; -433.000
311.848;  -41.150; -380.000; -388.000
311.985;   23.775;  270.000;   93.000
312.122; -110.600; -932.000; -762.000
312.259; -117.125; -941.000; -994.000
312.396;  -81.550; -508.000; -551.000
312.533;  -81.200; -812.000; -790.000
312.670; -124.675;-1070.000; -898.000
312.807;  -39.825; -352.000; -367.000
312.944;  -81.650; -513.000; -611.000
313.081;  -29.500; -150.000; -415.000
313.218; -102.450;-1111.000; -867.000
313.355;   30.000; -531.000; -449.000
313.492;   13.725; -455.000; -292.000
313.629;  136.450;  815.000;  735.000
313.766; -160.350;-1176.000;-1008.000
313.902;  -21.150; -186.000;   21.000
314.039;  -43.675; -372.000; -289.000
314.176;   33.975;  286.000;  192.000
314.313;  -81.400; -569.000; -473.000
314.450;  -62.275; -788.000; -684.000
314.587;  -56.400; -468.000; -480.000
314.723;    9.200;  -78.000;  130.000
314.860;   32.800;  318.000;  332.000
314.997;   45.975;  223.000;  142.000
315.134;  -35.025; -385.000; -368.000
315.270;  -18.350; -480.000; -496.000
315.407; -113.175;-1094.000; -967.000
315.544;  -32.125; -657.000; -538.000
315.681;  -64.400; -681.000; -565.000
315.817;   41.900; -133.000; -176.000
315.954;   22.100; -613.000; -392.000
316.091; -122.300;-1045.000;-1023.000
316.227;  -18.725;  -71.000; -179.000
316.364;   12.475;   23.000;    6.000
316.500;  -35.225; -113.000; -300.000
316.637;  -40.175; -181.000; -302.000
316.774;  -80.350; -625.000; -358.000
316.910;  -83.550; -598.000; -629.000
317.047;  -64.925; -487.000; -351.000
317.183;  -39.050; -435.000; -566.000
317.320;  -14.300; -367.000; -321.000
317.456;  -68.575; -733.000; -805.000
317.593;  -93.775; -598.000; -641.000
317.729;   21.025;  168.000;  -67.000
317.866; -197.775;-1434.000;-1285.000
318.002;  -85.450; -708.000; -948.000
318.139;  -98.025; -883.000; -867.000
318.275;  -91.575;-1003.000; -738.000
318.412;  -58.700; -517.000; -336.000
318.548;  -30.175; -751.000; -720.000
318.685;  -94.850; -985.000; -888.000
318.821; -100.700; -762.000; -735.000
318.957;  -19.875;   34.000;  -23.000
319.094;   46.575;  297.000;  154.000
319.230;  -49.025; -756.000; -742.000
319.367;  160.000; -471.000; -520.000
319.503;   73.175; -538.000; -436.000
319.639;  -70.675; -877.000; -793.000
319.775;  -58.275; -750.000; -685.000
319.912;  -46.050; -424.000; -519.000
320.048;  -97.950;-1184.000;-1184.000
320.184;   82.525;   59.000;   70.000
320.321;  -58.700; -497.000; -467.000
320.457;   70.875;  475.000;  662.000
320.593;  -70.325; -375.000; -382.000
320.729; -109.250; -732.000; -734.000
320.866;  -87.000; -577.000; -635.000
321.002;  -65.950; -759.000; -809.000
321.138;  -21.250; -135.000; -211.000
321.274;   86.625; -148.000; -115.000
321.410;  -12.150; -585.000; -353.000
321.546;   -5.425;-1011.000; -911.000
321.683;   56.775;  400.000;  185.000
321.819;   -0.725;  -48.000; -117.000
321.955; -101.450; -743.000; -722.000
322.091;  -27.300; -585.000; -540.000
322.227;  -10.525; -382.000; -202.000
322.363;    0.000; -320.000; -215.000
322.499;  -46.100; -343.000; -331.000
322.635;  180.625;  636.000;  443.000
322.771;   37.225; -139.000;   12.000
322.907;   86.400;  129.000;  327.000
323.043;  -12.075; -115.000; -206.000
323.179;  -19.775; -394.000; -363.000
323.315;   49.650; -401.000; -371.000
323.451;  116.350; -328.000; -236.000
323.587;   74.350;  -60.000;  -77.000
323.723;   30.575; -682.000; -601.000
323.859;    0.975; -258.000;  -76.000
323.995;  -16.950; -467.000; -409.000
324.131; -125.900; -967.000; -892.000
324.267;  -39.900; -254.000; -276.000
324.402; -122.350; -960.000; -983.000
324.538;   -3.900; -279.000; -104.000
324.674;   40.600;  164.000;   77.000
324.810;  150.350;  226.000;  308.000
324.946;   18.925; -810.000; -658.000
325.082;  -63.850; -568.000; -475.000
325.217;   -0.150;  -62.000;   16.000
325.353;  -97.175; -764.000; -659.000
325.489;  -92.750; -540.000; -506.000
325.625;  -75.825; -579.000; -525.000
325.760;   50.375;  517.000;  376.000
325.896;  -29.975; -515.000; -702.000
326.032;  -56.000; -403.000; -352.000
326.168;  -67.825; -462.000; -369.000
326.303;  -63.800; -352.000; -461.000
326.439;   -9.750; -336.000; -276.000
326.575;    5.375; -190.000;  -29.000
326.710;    1.750; -156.000;  -30.000
326.846;   -5.075;  146.000;  103.000
326.982;  -93.525; -530.000; -548.000
327.117;  -58.875; -481.000; -442.000
327.253;  -75.850; -745.000; -742.000
327.388; -157.350;-1137.000;-1153.000
327.524;  -34.525; -811.000; -578.000
327.659;  -23.450;  -58.000;  -22.000
327.795;  -11.075;   69.000;   45.000
327.931;  -95.225; -723.000; -499.000
328.066;  -26.425; -417.000; -276.000
328.202;  -11.500;   12.000; -129.000
328.337;  110.225;  957.000;  713.000
328.473;   42.100;  -12.000;  -74.000
328.608;  -10.900; -256.000; -267.000
328.743;  -72.250; -799.000; -664.000
328.879;   26.750;  214.000;  114.000
329.014;  -38.475; -102.000; -122.000
329.150;  -78.325; -358.000; -483.000
329.285;  -67.775; -465.000; -466.000
329.421;  -44.325; -548.000; -246.000
329.556;  -27.900;  -36.000;   85.000
329.691;  -95.075; -633.000; -615.000
329.827;  -84.975; -626.000; -480.000
329.962;  -39.525;  131.000; -301.000
330.097; -100.625; -673.000; -585.000
330.233;  -50.400; -410.000; -223.000
330.368; -133.875; -839.000; -628.000
330.503;  -12.275;    3.000;   98.000
330.638;   16.900;  -93.000; -125.000
330.774;  -51.150; -609.000; -530.000
330.909;  -32.850; -434.000; -244.000
331.044;  -97.500; -714.000; -708.000
331.179; -164.375;-1217.000;-1109.000
331.315;   13.675;   77.000;   20.000
331.450;   14.675;  157.000;  285.000
331.585;  -71.175; -805.000; -706.000
331.720;  -86.825; -510.000; -460.000
331.855;  -13.875;  -35.000; -102.000
331.990;  220.775;   62.000;  138.000
332.126;  118.600; -110.000;   71.000
332.261;  -37.525; -379.000; -265.000
332.396;    4.975; -135.000; -242.000
332.531; -102.275;-1074.000;-1031.000
332.666;   26.225; -519.000; -363.000
332.801; -101.350; -726.000; -807.000
332.936;   -6.300; -192.000; -122.000
333.071; -132.550; -870.000; -817.000
333.206;   27.500;  307.000;  379.000
333.341;   22.250;  344.000;  418.000
333.476;  -88.925; -627.000; -623.000
333.611;  -30.450; -251.000; -173.000
333.746;  -38.200; -381.000; -464.000
333.881; -114.625; -973.000; -935.000
334.016; -126.775; -936.000; -917.000
334.151; -118.425; -746.000; -702.000
334.286;   28.350;  152.000;  186.000
334.421;  -14.575; -125.000; -178.000
334.556;  -78.225; -611.000; -567.000
334.690;  -81.200; -631.000; -577.000
334.825;   73.725;  381.000;   83.000
334.960;  -53.350; -285.000; -413.000
335.095;   12.200;  135.000;  -91.000
335.230;  -98.500; -722.000; -738.000
335.365; -124.225;-1084.000; -990.000
335.499; -122.375;-1108.000;-1037.000
335.634;   29.275;    9.000;  534.000
335.769;  -97.425; -755.000; -720.000
335.904;  -37.100; -603.000; -561.000
336.038;  -52.075; -735.000; -657.000
336.173; -102.825;-1206.000;-1194.000
336.308;   19.200; -116.000; -189.000
336.443;   35.400; -544.000; -634.000
336.577;  -55.100; -936.000; -787.000
336.712;   87.525;   -4.000;  -12.000
336.847;  -28.450; -724.000; -607.000
336.981;   89.550; -272.000; -208.000
337.116;  328.375;  615.000;  501.000
337.250;  194.200; -434.000; -421.000
337.385;  216.400; -297.000; -208.000
337.520;   68.225; -632.000; -603.000
337.654;  -35.800; -215.000; -126.000
337.789; -120.425; -989.000; -933.000
337.923;  -30.675; -104.000; -205.000
338.058;  -77.525; -673.000; -738.000
338.192;  -26.725; -611.000; -488.000
338.327;   -6.000;  -18.000; -155.000
338.461;  -69.775; -299.000; -469.000
338.596;  -77.800; -780.000; -638.000
338.730; -107.350; -767.000; -803.000
338.865;   83.500;  -46.000; -140.000
338.999;  -53.300; -846.000; -702.000
339.134;  -22.075; -634.000; -536.000
339.268;   16.900; -741.000; -603.000
339.403;  345.350; -740.000; -775.000
339.537;   90.975; -894.000; -820.000
339.671; -115.150; -829.000; -813.000
339.806;  -67.650; -556.000; -512.000
339.940;    7.675; -261.000; -235.000
340.074;  -86.350; -685.000; -510.000
340.209;  -51.375; -351.000; -230.000
340.343;  -90.050; -517.000; -573.000
340.477;  167.575;  998.000; 1036.000
340.612;  -57.800;-1033.000; -900.000
340.746;  119.850; -199.000; -243.000
340.880;  -71.550; -924.000; -785.000
341.014;  -15.150;  -45.000; -154.000
341.149; -138.000; -756.000; -718.000
341.283; -120.650; -839.000; -754.000
341.417;  -79.250;-1124.000; -938.000
341.551;  191.000; -768.000; -708.000
341.685;  -28.650; -633.000; -611.000
341.820;  -52.550; -562.000; -493.000
341.954;  -39.500; -218.000; -349.000
342.088; -148.000;-1102.000;-1019.000
342.222;   50.250;  565.000;  618.000
342.356;  -60.075; -395.000; -335.000
342.490;  -99.550; -880.000; -841.000
342.624;  -34.025; -339.000; -242.000
342.758;    4.350; -364.000; -312.000
342.892;  -51.875; -710.000; -585.000
343.026;  -38.000;  -58.000; -116.000
343.160;  -54.950; -426.000; -376.000
343.294;  -76.275; -474.000; -337.000
343.428;    2.700; -488.000; -448.000
343.562;   -8.725; -172.000;  -23.000
343.696;  -18.675; -385.000; -314.000
343.830;  -17.175; -362.000; -356.000
343.964;   23.175; -231.000; -168.000
344.098; 1025.850;  199.000;   70.000
344.232;  864.975; -266.000; -127.000
344.366;   88.050; -567.000; -453.000
344.500;   81.125; -665.000; -744.000
344.634;   38.550; -324.000; -164.000
344.768;   -2.275; -531.000; -341.000
344.902;   29.950;  278.000;  256.000
345.035;  -71.375; -556.000; -496.000
345.169; -134.250; -933.000; -656.000
345.303;  -38.150; -308.000; -482.000
345.437;  -73.550; -826.000; -717.000
345.571;  -59.350; -675.000; -594.000
345.704;  -57.125; -309.000; -532.000
345.838;  -12.700; -331.000; -284.000
345.972;  -37.375; -543.000; -495.000
346.106;  157.775; -179.000; -190.000
346.239;  426.200; -312.000; -243.000
346.373;   23.875; -343.000; -302.000
346.507; -134.725; -950.000; -962.000
346.640;  177.875;  -30.000;   13.000
346.774;  -36.325; -650.000; -797.000
346.908;  -17.075; -138.000;  -11.000
347.041;  -99.175; -646.000; -593.000
347.175;   21.975;  259.000;   27.000
347.309;  -61.425; -698.000; -628.000
347.442; -105.850; -883.000; -732.000
347.576;  302.975;  670.000;  668.000
347.709;  243.750; -123.000;  -52.000
347.843;  -86.425; -933.000; -825.000
347.976;   52.750;  235.000;  294.000
348.110; -184.325;-1268.000;-1186.000
348.243;  -86.825; -679.000; -772.000
348.377;   -0.175;  -26.000;   60.000
348.510;   65.925;  403.000;  540.000
348.644;  -40.925;  -37.000; -159.000
348.777;   12.625;  180.000;  191.000
348.911;  -50.625; -142.000; -112.000
349.044;  199.425;  471.000;  448.000
349.178;  170.600;-1069.000;-1006.000
349.311;  122.575;  141.000;  255.000
349.444;  -16.550; -927.000; -813.000
349.578;   -3.600; -347.000; -200.000
349.711; -111.100; -959.000; -862.000
349.845;   30.325; -661.000; -591.000
349.978; -143.050;-1224.000;-1137.000
350.111;  -79.225; -546.000; -612.000
350.244;  -78.000; -596.000; -700.000
350.378;   21.300; -392.000; -393.000
350.511;  -76.850; -393.000; -426.000
350.644;  -95.550; -808.000; -806.000
350.778;    6.625;  168.000;  104.000
350.911;   25.400;  134.000;  140.000
351.044;  -82.375; -685.000; -615.000
351.177;  -24.725; -321.000; -281.000
351.310;  -20.575;    3.000; -131.000
351.444;  -63.425; -888.000; -788.000
351.577;  132.350;  140.000;   90.000
351.710;  106.875;  593.000;  417.000
351.843;  -31.350; -165.000;  -77.000
351.976;    2.375;  149.000;  -79.000
352.109;  -82.075; -621.000; -612.000
352.242;   -0.775; -464.000; -419.000
352.376;  -46.325; -580.000; -636.000
352.509;  231.825; -437.000; -356.000
352.642;   40.575; -654.000; -604.000
352.775;   91.050; -141.000;  -98.000
352.908; -114.600; -933.000; -904.000
353.041; -104.100; -814.000; -824.000
353.174;  -44.925; -551.000; -424.000
353.307;  -81.325; -753.000; -764.000
353.440;   70.875;  541.000;  453.000
353.573; -108.575; -957.000;-1008.000
353.706;  -47.725; -384.000; -558.000
353.839;   -6.675; -264.000; -220.000
353.971;  -84.475; -657.000; -512.000
354.104;  -71.425; -896.000; -835.000
354.237;  -33.725; -627.000; -662.000
354.370;  -81.275; -846.000; -879.000
354.503; -177.625;-1231.000;-1308.000
354.636;  -20.975; -529.000; -348.000
354.769; -125.575; -937.000; -860.000
354.902;   -7.400; -230.000; -139.000
355.034;  -16.700; -164.000; -220.000
355.167;   -9.150; -262.000; -162.000
355.300;  -87.100;-1061.000; -880.000
355.433;  904.875;  -71.000;  -14.000
355.565; 1386.000; -402.000; -384.000
355.698;  364.750; -356.000; -296.000
355.831;    9.125; -882.000; -801.000
355.964;  107.200; -285.000; -170.000
356.096;  -67.725; -856.000; -843.000
356.229;   23.750; -523.000; -530.000
356.362;  315.875; -373.000; -266.000
356.494;  558.925; -229.000; -162.000
356.627;  542.250;  269.000;  377.000
356.760;  646.925;  120.000;   53.000
356.892;  883.050; -286.000; -601.000
357.025;  720.725;  403.000;  389.000
357.157;  676.800; -167.000; -179.000
357.290;  607.775; -856.000; -713.000
357.423;  174.100; -667.000; -556.000
357.555;  124.375; -217.000; -228.000
357.688;  150.300; -483.000; -364.000
357.820;  518.500; -870.000; -877.000
357.953; 4006.675; -563.000; -589.000
358.085;  904.650; -632.000; -612.000
358.218; 1399.850;-1131.000; -932.000
358.350;  247.450;  -58.000;  312.000
358.483; -118.000;-1300.000;-1187.000
358.615;   12.625;-1182.000;-1078.000
358.747;  -29.050;-1187.000;-1058.000
358.880;   53.675; -810.000; -744.000
359.012;   15.825; -376.000; -202.000
359.145;  -31.900; -480.000; -511.000
359.277;   69.225; -962.000; -913.000
359.409; 3347.625;  536.000;  231.000
359.542;  862.500; -738.000; -688.000
359.674;   84.525;   46.000;   13.000
359.806;  -56.325; -565.000; -438.000
359.939;  -34.100; -617.000; -516.000
360.071;  -30.225; -583.000; -579.000
360.203;   -4.300; -411.000; -364.000
360.335;   66.025;  164.000;  -16.000
360.468;  210.600; -249.000; -307.000
360.600; 2633.625; -547.000; -454.000
360.732; 2595.775; -546.000; -423.000
360.864;  346.850;-1216.000;-1044.000
360.996;  342.125; -516.000; -554.000
361.129;   58.650; -389.000; -598.000
361.261;   36.600;  110.000; -113.000
361.393;  -24.000; -252.000; -214.000
361.525;   39.800;   94.000;  244.000
361.657;  -39.000; -821.000; -703.000
361.789;   31.150; -139.000; -155.000
361.921;  277.850; -642.000; -593.000
362.053;  302.075;  524.000;  541.000
362.185;   56.100;  288.000;   72.000
362.318;  -62.425; -709.000; -705.000
362.450;  157.550;  294.000;  444.000
362.582;  179.425; -913.000; -870.000
362.714;  -27.050; -353.000; -332.000
362.846;  -87.625; -606.000; -490.000
362.978; -138.450; -941.000; -811.000
363.109;   67.200; -161.000; -260.000
363.241;  480.025; -739.000; -749.000
363.373;  428.050; -649.000; -564.000
363.505;  618.075; -186.000;  -91.000
363.637;  145.025; -787.000; -601.000
363.769; -120.250;-1067.000;-1080.000
363.901;  -62.025; -596.000; -654.000
364.033; -109.625;-1103.000;-1062.000
364.165;    4.425; -283.000; -283.000
364.296;   63.825; -316.000; -177.000
364.428;   59.875;-1344.000;-1220.000
364.560;  -76.650; -679.000; -661.000
364.692;  -68.125; -738.000; -835.000
364.824;  328.050; -588.000; -456.000
364.955;  436.700; -402.000; -564.000
365.087;  774.650;-1097.000; -852.000
365.219;   26.300; -686.000; -816.000
365.351;  -73.425; -526.000; -572.000
365.482;   70.700;  300.000;  240.000
365.614;  -47.575; -402.000; -314.000
365.746;  -82.150; -729.000; -752.000
365.877;  -97.075; -706.000; -672.000
366.009;  230.125;  -35.000;  -62.000
366.141;  -91.700;-1249.000;-1134.000
366.272;  -98.125; -803.000; -719.000
366.404; -111.225;-1005.000; -874.000
366.535;  -17.725; -139.000;  -12.000
366.667; -103.200; -644.000; -649.000
366.799;   47.525;  353.000;  203.000
366.930; -119.350; -862.000; -996.000
367.062;  142.700; -639.000; -613.000
367.193;  120.100; -872.000; -842.000
367.325;  -63.775; -580.000; -684.000
367.456;   90.625; -246.000;   31.000
367.588;  160.925; -371.000; -318.000
367.719;   37.025;  -44.000;  -45.000
367.851;   -4.325; -222.000; -241.000
367.982;  -39.175; -875.000; -732.000
368.113;  142.575; -475.000; -358.000
368.245; -102.925; -960.000; -841.000
368.376;  -17.225; -254.000; -302.000
368.508;  -42.375; -188.000; -263.000
368.639; -139.650;-1166.000;-1034.000
368.770;   -7.775; -670.000; -589.000
368.902;  -47.675; -836.000; -926.000
369.033; -108.600; -906.000; -855.000
369.164;  -41.825; -720.000; -653.000
369.296; -115.400; -452.000; -601.000
369.427;   -2.550; -209.000; -144.000
369.558;  -42.225; -593.000; -377.000
369.689;  -83.075; -721.000; -569.000
369.821; -132.075; -951.000; -845.000
369.952;  -11.025;   42.000; -108.000
370.083;  -34.625; -229.000; -108.000
370.214;  -78.600; -735.000; -650.000
370.345;   -4.975;   65.000;   81.000
370.477;  -74.750; -810.000; -790.000
370.608;  268.300; -328.000; -264.000
370.739;  -37.075;-1233.000;-1292.000
370.870;  -27.500;-1102.000; -923.000
371.001;  100.525; -378.000; -467.000
371.132;  -59.100; -754.000; -735.000
371.263;  -11.225;  -42.000; -148.000
371.394; -123.500; -841.000; -748.000
371.525;   30.300;  345.000;  225.000
371.657;  -69.650; -808.000; -670.000
371.788;   86.325;  103.000;  199.000
371.919;  203.050; -384.000; -304.000
372.050; 4030.975;  -91.000; -156.000
372.181; 1210.575; -188.000; -294.000
372.311;  443.075;   42.000; -127.000
372.442;   61.050; -457.000; -451.000
372.573;  -13.750; -444.000; -340.000
372.704; -119.225;-1008.000; -980.000
372.835;   94.825; -228.000; -289.000
372.966;  -48.150; -646.000; -554.000
373.097;  -51.400; -575.000; -711.000
373.228;  -29.950; -717.000; -542.000
373.359;  186.400; -824.000; -536.000
373.490; 1087.550; -881.000; -727.000
373.620; 1335.225;-1001.000; -803.000
373.751; 2063.950; -332.000; -396.000
373.882;  929.000; -663.000; -733.000
374.013;   96.925; -449.000; -262.000
374.143;  -20.650; -581.000; -659.000
374.274;  -94.525; -987.000; -908.000
374.405;  197.875; -388.000; -276.000
374.536;  538.125; -526.000; -387.000
374.666; 1302.800; -759.000; -807.000
374.797;  274.450; -817.000; -868.000
374.928; 1022.050; -710.000; -560.000
375.058; 1016.700; -535.000; -500.000
375.189;  101.450;  -59.000;  -93.000
375.320; -102.225; -928.000;-1034.000
375.450;  -36.250; -625.000; -616.000
375.581;  -50.000; -526.000; -436.000
375.712;  -31.400; -574.000; -250.000
375.842;  370.150; -438.000; -415.000
375.973;  260.300; -554.000; -513.000
376.103;  -34.275; -665.000; -648.000
376.234;  -69.775; -531.000; -552.000
376.364;  -28.900; -944.000; -867.000
376.495;  365.900;  925.000;  529.000
376.625;    3.050; -472.000; -485.000
376.756;   89.925; -709.000; -678.000
376.886;  -72.000;-1178.000;-1026.000
377.017;   32.325;-1048.000;-1061.000
377.147;  300.475; -786.000; -782.000
377.278;   59.775;  174.000;  228.000
377.408; -133.325; -801.000; -815.000
377.538; -105.250; -707.000; -693.000
377.669;  -81.175; -537.000; -613.000
377.799;  -75.600; -645.000; -635.000
377.929;  -44.850; -610.000; -428.000
378.060; -125.325; -781.000; -847.000
378.190;  -58.825; -726.000; -531.000
378.320;  -45.425; -401.000; -406.000
378.451;  -12.300; -131.000;  -22.000
378.581;    2.600;  -67.000; -110.000
378.711;  158.350; 1035.000;  866.000
378.841;    5.775; -533.000; -675.000
378.972;  -60.775; -871.000; -751.000
379.102;   15.700; -652.000; -579.000
379.232;  -32.000; -126.000;  -73.000
379.362;  -98.700;-1001.000; -885.000
379.492;   31.125; -373.000; -424.000
379.623;  137.500;    0.000;  111.000
379.753;  -91.800;-1107.000; -974.000
379.883;  233.050;   59.000;  156.000
380.013;   42.650;-1081.000;-1017.000
380.143;  -92.200;-1097.000;-1056.000
380.273;  -91.050; -985.000; -861.000
380.403;   -5.250; -344.000; -257.000
380.533;  -18.800; -651.000; -664.000
380.663;   87.350;  173.000;  128.000
380.793;  -95.600;-1027.000;-1074.000
380.923;   -5.575; -103.000;  -34.000
381.053;  -79.025; -613.000; -623.000
381.183;  -22.400; -106.000; -248.000
381.313;   61.925; -656.000; -470.000
381.443;   56.550; -692.000; -473.000
381.573;  235.475; -402.000; -409.000
381.703;  363.200;-1249.000;-1095.000
381.833; -109.475;-1454.000;-1336.000
381.963;  133.575; -134.000;  -87.000
382.093; 1553.625; -925.000; -909.000
382.223;  497.900; -713.000; -602.000
382.353;    9.475; -801.000; -608.000
382.482;  467.075;-1091.000; -964.000
382.612;  875.000; -872.000; -644.000
382.742;  486.550; -695.000; -622.000
382.872;  292.950; -565.000; -551.000
383.002;   70.575;  347.000; -132.000
383.131;   -7.950; -226.000; -160.000
383.261;  -32.625; -706.000; -768.000
383.391;  287.400; -552.000; -377.000
383.521; 2902.225;  451.000;  263.000
383.650;  642.500; -947.000; -904.000
383.780;  -20.950; -783.000; -656.000
383.910;  104.175;  880.000;  802.000
384.039;   45.375; -794.000; -656.000
384.169;  275.150;-1205.000;-1017.000
384.299;    1.650; -650.000; -662.000
384.428;  -94.175; -764.000; -680.000
384.558;  -28.100; -308.000; -275.000
384.687;  -25.975; -414.000; -334.000
384.817;   30.175;   75.000;   -2.000
384.947;   33.925; -234.000; -141.000
385.076;  324.050;  982.000;  912.000
385.206;  113.900;  369.000;  480.000
385.335;  -22.625; -549.000; -417.000
385.465;  -57.450; -655.000; -663.000
385.594;  171.350;  -53.000;  -44.000
385.724;  526.275; -868.000; -838.000
385.853;  156.250; -296.000; -270.000
385.982; 1574.250; -743.000; -787.000
386.112; 2460.000;-1052.000; -871.000
386.241;  172.475; -307.000; -312.000
386.371;   37.600; -174.000;  -87.000
386.500;   10.325; -825.000; -789.000
386.629;   17.975; -874.000; -817.000
386.759;   67.700;  -43.000;   68.000
386.888;    6.750; -170.000; -250.000
387.017;  -66.450; -648.000; -620.000
387.147;  -75.850; -771.000; -798.000
387.276;   13.100; -410.000; -397.000
387.405;   29.525; -398.000; -342.000
387.535;  -37.025; -452.000; -361.000
387.664;  -58.975; -692.000; -620.000
387.793;   74.875; -198.000; -113.000
387.922;  607.550;  255.000;  200.000
388.052;   33.975; -576.000; -423.000
388.181;   32.825; -342.000; -472.000
388.310;   16.600; -889.000; -710.000
388.439;  -17.125; -749.000; -742.000
388.568;  217.900;  365.000;  244.000
388.697; 1245.175; -756.000; -653.000
388.826;  259.800; -768.000; -666.000
388.956;   79.100; -285.000; -307.000
389.085;  -36.325; -347.000; -287.000
389.214;  -94.875; -842.000; -872.000
389.343;  -58.125; -645.000; -413.000
389.472;  379.075;  126.000;  149.000
389.601;  503.100;   91.000;    0.000
389.730;   28.850; -568.000; -687.000
389.859;   67.025;  226.000;   46.000
389.988;  223.275; -423.000; -408.000
390.117;  164.200; -168.000; -146.000
390.246;    9.300; -331.000; -320.000
390.375;  134.475; -673.000; -626.000
390.504;  -47.450; -703.000; -621.000
390.633;  -97.100; -672.000; -726.000
390.761;  -55.000; -732.000; -645.000
390.890;   37.050;   -4.000; -130.000
391.019;  -23.625; -421.000; -441.000
391.148; -121.500; -826.000; -855.000
391.277;  -52.525; -576.000; -493.000
391.406;  -64.375; -821.000; -805.000
391.534;   17.100;  574.000; -301.000
391.663;  -61.425; -583.000; -645.000
391.792;  -64.725; -673.000; -701.000
391.921;  129.400;   -3.000;   15.000
392.050;  240.900; -287.000; -228.000
392.178;  -29.575;-1206.000;-1061.000
392.307;  197.275; -758.000; -712.000
392.436;   86.175; -427.000; -641.000
392.564;   36.400;  166.000;   -6.000
392.693;  -89.700; -860.000; -682.000
392.822;  247.650; -529.000; -534.000
392.950;  123.600; -880.000; -714.000
393.079;  388.650; -188.000; -328.000
393.208;   32.350; -488.000; -511.000
393.336;    3.475; -170.000; -145.000
393.465;  -54.100; -317.000; -199.000
393.593;    1.000;   62.000;   79.000
393.722; -150.100;-1121.000; -916.000
393.850;  -32.000; -188.000;  -61.000
393.979; -148.900; -926.000; -805.000
394.107;  -61.650; -517.000; -537.000
394.236;  -23.500; -570.000; -507.000
394.364;  219.125;  383.000;  206.000
394.493;  323.950; -911.000; -767.000
394.621;  -19.925; -955.000; -916.000
394.750;  652.800; -873.000; -923.000
394.878; 2729.350; -247.000; -149.000
395.007; 3723.600; -721.000; -807.000
395.135;  271.600; -790.000; -721.000
395.263;  -91.625;-1038.000;-1040.000
395.392;    7.050;  -25.000; -107.000
395.520; -135.375; -818.000; -679.000
395.648;  -77.050; -865.000; -915.000
395.777;  -24.150; -366.000; -405.000
395.905;  -34.325; -449.000; -564.000
396.033;   23.200;  217.000;  172.000
396.162;  516.450; -399.000; -453.000
396.290;  475.800;  -17.000;   -2.000
396.418;  139.675; -555.000; -514.000
396.546;  -88.525; -571.000; -466.000
396.674;  -96.025; -850.000; -878.000
396.803;   11.950;  -72.000;  -23.000
396.931;  120.425; -179.000; -199.000
397.059;   85.000;-1026.000; -989.000
397.187;  -99.700;-1026.000; -975.000
397.315; -136.500; -884.000; -649.000
397.443;  -94.750; -592.000; -443.000
397.572;  -94.625; -578.000; -424.000
397.700;   -0.425; -607.000; -614.000
397.828;   27.775;  120.000;  -90.000
397.956;  -36.375; -508.000; -478.000
398.084;  -71.925; -767.000; -626.000
398.212;   50.775;  137.000;  124.000
398.340;   17.175;  -56.000;  159.000
398.468;   52.850; -390.000; -169.000
398.596; -129.750; -993.000; -953.000
398.724; -114.675; -762.000; -767.000
398.852; -159.100;-1024.000; -976.000
398.980;  -62.025; -560.000; -560.000
399.108;  -56.825; -982.000; -735.000
399.236;   48.000;   13.000;    8.000
399.363;    6.425;  222.000;  196.000
399.491;  -61.850; -404.000; -398.000
399.619; -131.075; -829.000; -800.000
399.747;  -89.175; -859.000; -771.000
399.875;   81.475;  220.000;  234.000
400.003;  -49.525; -359.000; -284.000
400.130;  -84.825; -421.000; -341.000
400.258;  -14.475;  -83.000;   38.000
400.386;  -79.925; -352.000; -168.000
400.514;  -39.100; -526.000; -587.000
400.641;  -81.075; -928.000; -802.000
400.769; -143.275; -979.000; -888.000
400.897; -103.050; -838.000; -793.000
401.025;  -11.675; -166.000; -152.000
401.152;    0.000;  220.000;   38.000
401.280;  -76.400; -430.000; -429.000
401.408; -114.675; -712.000; -576.000
401.535;  -98.225; -735.000; -758.000
401.663; -190.900;-1134.000;-1054.000
401.790;  -81.550; -514.000; -525.000
401.918;   38.250;  436.000;  405.000
402.046;  -22.375;  134.000;  122.000
402.173;  -47.550;  -18.000;    7.000
402.301;  -73.500; -519.000; -397.000
402.428;   35.975;  528.000;  383.000
402.556; -146.225;-1188.000; -913.000
402.683;  -29.575;  -20.000;   -1.000
402.811;  -16.275;  -37.000; -206.000
402.938;   -1.600;   20.000;   27.000
403.066;  238.775; -574.000; -558.000
403.193;  384.650;  299.000;  239.000
403.321;  309.000; -396.000; -574.000
403.448;  377.000;   83.000;   27.000
403.575;  164.025;  -90.000;  -46.000
403.703;  -87.450; -732.000; -557.000
403.830;  -48.175; -531.000; -496.000
403.957; -140.125;-1117.000;-1023.000
404.085;   14.725;  -61.000; -172.000
404.212;  112.550;  -50.000;   63.000
404.339;  245.650; -566.000; -306.000
404.467; 5404.400; -612.000; -524.000
404.594; 3736.700; -287.000; -227.000
404.721;  938.475; -869.000; -764.000
404.848;   73.550; -113.000; -202.000
404.976; -110.700; -856.000; -783.000
405.103;   -7.325;  -14.000;  -82.000
405.230;   -9.450;  190.000;  226.000
405.357;   35.600;  117.000;   44.000
405.484;  251.275;  -49.000;    5.000
405.612;   44.025; -548.000; -563.000
405.739;  -71.175; -488.000; -243.000
405.866;  100.875;  669.000;  385.000
405.993;  -41.675; -398.000; -102.000
406.120; -124.075; -801.000; -887.000
406.247;  -52.875; -323.000; -342.000
406.374;  511.800;  540.000;  629.000
406.501;  131.050; -632.000; -702.000
406.628;  -63.500; -621.000; -589.000
406.755;  -85.700; -803.000; -620.000
406.882;  -35.300; -228.000; -277.000
407.009; -110.525; -719.000; -628.000
407.136;   71.600; -480.000; -401.000
407.263;  181.225; -939.000; -829.000
407.390;  -72.925; -692.000; -614.000
407.517; -178.325;-1139.000;-1187.000
407.644;  -51.875; -332.000; -256.000
407.771;  -67.200; -249.000; -287.000
407.898;   18.325;  168.000;  328.000
408.025;  -64.200; -421.000; -313.000
408.151;   -4.825;   82.000;  153.000
408.278;  -76.500; -267.000; -216.000
408.405; -109.550; -931.000; -899.000
408.532;  -76.975; -549.000; -542.000
408.659; -122.975; -677.000; -648.000
408.785; -208.150;-1298.000;-1170.000
408.912;  -64.325; -412.000; -296.000
409.039; -123.300; -610.000; -686.000
409.166;  -94.000; -591.000; -555.000
409.292; -119.975; -571.000; -534.000
409.419; -121.250; -665.000; -649.000
409.546;  -95.450; -431.000; -192.000
409.672; -104.975; -713.000; -545.000
409.799;  -28.625;  -36.000;   34.000
409.926;  -42.275; -180.000; -179.000
410.052; -166.375;-1127.000;-1091.000
410.179;  -65.275; -368.000; -392.000
410.305;  -86.775; -375.000; -493.000
410.432;  -40.075; -220.000; -333.000
410.558;  -91.675; -305.000; -380.000
410.685; -109.725; -688.000; -431.000
410.812; -105.625; -409.000; -588.000
410.938; -139.800; -964.000; -808.000
411.065; -105.825; -671.000; -645.000
411.191;  -31.325; -189.000; -174.000
411.317; -124.750; -823.000; -742.000
411.444;  -60.350; -317.000; -246.000
411.570;  -77.150; -339.000; -294.000
411.697; -120.475; -758.000; -752.000
411.823; -164.475; -989.000; -999.000
411.949;  -25.575;  -56.000;   17.000
412.076; -107.750; -539.000; -519.000
412.202; -116.475; -758.000; -757.000
412.329; -128.300; -798.000; -752.000
412.455; -116.525; -821.000; -657.000
412.581;  -26.875;  -15.000;  172.000
412.707;  -68.400; -540.000; -457.000
412.834;   26.200;  156.000;  219.000
412.960;  -79.775; -785.000; -784.000
413.086; -103.800; -743.000; -701.000
413.212;  159.225;  604.000;  578.000
413.339;  -50.650; -685.000; -701.000
413.465;   20.975; -364.000; -310.000
413.591;  -80.100; -757.000; -474.000
413.717;  -53.150; -358.000; -366.000
413.843; -145.000; -839.000; -861.000
413.969;  -67.075;  -47.000; -292.000
414.096;  -97.550; -679.000; -679.000
414.222;   -3.350;  -33.000;   85.000
414.348;  -29.075; -652.000; -385.000
414.474;  102.200;   38.000;  -52.000
414.600;  -14.575; -126.000; -144.000
414.726;  -10.000;  -96.000;  -55.000
414.852;  -64.825; -365.000; -342.000
414.978;   34.975;  104.000;  -18.000
415.104;   27.925;   38.000;   80.000
415.230;   32.900; -329.000; -330.000
415.356;   35.500; -409.000; -514.000
415.482;  204.075;   13.000;  -35.000
415.608;  260.425; -247.000; -323.000
415.734;  939.925;   67.000;   38.000
415.860;19287.550; -875.000; -767.000
415.986;13741.650; -685.000; -607.000
416.111; 1153.225; -798.000; -652.000
416.237;  242.150; -424.000; -571.000
416.363; 1048.575; -765.000; -733.000
416.489; 3879.825; -324.000; -251.000
416.615;  384.675; -707.000; -742.000
416.741;  -37.200; -677.000; -784.000
416.866;  -90.800; -673.000; -736.000
416.992; -124.775; -801.000; -818.000
417.118;  -24.900;  -41.000;  -80.000
417.244;  -54.875; -798.000; -531.000
417.369;  -87.075; -801.000; -612.000
417.495;    5.200; -325.000; -254.000
417.621;  -81.025;-1015.000; -803.000
417.746;   10.575; -579.000; -572.000
417.872;   41.875; -254.000; -144.000
417.998;   42.250; -515.000; -530.000
418.123;  971.825;-1073.000; -845.000
418.249; 5048.075; -512.000; -601.000
418.374;  674.375; -916.000; -824.000
418.500;   94.950; -383.000; -482.000
418.626;   99.225;   70.000;  -59.000
418.751;  130.650; -549.000; -448.000
418.877;  185.150; -637.000; -643.000
419.002; 1701.825; -688.000; -560.000
419.128;11786.625; -930.000; -721.000
419.253; 2809.325; -967.000; -837.000
419.379;  362.025; -391.000; -338.000
419.504;  363.300;  325.000;  415.000
419.629;  485.525; -393.000; -212.000
419.755; 3324.225; -317.000; -254.000
419.880;19313.950;  -98.000;   67.000
420.006;10698.050; -280.000; -221.000
420.131;27702.700; -662.000; -775.000
420.256; 3947.925; -315.000; -316.000
420.382;  508.700; -665.000; -687.000
420.507;   63.975; -649.000; -778.000
420.632;  161.125; -337.000; -339.000
420.758;  308.350; -251.000; -425.000
420.883;  -61.500; -876.000; -672.000
421.008;  -89.075; -775.000; -619.000
421.133;  -83.925; -509.000; -467.000
421.259;  -34.600; -325.000; -259.000
421.384; -105.050; -834.000; -693.000
421.509;  -22.550;-1052.000; -862.000
421.634; 1459.650; -936.000; -820.000
421.759;  626.725; -359.000; -327.000
421.885;  -46.975; -717.000; -656.000
422.010;  -74.550; -673.000; -542.000
422.135; -138.200; -695.000; -727.000
422.260;   41.900;  340.000;  280.000
422.385;  -38.550;   12.000;  -98.000
422.510;    6.975;  151.000;  -26.000
422.635;   26.100;  -87.000;  -43.000
422.760;  108.450; -766.000; -791.000
422.885;   58.925;  -57.000;  -80.000
423.010;  -37.100; -112.000; -169.000
423.135;  -99.750; -481.000; -561.000
423.260;   -6.400; -150.000; -245.000
423.385;   77.950;  476.000;  222.000
423.510;   23.475;   71.000;  -22.000
423.635;   90.525;  133.000;   45.000
423.760;   56.925;  383.000;  328.000
423.885;   48.025;  336.000;  391.000
424.010;   15.475;  -68.000;  -13.000
424.135;  -22.925;    5.000;  -33.000
424.259;  -94.650; -654.000; -457.000
424.384;  -60.950; -279.000; -272.000
424.509;  -23.500; -260.000; -186.000
424.634; -107.125; -761.000; -623.000
424.759;  -11.925; -688.000; -544.000
424.883;   -6.775; -506.000; -527.000
425.008;  169.250; -502.000; -410.000
425.133; 1904.150; -679.000; -653.000
425.258;  874.150; -517.000; -381.000
425.382; 1156.900; -867.000; -774.000
425.507; 2926.575; -487.000; -543.000
425.632;  444.250; -802.000; -663.000
425.756;  426.975; -256.000; -146.000
425.881; 5933.300; -831.000; -857.000
426.006;15821.200; -604.000; -355.000
426.130; 2509.900; -696.000; -508.000
426.255;  319.450; -611.000; -491.000
426.379;  143.575; -189.000; -577.000
426.504;  367.200;  660.000;  544.000
426.629; 3923.500; -519.000; -466.000
426.753; 2641.225;   64.000;  -46.000
426.878;  299.800; -252.000; -288.000
427.002;  131.450; -651.000; -668.000
427.127; 1521.325;  -35.000; -158.000
427.251;10653.600;  372.000;  401.000
427.375; 3026.625; -191.000; -173.000
427.500; 2492.850; -616.000; -610.000
427.624;  853.775; -234.000; -400.000
427.749;  121.700; -216.000; -225.000
427.873;  -43.975; -499.000; -412.000
427.997;  -45.850; -222.000; -230.000
428.122;   77.850;  795.000;  703.000
428.246;   68.200;  433.000;  434.000
428.371; -122.100; -869.000; -773.000
428.495; -106.950; -624.000; -646.000
428.619;  -35.625; -186.000; -117.000
428.743;   17.025;   65.000;  132.000
428.868;   26.975; -732.000; -643.000
428.992; 1579.725; -219.000; -326.000
429.116;  639.175; -329.000; -357.000
429.240;  296.375;  419.000;  426.000
429.365;  -23.250; -454.000; -574.000
429.489;  -29.275; -638.000; -647.000
429.613;   15.250; -236.000; -177.000
429.737;   38.975; -563.000; -432.000
429.861;  245.600; -247.000; -133.000
429.985; 5304.575; -425.000; -305.000
430.109; 5732.075; -770.000; -908.000
430.234;  666.350;   76.000;  -50.000
430.358;   63.075; -250.000; -160.000
430.482;  -66.900; -672.000; -564.000
430.606;  -62.275; -655.000; -375.000
430.730;   36.350; -437.000; -388.000
430.854;  166.800; -909.000; -835.000
430.978;  -70.950; -795.000; -764.000
431.102;  -95.300; -499.000; -422.000
431.226; -117.175; -874.000; -815.000
431.350;   23.275;  345.000;  422.000
431.474;  -82.400; -661.000; -373.000
431.597; -151.325;-1060.000; -848.000
431.721;  -88.025; -276.000; -267.000
431.845; -133.850; -704.000; -472.000
431.969;  -68.325; -304.000; -349.000
432.093; -107.425; -395.000; -317.000
432.217;  -15.875;   32.000;   82.000
432.341;  -91.325; -523.000; -518.000
432.464;   15.150;   96.000;   40.000
432.588;  242.725; -401.000; -329.000
432.712;  105.500;  -52.000;  -52.000
432.836;   40.450;  213.000;  263.000
432.959;  -20.325; -372.000; -311.000
433.083;   63.850;   11.000;    2.000
433.207;  341.800;  285.000;  930.000
433.330; 4751.725; -391.000; -200.000
433.454; 5792.450; -654.000; -638.000
433.578; 3324.650;  583.000;  278.000
433.701;  614.550; -623.000; -675.000
433.825;  166.950; -292.000; -299.000
433.949;  230.350;   28.000;  -72.000
434.072;   84.025; -410.000; -323.000
434.196;   -1.825; -309.000; -117.000
434.319; 3762.950;25482.000;25124.000
434.443;  745.425; -656.000; -603.000
434.566; 2475.600;  281.000;   62.000
434.690;  387.975; -637.000; -383.000
434.813;   42.500; -251.000; -173.000
434.937;  -84.750; -569.000; -696.000
435.060;  -34.750; -423.000; -332.000
435.184;  391.050; -492.000; -217.000
435.307;  213.050;  159.000;  102.000
435.431;    7.750;  -40.000;   24.000
435.554;  -84.350; -399.000; -240.000
435.677;  -73.975; -350.000; -258.000
435.801;  -45.100;  -25.000;   49.000
435.924;   -3.075;    1.000;  -67.000
436.048;  -95.400;-1019.000; -732.000
436.171;  -77.025; -240.000;  -66.000
436.294;  -36.000; -248.000; -229.000
436.417;   67.550; -963.000; -849.000
436.541;  -92.750; -814.000; -840.000
436.664;  -48.175; -242.000; -316.000
436.787;  -28.475;   13.000;  113.000
436.910; -101.700; -792.000; -422.000
437.034;   24.450;  142.000;  143.000
437.157;   74.525;  -11.000;    0.000
437.280;  -36.275; -392.000; -292.000
437.403;  -78.400; -982.000; -869.000
437.526;  804.575; -903.000; -865.000
437.649; 2822.425; -505.000; -332.000
437.772;  421.175; -692.000; -540.000
437.896;  145.775;  700.000;  544.000
438.019;  -99.600; -758.000; -503.000
438.142;  -84.175; -596.000; -506.000
438.265;    6.800; -639.000; -670.000
438.388;  690.150; -520.000; -410.000
438.511;  128.950; -597.000; -394.000
438.634;  -33.000; -247.000; -125.000
438.757; -146.125; -693.000; -619.000
438.880;  -15.500;  -34.000;  -57.000
439.003;  -80.675; -417.000; -437.000
439.126;  -71.975; -287.000; -167.000
439.248;  -67.975;  -98.000; -139.000
439.371;  -37.700;    9.000;  -53.000
439.494;   27.275;  510.000;  439.000
439.617;  -51.225;   65.000;  -88.000
439.740; -190.075; -968.000; -816.000
439.863; -136.325; -755.000; -595.000
439.986; -124.175; -476.000; -431.000
440.108;  -57.225; -161.000; -112.000
440.231; -149.900; -950.000; -836.000
440.354;  -36.025;  -64.000; -150.000
440.477;   54.075; -566.000; -542.000
440.599;   21.475; -200.000; -225.000
440.722; -123.675; -709.000; -586.000
440.845;   81.425;  751.000;  928.000
440.968; -116.475; -415.000; -311.000
441.090;  -57.725; -199.000;  -33.000
441.213; -180.075;-1021.000; -825.000
441.336;  -49.525; -159.000;   -5.000
441.458;  -77.025; -549.000; -396.000
441.581;  -83.925; -628.000; -629.000
441.703;  -78.725; -152.000;   13.000
441.826; -106.025; -557.000; -400.000
441.948;  -51.425;   56.000;   51.000
442.071;   31.250;  555.000;  424.000
442.193; -112.000; -531.000; -485.000
442.316;   13.325;  152.000;   97.000
442.438;   29.225; -233.000;  -10.000
442.561;   85.425;  272.000;  262.000
442.683;  663.650; -809.000; -522.000
442.806; 1427.825;   -8.000;   74.000
442.928;   47.275; -859.000; -604.000
443.051;  -55.925; -577.000; -373.000
443.173;  -88.200; -341.000; -339.000
443.295;  -87.950; -263.000; -371.000
443.418;  -66.050; -321.000;  -29.000
443.540;   -5.175; -106.000;   -4.000
443.662; -126.250; -563.000; -465.000
443.785;  -16.825;  335.000;  199.000
443.907;  -92.450; -362.000; -208.000
444.029; -130.275; -767.000; -494.000
444.152; -145.950; -644.000; -554.000
444.274;  -46.675;  -18.000;  -24.000
444.396; -120.600; -461.000; -221.000
444.518; -129.325; -691.000; -454.000
444.640; -102.650; -268.000; -111.000
444.763;  -15.900;  388.000;  249.000
444.885; -124.275; -432.000; -392.000
445.007;  -25.825;   35.000;   86.000
445.129; -124.975; -610.000; -515.000
445.251;  -96.500; -372.000; -439.000
445.373; -141.075; -537.000; -386.000
445.495;   27.625;  242.000;  350.000
445.617;   48.600;  853.000;  753.000
445.739;  -56.050; -215.000;  -97.000
445.861;  -20.425; -245.000; -112.000
445.984;  -25.100; -267.000; -101.000
446.105;  247.875; -418.000; -251.000
446.227;  729.850; -176.000;  -19.000
446.349;   26.950; -358.000; -249.000
446.471; -102.100; -615.000; -448.000
446.593;  -63.075; -316.000;   19.000
446.715;   -5.750;  -67.000;   41.000
446.837;   61.725;  697.000;  832.000
446.959;  -84.200; -457.000; -478.000
447.081; -133.575; -628.000; -518.000
447.203;   55.200;  862.000;  834.000
447.325;  -90.875; -270.000;   42.000
447.446;   -9.025;  286.000;  530.000
447.568; -160.650; -921.000; -803.000
447.690;  -79.800; -236.000; -245.000
447.812; -167.375; -798.000; -519.000
447.933;  -39.800;  155.000;  127.000
448.055;  -71.450; -306.000; -261.000
448.177;  160.475;   31.000;   79.000
448.299;  131.250; -935.000; -727.000
448.420;   23.050;  -25.000;  159.000
448.542;  -46.100;   -3.000;   33.000
448.664;   -9.675;  109.000;  322.000
448.785;  -47.775;  265.000;   83.000
448.907;  -73.600; -614.000; -353.000
449.028;  -14.350; -771.000; -471.000
449.150;   57.300;  492.000;  589.000
449.272; -188.625;-1044.000; -913.000
449.393;   33.325;  612.000;  694.000
449.515; -151.275; -634.000; -581.000
449.636;  -54.550; -264.000; -155.000
449.758;   67.025;  763.000;  622.000
449.879;  -80.800; -498.000; -396.000
450.001;  -73.025; -149.000;  -49.000
450.122;  -26.525;  -95.000;  162.000
450.244;  -23.150;   37.000;  364.000
450.365;  -78.600; -495.000; -301.000
450.486;  -31.850;   80.000;  268.000
450.608;   13.625;  393.000;  326.000
450.729;   56.250;  578.000;  645.000
450.850;   -3.825; -574.000; -466.000
450.972;  677.100; -552.000; -389.000
451.093; 4543.025;  190.000;  588.000
451.214; 1878.825; -516.000; -337.000
451.336;  347.900;  773.000;  579.000
451.457;   49.075;  264.000;  393.000
451.578;  -44.475; -118.000;  -74.000
451.699; -114.175; -546.000; -540.000
451.821;  -60.850; -284.000;  -50.000
451.942;   -8.275;  278.000;  285.000
452.063;   28.850;  228.000;  419.000
452.184;  508.025;  -54.000;  -49.000
452.305; 1025.900;  103.000;  170.000
452.427;  115.350; -549.000; -301.000
452.548;  -17.500;   23.000;   79.000
452.669;  -50.525; -257.000;  -89.000
452.790;  -32.475;    3.000;  -18.000
452.911;   -0.500;  195.000;  259.000
453.032;  -54.000; -289.000;  -60.000
453.153;  -40.375;  -29.000;   81.000
453.274;   68.250;  737.000;  868.000
453.395;  -57.250;  -51.000;  175.000
453.516;  133.050; 1317.000; 1388.000
453.637;  -77.275; -205.000; -150.000
453.758;  -60.250;   15.000;   69.000
453.879; -114.350; -462.000; -250.000
454.000;   90.875; 1086.000;  948.000
454.121; -102.750; -554.000; -326.000
454.242; -115.025; -599.000; -383.000
454.362;  -68.325;  -99.000;  114.000
454.483;  -34.700; -309.000; -229.000
454.604;   53.000;  512.000;  580.000
454.725; -114.600; -627.000; -555.000
454.846; -147.725; -474.000; -406.000
454.967;  -13.200;  230.000;  539.000
455.087;  -64.800;  179.000;  153.000
455.208;   16.000;  554.000;  856.000
455.329;  -69.675;  -22.000;   82.000
455.450;   36.700;  473.000;  633.000
455.570;  -85.150; -234.000; -211.000
455.691;  -53.700;  201.000;  407.000
455.812; -101.800; -270.000;  -92.000
455.932;  -62.825;  107.000;  -97.000
456.053; -100.400;   36.000;   24.000
456.173; -107.100; -433.000; -355.000
456.294; -130.325; -476.000; -303.000
456.415;  -52.325;  -73.000;   70.000
456.535;  -50.050;  297.000;  273.000
456.656;  -54.875;  132.000;  240.000
456.776;  -73.950;    3.000;  298.000
456.897;   -2.500;  308.000;  513.000
457.017;  -86.750; -153.000;   -3.000
457.138;  -87.925; -402.000; -249.000
457.258;  -37.575;  263.000;  224.000
457.379;  -11.950;  509.000;  521.000
457.499;  -24.275;  443.000;  432.000
457.620; -134.075; -407.000; -231.000
457.740; -103.050; -132.000;  -11.000
457.860;  -47.000;   87.000;   44.000
457.981;  -47.775;  132.000;  124.000
458.101;  -68.375;  -89.000;   40.000
458.221;  -24.850;  336.000;  402.000
458.342;  -76.000;   -4.000;  -37.000
458.462;    0.400;  617.000;  352.000
458.582;  -52.400; -302.000; -294.000
458.703;   -8.850;  303.000;  154.000
458.823;  -44.975;   22.000;  163.000
458.943;    7.200;  341.000;  467.000
459.063;  -25.850; 1124.000;  192.000
459.183;  -23.250;  328.000;  313.000
459.304;    5.375;  315.000;  517.000
459.424;  -60.775; -246.000;  -89.000
459.544;  311.475;  388.000;  764.000
459.664;  775.375;  499.000;  506.000
459.784;  280.800; 1004.000; 1175.000
459.904;   46.975;  867.000;  744.000
460.024;   66.375;  867.000;  684.000
460.144;   21.100;  449.000;  554.000
460.264;  -16.375;  515.000;  327.000
460.385; -102.000; -145.000; -119.000
460.505;   33.950;  905.000;  858.000
460.625; -108.300;  -17.000;  -68.000
460.745;  -28.350;  396.000;  541.000
460.864;  -55.750;  153.000;  469.000
460.984;    1.500;  499.000;  573.000
461.104;  139.025; 1656.000; 1775.000
461.224;   12.725;  657.000;  650.000
461.344;  -25.550;  431.000;  360.000
461.464;  -28.000;  258.000;  513.000
461.584;  -12.250;  283.000;  466.000
461.704;  -37.825;   58.000;  108.000
461.824;  -43.825;  238.000;  259.000
461.943;  -44.100;  191.000;  130.000
462.063;  -77.825;    2.000;  324.000
462.183;   43.950;  639.000;  717.000
462.303;  107.950; 1678.000; 1230.000
462.422;   30.450;  781.000;  840.000
462.542;  -48.650;  271.000;  391.000
462.662;   44.675;  353.000;  380.000
462.782;  233.450;  833.000;  572.000
462.901;  463.475;  545.000;  717.000
463.021;  265.275; 1702.000; 1638.000
463.141;   -3.675;  337.000;  770.000
463.260;   -5.275;  614.000;  474.000
463.380;   17.725;  902.000;  884.000
463.499;  -56.450;  342.000;  332.000
463.619;  -38.025;  581.000;  559.000
463.738;  103.125; 1644.000;  903.000
463.858;   28.050;  657.000;  811.000
463.978;  -44.350;  542.000;  396.000
464.097;   44.650;  921.000; 1114.000
464.217;  116.075; 1196.000; 1143.000
464.336;  109.550; 1068.000; 1130.000
464.455;  -58.125;  328.000;  659.000
464.575;   56.675;  597.000;  602.000
464.694;  178.400; 1204.000; 1179.000
464.814;  123.500; 1190.000; 1138.000
464.933;   72.000; 1095.000; 1027.000
465.052;  102.350; 1412.000; 1054.000
465.172;   82.550;  922.000;  799.000
465.291;  142.400; 1376.000; 1320.000
465.410;    3.000;  462.000;  735.000
465.530;   90.300; 1355.000; 1310.000
465.649;   63.700; 1209.000; 1273.000
465.768;  138.200; 1673.000; 1508.000
465.888;   39.750;  941.000; 1174.000
466.007;   94.525; 1335.000; 1440.000
466.126;  -18.375;  721.000;  641.000
466.245;   26.775; 1176.000; 1187.000
466.364;   16.850;  950.000; 1060.000
466.484;   75.725; 1024.000; 1213.000
466.603;   30.825; 1101.000; 1222.000
466.722;  109.900; 1490.000; 1769.000
466.841;   82.475; 1151.000; 1401.000
466.960;   40.725; 1069.000;  972.000
467.079;  119.225; 1971.000; 1786.000
467.198;   46.425; 1238.000; 1181.000
467.317;   74.100; 1768.000; 1162.000
467.436;   71.350; 1709.000; 1261.000
467.555;  121.675; 1796.000; 1746.000
467.674;   77.725; 1227.000; 1329.000
467.793;   51.950; 1376.000; 1374.000
467.912;   84.575; 1658.000; 1539.000
468.031;  126.100; 2038.000; 1930.000
468.150;  146.275; 1842.000; 1837.000
468.269;  204.750; 2313.000; 2090.000
468.388;  201.175; 2168.000; 2339.000
468.507;  240.850; 2884.000; 2903.000
468.626;  236.850; 2555.000; 2541.000
468.744;  147.375; 2018.000; 2174.000
468.863;  203.100; 2312.000; 2523.000
468.982;   91.025; 1503.000; 1555.000
469.101;  216.025; 2788.000; 2692.000
469.220;  158.500; 2333.000; 2176.000
469.338;  259.725; 2935.000; 3051.000
469.457;  182.000; 2719.000; 2545.000
469.576;  367.525; 3953.000; 3784.000
469.695;  230.275; 2877.000; 3066.000
469.813;  436.575; 4148.000; 4192.000
469.932;  390.275; 4255.000; 4485.000
470.051;  424.250; 4075.000; 4161.000
470.169;  830.350; 4470.000; 4338.000
470.288; 1420.300; 4700.000; 4809.000
470.406;  848.450; 5059.000; 5194.000
470.525;  638.425; 6101.000; 5787.000
470.644;  638.225; 6847.000; 6794.000
470.762;  827.000; 8397.000; 7873.000
470.881;  897.175; 8651.000; 8464.000
470.999; 1048.550; 9685.000; 9151.000
471.118; 1118.175;11174.000;10711.000

