
Integration time [ms]: 100.000
Averaging Nr. [scans]: 40
Smoothing Nr. [pixels]: 0
Data measured with spectrometer [name]: 2101012U2
Wave   ;Sample   ;Dark     ;Reference
[nm]   ;[counts] ;[counts] ;[counts] 

197.733;   54.425;  516.000;  404.000
197.879;  -84.450; -610.000; -634.000
198.025;  -45.800; -475.000; -420.000
198.171;  -68.625; -602.000; -612.000
198.317;  -44.800; -401.000; -316.000
198.463;  -59.825; -655.000; -404.000
198.609;   24.575;  181.000; -137.000
198.755;  -80.025; -644.000; -410.000
198.901;  -76.750; -505.000; -424.000
199.047;  -55.875; -615.000; -488.000
199.193;  -45.250; -230.000; -468.000
199.339;  -35.575; -222.000; -369.000
199.485;   43.450;  330.000;  271.000
199.631;   11.875;  227.000;  310.000
199.777;  -53.525; -466.000; -398.000
199.923;  -64.875; -610.000; -424.000
200.069;   -8.550; -141.000;  -58.000
200.215;   61.725;  128.000;  453.000
200.361;   49.375;  243.000;  477.000
200.507;  -50.775; -600.000; -373.000
200.653;  -37.550; -371.000; -194.000
200.798;  -44.350; -215.000; -125.000
200.944;   -4.375; -146.000;  -41.000
201.090;   24.400;   61.000;  222.000
201.236;    2.025; -116.000; -158.000
201.382;  137.575;  874.000;  903.000
201.528;   12.200;  -58.000;  -48.000
201.674;  -29.050; -386.000; -293.000
201.819;  -65.950; -540.000; -439.000
201.965;  -81.150; -699.000; -447.000
202.111;  -21.525; -273.000; -226.000
202.257;  -38.875; -250.000; -238.000
202.402;    3.975;   13.000;  -36.000
202.548;  -28.850; -169.000; -116.000
202.694;   90.825;  410.000; -183.000
202.840;  -77.450; -603.000; -531.000
202.985;  -80.100; -681.000; -639.000
203.131; -107.300; -832.000; -666.000
203.277;  -22.925; -199.000; -262.000
203.423;  -49.325; -434.000; -520.000
203.568;  -37.350; -462.000; -237.000
203.714;  -48.100; -535.000; -542.000
203.860;  -77.975; -682.000; -641.000
204.005;   31.200;  112.000;  167.000
204.151;   58.650;  561.000;  556.000
204.296;  -56.525; -354.000; -221.000
204.442;  -71.375; -600.000; -547.000
204.588;  -86.025; -592.000; -579.000
204.733;    8.050;  178.000;  168.000
204.879; -134.150;-1018.000; -822.000
205.025;    8.675;  -99.000;  126.000
205.170;  -13.625;  -17.000;   94.000
205.316;   80.625;  438.000;  661.000
205.461;  -85.250; -698.000; -554.000
205.607;   68.575;  609.000;  665.000
205.752;  -73.800; -626.000; -551.000
205.898;  -58.150; -501.000; -391.000
206.043;  -69.500; -578.000; -506.000
206.189;  -37.900; -243.000; -285.000
206.334;   82.950;  554.000;  606.000
206.480;   74.425;  409.000;  239.000
206.625;  -80.600; -529.000; -552.000
206.771;  -54.800; -451.000; -373.000
206.916;  -44.150; -210.000; -537.000
207.062;  -73.200; -545.000; -591.000
207.207;  -53.825; -546.000; -443.000
207.353;   48.850;  185.000;  460.000
207.498;   18.925;  196.000;   85.000
207.643;  -47.025; -501.000; -370.000
207.789; -129.000;-1069.000; -910.000
207.934;  -86.375; -665.000; -713.000
208.080;  -24.100; -154.000;   66.000
208.225;  -11.300;  -22.000;  -57.000
208.370;  -88.000; -727.000; -619.000
208.516;  -79.525; -741.000; -487.000
208.661;  -31.950; -127.000;  -69.000
208.806;  -28.350; -165.000; -171.000
208.952; -120.100;-1044.000; -731.000
209.097;   64.300;  378.000;  349.000
209.242;  -36.050; -307.000; -382.000
209.387;   64.900;  392.000;  350.000
209.533;  -54.925; -321.000; -350.000
209.678;   68.225;  472.000;  543.000
209.823;  -43.025; -408.000; -310.000
209.969;  -94.100; -860.000; -757.000
210.114; -110.750; -907.000; -719.000
210.259; -120.550; -939.000; -889.000
210.404;  -19.700; -171.000;  103.000
210.549;   10.150;  108.000;    3.000
210.695;   -2.350;   -3.000;  -95.000
210.840;   35.050;   94.000;   67.000
210.985;  -71.825; -484.000; -303.000
211.130;   74.950;  268.000;  406.000
211.275;   10.800;  207.000;  199.000
211.420;  -47.300; -300.000; -289.000
211.566;  -63.250; -536.000; -489.000
211.711;   20.675;  218.000;  157.000
211.856;  -49.975; -545.000; -519.000
212.001;    4.450;  151.000;   44.000
212.146;   20.900;  153.000;   49.000
212.291;  -15.200; -210.000; -186.000
212.436;  -18.825; -280.000;   -6.000
212.581;  -92.050; -685.000; -653.000
212.726;  -83.200; -487.000; -538.000
212.871;  -55.975; -552.000; -217.000
213.016; -143.300;-1172.000;-1029.000
213.161;   67.375;  406.000;  291.000
213.306;  -73.100; -435.000; -577.000
213.451; -103.875; -778.000; -689.000
213.596;  -65.625; -455.000; -347.000
213.741;  -43.700; -448.000; -538.000
213.886;  -70.025; -498.000; -517.000
214.031;  -10.350; -294.000; -124.000
214.176;  -39.900; -408.000; -341.000
214.321;  -13.300; -296.000; -157.000
214.466;  -27.125; -163.000;  -43.000
214.611;   -3.975;  -61.000;  -10.000
214.756; -121.175; -948.000; -858.000
214.901;  -13.875; -388.000; -226.000
215.046; -120.800; -797.000; -825.000
215.191;   26.150;  128.000;   35.000
215.336;  -21.350; -157.000;  -19.000
215.480;  -70.675; -684.000; -505.000
215.625;  -11.100; -175.000;  -19.000
215.770;  -81.150; -757.000; -662.000
215.915;    2.875;   -5.000;  -97.000
216.060;   -1.550; -113.000;  -21.000
216.205; -101.025; -731.000; -779.000
216.349;  -77.175; -470.000; -533.000
216.494; -130.800; -939.000; -867.000
216.639; -111.225; -823.000; -888.000
216.784;  -89.575; -577.000; -525.000
216.929;   53.200;  392.000;  281.000
217.073;  -20.475; -244.000;  -31.000
217.218;    8.775;   78.000;  -47.000
217.363;  -93.225; -656.000; -618.000
217.507;  -87.625; -623.000; -588.000
217.652; -126.050; -845.000; -874.000
217.797;  -86.875; -708.000; -659.000
217.942; -100.200; -856.000; -720.000
218.086;   81.700;  608.000;  539.000
218.231;  -19.100; -174.000;  -26.000
218.376;  -35.975; -337.000; -229.000
218.520;    0.350;  -41.000;   96.000
218.665;  -31.675; -338.000; -204.000
218.810;  -54.875; -275.000; -233.000
218.954;   19.450;  201.000;   35.000
219.099; -112.975; -713.000; -963.000
219.243;  -73.600; -589.000; -554.000
219.388;  -29.050; -264.000; -136.000
219.532;   -7.550; -116.000; -116.000
219.677;  -79.375; -564.000; -521.000
219.822;    5.450;   33.000;   89.000
219.966;   -6.525;   17.000;  -99.000
220.111;  -34.150; -328.000;  -40.000
220.255;  -85.975; -797.000; -750.000
220.400;  -16.350; -180.000; -146.000
220.544;  -67.850; -516.000; -450.000
220.689;  -60.850; -422.000; -451.000
220.833;  -18.700; -123.000;  -58.000
220.978;  -38.350; -393.000; -563.000
221.122;   20.000;  319.000;  307.000
221.267; -119.650; -906.000; -837.000
221.411;  -61.500; -478.000; -394.000
221.555;  -16.175; -104.000;  -23.000
221.700;  -44.125; -329.000; -222.000
221.844;   28.025;  255.000;  272.000
221.989;  -44.875; -328.000; -311.000
222.133;  -32.150; -289.000; -307.000
222.277;   -6.425;    5.000;   78.000
222.422;   18.725;  227.000;  113.000
222.566;  -45.925; -381.000; -214.000
222.711;  -56.125; -414.000; -479.000
222.855;  -81.500; -643.000; -586.000
222.999;  -91.750; -642.000; -717.000
223.144;  -33.350; -195.000; -194.000
223.288;   54.775;  423.000;  251.000
223.432;   28.200;  184.000;  230.000
223.576;   15.675;  152.000;  -21.000
223.721;   33.125;  364.000;  273.000
223.865;  -54.175; -472.000; -475.000
224.009;  203.625; 1673.000; 1631.000
224.153;  -83.350; -660.000; -671.000
224.298;  -77.525; -531.000; -489.000
224.442;  -23.300;  -74.000;  -33.000
224.586;   -8.025; -169.000; -106.000
224.730;  -97.625; -858.000; -670.000
224.875; -116.650; -739.000; -688.000
225.019;   11.325;  102.000;  188.000
225.163;   47.725;  208.000;  341.000
225.307;   22.825;   97.000;  -91.000
225.451;   44.525;  360.000;  481.000
225.595;   36.500;  264.000;  176.000
225.739;  -15.800; -170.000;  -94.000
225.884;  -10.300;   86.000;    5.000
226.028;  -93.850; -760.000; -626.000
226.172;  -44.725; -260.000; -273.000
226.316; -117.950; -941.000; -902.000
226.460;  -73.675; -645.000; -493.000
226.604;  -46.725; -406.000; -400.000
226.748;  -97.025; -836.000; -733.000
226.892;  -40.725; -227.000; -181.000
227.036;  -44.725; -537.000; -447.000
227.180;  -56.925; -551.000; -375.000
227.324;  -64.525; -561.000; -580.000
227.468; -117.775; -819.000; -717.000
227.612;    6.925;  242.000;  -28.000
227.756;  -98.000; -845.000; -698.000
227.900;   42.950;  342.000;  441.000
228.044;  -49.375; -509.000; -290.000
228.188;   66.350;  448.000;  568.000
228.332;  -85.375; -546.000; -472.000
228.476;  -35.425; -223.000; -149.000
228.620;  -30.525; -210.000; -150.000
228.764;   60.625;  431.000;  349.000
228.908;  -23.550; -155.000;   30.000
229.052;  -71.775; -615.000; -528.000
229.195;  -22.825; -172.000;   13.000
229.339;  -36.375; -235.000; -305.000
229.483;  -32.375;    5.000; -162.000
229.627;   -4.125; -156.000;  139.000
229.771;  -54.825; -218.000; -294.000
229.915;   -6.025;  230.000;   79.000
230.059;  -96.725; -648.000; -663.000
230.202;  -38.350; -370.000; -317.000
230.346;  -25.825; -107.000;  107.000
230.490;  -54.950; -489.000; -521.000
230.634; -111.725; -736.000; -553.000
230.777;   87.500;  478.000;  509.000
230.921;  -52.350; -450.000; -359.000
231.065;  -49.925; -246.000; -286.000
231.209;   23.875;  261.000;  265.000
231.352;   18.600;   54.000;   40.000
231.496;   20.900;  568.000;  188.000
231.640;  -81.550; -693.000; -621.000
231.783;   60.150;  546.000;  525.000
231.927;  -53.650; -294.000; -365.000
232.071; -128.400; -962.000; -736.000
232.214; -116.600; -980.000; -764.000
232.358;  -83.325; -683.000; -599.000
232.502;   14.225;  -19.000;    7.000
232.645; -143.625;-1090.000; -927.000
232.789;  -34.550; -257.000; -218.000
232.933;  -51.125; -407.000; -224.000
233.076; -121.550;-1038.000; -897.000
233.220; -115.875; -752.000; -777.000
233.363;  -75.325; -669.000; -477.000
233.507;   47.275;  371.000;  129.000
233.650;  -95.425; -764.000; -834.000
233.794;   39.200;  438.000;  461.000
233.938;  -61.175; -530.000; -362.000
234.081;  -34.025;  -93.000;   31.000
234.225;  -68.500; -631.000; -539.000
234.368; -108.900; -773.000; -723.000
234.512;  -45.800; -385.000; -299.000
234.655; -101.000; -582.000; -555.000
234.798;  -74.875; -493.000; -466.000
234.942; -139.825; -884.000;-1002.000
235.085;  -63.700; -651.000; -443.000
235.229;  -67.025; -405.000; -410.000
235.372;  -43.000; -247.000; -191.000
235.516;  -70.200; -397.000; -321.000
235.659;   18.825;   92.000;  121.000
235.802;  -10.300;  -38.000;  -22.000
235.946;   14.675;  335.000;  215.000
236.089;   34.125;  126.000;  250.000
236.233;   51.575;  275.000;  298.000
236.376;  -49.200; -235.000; -378.000
236.519;  -53.600; -297.000; -319.000
236.663;  -17.300; -215.000; -117.000
236.806; -129.900;-1029.000; -999.000
236.949;   67.550;  543.000;  431.000
237.092;   56.400;  412.000;  391.000
237.236;  -81.375; -589.000; -502.000
237.379;   70.650;  352.000;  428.000
237.522; -124.900; -879.000; -768.000
237.666;  -20.075; -271.000;   18.000
237.809; -116.875; -851.000; -823.000
237.952;   42.075;  469.000;  271.000
238.095;  -62.950; -447.000; -442.000
238.238;   73.400;  688.000;  700.000
238.382;   -3.175;  166.000;  103.000
238.525;  -61.075; -598.000; -511.000
238.668; -138.125;-1060.000; -985.000
238.811;  -91.750; -638.000; -643.000
238.954;  -52.075; -483.000; -334.000
239.097;   92.875;  617.000;  664.000
239.241;   15.775;  394.000;  326.000
239.384;  -38.575; -254.000; -214.000
239.527;  -43.300; -424.000; -224.000
239.670; -140.025; -994.000;-1091.000
239.813; -121.900; -696.000; -658.000
239.956;   90.000;  579.000;  473.000
240.099; -115.975; -778.000; -725.000
240.242;   53.750;  428.000;  432.000
240.385;   44.800;  466.000;  450.000
240.528;  -70.350; -706.000; -473.000
240.671;   14.775;  189.000;  134.000
240.814;  -48.500; -441.000; -158.000
240.957;  -92.550; -767.000; -578.000
241.100;  -92.975; -779.000; -755.000
241.243; -142.200;-1234.000; -893.000
241.386;  -69.125; -508.000; -379.000
241.529;  -92.825; -735.000; -547.000
241.672;  -71.125; -566.000; -495.000
241.815; -119.100; -832.000; -808.000
241.958;  -33.425; -125.000; -182.000
242.101;  -67.075; -545.000; -390.000
242.244;  -43.200; -270.000; -325.000
242.387;  -33.650; -304.000; -246.000
242.530;   53.300;  470.000;  134.000
242.673;  -62.650; -381.000; -309.000
242.815; -119.800; -925.000; -899.000
242.958;  -80.300; -482.000; -381.000
243.101;   -6.600;  132.000;  187.000
243.244;  -87.575; -564.000; -521.000
243.387;  -49.100; -313.000; -316.000
243.530;  -96.675; -657.000; -674.000
243.672;    8.425;   43.000;  -92.000
243.815;  -55.050; -355.000; -283.000
243.958;    2.350;   98.000;  -26.000
244.101;    2.325;   59.000;  -16.000
244.243;  -12.650;  -47.000;  101.000
244.386; -117.025; -761.000; -630.000
244.529;  -27.475; -132.000; -139.000
244.672; -161.425;-1154.000; -951.000
244.814;  -98.525; -621.000; -794.000
244.957;  -50.000; -380.000; -304.000
245.100;  -70.900; -489.000; -489.000
245.242;  -62.725; -387.000; -374.000
245.385;   -7.700;  -59.000;  -39.000
245.528; -123.950; -871.000; -705.000
245.670;   84.225;  612.000;  634.000
245.813;  -80.625; -599.000; -547.000
245.956;  -37.250; -324.000; -275.000
246.098;  -74.475; -508.000; -650.000
246.241;   15.200;  194.000;   48.000
246.383;  -18.950; -119.000;  -73.000
246.526;  -72.350; -454.000; -525.000
246.669; -117.550; -889.000; -780.000
246.811;   25.950;  172.000;   -1.000
246.954;  -58.625; -512.000; -426.000
247.096;  -19.075;  -84.000;   -6.000
247.239;  -70.075; -482.000; -445.000
247.381;  -62.700; -647.000; -488.000
247.524;   75.800;  645.000;  679.000
247.666;    0.950;   58.000;   11.000
247.809; -122.500; -887.000; -691.000
247.951;  -17.900;  -75.000;  138.000
248.094;   25.750;  432.000;  308.000
248.236; -166.025;-1262.000;-1238.000
248.378;   13.375; -356.000;  -81.000
248.521;  -32.850; -334.000; -337.000
248.663;  -49.725; -236.000; -267.000
248.806;  -31.150; -300.000; -266.000
248.948;  -80.800; -886.000; -763.000
249.090;  -56.100; -428.000; -398.000
249.233;  -35.525; -344.000; -381.000
249.375;  -67.525; -474.000; -451.000
249.518;   -9.075;  -83.000; -133.000
249.660;  -12.425; -103.000;    3.000
249.802; -179.025;-1303.000;-1189.000
249.945;  -75.450; -612.000; -540.000
250.087; -115.650; -834.000; -768.000
250.229;  -51.025; -362.000; -480.000
250.371;  -80.400; -494.000; -439.000
250.514;  -48.975; -310.000; -244.000
250.656;  -11.000;   69.000;  102.000
250.798; -107.625; -849.000; -800.000
250.940;  -63.775; -322.000; -322.000
251.083;  -34.400; -335.000; -111.000
251.225;   52.125;  338.000;  310.000
251.367;  -50.125; -274.000; -373.000
251.509;  -26.900; -265.000; -210.000
251.651;  -96.300; -731.000; -671.000
251.794;   44.125;  538.000;  632.000
251.936;  -96.875; -821.000; -747.000
252.078;  -83.475; -540.000; -461.000
252.220;  -83.875; -645.000; -477.000
252.362;   75.700;  344.000;  462.000
252.504;  -69.475; -677.000; -584.000
252.646; -109.550; -875.000; -722.000
252.788;    3.450;   14.000; -128.000
252.931;  -42.175; -257.000; -253.000
253.073;  -38.975; -376.000; -317.000
253.215;  -17.150;  141.000;  122.000
253.357;  -19.750;   82.000; -153.000
253.499;  -52.675; -374.000; -234.000
253.641;  -98.675; -749.000; -594.000
253.783; -101.600; -609.000; -527.000
253.925;  -93.325; -586.000; -591.000
254.067; -106.775; -744.000; -667.000
254.209;  -32.900; -391.000; -259.000
254.351; -145.775; -865.000; -883.000
254.493;  -67.350; -441.000; -417.000
254.635; -133.225; -936.000; -818.000
254.777;  -82.875; -752.000; -687.000
254.918;  -77.025; -512.000; -430.000
255.060;  -62.075; -551.000; -395.000
255.202;  -63.200; -473.000; -261.000
255.344;  -74.050; -658.000; -455.000
255.486;  -63.500; -471.000; -406.000
255.628; -119.150; -780.000; -781.000
255.770;  -90.800; -676.000; -536.000
255.912;  -67.400; -559.000; -468.000
256.053;  -88.225; -730.000; -508.000
256.195;  160.075; 1008.000;  903.000
256.337; -113.475; -861.000; -595.000
256.479;   62.525;  532.000;  416.000
256.621;  -57.675; -394.000; -212.000
256.762;  -96.475; -789.000; -742.000
256.904;   45.675;  485.000;  487.000
257.046;  -50.950; -381.000; -271.000
257.188;  -47.025; -351.000; -264.000
257.329;  -72.500; -525.000; -464.000
257.471; -114.325; -939.000; -807.000
257.613;  -70.025; -584.000; -498.000
257.755; -148.600;-1073.000; -982.000
257.896;   26.150;  286.000;  392.000
258.038;  -73.750; -403.000; -352.000
258.180;  -42.150; -354.000; -279.000
258.321;  -86.450; -581.000; -457.000
258.463;  -11.575;  -71.000;  133.000
258.605;  -86.750; -562.000; -570.000
258.746; -115.050; -886.000; -772.000
258.888; -163.925;-1026.000;-1020.000
259.029;   20.350;  121.000;   -8.000
259.171;  -85.250; -614.000; -550.000
259.313;   -1.025;  -49.000;  -47.000
259.454;  -80.700; -536.000; -414.000
259.596;  -61.350; -483.000; -390.000
259.737;  -80.375; -590.000; -474.000
259.879;   33.850;  217.000;  311.000
260.020;   87.775;  901.000;  636.000
260.162;  -38.875; -146.000; -253.000
260.303; -123.425; -768.000; -687.000
260.445;  -97.875; -609.000; -613.000
260.586;   21.300;  392.000;  157.000
260.728;  -46.150; -360.000; -248.000
260.869; -121.975; -350.000; -343.000
261.011;   72.875;  706.000;  537.000
261.152;  -72.650; -479.000; -319.000
261.293;  -83.000; -576.000; -595.000
261.435;  -40.325; -219.000; -184.000
261.576;  -56.875; -455.000; -325.000
261.718;   42.375;  420.000;  470.000
261.859; -137.050; -940.000; -949.000
262.000; -125.475; -951.000;-1016.000
262.142;  -23.000;  -52.000;  -60.000
262.283; -126.075; -808.000; -691.000
262.424;  -93.000; -666.000; -625.000
262.566; -157.275;-1161.000; -983.000
262.707; -114.200; -840.000; -830.000
262.848; -124.225; -769.000; -726.000
262.990;  -49.550; -362.000; -345.000
263.131;   65.000;  650.000;  681.000
263.272;  -11.600;  -61.000;  -41.000
263.413; -100.300; -589.000; -561.000
263.555;  -86.700; -669.000; -143.000
263.696;  -96.850; -550.000; -641.000
263.837;  -69.525; -449.000; -551.000
263.978;  -20.225;   -5.000;  -77.000
264.119;  -43.975; -283.000; -264.000
264.261; -114.375; -847.000; -630.000
264.402;   -8.825;   33.000;   40.000
264.543;  -71.525; -509.000; -524.000
264.684;  -29.475;   61.000;  -50.000
264.825;  -81.350; -816.000; -538.000
264.966;   -4.275;  -84.000;  -67.000
265.107; -114.425; -646.000; -670.000
265.248; -113.525; -825.000; -812.000
265.390;  -23.900;  152.000;   -9.000
265.531;  -30.725; -238.000; -107.000
265.672;  -86.050; -557.000; -630.000
265.813;   63.025;  563.000;  439.000
265.954; -138.800; -959.000; -940.000
266.095;  -14.825; -372.000; -322.000
266.236; -103.475; -686.000; -548.000
266.377;  -47.075; -243.000; -297.000
266.518;  -77.225; -619.000; -547.000
266.659;   28.850;  170.000;  268.000
266.800;   10.275;   83.000;   85.000
266.941;  -83.375; -487.000; -478.000
267.082;   21.200;  354.000;   99.000
267.223;  -60.975; -344.000; -273.000
267.364; -113.975; -892.000; -686.000
267.504;  -24.700;    3.000;  135.000
267.645;   -0.025;  160.000;   67.000
267.786;  -25.950; -147.000;  -86.000
267.927;  -71.500; -473.000; -379.000
268.068;  -19.300; -186.000;  -61.000
268.209;  -54.825; -175.000; -413.000
268.350;  -75.875; -388.000; -532.000
268.490;  -87.600; -648.000; -521.000
268.631;    7.250;  127.000;  225.000
268.772; -118.500; -874.000; -647.000
268.913;  -57.125; -328.000; -476.000
269.054;   -6.000; -117.000;   12.000
269.194;  -57.675; -418.000; -402.000
269.335; -155.825;-1137.000;-1074.000
269.476;  -27.075;   33.000;  -35.000
269.617;  -51.675; -347.000; -392.000
269.757;  -94.525; -713.000; -646.000
269.898; -100.825; -856.000; -613.000
270.039;  -69.250; -415.000; -405.000
270.180; -147.525; -952.000; -816.000
270.320;  -27.900; -190.000; -250.000
270.461;  -42.325; -277.000; -249.000
270.602;  -13.150; -186.000; -156.000
270.742; -122.075; -868.000; -943.000
270.883;  -67.525; -442.000; -390.000
271.023;  -67.375; -358.000; -357.000
271.164;  -69.125; -607.000; -528.000
271.305; -109.800; -666.000; -654.000
271.445;  -93.025; -722.000; -683.000
271.586;  -58.325; -462.000; -283.000
271.726;  -50.825; -397.000; -322.000
271.867;  -54.100; -594.000; -534.000
272.008;  164.875; -473.000; -285.000
272.148;  136.325;  462.000;  468.000
272.289;    5.125; -113.000; -181.000
272.429;   13.125;   19.000;  185.000
272.570;  -94.775; -633.000; -737.000
272.710; -101.525; -825.000; -775.000
272.851;  -28.550;  113.000; -130.000
272.991; -169.875;-1173.000;-1077.000
273.131;  -74.225; -419.000; -459.000
273.272;  -99.625; -683.000; -723.000
273.412;   -3.425; -143.000;  -31.000
273.553;  -53.150; -488.000; -507.000
273.693;  138.875;  913.000;  858.000
273.834;  -99.100; -894.000; -692.000
273.974;  -67.450; -664.000; -615.000
274.114;  -92.750; -772.000; -560.000
274.255;   74.950;  414.000;  373.000
274.395;   13.400; -180.000; -125.000
274.535;   39.950;  199.000;  350.000
274.676;   31.575;  225.000;   94.000
274.816;    1.925;  110.000;   34.000
274.956;  -80.500; -624.000; -690.000
275.097;  -69.400;-1014.000; -922.000
275.237; -112.525; -913.000; -803.000
275.377;  -99.775; -778.000; -689.000
275.517; -154.725; -878.000; -937.000
275.658;  -72.450; -590.000; -555.000
275.798;  -72.675; -606.000; -413.000
275.938;   12.475;  215.000;  323.000
276.078;  -99.775; -626.000; -395.000
276.218;    6.000;   99.000;  104.000
276.359; -132.150;-1026.000;-1024.000
276.499;  -65.850; -605.000; -446.000
276.639;  -43.650; -305.000; -151.000
276.779;  -43.450; -475.000; -357.000
276.919; -118.800; -783.000; -624.000
277.059;  -23.300; -261.000; -212.000
277.199;  -47.400; -357.000; -259.000
277.340;   37.800;  287.000;  175.000
277.480; -113.775; -840.000; -693.000
277.620;   29.200;  192.000;   16.000
277.760; -208.550;-1533.000;-1294.000
277.900;    9.925;  113.000;   33.000
278.040;    5.975;  137.000;  159.000
278.180;   39.825;  270.000;  170.000
278.320;   -1.925;   21.000;   56.000
278.460;  -64.975; -443.000; -469.000
278.600;  -98.400; -708.000; -598.000
278.740;   35.875;  448.000;  224.000
278.880;  -64.225; -768.000; -791.000
279.020;  -20.250; -194.000; -144.000
279.160;  -96.500; -672.000; -595.000
279.300; -137.975; -926.000; -873.000
279.440;  -88.600; -709.000; -622.000
279.579;  -18.375;-1014.000; -929.000
279.719;  -65.375; -410.000; -394.000
279.859;   75.800;   -4.000;   41.000
279.999;   36.125; -208.000;  101.000
280.139;   -8.800; -435.000; -387.000
280.279;  -72.225; -708.000; -745.000
280.419;  -16.050; -229.000; -147.000
280.559;  -42.750; -259.000; -180.000
280.698;  -91.100; -790.000; -639.000
280.838;  -99.675; -778.000; -800.000
280.978; -100.350; -846.000; -790.000
281.118; -115.350; -811.000; -704.000
281.257;    6.175;   24.000;    6.000
281.397; -128.225;-1094.000; -960.000
281.537;  -95.600; -599.000; -712.000
281.677;  -23.350; -150.000; -101.000
281.816;  -90.950; -700.000; -630.000
281.956;  -35.775; -193.000; -257.000
282.096;  -67.550; -539.000; -396.000
282.235; -116.100; -672.000; -638.000
282.375;  -16.050; -243.000;  -98.000
282.515; -117.875; -715.000; -707.000
282.654;   20.675;   29.000;  106.000
282.794;   26.875;  388.000;  244.000
282.934;  -55.000; -530.000; -491.000
283.073; -138.075;-1030.000; -857.000
283.213;  -43.725; -460.000; -467.000
283.353;  -55.950; -408.000; -349.000
283.492;  -42.725; -264.000; -296.000
283.632;  -47.125; -254.000; -168.000
283.771; -102.525; -859.000; -730.000
283.911;  -50.700; -369.000; -260.000
284.050;  -99.150; -794.000; -748.000
284.190; -160.825;-1229.000;-1096.000
284.329; -146.300;-1055.000; -964.000
284.469;  -69.800; -516.000; -591.000
284.608;  -50.300; -559.000; -598.000
284.748;  -88.450; -614.000; -570.000
284.887;    0.175;  -87.000;  -20.000
285.027; -113.500; -844.000; -892.000
285.166;  -26.000; -192.000; -249.000
285.306;    4.325; -116.000;  -33.000
285.445;  -48.325; -229.000; -343.000
285.584;  -90.300; -630.000; -494.000
285.724;  -49.325; -282.000; -322.000
285.863; -111.800; -857.000; -507.000
286.002;  -51.975; -366.000; -276.000
286.142; -103.825; -715.000; -622.000
286.281;  -78.950; -525.000; -493.000
286.420;  -86.425; -554.000; -417.000
286.560;   80.100;  653.000;  623.000
286.699; -141.275; -958.000; -912.000
286.838;  -98.225; -590.000; -591.000
286.978;  -96.450; -533.000; -537.000
287.117; -133.375;-1085.000; -950.000
287.256;  -44.275; -228.000; -211.000
287.395;  -60.800; -197.000; -378.000
287.535;  -60.625; -370.000; -298.000
287.674;  -79.025; -509.000; -484.000
287.813;   51.525;  661.000;  533.000
287.952; -123.225;-1010.000; -871.000
288.091; -145.925;-1049.000; -915.000
288.231;   -1.000;   13.000;   15.000
288.370; -175.775;-1217.000;-1200.000
288.509;  -93.825; -728.000; -645.000
288.648;  -87.775; -770.000; -548.000
288.787;  -32.900; -243.000;  -87.000
288.926;  -66.450; -454.000; -475.000
289.065;  109.775;  859.000;  672.000
289.204;  -55.425; -377.000; -217.000
289.344;  -95.200; -791.000; -690.000
289.483;   20.475;  416.000;  304.000
289.622;  -42.725; -291.000; -149.000
289.761;  -12.200; -309.000; -166.000
289.900; -112.950; -785.000; -626.000
290.039;  -15.425;  -12.000;  -95.000
290.178;  -54.400; -274.000; -180.000
290.317;  -72.575; -618.000; -479.000
290.456;  -67.300; -463.000; -451.000
290.595; -143.775; -961.000; -833.000
290.734; -132.850; -904.000; -891.000
290.873;  -66.900; -456.000; -420.000
291.011; -131.700; -833.000; -843.000
291.150; -104.275; -770.000; -682.000
291.289;  -13.025; -343.000; -110.000
291.428;  -97.125; -599.000; -480.000
291.567;  -47.000; -370.000; -442.000
291.706;  -16.700;  109.000;  154.000
291.845;  -89.725; -597.000; -505.000
291.984; -154.700;-1234.000;-1061.000
292.122;   66.850;  602.000;  582.000
292.261;   41.150;  620.000;  463.000
292.400;    4.550; -144.000;  211.000
292.539; -129.725; -959.000; -813.000
292.678;  -37.400; -325.000; -300.000
292.816; -160.675;-1136.000; -965.000
292.955;  -93.575; -844.000; -684.000
293.094;  -28.425; -173.000; -337.000
293.233;  -64.400; -556.000; -400.000
293.371;  -35.850; -225.000;  -84.000
293.510; -113.175; -866.000; -780.000
293.649; -131.900; -959.000; -924.000
293.787;  -55.425;-1083.000;-1012.000
293.926;  -16.775; -113.000;  -32.000
294.065;  -54.175; -379.000; -290.000
294.203;   49.500;  298.000;  406.000
294.342;   18.125;   74.000;  156.000
294.481; 6250.500;51180.000; -836.000
294.619;  -29.625; -425.000; -582.000
294.758; -150.350;-1230.000;-1137.000
294.896;   40.250; -125.000;    5.000
295.035; -129.725;-1040.000;-1006.000
295.174; -121.800;-1082.000; -954.000
295.312;  -49.500; -323.000; -203.000
295.451;  -12.850; -307.000; -428.000
295.589;  -56.500; -389.000; -518.000
295.728;   28.100; -292.000; -165.000
295.866;   -8.000;  -36.000;  -51.000
296.005;  -65.200; -584.000; -341.000
296.143;  -72.800; -558.000; -596.000
296.282; -102.575; -957.000; -881.000
296.420;  -85.250; -657.000; -557.000
296.559;  -78.100; -892.000; -633.000
296.697;   30.325; -847.000; -665.000
296.835;   53.775;-1141.000;-1002.000
296.974;   27.625;  -23.000;   39.000
297.112;   -7.075; -443.000; -504.000
297.251;  -79.300; -815.000; -755.000
297.389;   97.750; -576.000; -438.000
297.527;   28.700; -145.000;  -83.000
297.666;  -74.175; -486.000; -438.000
297.804;  -40.100; -404.000; -264.000
297.942;   -2.950; -136.000; -161.000
298.081;   -3.525; -183.000;   63.000
298.219;   67.950;  -17.000;  -19.000
298.357;   44.875; -144.000;  -71.000
298.495;   31.075; -810.000; -812.000
298.634;   68.175;  245.000;  219.000
298.772;   44.200; -220.000; -338.000
298.910;  -41.675; -309.000; -182.000
299.048;   -1.800; -130.000; -153.000
299.187;  -39.075; -350.000; -250.000
299.325;   14.375;   52.000;  122.000
299.463;   50.125; -389.000; -299.000
299.601;   96.250; -327.000; -271.000
299.739; -105.225; -908.000; -883.000
299.877;  -96.025; -791.000; -703.000
300.016;  -37.000;-1095.000; -935.000
300.154;  148.400;  -19.000; -161.000
300.292;   45.750; -428.000; -348.000
300.430;   19.375; -408.000; -291.000
300.568; -104.600; -940.000; -874.000
300.706;  -62.375; -366.000; -469.000
300.844;  -81.525;-1108.000; -979.000
300.982;  123.800;  246.000;  282.000
301.120; -113.575; -965.000; -866.000
301.258;  -78.200; -812.000; -705.000
301.396;   22.600;  104.000;  -41.000
301.534;   61.150; -218.000; -293.000
301.672;   -3.050; -664.000; -521.000
301.810;   22.975; -613.000; -545.000
301.948;  111.275;   53.000;  149.000
302.086;  623.475; -250.000;  -32.000
302.224;  932.400; -610.000; -585.000
302.362;   24.000; -558.000; -622.000
302.500;  -19.150; -923.000; -893.000
302.638;  107.875;  128.000;  245.000
302.776;   -8.675; -352.000; -408.000
302.913;   42.350;  447.000;  236.000
303.051;  -13.425;  -86.000;  -23.000
303.189;   52.325;   90.000;  118.000
303.327;  -32.900; -341.000; -256.000
303.465;  -92.125; -832.000; -588.000
303.603;  -98.425; -805.000; -604.000
303.740;   92.925;  417.000;  241.000
303.878;   13.475; -800.000; -759.000
304.016;  -90.350; -915.000; -790.000
304.154; -133.475;-1123.000;-1152.000
304.291;  -44.175; -505.000; -554.000
304.429;   -8.725;  102.000;   74.000
304.567; -130.425; -908.000; -893.000
304.705;  -51.175; -408.000; -515.000
304.842;  101.525; -616.000; -540.000
304.980;   46.400;  215.000;   35.000
305.118;   38.175; -367.000; -365.000
305.255;  -82.100; -945.000; -927.000
305.393;   66.475;  178.000;  239.000
305.531; -103.750;-1173.000; -956.000
305.668;  -69.925; -663.000; -582.000
305.806;   98.400; -358.000; -439.000
305.943;   94.800; -629.000; -637.000
306.081;   52.325; -378.000; -267.000
306.219; -102.750; -863.000; -748.000
306.356;    9.625;  158.000;   27.000
306.494;  108.350;  981.000;  761.000
306.631;  -12.925;  -11.000;  -55.000
306.769;   11.275; -613.000; -485.000
306.906;  -23.675; -284.000; -258.000
307.044;  -64.375; -473.000; -488.000
307.181;  -60.575; -410.000; -332.000
307.319;   -1.850;  112.000;   87.000
307.456; -172.950;-1191.000;-1153.000
307.594; -105.800; -980.000; -727.000
307.731;   -9.875; -371.000; -164.000
307.868;   -4.850;  -15.000;   20.000
308.006; -121.750; -961.000; -847.000
308.143;  -73.750; -618.000; -330.000
308.281;  158.700;  -37.000; -254.000
308.418;  -24.075; -748.000; -640.000
308.555;  -73.500; -400.000; -250.000
308.693;  -83.575; -577.000; -573.000
308.830; -115.300; -712.000; -657.000
308.967;  -15.900; -215.000;  -95.000
309.105;  -43.675; -507.000; -396.000
309.242;   25.300; -468.000; -367.000
309.379;  297.700; -577.000; -655.000
309.517;  -73.375; -936.000; -948.000
309.654; -108.650; -910.000; -734.000
309.791;  -74.900; -662.000; -580.000
309.928; -118.150; -977.000; -914.000
310.065;  174.000;  819.000;  697.000
310.203;   -4.425; -825.000; -850.000
310.340;  -11.725; -465.000; -321.000
310.477;  -76.350; -412.000; -516.000
310.614;  -77.275; -383.000; -473.000
310.751; -100.350; -427.000; -518.000
310.889;  -18.700;    1.000;   11.000
311.026; -154.575;-1161.000; -939.000
311.163;  -69.575; -386.000; -380.000
311.300;  -78.775; -512.000; -479.000
311.437;  -76.025; -658.000; -619.000
311.574; -155.575;-1226.000; -985.000
311.711;  -61.925; -595.000; -433.000
311.848;  -46.050; -380.000; -388.000
311.985;   10.750;  270.000;   93.000
312.122; -131.475; -932.000; -762.000
312.259; -128.450; -941.000; -994.000
312.396;  -84.225; -508.000; -551.000
312.533; -101.000; -812.000; -790.000
312.670; -130.325;-1070.000; -898.000
312.807;  -49.950; -352.000; -367.000
312.944;  -99.100; -513.000; -611.000
313.081;  -44.050; -150.000; -415.000
313.218; -110.550;-1111.000; -867.000
313.355;   13.825; -531.000; -449.000
313.492;   16.925; -455.000; -292.000
313.629;  127.600;  815.000;  735.000
313.766; -162.700;-1176.000;-1008.000
313.902;   -9.900; -186.000;   21.000
314.039;  -53.875; -372.000; -289.000
314.176;   22.925;  286.000;  192.000
314.313;  -82.050; -569.000; -473.000
314.450;  -78.450; -788.000; -684.000
314.587;  -72.275; -468.000; -480.000
314.723;    1.050;  -78.000;  130.000
314.860;   19.700;  318.000;  332.000
314.997;   23.475;  223.000;  142.000
315.134;  -36.025; -385.000; -368.000
315.270;  -39.750; -480.000; -496.000
315.407; -120.950;-1094.000; -967.000
315.544;  -53.225; -657.000; -538.000
315.681;  -68.300; -681.000; -565.000
315.817;   26.625; -133.000; -176.000
315.954;   26.475; -613.000; -392.000
316.091; -134.125;-1045.000;-1023.000
316.227;  -42.425;  -71.000; -179.000
316.364;   -2.975;   23.000;    6.000
316.500;  -53.950; -113.000; -300.000
316.637;  -51.900; -181.000; -302.000
316.774;  -95.550; -625.000; -358.000
316.910;  -88.725; -598.000; -629.000
317.047;  -72.300; -487.000; -351.000
317.183;  -49.825; -435.000; -566.000
317.320;  -15.475; -367.000; -321.000
317.456;  -70.675; -733.000; -805.000
317.593; -104.725; -598.000; -641.000
317.729;    0.250;  168.000;  -67.000
317.866; -206.625;-1434.000;-1285.000
318.002;  -86.900; -708.000; -948.000
318.139;  -90.450; -883.000; -867.000
318.275; -111.150;-1003.000; -738.000
318.412;  -75.450; -517.000; -336.000
318.548;  -38.950; -751.000; -720.000
318.685;  -98.625; -985.000; -888.000
318.821;  -91.825; -762.000; -735.000
318.957;  -20.675;   34.000;  -23.000
319.094;   30.525;  297.000;  154.000
319.230;  -61.125; -756.000; -742.000
319.367;  119.850; -471.000; -520.000
319.503;   52.450; -538.000; -436.000
319.639; -101.175; -877.000; -793.000
319.775;  -72.300; -750.000; -685.000
319.912;  -68.025; -424.000; -519.000
320.048;  -74.725;-1184.000;-1184.000
320.184;   73.825;   59.000;   70.000
320.321;  -58.025; -497.000; -467.000
320.457;   58.775;  475.000;  662.000
320.593;  -70.125; -375.000; -382.000
320.729; -109.225; -732.000; -734.000
320.866;  -89.675; -577.000; -635.000
321.002;  -86.075; -759.000; -809.000
321.138;  -18.025; -135.000; -211.000
321.274;   81.625; -148.000; -115.000
321.410;  -30.075; -585.000; -353.000
321.546;  -39.600;-1011.000; -911.000
321.683;   50.250;  400.000;  185.000
321.819;    5.975;  -48.000; -117.000
321.955; -122.400; -743.000; -722.000
322.091;  -54.750; -585.000; -540.000
322.227;  -28.725; -382.000; -202.000
322.363;  -27.975; -320.000; -215.000
322.499;  -62.050; -343.000; -331.000
322.635;  141.100;  636.000;  443.000
322.771;   32.625; -139.000;   12.000
322.907;   80.875;  129.000;  327.000
323.043;  -22.425; -115.000; -206.000
323.179;  -34.625; -394.000; -363.000
323.315;   -0.825; -401.000; -371.000
323.451;   86.350; -328.000; -236.000
323.587;   61.425;  -60.000;  -77.000
323.723;   18.100; -682.000; -601.000
323.859;  -22.325; -258.000;  -76.000
323.995;  -42.000; -467.000; -409.000
324.131; -133.825; -967.000; -892.000
324.267;  -52.450; -254.000; -276.000
324.402; -143.425; -960.000; -983.000
324.538;  -17.475; -279.000; -104.000
324.674;    9.400;  164.000;   77.000
324.810;  117.800;  226.000;  308.000
324.946;   -3.625; -810.000; -658.000
325.082;  -72.150; -568.000; -475.000
325.217;  -19.575;  -62.000;   16.000
325.353; -113.125; -764.000; -659.000
325.489;  -95.025; -540.000; -506.000
325.625;  -79.525; -579.000; -525.000
325.760;   53.075;  517.000;  376.000
325.896;  -29.075; -515.000; -702.000
326.032;  -55.850; -403.000; -352.000
326.168;  -60.050; -462.000; -369.000
326.303;  -73.575; -352.000; -461.000
326.439;  -21.825; -336.000; -276.000
326.575;   -0.575; -190.000;  -29.000
326.710;  -12.625; -156.000;  -30.000
326.846;  -18.400;  146.000;  103.000
326.982; -100.175; -530.000; -548.000
327.117;  -78.400; -481.000; -442.000
327.253;  -88.825; -745.000; -742.000
327.388; -140.000;-1137.000;-1153.000
327.524;  -62.550; -811.000; -578.000
327.659;  -29.275;  -58.000;  -22.000
327.795;  -21.325;   69.000;   45.000
327.931;  -97.775; -723.000; -499.000
328.066;  -27.250; -417.000; -276.000
328.202;  -14.000;   12.000; -129.000
328.337;   83.500;  957.000;  713.000
328.473;   20.400;  -12.000;  -74.000
328.608;  -21.550; -256.000; -267.000
328.743;  -84.575; -799.000; -664.000
328.879;    5.150;  214.000;  114.000
329.014;  -33.350; -102.000; -122.000
329.150;  -67.625; -358.000; -483.000
329.285;  -80.525; -465.000; -466.000
329.421;  -58.625; -548.000; -246.000
329.556;  -29.350;  -36.000;   85.000
329.691; -109.400; -633.000; -615.000
329.827;  -99.000; -626.000; -480.000
329.962;  -38.300;  131.000; -301.000
330.097;  -91.600; -673.000; -585.000
330.233;  -61.225; -410.000; -223.000
330.368; -123.650; -839.000; -628.000
330.503;  -17.250;    3.000;   98.000
330.638;  -14.775;  -93.000; -125.000
330.774;  -72.225; -609.000; -530.000
330.909;  -53.150; -434.000; -244.000
331.044;  -99.475; -714.000; -708.000
331.179; -174.400;-1217.000;-1109.000
331.315;    1.325;   77.000;   20.000
331.450;   11.725;  157.000;  285.000
331.585;  -83.750; -805.000; -706.000
331.720; -104.900; -510.000; -460.000
331.855;  -14.550;  -35.000; -102.000
331.990;  238.025;   62.000;  138.000
332.126;  120.550; -110.000;   71.000
332.261;  -23.950; -379.000; -265.000
332.396;   -7.225; -135.000; -242.000
332.531; -116.250;-1074.000;-1031.000
332.666;   27.675; -519.000; -363.000
332.801; -103.450; -726.000; -807.000
332.936;  -32.700; -192.000; -122.000
333.071; -156.225; -870.000; -817.000
333.206;    6.875;  307.000;  379.000
333.341;   44.125;  344.000;  418.000
333.476;  -96.050; -627.000; -623.000
333.611;  -51.675; -251.000; -173.000
333.746;  -54.875; -381.000; -464.000
333.881; -133.475; -973.000; -935.000
334.016; -133.850; -936.000; -917.000
334.151; -124.600; -746.000; -702.000
334.286;   17.275;  152.000;  186.000
334.421;  -32.525; -125.000; -178.000
334.556;  -77.750; -611.000; -567.000
334.690;  -88.350; -631.000; -577.000
334.825;   35.575;  381.000;   83.000
334.960;  -76.950; -285.000; -413.000
335.095;    5.750;  135.000;  -91.000
335.230;  -99.675; -722.000; -738.000
335.365; -138.100;-1084.000; -990.000
335.499; -123.425;-1108.000;-1037.000
335.634;   25.875;    9.000;  534.000
335.769; -108.750; -755.000; -720.000
335.904;  -74.250; -603.000; -561.000
336.038;  -54.525; -735.000; -657.000
336.173; -122.975;-1206.000;-1194.000
336.308;    5.150; -116.000; -189.000
336.443;   19.525; -544.000; -634.000
336.577;  -77.875; -936.000; -787.000
336.712;   65.800;   -4.000;  -12.000
336.847;  -30.200; -724.000; -607.000
336.981;   54.675; -272.000; -208.000
337.116;  273.950;  615.000;  501.000
337.250;  154.100; -434.000; -421.000
337.385;  242.700; -297.000; -208.000
337.520;   77.900; -632.000; -603.000
337.654;  -38.450; -215.000; -126.000
337.789; -140.750; -989.000; -933.000
337.923;  -43.475; -104.000; -205.000
338.058;  -89.350; -673.000; -738.000
338.192;  -41.425; -611.000; -488.000
338.327;   -7.050;  -18.000; -155.000
338.461;  -77.350; -299.000; -469.000
338.596;  -89.850; -780.000; -638.000
338.730;  -96.875; -767.000; -803.000
338.865;   69.725;  -46.000; -140.000
338.999;  -48.775; -846.000; -702.000
339.134;  -20.525; -634.000; -536.000
339.268;    8.925; -741.000; -603.000
339.403;  377.000; -740.000; -775.000
339.537;   89.125; -894.000; -820.000
339.671; -112.950; -829.000; -813.000
339.806;  -62.550; -556.000; -512.000
339.940;   -4.100; -261.000; -235.000
340.074;  -90.275; -685.000; -510.000
340.209;  -47.900; -351.000; -230.000
340.343;  -75.700; -517.000; -573.000
340.477;  138.350;  998.000; 1036.000
340.612;  -45.725;-1033.000; -900.000
340.746;  122.200; -199.000; -243.000
340.880;  -67.750; -924.000; -785.000
341.014;  -27.600;  -45.000; -154.000
341.149; -102.000; -756.000; -718.000
341.283; -109.375; -839.000; -754.000
341.417;  -94.925;-1124.000; -938.000
341.551;  128.675; -768.000; -708.000
341.685;  -38.200; -633.000; -611.000
341.820;  -48.575; -562.000; -493.000
341.954;  -61.400; -218.000; -349.000
342.088; -148.900;-1102.000;-1019.000
342.222;   36.575;  565.000;  618.000
342.356;  -73.175; -395.000; -335.000
342.490; -106.625; -880.000; -841.000
342.624;  -55.375; -339.000; -242.000
342.758;    2.975; -364.000; -312.000
342.892;  -69.675; -710.000; -585.000
343.026;  -53.000;  -58.000; -116.000
343.160;  -75.400; -426.000; -376.000
343.294;  -79.175; -474.000; -337.000
343.428;  -15.925; -488.000; -448.000
343.562;  -16.050; -172.000;  -23.000
343.696;  -36.050; -385.000; -314.000
343.830;  -19.325; -362.000; -356.000
343.964;    6.075; -231.000; -168.000
344.098;  911.075;  199.000;   70.000
344.232;  782.075; -266.000; -127.000
344.366;   99.550; -567.000; -453.000
344.500;   45.175; -665.000; -744.000
344.634;   22.550; -324.000; -164.000
344.768;  -16.700; -531.000; -341.000
344.902;   22.700;  278.000;  256.000
345.035;  -78.150; -556.000; -496.000
345.169; -138.825; -933.000; -656.000
345.303;  -28.225; -308.000; -482.000
345.437;  -69.100; -826.000; -717.000
345.571;  -66.750; -675.000; -594.000
345.704;  -74.775; -309.000; -532.000
345.838;  -38.850; -331.000; -284.000
345.972;  -49.500; -543.000; -495.000
346.106;  159.725; -179.000; -190.000
346.239;  400.975; -312.000; -243.000
346.373;    2.675; -343.000; -302.000
346.507; -142.325; -950.000; -962.000
346.640;  143.825;  -30.000;   13.000
346.774;  -52.975; -650.000; -797.000
346.908;  -23.825; -138.000;  -11.000
347.041; -115.050; -646.000; -593.000
347.175;   -7.900;  259.000;   27.000
347.309;  -79.700; -698.000; -628.000
347.442; -107.550; -883.000; -732.000
347.576;  285.000;  670.000;  668.000
347.709;  207.750; -123.000;  -52.000
347.843;  -93.200; -933.000; -825.000
347.976;   30.200;  235.000;  294.000
348.110; -185.850;-1268.000;-1186.000
348.243; -110.125; -679.000; -772.000
348.377;  -17.775;  -26.000;   60.000
348.510;   59.625;  403.000;  540.000
348.644;  -38.525;  -37.000; -159.000
348.777;  -17.400;  180.000;  191.000
348.911;  -56.025; -142.000; -112.000
349.044;  156.400;  471.000;  448.000
349.178;  154.050;-1069.000;-1006.000
349.311;  101.825;  141.000;  255.000
349.444;  -12.575; -927.000; -813.000
349.578;  -27.500; -347.000; -200.000
349.711; -111.575; -959.000; -862.000
349.845;  -14.750; -661.000; -591.000
349.978; -131.950;-1224.000;-1137.000
350.111;  -93.625; -546.000; -612.000
350.244;  -80.850; -596.000; -700.000
350.378;   -1.900; -392.000; -393.000
350.511;  -96.925; -393.000; -426.000
350.644; -102.650; -808.000; -806.000
350.778;   -4.375;  168.000;  104.000
350.911;  -14.900;  134.000;  140.000
351.044; -106.375; -685.000; -615.000
351.177;  -31.325; -321.000; -281.000
351.310;  -36.000;    3.000; -131.000
351.444;  -73.675; -888.000; -788.000
351.577;   95.275;  140.000;   90.000
351.710;   98.175;  593.000;  417.000
351.843;  -43.475; -165.000;  -77.000
351.976;    5.725;  149.000;  -79.000
352.109;  -99.325; -621.000; -612.000
352.242;  -20.800; -464.000; -419.000
352.376;  -73.100; -580.000; -636.000
352.509;  159.600; -437.000; -356.000
352.642;   -5.125; -654.000; -604.000
352.775;   53.925; -141.000;  -98.000
352.908; -122.275; -933.000; -904.000
353.041; -102.450; -814.000; -824.000
353.174;  -58.875; -551.000; -424.000
353.307;  -88.200; -753.000; -764.000
353.440;   73.475;  541.000;  453.000
353.573; -108.150; -957.000;-1008.000
353.706;  -68.450; -384.000; -558.000
353.839;  -14.125; -264.000; -220.000
353.971; -102.400; -657.000; -512.000
354.104;  -99.400; -896.000; -835.000
354.237;  -34.225; -627.000; -662.000
354.370;  -90.550; -846.000; -879.000
354.503; -198.425;-1231.000;-1308.000
354.636;  -31.475; -529.000; -348.000
354.769; -129.225; -937.000; -860.000
354.902;  -18.150; -230.000; -139.000
355.034;  -31.825; -164.000; -220.000
355.167;  -19.625; -262.000; -162.000
355.300;  -90.700;-1061.000; -880.000
355.433;  953.075;  -71.000;  -14.000
355.565; 1508.800; -402.000; -384.000
355.698;  371.725; -356.000; -296.000
355.831;   -7.300; -882.000; -801.000
355.964;   76.825; -285.000; -170.000
356.096;  -86.625; -856.000; -843.000
356.229;    5.925; -523.000; -530.000
356.362;  318.150; -373.000; -266.000
356.494;  591.525; -229.000; -162.000
356.627;  478.775;  269.000;  377.000
356.760;  648.450;  120.000;   53.000
356.892;  947.875; -286.000; -601.000
357.025;  635.000;  403.000;  389.000
357.157;  580.375; -167.000; -179.000
357.290;  681.150; -856.000; -713.000
357.423;  201.350; -667.000; -556.000
357.555;  104.750; -217.000; -228.000
357.688;  121.950; -483.000; -364.000
357.820;  464.875; -870.000; -877.000
357.953; 3686.325; -563.000; -589.000
358.085;  806.500; -632.000; -612.000
358.218; 1105.375;-1131.000; -932.000
358.350;  196.150;  -58.000;  312.000
358.483; -125.400;-1300.000;-1187.000
358.615;  -15.825;-1182.000;-1078.000
358.747;  -57.000;-1187.000;-1058.000
358.880;   12.975; -810.000; -744.000
359.012;   -7.925; -376.000; -202.000
359.145;  -47.425; -480.000; -511.000
359.277;   57.350; -962.000; -913.000
359.409; 3039.000;  536.000;  231.000
359.542;  801.225; -738.000; -688.000
359.674;   63.950;   46.000;   13.000
359.806;  -54.875; -565.000; -438.000
359.939;  -52.325; -617.000; -516.000
360.071;   -7.550; -583.000; -579.000
360.203;  -30.975; -411.000; -364.000
360.335;   46.325;  164.000;  -16.000
360.468;  188.675; -249.000; -307.000
360.600; 2477.375; -547.000; -454.000
360.732; 2849.675; -546.000; -423.000
360.864;  380.650;-1216.000;-1044.000
360.996;  268.250; -516.000; -554.000
361.129;   46.725; -389.000; -598.000
361.261;   22.325;  110.000; -113.000
361.393;  -36.325; -252.000; -214.000
361.525;   26.750;   94.000;  244.000
361.657;  -37.775; -821.000; -703.000
361.789;   13.025; -139.000; -155.000
361.921;  204.875; -642.000; -593.000
362.053;  248.725;  524.000;  541.000
362.185;   50.650;  288.000;   72.000
362.318;  -86.825; -709.000; -705.000
362.450;  112.325;  294.000;  444.000
362.582;   85.400; -913.000; -870.000
362.714;  -33.450; -353.000; -332.000
362.846;  -91.850; -606.000; -490.000
362.978; -141.075; -941.000; -811.000
363.109;   36.850; -161.000; -260.000
363.241;  419.125; -739.000; -749.000
363.373;  425.625; -649.000; -564.000
363.505;  639.625; -186.000;  -91.000
363.637;  161.300; -787.000; -601.000
363.769; -118.600;-1067.000;-1080.000
363.901;  -80.825; -596.000; -654.000
364.033; -126.625;-1103.000;-1062.000
364.165;   -4.475; -283.000; -283.000
364.296;   80.850; -316.000; -177.000
364.428;   55.825;-1344.000;-1220.000
364.560;  -70.325; -679.000; -661.000
364.692;  -59.100; -738.000; -835.000
364.824;  241.500; -588.000; -456.000
364.955;  436.900; -402.000; -564.000
365.087;  932.450;-1097.000; -852.000
365.219;   34.700; -686.000; -816.000
365.351;  -79.375; -526.000; -572.000
365.482;   48.200;  300.000;  240.000
365.614;  -50.350; -402.000; -314.000
365.746; -105.025; -729.000; -752.000
365.877; -106.150; -706.000; -672.000
366.009;  268.800;  -35.000;  -62.000
366.141;  -98.400;-1249.000;-1134.000
366.272; -108.850; -803.000; -719.000
366.404; -123.550;-1005.000; -874.000
366.535;  -19.675; -139.000;  -12.000
366.667; -102.150; -644.000; -649.000
366.799;   44.850;  353.000;  203.000
366.930; -121.850; -862.000; -996.000
367.062;  116.825; -639.000; -613.000
367.193;  134.350; -872.000; -842.000
367.325;  -56.200; -580.000; -684.000
367.456;   47.575; -246.000;   31.000
367.588;  160.600; -371.000; -318.000
367.719;   25.400;  -44.000;  -45.000
367.851;  -32.275; -222.000; -241.000
367.982;  -58.675; -875.000; -732.000
368.113;  105.150; -475.000; -358.000
368.245; -125.800; -960.000; -841.000
368.376;  -21.950; -254.000; -302.000
368.508;  -46.725; -188.000; -263.000
368.639; -143.200;-1166.000;-1034.000
368.770;  -12.375; -670.000; -589.000
368.902;  -56.850; -836.000; -926.000
369.033; -103.750; -906.000; -855.000
369.164;  -55.450; -720.000; -653.000
369.296; -113.975; -452.000; -601.000
369.427;  -20.225; -209.000; -144.000
369.558;  -66.175; -593.000; -377.000
369.689;  -83.600; -721.000; -569.000
369.821; -125.250; -951.000; -845.000
369.952;  -19.975;   42.000; -108.000
370.083;  -56.125; -229.000; -108.000
370.214; -100.250; -735.000; -650.000
370.345;  -20.175;   65.000;   81.000
370.477;  -89.350; -810.000; -790.000
370.608;  212.875; -328.000; -264.000
370.739;  -57.050;-1233.000;-1292.000
370.870;  -48.650;-1102.000; -923.000
371.001;   78.800; -378.000; -467.000
371.132;  -90.900; -754.000; -735.000
371.263;  -25.425;  -42.000; -148.000
371.394; -132.650; -841.000; -748.000
371.525;   23.800;  345.000;  225.000
371.657;  -88.650; -808.000; -670.000
371.788;   71.575;  103.000;  199.000
371.919;  154.975; -384.000; -304.000
372.050; 3613.175;  -91.000; -156.000
372.181; 1100.350; -188.000; -294.000
372.311;  367.075;   42.000; -127.000
372.442;   33.650; -457.000; -451.000
372.573;  -31.975; -444.000; -340.000
372.704; -129.200;-1008.000; -980.000
372.835;   83.050; -228.000; -289.000
372.966;  -57.800; -646.000; -554.000
373.097;  -76.700; -575.000; -711.000
373.228;  -26.075; -717.000; -542.000
373.359;  120.025; -824.000; -536.000
373.490;  896.950; -881.000; -727.000
373.620; 1153.475;-1001.000; -803.000
373.751; 1749.325; -332.000; -396.000
373.882;  788.125; -663.000; -733.000
374.013;   61.675; -449.000; -262.000
374.143;  -48.025; -581.000; -659.000
374.274; -108.325; -987.000; -908.000
374.405;  170.750; -388.000; -276.000
374.536;  443.050; -526.000; -387.000
374.666; 1112.975; -759.000; -807.000
374.797;  220.000; -817.000; -868.000
374.928;  852.425; -710.000; -560.000
375.058;  886.600; -535.000; -500.000
375.189;   74.950;  -59.000;  -93.000
375.320; -101.250; -928.000;-1034.000
375.450;  -45.575; -625.000; -616.000
375.581;  -55.650; -526.000; -436.000
375.712;  -36.400; -574.000; -250.000
375.842;  284.700; -438.000; -415.000
375.973;  216.550; -554.000; -513.000
376.103;  -46.550; -665.000; -648.000
376.234;  -88.975; -531.000; -552.000
376.364;  -41.475; -944.000; -867.000
376.495;  322.100;  925.000;  529.000
376.625;   -4.575; -472.000; -485.000
376.756;   47.375; -709.000; -678.000
376.886;  -88.225;-1178.000;-1026.000
377.017;   43.400;-1048.000;-1061.000
377.147;  341.175; -786.000; -782.000
377.278;   62.375;  174.000;  228.000
377.408; -138.500; -801.000; -815.000
377.538;  -96.950; -707.000; -693.000
377.669;  -84.675; -537.000; -613.000
377.799;  -97.075; -645.000; -635.000
377.929;  -70.950; -610.000; -428.000
378.060; -139.450; -781.000; -847.000
378.190;  -53.400; -726.000; -531.000
378.320;  -63.875; -401.000; -406.000
378.451;   -6.575; -131.000;  -22.000
378.581;  -23.750;  -67.000; -110.000
378.711;  146.350; 1035.000;  866.000
378.841;  -17.400; -533.000; -675.000
378.972;  -78.675; -871.000; -751.000
379.102;  -21.775; -652.000; -579.000
379.232;  -27.900; -126.000;  -73.000
379.362; -109.900;-1001.000; -885.000
379.492;   -1.675; -373.000; -424.000
379.623;   94.750;    0.000;  111.000
379.753; -103.450;-1107.000; -974.000
379.883;  177.875;   59.000;  156.000
380.013;    1.825;-1081.000;-1017.000
380.143; -109.850;-1097.000;-1056.000
380.273; -106.575; -985.000; -861.000
380.403;   -3.225; -344.000; -257.000
380.533;  -24.525; -651.000; -664.000
380.663;   59.675;  173.000;  128.000
380.793;  -96.125;-1027.000;-1074.000
380.923;  -34.975; -103.000;  -34.000
381.053; -100.150; -613.000; -623.000
381.183;  -25.125; -106.000; -248.000
381.313;   19.800; -656.000; -470.000
381.443;   19.150; -692.000; -473.000
381.573;  172.700; -402.000; -409.000
381.703;  256.475;-1249.000;-1095.000
381.833; -125.950;-1454.000;-1336.000
381.963;  102.825; -134.000;  -87.000
382.093; 1397.025; -925.000; -909.000
382.223;  450.125; -713.000; -602.000
382.353;  -26.275; -801.000; -608.000
382.482;  354.250;-1091.000; -964.000
382.612;  755.925; -872.000; -644.000
382.742;  437.000; -695.000; -622.000
382.872;  251.750; -565.000; -551.000
383.002;   60.400;  347.000; -132.000
383.131;   -5.575; -226.000; -160.000
383.261;  -35.050; -706.000; -768.000
383.391;  283.600; -552.000; -377.000
383.521; 3192.700;  451.000;  263.000
383.650;  779.225; -947.000; -904.000
383.780;  -24.550; -783.000; -656.000
383.910;  109.800;  880.000;  802.000
384.039;   20.950; -794.000; -656.000
384.169;  186.800;-1205.000;-1017.000
384.299;  -40.550; -650.000; -662.000
384.428; -104.750; -764.000; -680.000
384.558;  -50.925; -308.000; -275.000
384.687;  -50.575; -414.000; -334.000
384.817;    9.475;   75.000;   -2.000
384.947;    3.625; -234.000; -141.000
385.076;  297.875;  982.000;  912.000
385.206;   94.425;  369.000;  480.000
385.335;  -44.925; -549.000; -417.000
385.465;  -85.125; -655.000; -663.000
385.594;  133.625;  -53.000;  -44.000
385.724;  414.725; -868.000; -838.000
385.853;  128.125; -296.000; -270.000
385.982; 1327.600; -743.000; -787.000
386.112; 2138.300;-1052.000; -871.000
386.241;  127.525; -307.000; -312.000
386.371;    6.725; -174.000;  -87.000
386.500;   -8.850; -825.000; -789.000
386.629;   26.700; -874.000; -817.000
386.759;   49.125;  -43.000;   68.000
386.888;  -24.475; -170.000; -250.000
387.017;  -80.175; -648.000; -620.000
387.147;  -94.300; -771.000; -798.000
387.276;  -14.475; -410.000; -397.000
387.405;    7.025; -398.000; -342.000
387.535;  -56.900; -452.000; -361.000
387.664;  -77.825; -692.000; -620.000
387.793;   49.675; -198.000; -113.000
387.922;  500.550;  255.000;  200.000
388.052;   -7.275; -576.000; -423.000
388.181;   -8.200; -342.000; -472.000
388.310;   -0.325; -889.000; -710.000
388.439;  -50.650; -749.000; -742.000
388.568;  182.225;  365.000;  244.000
388.697; 1030.600; -756.000; -653.000
388.826;  199.300; -768.000; -666.000
388.956;   43.975; -285.000; -307.000
389.085;  -45.425; -347.000; -287.000
389.214; -111.475; -842.000; -872.000
389.343;  -64.375; -645.000; -413.000
389.472;  392.125;  126.000;  149.000
389.601;  505.375;   91.000;    0.000
389.730;    2.775; -568.000; -687.000
389.859;   61.500;  226.000;   46.000
389.988;  179.875; -423.000; -408.000
390.117;  132.925; -168.000; -146.000
390.246;  -13.100; -331.000; -320.000
390.375;  100.575; -673.000; -626.000
390.504;  -57.900; -703.000; -621.000
390.633;  -95.425; -672.000; -726.000
390.761;  -67.800; -732.000; -645.000
390.890;    9.525;   -4.000; -130.000
391.019;  -34.525; -421.000; -441.000
391.148; -122.250; -826.000; -855.000
391.277;  -78.675; -576.000; -493.000
391.406;  -86.550; -821.000; -805.000
391.534;   17.375;  574.000; -301.000
391.663;  -80.775; -583.000; -645.000
391.792;  -98.100; -673.000; -701.000
391.921;   74.750;   -3.000;   15.000
392.050;  170.225; -287.000; -228.000
392.178;  -52.425;-1206.000;-1061.000
392.307;  140.700; -758.000; -712.000
392.436;   59.825; -427.000; -641.000
392.564;    9.400;  166.000;   -6.000
392.693;  -95.650; -860.000; -682.000
392.822;  199.050; -529.000; -534.000
392.950;   63.425; -880.000; -714.000
393.079;  308.900; -188.000; -328.000
393.208;   11.825; -488.000; -511.000
393.336;  -25.325; -170.000; -145.000
393.465;  -57.050; -317.000; -199.000
393.593;  -11.325;   62.000;   79.000
393.722; -144.500;-1121.000; -916.000
393.850;  -35.250; -188.000;  -61.000
393.979; -164.475; -926.000; -805.000
394.107;  -72.900; -517.000; -537.000
394.236;  -29.150; -570.000; -507.000
394.364;  199.075;  383.000;  206.000
394.493;  325.875; -911.000; -767.000
394.621;  -16.600; -955.000; -916.000
394.750;  709.450; -873.000; -923.000
394.878; 2932.350; -247.000; -149.000
395.007; 4048.350; -721.000; -807.000
395.135;  318.700; -790.000; -721.000
395.263;  -79.075;-1038.000;-1040.000
395.392;   -7.375;  -25.000; -107.000
395.520; -142.975; -818.000; -679.000
395.648;  -99.575; -865.000; -915.000
395.777;  -17.600; -366.000; -405.000
395.905;  -54.550; -449.000; -564.000
396.033;   17.500;  217.000;  172.000
396.162;  546.400; -399.000; -453.000
396.290;  493.325;  -17.000;   -2.000
396.418;   96.800; -555.000; -514.000
396.546;  -81.100; -571.000; -466.000
396.674; -103.850; -850.000; -878.000
396.803;   -9.175;  -72.000;  -23.000
396.931;   93.000; -179.000; -199.000
397.059;   41.675;-1026.000; -989.000
397.187; -115.300;-1026.000; -975.000
397.315; -121.800; -884.000; -649.000
397.443; -109.250; -592.000; -443.000
397.572; -102.700; -578.000; -424.000
397.700;  -20.175; -607.000; -614.000
397.828;  -10.075;  120.000;  -90.000
397.956;  -44.950; -508.000; -478.000
398.084;  -68.350; -767.000; -626.000
398.212;   20.125;  137.000;  124.000
398.340;   -1.600;  -56.000;  159.000
398.468;   21.550; -390.000; -169.000
398.596; -137.500; -993.000; -953.000
398.724; -131.225; -762.000; -767.000
398.852; -168.450;-1024.000; -976.000
398.980;  -56.650; -560.000; -560.000
399.108;  -59.400; -982.000; -735.000
399.236;   34.200;   13.000;    8.000
399.363;    9.525;  222.000;  196.000
399.491;  -71.125; -404.000; -398.000
399.619; -130.400; -829.000; -800.000
399.747; -102.250; -859.000; -771.000
399.875;   71.900;  220.000;  234.000
400.003;  -52.425; -359.000; -284.000
400.130;  -84.125; -421.000; -341.000
400.258;  -41.575;  -83.000;   38.000
400.386;  -82.225; -352.000; -168.000
400.514;  -51.525; -526.000; -587.000
400.641;  -89.650; -928.000; -802.000
400.769; -146.750; -979.000; -888.000
400.897; -129.450; -838.000; -793.000
401.025;  -21.000; -166.000; -152.000
401.152;   -9.575;  220.000;   38.000
401.280;  -86.900; -430.000; -429.000
401.408; -140.900; -712.000; -576.000
401.535; -117.825; -735.000; -758.000
401.663; -186.275;-1134.000;-1054.000
401.790;  -88.300; -514.000; -525.000
401.918;   27.700;  436.000;  405.000
402.046;  -29.850;  134.000;  122.000
402.173;  -33.250;  -18.000;    7.000
402.301;  -77.275; -519.000; -397.000
402.428;   36.975;  528.000;  383.000
402.556; -150.775;-1188.000; -913.000
402.683;  -38.100;  -20.000;   -1.000
402.811;  -29.875;  -37.000; -206.000
402.938;  -14.950;   20.000;   27.000
403.066;  185.475; -574.000; -558.000
403.193;  332.325;  299.000;  239.000
403.321;  256.950; -396.000; -574.000
403.448;  310.600;   83.000;   27.000
403.575;  148.675;  -90.000;  -46.000
403.703; -101.000; -732.000; -557.000
403.830;  -79.350; -531.000; -496.000
403.957; -129.100;-1117.000;-1023.000
404.085;    7.300;  -61.000; -172.000
404.212;  105.275;  -50.000;   63.000
404.339;  244.600; -566.000; -306.000
404.467; 5743.850; -612.000; -524.000
404.594; 3866.950; -287.000; -227.000
404.721;  895.900; -869.000; -764.000
404.848;   69.525; -113.000; -202.000
404.976; -118.275; -856.000; -783.000
405.103;  -21.175;  -14.000;  -82.000
405.230;  -16.400;  190.000;  226.000
405.357;    3.725;  117.000;   44.000
405.484;  260.250;  -49.000;    5.000
405.612;   43.050; -548.000; -563.000
405.739;  -70.700; -488.000; -243.000
405.866;   78.725;  669.000;  385.000
405.993;  -42.575; -398.000; -102.000
406.120; -144.950; -801.000; -887.000
406.247;  -56.600; -323.000; -342.000
406.374;  424.050;  540.000;  629.000
406.501;   88.325; -632.000; -702.000
406.628;  -89.100; -621.000; -589.000
406.755; -105.600; -803.000; -620.000
406.882;  -44.000; -228.000; -277.000
407.009; -122.450; -719.000; -628.000
407.136;   19.900; -480.000; -401.000
407.263;  126.325; -939.000; -829.000
407.390;  -92.125; -692.000; -614.000
407.517; -179.725;-1139.000;-1187.000
407.644;  -61.075; -332.000; -256.000
407.771;  -81.250; -249.000; -287.000
407.898;   -1.975;  168.000;  328.000
408.025;  -76.550; -421.000; -313.000
408.151;  -16.900;   82.000;  153.000
408.278;  -79.600; -267.000; -216.000
408.405; -127.000; -931.000; -899.000
408.532;  -70.700; -549.000; -542.000
408.659; -121.075; -677.000; -648.000
408.785; -199.600;-1298.000;-1170.000
408.912;  -80.550; -412.000; -296.000
409.039; -123.350; -610.000; -686.000
409.166; -111.225; -591.000; -555.000
409.292; -109.250; -571.000; -534.000
409.419; -140.750; -665.000; -649.000
409.546;  -90.875; -431.000; -192.000
409.672;  -95.075; -713.000; -545.000
409.799;  -33.125;  -36.000;   34.000
409.926;  -44.800; -180.000; -179.000
410.052; -178.800;-1127.000;-1091.000
410.179;  -60.225; -368.000; -392.000
410.305; -101.350; -375.000; -493.000
410.432;  -53.300; -220.000; -333.000
410.558;  -96.200; -305.000; -380.000
410.685; -111.900; -688.000; -431.000
410.812;  -91.100; -409.000; -588.000
410.938; -139.150; -964.000; -808.000
411.065; -105.500; -671.000; -645.000
411.191;  -33.500; -189.000; -174.000
411.317; -123.975; -823.000; -742.000
411.444;  -76.275; -317.000; -246.000
411.570;  -93.725; -339.000; -294.000
411.697; -127.850; -758.000; -752.000
411.823; -172.050; -989.000; -999.000
411.949;  -47.975;  -56.000;   17.000
412.076; -123.975; -539.000; -519.000
412.202; -120.600; -758.000; -757.000
412.329; -135.825; -798.000; -752.000
412.455; -118.425; -821.000; -657.000
412.581;  -28.400;  -15.000;  172.000
412.707;  -79.075; -540.000; -457.000
412.834;   10.950;  156.000;  219.000
412.960;  -81.850; -785.000; -784.000
413.086; -116.475; -743.000; -701.000
413.212;  148.450;  604.000;  578.000
413.339;  -71.600; -685.000; -701.000
413.465;   -7.550; -364.000; -310.000
413.591;  -87.525; -757.000; -474.000
413.717;  -63.100; -358.000; -366.000
413.843; -130.375; -839.000; -861.000
413.969;  -58.650;  -47.000; -292.000
414.096; -103.500; -679.000; -679.000
414.222;  -10.825;  -33.000;   85.000
414.348;  -37.450; -652.000; -385.000
414.474;   90.475;   38.000;  -52.000
414.600;  -20.400; -126.000; -144.000
414.726;  -16.000;  -96.000;  -55.000
414.852;  -69.500; -365.000; -342.000
414.978;   32.100;  104.000;  -18.000
415.104;   42.125;   38.000;   80.000
415.230;   23.300; -329.000; -330.000
415.356;   28.275; -409.000; -514.000
415.482;  185.450;   13.000;  -35.000
415.608;  263.650; -247.000; -323.000
415.734;  945.700;   67.000;   38.000
415.860;19791.225; -875.000; -767.000
415.986;14797.250; -685.000; -607.000
416.111; 1290.425; -798.000; -652.000
416.237;  253.425; -424.000; -571.000
416.363; 1121.450; -765.000; -733.000
416.489; 4229.850; -324.000; -251.000
416.615;  471.050; -707.000; -742.000
416.741;  -27.675; -677.000; -784.000
416.866;  -94.875; -673.000; -736.000
416.992; -121.900; -801.000; -818.000
417.118;  -32.675;  -41.000;  -80.000
417.244;  -70.625; -798.000; -531.000
417.369;  -90.850; -801.000; -612.000
417.495;  -15.200; -325.000; -254.000
417.621;  -82.050;-1015.000; -803.000
417.746;   -8.800; -579.000; -572.000
417.872;   52.050; -254.000; -144.000
417.998;   40.350; -515.000; -530.000
418.123; 1018.550;-1073.000; -845.000
418.249; 5471.675; -512.000; -601.000
418.374;  782.525; -916.000; -824.000
418.500;  109.775; -383.000; -482.000
418.626;  110.700;   70.000;  -59.000
418.751;  103.900; -549.000; -448.000
418.877;  193.000; -637.000; -643.000
419.002; 1771.350; -688.000; -560.000
419.128;12589.225; -930.000; -721.000
419.253; 3168.875; -967.000; -837.000
419.379;  418.550; -391.000; -338.000
419.504;  392.825;  325.000;  415.000
419.629;  527.600; -393.000; -212.000
419.755; 3524.700; -317.000; -254.000
419.880;21305.625;  -98.000;   67.000
420.006;11498.850; -280.000; -221.000
420.131;29717.325; -662.000; -775.000
420.256; 4393.375; -315.000; -316.000
420.382;  566.600; -665.000; -687.000
420.507;   79.600; -649.000; -778.000
420.632;  118.125; -337.000; -339.000
420.758;  233.850; -251.000; -425.000
420.883;  -88.575; -876.000; -672.000
421.008; -105.875; -775.000; -619.000
421.133;  -82.200; -509.000; -467.000
421.259;  -56.525; -325.000; -259.000
421.384; -118.550; -834.000; -693.000
421.509;  -49.775;-1052.000; -862.000
421.634; 1108.550; -936.000; -820.000
421.759;  498.050; -359.000; -327.000
421.885;  -68.050; -717.000; -656.000
422.010;  -87.475; -673.000; -542.000
422.135; -142.275; -695.000; -727.000
422.260;   35.100;  340.000;  280.000
422.385;  -47.500;   12.000;  -98.000
422.510;   -9.500;  151.000;  -26.000
422.635;   16.425;  -87.000;  -43.000
422.760;   95.150; -766.000; -791.000
422.885;   51.200;  -57.000;  -80.000
423.010;  -43.000; -112.000; -169.000
423.135; -102.975; -481.000; -561.000
423.260;  -18.425; -150.000; -245.000
423.385;   70.575;  476.000;  222.000
423.510;   17.900;   71.000;  -22.000
423.635;   71.800;  133.000;   45.000
423.760;   32.350;  383.000;  328.000
423.885;   44.075;  336.000;  391.000
424.010;   13.700;  -68.000;  -13.000
424.135;  -30.300;    5.000;  -33.000
424.259;  -94.225; -654.000; -457.000
424.384;  -71.600; -279.000; -272.000
424.509;  -27.050; -260.000; -186.000
424.634; -102.350; -761.000; -623.000
424.759;  -31.575; -688.000; -544.000
424.883;  -25.450; -506.000; -527.000
425.008;  160.450; -502.000; -410.000
425.133; 1966.650; -679.000; -653.000
425.258;  967.425; -517.000; -381.000
425.382; 1027.000; -867.000; -774.000
425.507; 2640.100; -487.000; -543.000
425.632;  436.325; -802.000; -663.000
425.756;  460.525; -256.000; -146.000
425.881; 6417.700; -831.000; -857.000
426.006;18041.475; -604.000; -355.000
426.130; 2895.550; -696.000; -508.000
426.255;  356.375; -611.000; -491.000
426.379;  157.750; -189.000; -577.000
426.504;  392.475;  660.000;  544.000
426.629; 3992.650; -519.000; -466.000
426.753; 2802.850;   64.000;  -46.000
426.878;  329.325; -252.000; -288.000
427.002;  134.550; -651.000; -668.000
427.127; 1557.925;  -35.000; -158.000
427.251;11408.700;  372.000;  401.000
427.375; 3374.850; -191.000; -173.000
427.500; 2260.575; -616.000; -610.000
427.624;  799.175; -234.000; -400.000
427.749;   96.100; -216.000; -225.000
427.873;  -50.050; -499.000; -412.000
427.997;  -37.275; -222.000; -230.000
428.122;   68.625;  795.000;  703.000
428.246;   68.400;  433.000;  434.000
428.371; -126.425; -869.000; -773.000
428.495; -108.975; -624.000; -646.000
428.619;  -45.975; -186.000; -117.000
428.743;   16.500;   65.000;  132.000
428.868;    3.050; -732.000; -643.000
428.992; 1419.275; -219.000; -326.000
429.116;  577.350; -329.000; -357.000
429.240;  254.675;  419.000;  426.000
429.365;  -31.150; -454.000; -574.000
429.489;  -51.800; -638.000; -647.000
429.613;   14.725; -236.000; -177.000
429.737;   28.250; -563.000; -432.000
429.861;  258.450; -247.000; -133.000
429.985; 5500.625; -425.000; -305.000
430.109; 6253.275; -770.000; -908.000
430.234;  733.600;   76.000;  -50.000
430.358;   66.100; -250.000; -160.000
430.482;  -69.150; -672.000; -564.000
430.606;  -74.050; -655.000; -375.000
430.730;   10.950; -437.000; -388.000
430.854;  102.050; -909.000; -835.000
430.978;  -78.950; -795.000; -764.000
431.102;  -92.225; -499.000; -422.000
431.226; -129.650; -874.000; -815.000
431.350;   20.400;  345.000;  422.000
431.474;  -80.525; -661.000; -373.000
431.597; -177.550;-1060.000; -848.000
431.721;  -85.900; -276.000; -267.000
431.845; -130.125; -704.000; -472.000
431.969;  -89.275; -304.000; -349.000
432.093; -112.100; -395.000; -317.000
432.217;  -21.900;   32.000;   82.000
432.341;  -93.575; -523.000; -518.000
432.464;    1.650;   96.000;   40.000
432.588;  189.775; -401.000; -329.000
432.712;   99.550;  -52.000;  -52.000
432.836;   43.450;  213.000;  263.000
432.959;  -22.850; -372.000; -311.000
433.083;   66.450;   11.000;    2.000
433.207;  363.275;  285.000;  930.000
433.330; 5000.775; -391.000; -200.000
433.454; 6365.400; -654.000; -638.000
433.578; 3649.425;  583.000;  278.000
433.701;  680.500; -623.000; -675.000
433.825;  130.450; -292.000; -299.000
433.949;  164.400;   28.000;  -72.000
434.072;   63.125; -410.000; -323.000
434.196;  -12.850; -309.000; -117.000
434.319; 3682.325;25482.000;25124.000
434.443;  722.300; -656.000; -603.000
434.566; 2700.425;  281.000;   62.000
434.690;  478.975; -637.000; -383.000
434.813;   27.725; -251.000; -173.000
434.937;  -86.325; -569.000; -696.000
435.060;  -38.125; -423.000; -332.000
435.184;  265.350; -492.000; -217.000
435.307;  150.850;  159.000;  102.000
435.431;  -18.575;  -40.000;   24.000
435.554;  -81.725; -399.000; -240.000
435.677;  -94.825; -350.000; -258.000
435.801;  -48.875;  -25.000;   49.000
435.924;  -38.525;    1.000;  -67.000
436.048; -127.500;-1019.000; -732.000
436.171;  -74.450; -240.000;  -66.000
436.294;  -40.025; -248.000; -229.000
436.417;  101.825; -963.000; -849.000
436.541;  -89.325; -814.000; -840.000
436.664;  -64.525; -242.000; -316.000
436.787;  -42.700;   13.000;  113.000
436.910; -112.850; -792.000; -422.000
437.034;   14.600;  142.000;  143.000
437.157;   44.225;  -11.000;    0.000
437.280;  -57.500; -392.000; -292.000
437.403; -107.150; -982.000; -869.000
437.526;  565.250; -903.000; -865.000
437.649; 2193.400; -505.000; -332.000
437.772;  330.575; -692.000; -540.000
437.896;  102.225;  700.000;  544.000
438.019; -103.050; -758.000; -503.000
438.142;  -93.800; -596.000; -506.000
438.265;  -32.600; -639.000; -670.000
438.388;  523.725; -520.000; -410.000
438.511;   93.575; -597.000; -394.000
438.634;  -58.950; -247.000; -125.000
438.757; -148.450; -693.000; -619.000
438.880;  -33.075;  -34.000;  -57.000
439.003;  -87.175; -417.000; -437.000
439.126;  -67.175; -287.000; -167.000
439.248;  -75.700;  -98.000; -139.000
439.371;  -61.850;    9.000;  -53.000
439.494;    9.500;  510.000;  439.000
439.617;  -56.675;   65.000;  -88.000
439.740; -184.200; -968.000; -816.000
439.863; -148.425; -755.000; -595.000
439.986; -118.725; -476.000; -431.000
440.108;  -51.250; -161.000; -112.000
440.231; -170.050; -950.000; -836.000
440.354;  -39.700;  -64.000; -150.000
440.477;   15.100; -566.000; -542.000
440.599;    3.175; -200.000; -225.000
440.722; -125.775; -709.000; -586.000
440.845;   64.325;  751.000;  928.000
440.968; -124.200; -415.000; -311.000
441.090;  -76.125; -199.000;  -33.000
441.213; -184.250;-1021.000; -825.000
441.336;  -60.350; -159.000;   -5.000
441.458; -103.800; -549.000; -396.000
441.581;  -81.200; -628.000; -629.000
441.703;  -86.800; -152.000;   13.000
441.826; -125.275; -557.000; -400.000
441.948;  -63.000;   56.000;   51.000
442.071;   22.925;  555.000;  424.000
442.193; -134.800; -531.000; -485.000
442.316;    5.975;  152.000;   97.000
442.438;   34.775; -233.000;  -10.000
442.561;   72.075;  272.000;  262.000
442.683;  495.425; -809.000; -522.000
442.806; 1121.500;   -8.000;   74.000
442.928;   28.550; -859.000; -604.000
443.051;  -78.025; -577.000; -373.000
443.173;  -83.775; -341.000; -339.000
443.295;  -98.275; -263.000; -371.000
443.418;  -81.950; -321.000;  -29.000
443.540;  -11.225; -106.000;   -4.000
443.662; -132.100; -563.000; -465.000
443.785;  -22.700;  335.000;  199.000
443.907; -111.700; -362.000; -208.000
444.029; -136.200; -767.000; -494.000
444.152; -149.150; -644.000; -554.000
444.274;  -40.800;  -18.000;  -24.000
444.396; -131.325; -461.000; -221.000
444.518; -138.725; -691.000; -454.000
444.640;  -97.925; -268.000; -111.000
444.763;  -25.375;  388.000;  249.000
444.885; -141.150; -432.000; -392.000
445.007;  -44.125;   35.000;   86.000
445.129; -119.925; -610.000; -515.000
445.251;  -97.825; -372.000; -439.000
445.373; -156.675; -537.000; -386.000
445.495;  -13.925;  242.000;  350.000
445.617;   48.450;  853.000;  753.000
445.739;  -79.450; -215.000;  -97.000
445.861;  -45.000; -245.000; -112.000
445.984;  -43.675; -267.000; -101.000
446.105;  186.600; -418.000; -251.000
446.227;  620.550; -176.000;  -19.000
446.349;   -3.600; -358.000; -249.000
446.471; -106.000; -615.000; -448.000
446.593;  -80.600; -316.000;   19.000
446.715;   -4.950;  -67.000;   41.000
446.837;   49.575;  697.000;  832.000
446.959; -100.300; -457.000; -478.000
447.081; -136.400; -628.000; -518.000
447.203;   44.575;  862.000;  834.000
447.325;  -85.900; -270.000;   42.000
447.446;   -9.250;  286.000;  530.000
447.568; -157.000; -921.000; -803.000
447.690;  -80.850; -236.000; -245.000
447.812; -149.675; -798.000; -519.000
447.933;  -44.725;  155.000;  127.000
448.055;  -69.175; -306.000; -261.000
448.177;  131.800;   31.000;   79.000
448.299;   66.500; -935.000; -727.000
448.420;    0.225;  -25.000;  159.000
448.542;  -58.150;   -3.000;   33.000
448.664;  -35.375;  109.000;  322.000
448.785;  -48.325;  265.000;   83.000
448.907;  -88.900; -614.000; -353.000
449.028;  -46.850; -771.000; -471.000
449.150;   44.500;  492.000;  589.000
449.272; -187.975;-1044.000; -913.000
449.393;   29.650;  612.000;  694.000
449.515; -138.550; -634.000; -581.000
449.636;  -63.250; -264.000; -155.000
449.758;   66.925;  763.000;  622.000
449.879; -102.300; -498.000; -396.000
450.001;  -87.025; -149.000;  -49.000
450.122;  -38.200;  -95.000;  162.000
450.244;  -35.800;   37.000;  364.000
450.365; -101.000; -495.000; -301.000
450.486;  -39.650;   80.000;  268.000
450.608;   11.125;  393.000;  326.000
450.729;   62.750;  578.000;  645.000
450.850;    0.425; -574.000; -466.000
450.972;  727.700; -552.000; -389.000
451.093; 4905.500;  190.000;  588.000
451.214; 2240.025; -516.000; -337.000
451.336;  405.675;  773.000;  579.000
451.457;   53.775;  264.000;  393.000
451.578;  -41.800; -118.000;  -74.000
451.699; -131.750; -546.000; -540.000
451.821;  -68.425; -284.000;  -50.000
451.942;  -20.550;  278.000;  285.000
452.063;   14.950;  228.000;  419.000
452.184;  545.425;  -54.000;  -49.000
452.305; 1106.375;  103.000;  170.000
452.427;  147.950; -549.000; -301.000
452.548;  -22.950;   23.000;   79.000
452.669;  -52.550; -257.000;  -89.000
452.790;  -38.975;    3.000;  -18.000
452.911;   -9.775;  195.000;  259.000
453.032;  -84.925; -289.000;  -60.000
453.153;  -48.625;  -29.000;   81.000
453.274;   54.975;  737.000;  868.000
453.395;  -58.025;  -51.000;  175.000
453.516;  108.575; 1317.000; 1388.000
453.637;  -91.350; -205.000; -150.000
453.758;  -67.750;   15.000;   69.000
453.879; -127.475; -462.000; -250.000
454.000;   67.175; 1086.000;  948.000
454.121; -116.650; -554.000; -326.000
454.242; -121.275; -599.000; -383.000
454.362;  -65.800;  -99.000;  114.000
454.483;  -45.050; -309.000; -229.000
454.604;   53.825;  512.000;  580.000
454.725; -133.150; -627.000; -555.000
454.846; -130.725; -474.000; -406.000
454.967;  -31.675;  230.000;  539.000
455.087;  -47.525;  179.000;  153.000
455.208;    2.775;  554.000;  856.000
455.329;  -75.950;  -22.000;   82.000
455.450;   34.175;  473.000;  633.000
455.570;  -96.150; -234.000; -211.000
455.691;  -48.525;  201.000;  407.000
455.812; -102.375; -270.000;  -92.000
455.932;  -59.600;  107.000;  -97.000
456.053;  -82.125;   36.000;   24.000
456.173; -122.150; -433.000; -355.000
456.294; -130.200; -476.000; -303.000
456.415;  -83.625;  -73.000;   70.000
456.535;  -47.275;  297.000;  273.000
456.656;  -47.975;  132.000;  240.000
456.776;  -79.325;    3.000;  298.000
456.897;   -5.800;  308.000;  513.000
457.017;  -89.150; -153.000;   -3.000
457.138; -118.300; -402.000; -249.000
457.258;  -41.375;  263.000;  224.000
457.379;  -25.100;  509.000;  521.000
457.499;  -32.250;  443.000;  432.000
457.620; -114.750; -407.000; -231.000
457.740; -110.950; -132.000;  -11.000
457.860;  -58.050;   87.000;   44.000
457.981;  -50.400;  132.000;  124.000
458.101;  -74.650;  -89.000;   40.000
458.221;  -12.050;  336.000;  402.000
458.342;  -58.725;   -4.000;  -37.000
458.462;    0.725;  617.000;  352.000
458.582;  -42.450; -302.000; -294.000
458.703;    4.075;  303.000;  154.000
458.823;  -22.575;   22.000;  163.000
458.943;   27.075;  341.000;  467.000
459.063;  -26.900; 1124.000;  192.000
459.183;  -38.600;  328.000;  313.000
459.304;    3.225;  315.000;  517.000
459.424;  -65.375; -246.000;  -89.000
459.544;  304.175;  388.000;  764.000
459.664;  827.200;  499.000;  506.000
459.784;  303.825; 1004.000; 1175.000
459.904;   51.500;  867.000;  744.000
460.024;   58.900;  867.000;  684.000
460.144;   -6.325;  449.000;  554.000
460.264;    4.525;  515.000;  327.000
460.385;  -95.025; -145.000; -119.000
460.505;   16.400;  905.000;  858.000
460.625;  -94.425;  -17.000;  -68.000
460.745;  -21.450;  396.000;  541.000
460.864;  -54.425;  153.000;  469.000
460.984;    4.725;  499.000;  573.000
461.104;  125.850; 1656.000; 1775.000
461.224;   16.150;  657.000;  650.000
461.344;  -42.875;  431.000;  360.000
461.464;  -39.950;  258.000;  513.000
461.584;  -23.800;  283.000;  466.000
461.704;  -40.775;   58.000;  108.000
461.824;  -60.000;  238.000;  259.000
461.943;  -54.750;  191.000;  130.000
462.063;  -78.600;    2.000;  324.000
462.183;   30.025;  639.000;  717.000
462.303;   89.150; 1678.000; 1230.000
462.422;   12.850;  781.000;  840.000
462.542;  -52.800;  271.000;  391.000
462.662;   31.750;  353.000;  380.000
462.782;  239.575;  833.000;  572.000
462.901;  473.025;  545.000;  717.000
463.021;  288.300; 1702.000; 1638.000
463.141;   -7.325;  337.000;  770.000
463.260;  -28.225;  614.000;  474.000
463.380;    9.525;  902.000;  884.000
463.499;  -47.500;  342.000;  332.000
463.619;  -38.700;  581.000;  559.000
463.738;   91.975; 1644.000;  903.000
463.858;   10.975;  657.000;  811.000
463.978;  -36.425;  542.000;  396.000
464.097;   24.550;  921.000; 1114.000
464.217;  112.325; 1196.000; 1143.000
464.336;  107.500; 1068.000; 1130.000
464.455;  -30.625;  328.000;  659.000
464.575;   14.700;  597.000;  602.000
464.694;  153.800; 1204.000; 1179.000
464.814;  121.775; 1190.000; 1138.000
464.933;   77.775; 1095.000; 1027.000
465.052;   97.700; 1412.000; 1054.000
465.172;   78.550;  922.000;  799.000
465.291;  141.350; 1376.000; 1320.000
465.410;    6.750;  462.000;  735.000
465.530;   79.225; 1355.000; 1310.000
465.649;   45.675; 1209.000; 1273.000
465.768;  132.550; 1673.000; 1508.000
465.888;   47.475;  941.000; 1174.000
466.007;   82.775; 1335.000; 1440.000
466.126;  -17.800;  721.000;  641.000
466.245;   39.925; 1176.000; 1187.000
466.364;    1.225;  950.000; 1060.000
466.484;   50.425; 1024.000; 1213.000
466.603;   38.350; 1101.000; 1222.000
466.722;  112.475; 1490.000; 1769.000
466.841;   71.425; 1151.000; 1401.000
466.960;   26.675; 1069.000;  972.000
467.079;  112.050; 1971.000; 1786.000
467.198;   39.525; 1238.000; 1181.000
467.317;   87.775; 1768.000; 1162.000
467.436;   58.850; 1709.000; 1261.000
467.555;  127.200; 1796.000; 1746.000
467.674;   55.000; 1227.000; 1329.000
467.793;   31.900; 1376.000; 1374.000
467.912;   87.425; 1658.000; 1539.000
468.031;  118.425; 2038.000; 1930.000
468.150;  124.775; 1842.000; 1837.000
468.269;  178.450; 2313.000; 2090.000
468.388;  190.800; 2168.000; 2339.000
468.507;  237.075; 2884.000; 2903.000
468.626;  256.050; 2555.000; 2541.000
468.744;  134.975; 2018.000; 2174.000
468.863;  196.300; 2312.000; 2523.000
468.982;   89.325; 1503.000; 1555.000
469.101;  229.275; 2788.000; 2692.000
469.220;  148.750; 2333.000; 2176.000
469.338;  248.850; 2935.000; 3051.000
469.457;  187.875; 2719.000; 2545.000
469.576;  329.725; 3953.000; 3784.000
469.695;  248.750; 2877.000; 3066.000
469.813;  412.800; 4148.000; 4192.000
469.932;  396.375; 4255.000; 4485.000
470.051;  413.700; 4075.000; 4161.000
470.169;  840.450; 4470.000; 4338.000
470.288; 1473.675; 4700.000; 4809.000
470.406;  876.025; 5059.000; 5194.000
470.525;  616.525; 6101.000; 5787.000
470.644;  648.850; 6847.000; 6794.000
470.762;  791.475; 8397.000; 7873.000
470.881;  906.750; 8651.000; 8464.000
470.999; 1045.575; 9685.000; 9151.000
471.118; 1094.725;11174.000;10711.000

