
Integration time [ms]: 200.000
Averaging Nr. [scans]: 10
Smoothing Nr. [pixels]: 0
Data measured with spectrometer [name]: 2101012U2
Wave   ;Sample   ;Dark     ;Reference
[nm]   ;[counts] ;[counts] ;[counts] 

197.733;  114.100;  516.000;  404.000
197.879; -133.000; -610.000; -634.000
198.025; -106.500; -475.000; -420.000
198.171; -139.200; -602.000; -612.000
198.317;  -80.800; -401.000; -316.000
198.463; -136.700; -655.000; -404.000
198.609;   55.000;  181.000; -137.000
198.755; -162.500; -644.000; -410.000
198.901; -150.800; -505.000; -424.000
199.047; -125.500; -615.000; -488.000
199.193; -106.600; -230.000; -468.000
199.339;  -92.500; -222.000; -369.000
199.485;   74.300;  330.000;  271.000
199.631;   49.900;  227.000;  310.000
199.777; -119.500; -466.000; -398.000
199.923; -138.200; -610.000; -424.000
200.069;   -2.800; -141.000;  -58.000
200.215;  119.900;  128.000;  453.000
200.361;   72.400;  243.000;  477.000
200.507; -106.900; -600.000; -373.000
200.653;  -60.200; -371.000; -194.000
200.798;  -72.700; -215.000; -125.000
200.944;   -8.300; -146.000;  -41.000
201.090;   79.600;   61.000;  222.000
201.236;  -23.200; -116.000; -158.000
201.382;  257.000;  874.000;  903.000
201.528;    4.700;  -58.000;  -48.000
201.674; -104.700; -386.000; -293.000
201.819; -138.300; -540.000; -439.000
201.965; -161.200; -699.000; -447.000
202.111;  -69.800; -273.000; -226.000
202.257;  -77.000; -250.000; -238.000
202.402;    3.000;   13.000;  -36.000
202.548;  -40.800; -169.000; -116.000
202.694;  197.100;  410.000; -183.000
202.840; -149.600; -603.000; -531.000
202.985; -165.500; -681.000; -639.000
203.131; -204.200; -832.000; -666.000
203.277;  -45.400; -199.000; -262.000
203.423; -104.900; -434.000; -520.000
203.568;  -95.100; -462.000; -237.000
203.714; -136.600; -535.000; -542.000
203.860; -161.800; -682.000; -641.000
204.005;   15.400;  112.000;  167.000
204.151;  151.100;  561.000;  556.000
204.296;  -86.700; -354.000; -221.000
204.442; -167.600; -600.000; -547.000
204.588; -169.600; -592.000; -579.000
204.733;   65.800;  178.000;  168.000
204.879; -270.000;-1018.000; -822.000
205.025;    0.600;  -99.000;  126.000
205.170;  -24.800;  -17.000;   94.000
205.316;  142.800;  438.000;  661.000
205.461; -159.000; -698.000; -554.000
205.607;  166.300;  609.000;  665.000
205.752; -163.900; -626.000; -551.000
205.898; -106.600; -501.000; -391.000
206.043; -125.700; -578.000; -506.000
206.189;  -66.200; -243.000; -285.000
206.334;  208.000;  554.000;  606.000
206.480;  178.100;  409.000;  239.000
206.625; -154.900; -529.000; -552.000
206.771;  -91.000; -451.000; -373.000
206.916;  -81.900; -210.000; -537.000
207.062; -151.800; -545.000; -591.000
207.207; -119.200; -546.000; -443.000
207.353;  133.200;  185.000;  460.000
207.498;   44.200;  196.000;   85.000
207.643; -112.700; -501.000; -370.000
207.789; -274.800;-1069.000; -910.000
207.934; -201.600; -665.000; -713.000
208.080;  -73.100; -154.000;   66.000
208.225;   -6.900;  -22.000;  -57.000
208.370; -157.700; -727.000; -619.000
208.516; -154.900; -741.000; -487.000
208.661;  -75.700; -127.000;  -69.000
208.806;  -38.400; -165.000; -171.000
208.952; -253.000;-1044.000; -731.000
209.097;  158.300;  378.000;  349.000
209.242;  -65.300; -307.000; -382.000
209.387;  137.200;  392.000;  350.000
209.533; -117.500; -321.000; -350.000
209.678;  181.100;  472.000;  543.000
209.823;  -98.600; -408.000; -310.000
209.969; -210.300; -860.000; -757.000
210.114; -198.700; -907.000; -719.000
210.259; -222.800; -939.000; -889.000
210.404;   -8.500; -171.000;  103.000
210.549;   -0.400;  108.000;    3.000
210.695;   -7.700;   -3.000;  -95.000
210.840;   78.600;   94.000;   67.000
210.985; -123.700; -484.000; -303.000
211.130;  175.100;  268.000;  406.000
211.275;   30.500;  207.000;  199.000
211.420;  -81.400; -300.000; -289.000
211.566; -138.400; -536.000; -489.000
211.711;   54.900;  218.000;  157.000
211.856; -126.500; -545.000; -519.000
212.001;   26.800;  151.000;   44.000
212.146;   40.000;  153.000;   49.000
212.291;  -20.700; -210.000; -186.000
212.436;  -14.400; -280.000;   -6.000
212.581; -160.300; -685.000; -653.000
212.726; -151.700; -487.000; -538.000
212.871;  -95.100; -552.000; -217.000
213.016; -294.300;-1172.000;-1029.000
213.161;  122.300;  406.000;  291.000
213.306; -145.300; -435.000; -577.000
213.451; -185.500; -778.000; -689.000
213.596;  -93.700; -455.000; -347.000
213.741; -127.800; -448.000; -538.000
213.886; -151.600; -498.000; -517.000
214.031;  -57.200; -294.000; -124.000
214.176; -111.800; -408.000; -341.000
214.321;  -41.700; -296.000; -157.000
214.466;  -50.400; -163.000;  -43.000
214.611;    3.400;  -61.000;  -10.000
214.756; -263.800; -948.000; -858.000
214.901;  -46.500; -388.000; -226.000
215.046; -220.600; -797.000; -825.000
215.191;   30.900;  128.000;   35.000
215.336;  -38.600; -157.000;  -19.000
215.480; -132.700; -684.000; -505.000
215.625;  -45.700; -175.000;  -19.000
215.770; -164.400; -757.000; -662.000
215.915;    7.500;   -5.000;  -97.000
216.060;    5.200; -113.000;  -21.000
216.205; -203.700; -731.000; -779.000
216.349; -166.900; -470.000; -533.000
216.494; -265.100; -939.000; -867.000
216.639; -230.900; -823.000; -888.000
216.784; -175.900; -577.000; -525.000
216.929;  103.600;  392.000;  281.000
217.073;  -26.200; -244.000;  -31.000
217.218;   23.000;   78.000;  -47.000
217.363; -167.500; -656.000; -618.000
217.507; -132.000; -623.000; -588.000
217.652; -212.700; -845.000; -874.000
217.797; -189.500; -708.000; -659.000
217.942; -225.200; -856.000; -720.000
218.086;  162.600;  608.000;  539.000
218.231;  -41.300; -174.000;  -26.000
218.376;  -80.400; -337.000; -229.000
218.520;   31.600;  -41.000;   96.000
218.665;  -53.200; -338.000; -204.000
218.810;  -84.700; -275.000; -233.000
218.954;   34.700;  201.000;   35.000
219.099; -222.500; -713.000; -963.000
219.243; -124.800; -589.000; -554.000
219.388;  -48.600; -264.000; -136.000
219.532;  -25.700; -116.000; -116.000
219.677; -145.600; -564.000; -521.000
219.822;   12.700;   33.000;   89.000
219.966;   32.500;   17.000;  -99.000
220.111;  -78.800; -328.000;  -40.000
220.255; -206.600; -797.000; -750.000
220.400;  -23.800; -180.000; -146.000
220.544; -136.800; -516.000; -450.000
220.689;  -99.300; -422.000; -451.000
220.833;  -32.800; -123.000;  -58.000
220.978; -100.700; -393.000; -563.000
221.122;   41.100;  319.000;  307.000
221.267; -223.000; -906.000; -837.000
221.411; -138.700; -478.000; -394.000
221.555;   18.900; -104.000;  -23.000
221.700;  -73.500; -329.000; -222.000
221.844;   98.600;  255.000;  272.000
221.989;  -65.000; -328.000; -311.000
222.133;  -56.800; -289.000; -307.000
222.277;    0.200;    5.000;   78.000
222.422;   29.600;  227.000;  113.000
222.566;  -87.400; -381.000; -214.000
222.711;  -95.700; -414.000; -479.000
222.855; -138.100; -643.000; -586.000
222.999; -157.600; -642.000; -717.000
223.144;  -61.900; -195.000; -194.000
223.288;  118.100;  423.000;  251.000
223.432;   35.000;  184.000;  230.000
223.576;   67.000;  152.000;  -21.000
223.721;   54.300;  364.000;  273.000
223.865;  -96.200; -472.000; -475.000
224.009;  501.500; 1673.000; 1631.000
224.153; -171.800; -660.000; -671.000
224.298; -142.700; -531.000; -489.000
224.442;   -5.700;  -74.000;  -33.000
224.586;    8.300; -169.000; -106.000
224.730; -206.100; -858.000; -670.000
224.875; -230.000; -739.000; -688.000
225.019;   36.400;  102.000;  188.000
225.163;  121.000;  208.000;  341.000
225.307;   44.200;   97.000;  -91.000
225.451;   99.300;  360.000;  481.000
225.595;   56.700;  264.000;  176.000
225.739;  -42.900; -170.000;  -94.000
225.884;    6.200;   86.000;    5.000
226.028; -165.800; -760.000; -626.000
226.172;  -42.700; -260.000; -273.000
226.316; -204.100; -941.000; -902.000
226.460; -109.300; -645.000; -493.000
226.604;  -70.700; -406.000; -400.000
226.748; -211.000; -836.000; -733.000
226.892;  -85.700; -227.000; -181.000
227.036; -112.300; -537.000; -447.000
227.180; -105.000; -551.000; -375.000
227.324; -144.200; -561.000; -580.000
227.468; -237.800; -819.000; -717.000
227.612;   27.100;  242.000;  -28.000
227.756; -175.400; -845.000; -698.000
227.900;  115.900;  342.000;  441.000
228.044; -114.600; -509.000; -290.000
228.188;  136.600;  448.000;  568.000
228.332; -183.400; -546.000; -472.000
228.476;  -35.500; -223.000; -149.000
228.620;  -25.000; -210.000; -150.000
228.764;  148.600;  431.000;  349.000
228.908;  -46.800; -155.000;   30.000
229.052; -118.400; -615.000; -528.000
229.195;   12.000; -172.000;   13.000
229.339;  -37.900; -235.000; -305.000
229.483;  -34.800;    5.000; -162.000
229.627;    9.400; -156.000;  139.000
229.771; -116.700; -218.000; -294.000
229.915;   29.000;  230.000;   79.000
230.059; -159.500; -648.000; -663.000
230.202;  -87.100; -370.000; -317.000
230.346;  -31.700; -107.000;  107.000
230.490; -121.200; -489.000; -521.000
230.634; -204.400; -736.000; -553.000
230.777;  179.800;  478.000;  509.000
230.921;  -79.700; -450.000; -359.000
231.065;  -85.000; -246.000; -286.000
231.209;   60.000;  261.000;  265.000
231.352;   47.700;   54.000;   40.000
231.496;   33.200;  568.000;  188.000
231.640; -157.800; -693.000; -621.000
231.783;  139.300;  546.000;  525.000
231.927;  -66.300; -294.000; -365.000
232.071; -230.800; -962.000; -736.000
232.214; -234.100; -980.000; -764.000
232.358; -183.500; -683.000; -599.000
232.502;   -2.000;  -19.000;    7.000
232.645; -265.500;-1090.000; -927.000
232.789;  -49.900; -257.000; -218.000
232.933;  -99.500; -407.000; -224.000
233.076; -252.300;-1038.000; -897.000
233.220; -231.600; -752.000; -777.000
233.363; -135.300; -669.000; -477.000
233.507;  160.600;  371.000;  129.000
233.650; -197.600; -764.000; -834.000
233.794;   87.000;  438.000;  461.000
233.938; -140.400; -530.000; -362.000
234.081;  -10.600;  -93.000;   31.000
234.225; -115.100; -631.000; -539.000
234.368; -213.100; -773.000; -723.000
234.512; -103.300; -385.000; -299.000
234.655; -191.500; -582.000; -555.000
234.798; -131.100; -493.000; -466.000
234.942; -246.300; -884.000;-1002.000
235.085; -154.800; -651.000; -443.000
235.229; -130.700; -405.000; -410.000
235.372;  -52.100; -247.000; -191.000
235.516;  -91.300; -397.000; -321.000
235.659;   21.300;   92.000;  121.000
235.802;   27.300;  -38.000;  -22.000
235.946;   63.100;  335.000;  215.000
236.089;   84.000;  126.000;  250.000
236.233;  120.900;  275.000;  298.000
236.376;  -61.800; -235.000; -378.000
236.519;  -73.900; -297.000; -319.000
236.663;  -11.200; -215.000; -117.000
236.806; -283.500;-1029.000; -999.000
236.949;  147.200;  543.000;  431.000
237.092;  124.500;  412.000;  391.000
237.236; -156.900; -589.000; -502.000
237.379;  132.800;  352.000;  428.000
237.522; -231.000; -879.000; -768.000
237.666;  -21.600; -271.000;   18.000
237.809; -229.900; -851.000; -823.000
237.952;   92.300;  469.000;  271.000
238.095; -117.300; -447.000; -442.000
238.238;  191.000;  688.000;  700.000
238.382;   33.700;  166.000;  103.000
238.525; -133.500; -598.000; -511.000
238.668; -268.600;-1060.000; -985.000
238.811; -160.900; -638.000; -643.000
238.954; -122.300; -483.000; -334.000
239.097;  176.500;  617.000;  664.000
239.241;   75.200;  394.000;  326.000
239.384;  -47.100; -254.000; -214.000
239.527; -127.200; -424.000; -224.000
239.670; -282.800; -994.000;-1091.000
239.813; -205.800; -696.000; -658.000
239.956;  197.000;  579.000;  473.000
240.099; -217.600; -778.000; -725.000
240.242;  147.200;  428.000;  432.000
240.385;  103.500;  466.000;  450.000
240.528; -146.300; -706.000; -473.000
240.671;   38.600;  189.000;  134.000
240.814;  -83.200; -441.000; -158.000
240.957; -167.000; -767.000; -578.000
241.100; -183.600; -779.000; -755.000
241.243; -276.000;-1234.000; -893.000
241.386; -109.400; -508.000; -379.000
241.529; -171.300; -735.000; -547.000
241.672; -119.900; -566.000; -495.000
241.815; -241.500; -832.000; -808.000
241.958;  -37.900; -125.000; -182.000
242.101; -140.300; -545.000; -390.000
242.244;  -84.200; -270.000; -325.000
242.387;  -62.200; -304.000; -246.000
242.530;  153.300;  470.000;  134.000
242.673;  -90.600; -381.000; -309.000
242.815; -240.900; -925.000; -899.000
242.958; -133.200; -482.000; -381.000
243.101;   25.900;  132.000;  187.000
243.244; -163.300; -564.000; -521.000
243.387;  -81.500; -313.000; -316.000
243.530; -187.200; -657.000; -674.000
243.672;  -11.600;   43.000;  -92.000
243.815;  -79.100; -355.000; -283.000
243.958;   14.400;   98.000;  -26.000
244.101;   10.800;   59.000;  -16.000
244.243;  -13.700;  -47.000;  101.000
244.386; -216.300; -761.000; -630.000
244.529;  -79.300; -132.000; -139.000
244.672; -302.600;-1154.000; -951.000
244.814; -200.200; -621.000; -794.000
244.957; -108.600; -380.000; -304.000
245.100; -139.900; -489.000; -489.000
245.242; -114.700; -387.000; -374.000
245.385;    8.800;  -59.000;  -39.000
245.528; -233.000; -871.000; -705.000
245.670;  203.100;  612.000;  634.000
245.813; -160.100; -599.000; -547.000
245.956;  -74.600; -324.000; -275.000
246.098; -140.000; -508.000; -650.000
246.241;    5.200;  194.000;   48.000
246.383;  -35.300; -119.000;  -73.000
246.526; -148.000; -454.000; -525.000
246.669; -216.600; -889.000; -780.000
246.811;   -5.000;  172.000;   -1.000
246.954; -144.500; -512.000; -426.000
247.096;  -19.100;  -84.000;   -6.000
247.239; -152.900; -482.000; -445.000
247.381; -133.500; -647.000; -488.000
247.524;  219.800;  645.000;  679.000
247.666;  -23.800;   58.000;   11.000
247.809; -227.800; -887.000; -691.000
247.951;  -25.200;  -75.000;  138.000
248.094;   72.800;  432.000;  308.000
248.236; -310.800;-1262.000;-1238.000
248.378;  -31.200; -356.000;  -81.000
248.521;  -77.900; -334.000; -337.000
248.663;  -61.800; -236.000; -267.000
248.806;  -43.300; -300.000; -266.000
248.948; -227.000; -886.000; -763.000
249.090; -114.900; -428.000; -398.000
249.233; -120.000; -344.000; -381.000
249.375; -108.400; -474.000; -451.000
249.518;  -36.200;  -83.000; -133.000
249.660;  -17.300; -103.000;    3.000
249.802; -364.700;-1303.000;-1189.000
249.945; -129.600; -612.000; -540.000
250.087; -213.600; -834.000; -768.000
250.229; -109.800; -362.000; -480.000
250.371; -125.000; -494.000; -439.000
250.514; -101.500; -310.000; -244.000
250.656;   25.800;   69.000;  102.000
250.798; -230.600; -849.000; -800.000
250.940;  -95.800; -322.000; -322.000
251.083;  -72.100; -335.000; -111.000
251.225;  156.300;  338.000;  310.000
251.367;  -67.700; -274.000; -373.000
251.509;  -62.300; -265.000; -210.000
251.651; -175.000; -731.000; -671.000
251.794;  129.700;  538.000;  632.000
251.936; -217.200; -821.000; -747.000
252.078; -146.000; -540.000; -461.000
252.220; -141.600; -645.000; -477.000
252.362;  127.400;  344.000;  462.000
252.504; -174.100; -677.000; -584.000
252.646; -234.600; -875.000; -722.000
252.788;  -18.800;   14.000; -128.000
252.931;  -74.200; -257.000; -253.000
253.073;  -71.100; -376.000; -317.000
253.215;   43.800;  141.000;  122.000
253.357;  -22.000;   82.000; -153.000
253.499; -111.900; -374.000; -234.000
253.641; -182.400; -749.000; -594.000
253.783; -178.700; -609.000; -527.000
253.925; -164.700; -586.000; -591.000
254.067; -203.000; -744.000; -667.000
254.209;  -72.400; -391.000; -259.000
254.351; -273.400; -865.000; -883.000
254.493; -128.800; -441.000; -417.000
254.635; -238.900; -936.000; -818.000
254.777; -175.800; -752.000; -687.000
254.918; -157.500; -512.000; -430.000
255.060; -101.000; -551.000; -395.000
255.202;  -95.900; -473.000; -261.000
255.344; -130.400; -658.000; -455.000
255.486; -111.900; -471.000; -406.000
255.628; -217.400; -780.000; -781.000
255.770; -177.300; -676.000; -536.000
255.912; -131.500; -559.000; -468.000
256.053; -164.400; -730.000; -508.000
256.195;  338.600; 1008.000;  903.000
256.337; -219.900; -861.000; -595.000
256.479;  129.900;  532.000;  416.000
256.621;  -69.500; -394.000; -212.000
256.762; -177.100; -789.000; -742.000
256.904;  131.000;  485.000;  487.000
257.046;  -86.900; -381.000; -271.000
257.188;  -62.900; -351.000; -264.000
257.329; -115.200; -525.000; -464.000
257.471; -238.600; -939.000; -807.000
257.613; -130.100; -584.000; -498.000
257.755; -277.400;-1073.000; -982.000
257.896;   68.500;  286.000;  392.000
258.038; -112.800; -403.000; -352.000
258.180;  -54.800; -354.000; -279.000
258.321; -111.200; -581.000; -457.000
258.463;   -6.800;  -71.000;  133.000
258.605; -152.600; -562.000; -570.000
258.746; -178.400; -886.000; -772.000
258.888; -285.200;-1026.000;-1020.000
259.029;   53.500;  121.000;   -8.000
259.171; -153.900; -614.000; -550.000
259.313;   -7.000;  -49.000;  -47.000
259.454; -140.300; -536.000; -414.000
259.596; -106.000; -483.000; -390.000
259.737; -146.200; -590.000; -474.000
259.879;   54.100;  217.000;  311.000
260.020;  180.600;  901.000;  636.000
260.162;  -41.300; -146.000; -253.000
260.303; -225.300; -768.000; -687.000
260.445; -144.700; -609.000; -613.000
260.586;   74.400;  392.000;  157.000
260.728;  -73.500; -360.000; -248.000
260.869; -115.900; -350.000; -343.000
261.011;  185.400;  706.000;  537.000
261.152; -137.400; -479.000; -319.000
261.293; -154.500; -576.000; -595.000
261.435;  -48.400; -219.000; -184.000
261.576; -120.500; -455.000; -325.000
261.718;  127.900;  420.000;  470.000
261.859; -247.500; -940.000; -949.000
262.000; -247.700; -951.000;-1016.000
262.142;  -16.000;  -52.000;  -60.000
262.283; -206.000; -808.000; -691.000
262.424; -191.500; -666.000; -625.000
262.566; -268.300;-1161.000; -983.000
262.707; -187.600; -840.000; -830.000
262.848; -233.900; -769.000; -726.000
262.990;  -72.500; -362.000; -345.000
263.131;  184.300;  650.000;  681.000
263.272;  -40.800;  -61.000;  -41.000
263.413; -155.500; -589.000; -561.000
263.555; -137.200; -669.000; -143.000
263.696; -176.200; -550.000; -641.000
263.837;  -91.100; -449.000; -551.000
263.978;    8.300;   -5.000;  -77.000
264.119;  -68.300; -283.000; -264.000
264.261; -207.400; -847.000; -630.000
264.402;    0.500;   33.000;   40.000
264.543; -152.100; -509.000; -524.000
264.684;  -11.600;   61.000;  -50.000
264.825; -121.700; -816.000; -538.000
264.966;    6.600;  -84.000;  -67.000
265.107; -220.500; -646.000; -670.000
265.248; -237.600; -825.000; -812.000
265.390;    1.200;  152.000;   -9.000
265.531;  -63.900; -238.000; -107.000
265.672; -162.600; -557.000; -630.000
265.813;  136.900;  563.000;  439.000
265.954; -264.900; -959.000; -940.000
266.095;  -40.100; -372.000; -322.000
266.236; -172.000; -686.000; -548.000
266.377;  -77.000; -243.000; -297.000
266.518; -135.500; -619.000; -547.000
266.659;   47.000;  170.000;  268.000
266.800;   21.500;   83.000;   85.000
266.941; -157.700; -487.000; -478.000
267.082;   52.400;  354.000;   99.000
267.223;  -86.600; -344.000; -273.000
267.364; -221.200; -892.000; -686.000
267.504;  -31.300;    3.000;  135.000
267.645;   22.700;  160.000;   67.000
267.786;  -63.300; -147.000;  -86.000
267.927; -134.500; -473.000; -379.000
268.068;  -38.400; -186.000;  -61.000
268.209; -106.400; -175.000; -413.000
268.350;  -48.800; -388.000; -532.000
268.490; -172.100; -648.000; -521.000
268.631;   71.100;  127.000;  225.000
268.772; -213.700; -874.000; -647.000
268.913; -109.800; -328.000; -476.000
269.054;  -29.300; -117.000;   12.000
269.194;  -89.600; -418.000; -402.000
269.335; -286.600;-1137.000;-1074.000
269.476;  -10.800;   33.000;  -35.000
269.617; -102.900; -347.000; -392.000
269.757; -179.500; -713.000; -646.000
269.898; -190.000; -856.000; -613.000
270.039; -112.300; -415.000; -405.000
270.180; -257.100; -952.000; -816.000
270.320;  -18.200; -190.000; -250.000
270.461;  -60.000; -277.000; -249.000
270.602;  -24.600; -186.000; -156.000
270.742; -269.200; -868.000; -943.000
270.883;  -96.600; -442.000; -390.000
271.023;  -77.700; -358.000; -357.000
271.164; -162.600; -607.000; -528.000
271.305; -190.600; -666.000; -654.000
271.445; -177.200; -722.000; -683.000
271.586; -130.800; -462.000; -283.000
271.726;  -82.800; -397.000; -322.000
271.867; -141.000; -594.000; -534.000
272.008;   72.600; -473.000; -285.000
272.148;  152.700;  462.000;  468.000
272.289;  -20.000; -113.000; -181.000
272.429;    8.500;   19.000;  185.000
272.570; -182.600; -633.000; -737.000
272.710; -173.200; -825.000; -775.000
272.851;  -64.400;  113.000; -130.000
272.991; -312.100;-1173.000;-1077.000
273.131; -138.300; -419.000; -459.000
273.272; -181.500; -683.000; -723.000
273.412;  -25.300; -143.000;  -31.000
273.553; -140.000; -488.000; -507.000
273.693;  291.200;  913.000;  858.000
273.834; -202.900; -894.000; -692.000
273.974; -146.300; -664.000; -615.000
274.114; -202.400; -772.000; -560.000
274.255;  120.700;  414.000;  373.000
274.395;  -17.100; -180.000; -125.000
274.535;   82.200;  199.000;  350.000
274.676;   61.700;  225.000;   94.000
274.816;  -25.500;  110.000;   34.000
274.956; -182.100; -624.000; -690.000
275.097; -208.300;-1014.000; -922.000
275.237; -218.200; -913.000; -803.000
275.377; -217.700; -778.000; -689.000
275.517; -309.200; -878.000; -937.000
275.658; -147.400; -590.000; -555.000
275.798; -139.900; -606.000; -413.000
275.938;   30.200;  215.000;  323.000
276.078; -181.800; -626.000; -395.000
276.218;   17.200;   99.000;  104.000
276.359; -245.000;-1026.000;-1024.000
276.499; -131.700; -605.000; -446.000
276.639;  -48.400; -305.000; -151.000
276.779; -104.000; -475.000; -357.000
276.919; -220.500; -783.000; -624.000
277.059;  -22.400; -261.000; -212.000
277.199;  -62.900; -357.000; -259.000
277.340;   57.300;  287.000;  175.000
277.480; -203.700; -840.000; -693.000
277.620;   41.900;  192.000;   16.000
277.760; -379.100;-1533.000;-1294.000
277.900;   33.500;  113.000;   33.000
278.040;   28.800;  137.000;  159.000
278.180;   51.500;  270.000;  170.000
278.320;   32.400;   21.000;   56.000
278.460; -149.300; -443.000; -469.000
278.600; -139.200; -708.000; -598.000
278.740;  120.300;  448.000;  224.000
278.880; -170.300; -768.000; -791.000
279.020;  -35.500; -194.000; -144.000
279.160; -158.900; -672.000; -595.000
279.300; -248.400; -926.000; -873.000
279.440; -197.500; -709.000; -622.000
279.579; -170.600;-1014.000; -929.000
279.719;  -92.100; -410.000; -394.000
279.859;   97.500;   -4.000;   41.000
279.999;   26.100; -208.000;  101.000
280.139;  -85.900; -435.000; -387.000
280.279; -159.600; -708.000; -745.000
280.419;    0.100; -229.000; -147.000
280.559;  -76.600; -259.000; -180.000
280.698; -152.300; -790.000; -639.000
280.838; -180.900; -778.000; -800.000
280.978; -227.100; -846.000; -790.000
281.118; -216.400; -811.000; -704.000
281.257;   21.700;   24.000;    6.000
281.397; -233.600;-1094.000; -960.000
281.537; -191.400; -599.000; -712.000
281.677;  -32.200; -150.000; -101.000
281.816; -138.000; -700.000; -630.000
281.956;  -47.100; -193.000; -257.000
282.096; -108.800; -539.000; -396.000
282.235; -197.900; -672.000; -638.000
282.375;   -7.000; -243.000;  -98.000
282.515; -142.100; -715.000; -707.000
282.654;   36.400;   29.000;  106.000
282.794;   55.000;  388.000;  244.000
282.934; -107.700; -530.000; -491.000
283.073; -245.800;-1030.000; -857.000
283.213; -105.700; -460.000; -467.000
283.353;  -84.000; -408.000; -349.000
283.492;  -15.100; -264.000; -296.000
283.632;  -77.400; -254.000; -168.000
283.771; -188.800; -859.000; -730.000
283.911;  -70.100; -369.000; -260.000
284.050; -217.600; -794.000; -748.000
284.190; -298.800;-1229.000;-1096.000
284.329; -279.900;-1055.000; -964.000
284.469; -176.200; -516.000; -591.000
284.608; -109.700; -559.000; -598.000
284.748; -149.000; -614.000; -570.000
284.887;   21.500;  -87.000;  -20.000
285.027; -230.800; -844.000; -892.000
285.166;  -32.700; -192.000; -249.000
285.306;  -10.000; -116.000;  -33.000
285.445;  -71.400; -229.000; -343.000
285.584; -186.800; -630.000; -494.000
285.724;  -71.400; -282.000; -322.000
285.863; -202.900; -857.000; -507.000
286.002; -105.100; -366.000; -276.000
286.142; -194.900; -715.000; -622.000
286.281; -140.400; -525.000; -493.000
286.420; -150.800; -554.000; -417.000
286.560;  221.400;  653.000;  623.000
286.699; -247.800; -958.000; -912.000
286.838; -151.900; -590.000; -591.000
286.978; -168.100; -533.000; -537.000
287.117; -257.300;-1085.000; -950.000
287.256;  -42.700; -228.000; -211.000
287.395; -100.700; -197.000; -378.000
287.535;  -93.300; -370.000; -298.000
287.674; -179.600; -509.000; -484.000
287.813;  125.200;  661.000;  533.000
287.952; -249.800;-1010.000; -871.000
288.091; -312.600;-1049.000; -915.000
288.231;   26.400;   13.000;   15.000
288.370; -367.600;-1217.000;-1200.000
288.509; -170.300; -728.000; -645.000
288.648; -151.000; -770.000; -548.000
288.787;  -35.900; -243.000;  -87.000
288.926; -130.600; -454.000; -475.000
289.065;  225.200;  859.000;  672.000
289.204;  -87.600; -377.000; -217.000
289.344; -189.400; -791.000; -690.000
289.483;   58.200;  416.000;  304.000
289.622;  -59.400; -291.000; -149.000
289.761;  -12.700; -309.000; -166.000
289.900; -212.600; -785.000; -626.000
290.039;   -3.400;  -12.000;  -95.000
290.178;  -38.800; -274.000; -180.000
290.317; -161.900; -618.000; -479.000
290.456; -111.900; -463.000; -451.000
290.595; -272.100; -961.000; -833.000
290.734; -266.800; -904.000; -891.000
290.873; -106.800; -456.000; -420.000
291.011; -224.200; -833.000; -843.000
291.150; -209.700; -770.000; -682.000
291.289;  -46.100; -343.000; -110.000
291.428; -192.900; -599.000; -480.000
291.567; -103.400; -370.000; -442.000
291.706;   24.700;  109.000;  154.000
291.845; -168.600; -597.000; -505.000
291.984; -327.200;-1234.000;-1061.000
292.122;  182.700;  602.000;  582.000
292.261;  120.400;  620.000;  463.000
292.400;   59.500; -144.000;  211.000
292.539; -222.500; -959.000; -813.000
292.678;  -63.900; -325.000; -300.000
292.816; -293.400;-1136.000; -965.000
292.955; -178.700; -844.000; -684.000
293.094;  -49.500; -173.000; -337.000
293.233; -104.800; -556.000; -400.000
293.371;  -36.200; -225.000;  -84.000
293.510; -199.800; -866.000; -780.000
293.649; -270.400; -959.000; -924.000
293.787; -221.000;-1083.000;-1012.000
293.926;    5.000; -113.000;  -32.000
294.065;  -97.400; -379.000; -290.000
294.203;   85.600;  298.000;  406.000
294.342;   46.400;   74.000;  156.000
294.481;11622.800;51180.000; -836.000
294.619;  -72.000; -425.000; -582.000
294.758; -317.700;-1230.000;-1137.000
294.896;   58.400; -125.000;    5.000
295.035; -291.300;-1040.000;-1006.000
295.174; -251.300;-1082.000; -954.000
295.312;  -73.100; -323.000; -203.000
295.451;  -83.000; -307.000; -428.000
295.589;  -85.700; -389.000; -518.000
295.728;   29.400; -292.000; -165.000
295.866;    8.800;  -36.000;  -51.000
296.005; -146.700; -584.000; -341.000
296.143; -138.300; -558.000; -596.000
296.282; -200.100; -957.000; -881.000
296.420; -127.800; -657.000; -557.000
296.559; -187.800; -892.000; -633.000
296.697;  -47.700; -847.000; -665.000
296.835; -120.300;-1141.000;-1002.000
296.974;   90.900;  -23.000;   39.000
297.112;  -53.100; -443.000; -504.000
297.251; -151.900; -815.000; -755.000
297.389;  -30.500; -576.000; -438.000
297.527;   51.700; -145.000;  -83.000
297.666; -137.900; -486.000; -438.000
297.804;  -95.200; -404.000; -264.000
297.942;   -6.900; -136.000; -161.000
298.081;   -9.400; -183.000;   63.000
298.219;   45.900;  -17.000;  -19.000
298.357;   11.200; -144.000;  -71.000
298.495;  -69.800; -810.000; -812.000
298.634;   88.700;  245.000;  219.000
298.772;  -23.400; -220.000; -338.000
298.910;  -80.900; -309.000; -182.000
299.048;  -12.900; -130.000; -153.000
299.187;  -83.200; -350.000; -250.000
299.325;   45.400;   52.000;  122.000
299.463;  -45.200; -389.000; -299.000
299.601;   19.200; -327.000; -271.000
299.739; -230.700; -908.000; -883.000
299.877; -180.200; -791.000; -703.000
300.016; -237.400;-1095.000; -935.000
300.154;  133.500;  -19.000; -161.000
300.292;  -30.100; -428.000; -348.000
300.430;  -62.900; -408.000; -291.000
300.568; -237.700; -940.000; -874.000
300.706; -110.500; -366.000; -469.000
300.844; -255.400;-1108.000; -979.000
300.982;  141.500;  246.000;  282.000
301.120; -251.600; -965.000; -866.000
301.258; -149.200; -812.000; -705.000
301.396;   58.800;  104.000;  -41.000
301.534;  -25.100; -218.000; -293.000
301.672; -136.300; -664.000; -521.000
301.810; -123.300; -613.000; -545.000
301.948;  126.200;   53.000;  149.000
302.086;  404.700; -250.000;  -32.000
302.224;  584.700; -610.000; -585.000
302.362;  -61.600; -558.000; -622.000
302.500; -167.200; -923.000; -893.000
302.638;  105.900;  128.000;  245.000
302.776;  -12.200; -352.000; -408.000
302.913;  101.700;  447.000;  236.000
303.051;  -28.700;  -86.000;  -23.000
303.189;   72.700;   90.000;  118.000
303.327;  -65.800; -341.000; -256.000
303.465; -144.400; -832.000; -588.000
303.603; -188.300; -805.000; -604.000
303.740;  138.100;  417.000;  241.000
303.878; -111.200; -800.000; -759.000
304.016; -198.300; -915.000; -790.000
304.154; -286.800;-1123.000;-1152.000
304.291; -109.300; -505.000; -554.000
304.429;   43.600;  102.000;   74.000
304.567; -240.400; -908.000; -893.000
304.705;  -90.200; -408.000; -515.000
304.842;  -41.600; -616.000; -540.000
304.980;   71.000;  215.000;   35.000
305.118;  -42.500; -367.000; -365.000
305.255; -212.100; -945.000; -927.000
305.393;   99.900;  178.000;  239.000
305.531; -249.400;-1173.000; -956.000
305.668; -148.500; -663.000; -582.000
305.806;    3.500; -358.000; -439.000
305.943;  -27.200; -629.000; -637.000
306.081;  -27.100; -378.000; -267.000
306.219; -201.600; -863.000; -748.000
306.356;   40.600;  158.000;   27.000
306.494;  287.200;  981.000;  761.000
306.631;   77.700;  -11.000;  -55.000
306.769;  -44.000; -613.000; -485.000
306.906;  -16.300; -284.000; -258.000
307.044;  -86.300; -473.000; -488.000
307.181;  -64.200; -410.000; -332.000
307.319;  156.200;  112.000;   87.000
307.456; -314.600;-1191.000;-1153.000
307.594; -209.900; -980.000; -727.000
307.731;  -19.600; -371.000; -164.000
307.868;   35.900;  -15.000;   20.000
308.006; -224.500; -961.000; -847.000
308.143; -116.200; -618.000; -330.000
308.281;  131.200;  -37.000; -254.000
308.418;  -78.400; -748.000; -640.000
308.555; -119.600; -400.000; -250.000
308.693; -109.500; -577.000; -573.000
308.830; -164.700; -712.000; -657.000
308.967;  -20.100; -215.000;  -95.000
309.105;    0.900; -507.000; -396.000
309.242;   38.200; -468.000; -367.000
309.379;  231.100; -577.000; -655.000
309.517; -144.200; -936.000; -948.000
309.654; -192.200; -910.000; -734.000
309.791;  -91.900; -662.000; -580.000
309.928; -200.600; -977.000; -914.000
310.065;  358.700;  819.000;  697.000
310.203; -137.900; -825.000; -850.000
310.340;  -15.400; -465.000; -321.000
310.477; -141.200; -412.000; -516.000
310.614; -104.600; -383.000; -473.000
310.751;  -94.100; -427.000; -518.000
310.889;   -9.400;    1.000;   11.000
311.026; -259.300;-1161.000; -939.000
311.163;  -24.100; -386.000; -380.000
311.300; -119.000; -512.000; -479.000
311.437; -104.200; -658.000; -619.000
311.574; -267.500;-1226.000; -985.000
311.711; -122.000; -595.000; -433.000
311.848;  -36.400; -380.000; -388.000
311.985;   66.000;  270.000;   93.000
312.122; -195.900; -932.000; -762.000
312.259; -201.200; -941.000; -994.000
312.396; -110.900; -508.000; -551.000
312.533; -131.000; -812.000; -790.000
312.670; -226.900;-1070.000; -898.000
312.807;  -33.500; -352.000; -367.000
312.944;  -94.900; -513.000; -611.000
313.081;  -48.400; -150.000; -415.000
313.218; -214.500;-1111.000; -867.000
313.355;  -10.700; -531.000; -449.000
313.492;  -11.400; -455.000; -292.000
313.629;  242.000;  815.000;  735.000
313.766; -292.400;-1176.000;-1008.000
313.902;   22.100; -186.000;   21.000
314.039;  -35.800; -372.000; -289.000
314.176;   86.700;  286.000;  192.000
314.313; -118.700; -569.000; -473.000
314.450; -151.800; -788.000; -684.000
314.587;  -77.300; -468.000; -480.000
314.723;   14.100;  -78.000;  130.000
314.860;  143.900;  318.000;  332.000
314.997;   86.600;  223.000;  142.000
315.134;  -38.800; -385.000; -368.000
315.270; -126.900; -480.000; -496.000
315.407; -229.600;-1094.000; -967.000
315.544; -112.800; -657.000; -538.000
315.681; -114.400; -681.000; -565.000
315.817;   51.300; -133.000; -176.000
315.954;  -62.200; -613.000; -392.000
316.091; -270.000;-1045.000;-1023.000
316.227;  -19.900;  -71.000; -179.000
316.364;   12.700;   23.000;    6.000
316.500;  -41.100; -113.000; -300.000
316.637;  -57.800; -181.000; -302.000
316.774; -105.800; -625.000; -358.000
316.910; -158.800; -598.000; -629.000
317.047; -108.700; -487.000; -351.000
317.183; -112.000; -435.000; -566.000
317.320;  -63.100; -367.000; -321.000
317.456; -159.700; -733.000; -805.000
317.593; -126.100; -598.000; -641.000
317.729;   33.900;  168.000;  -67.000
317.866; -388.400;-1434.000;-1285.000
318.002; -167.200; -708.000; -948.000
318.139; -193.600; -883.000; -867.000
318.275; -213.700;-1003.000; -738.000
318.412; -119.300; -517.000; -336.000
318.548; -112.900; -751.000; -720.000
318.685; -199.800; -985.000; -888.000
318.821; -163.400; -762.000; -735.000
318.957;  -33.900;   34.000;  -23.000
319.094;   79.700;  297.000;  154.000
319.230; -163.500; -756.000; -742.000
319.367;   67.400; -471.000; -520.000
319.503;   13.600; -538.000; -436.000
319.639; -201.800; -877.000; -793.000
319.775; -169.000; -750.000; -685.000
319.912;  -86.200; -424.000; -519.000
320.048; -260.000;-1184.000;-1184.000
320.184;   99.900;   59.000;   70.000
320.321; -109.200; -497.000; -467.000
320.457;  147.500;  475.000;  662.000
320.593; -119.400; -375.000; -382.000
320.729; -224.500; -732.000; -734.000
320.866; -136.200; -577.000; -635.000
321.002; -183.200; -759.000; -809.000
321.138;  -53.000; -135.000; -211.000
321.274;   75.200; -148.000; -115.000
321.410; -114.600; -585.000; -353.000
321.546; -182.400;-1011.000; -911.000
321.683;   87.800;  400.000;  185.000
321.819;    6.000;  -48.000; -117.000
321.955; -207.500; -743.000; -722.000
322.091;  -79.800; -585.000; -540.000
322.227;  -24.400; -382.000; -202.000
322.363;  -57.600; -320.000; -215.000
322.499;  -83.600; -343.000; -331.000
322.635;  230.200;  636.000;  443.000
322.771;   17.700; -139.000;   12.000
322.907;  144.700;  129.000;  327.000
323.043;  -35.300; -115.000; -206.000
323.179;  -71.400; -394.000; -363.000
323.315;  -44.500; -401.000; -371.000
323.451;   -6.000; -328.000; -236.000
323.587;   16.200;  -60.000;  -77.000
323.723;  -84.000; -682.000; -601.000
323.859;  -38.400; -258.000;  -76.000
323.995; -100.100; -467.000; -409.000
324.131; -233.800; -967.000; -892.000
324.267;  -68.900; -254.000; -276.000
324.402; -235.100; -960.000; -983.000
324.538;  -68.500; -279.000; -104.000
324.674;   47.300;  164.000;   77.000
324.810;  173.500;  226.000;  308.000
324.946;  -59.800; -810.000; -658.000
325.082; -148.500; -568.000; -475.000
325.217;   -5.700;  -62.000;   16.000
325.353; -183.200; -764.000; -659.000
325.489; -144.100; -540.000; -506.000
325.625; -147.700; -579.000; -525.000
325.760;  117.200;  517.000;  376.000
325.896;  -80.600; -515.000; -702.000
326.032;  -90.200; -403.000; -352.000
326.168; -111.400; -462.000; -369.000
326.303; -100.100; -352.000; -461.000
326.439;  -52.800; -336.000; -276.000
326.575;  -22.700; -190.000;  -29.000
326.710;   23.200; -156.000;  -30.000
326.846;   33.300;  146.000;  103.000
326.982; -177.800; -530.000; -548.000
327.117; -122.900; -481.000; -442.000
327.253; -190.800; -745.000; -742.000
327.388; -319.900;-1137.000;-1153.000
327.524; -124.600; -811.000; -578.000
327.659;  -18.700;  -58.000;  -22.000
327.795;   21.700;   69.000;   45.000
327.931; -162.200; -723.000; -499.000
328.066;  -32.300; -417.000; -276.000
328.202;  -13.300;   12.000; -129.000
328.337;  220.900;  957.000;  713.000
328.473;   -6.300;  -12.000;  -74.000
328.608;  -34.100; -256.000; -267.000
328.743; -186.300; -799.000; -664.000
328.879;   49.000;  214.000;  114.000
329.014; -117.600; -102.000; -122.000
329.150; -136.100; -358.000; -483.000
329.285; -158.200; -465.000; -466.000
329.421;  -72.300; -548.000; -246.000
329.556;  -18.800;  -36.000;   85.000
329.691; -176.800; -633.000; -615.000
329.827; -141.000; -626.000; -480.000
329.962;  -45.800;  131.000; -301.000
330.097; -174.800; -673.000; -585.000
330.233;  -89.600; -410.000; -223.000
330.368; -225.000; -839.000; -628.000
330.503;  -13.400;    3.000;   98.000
330.638;   20.200;  -93.000; -125.000
330.774; -143.500; -609.000; -530.000
330.909;  -73.500; -434.000; -244.000
331.044; -156.900; -714.000; -708.000
331.179; -308.700;-1217.000;-1109.000
331.315;   21.400;   77.000;   20.000
331.450;   59.700;  157.000;  285.000
331.585; -168.300; -805.000; -706.000
331.720; -158.700; -510.000; -460.000
331.855;  -32.400;  -35.000; -102.000
331.990;  185.800;   62.000;  138.000
332.126;   62.500; -110.000;   71.000
332.261; -101.700; -379.000; -265.000
332.396;  -50.800; -135.000; -242.000
332.531; -267.200;-1074.000;-1031.000
332.666;  -40.500; -519.000; -363.000
332.801; -182.000; -726.000; -807.000
332.936;  -76.900; -192.000; -122.000
333.071; -285.700; -870.000; -817.000
333.206;   47.100;  307.000;  379.000
333.341;   66.700;  344.000;  418.000
333.476; -155.500; -627.000; -623.000
333.611;  -69.300; -251.000; -173.000
333.746;  -67.200; -381.000; -464.000
333.881; -230.800; -973.000; -935.000
334.016; -254.400; -936.000; -917.000
334.151; -244.300; -746.000; -702.000
334.286;   43.200;  152.000;  186.000
334.421;  -13.700; -125.000; -178.000
334.556; -156.300; -611.000; -567.000
334.690; -158.000; -631.000; -577.000
334.825;  114.600;  381.000;   83.000
334.960; -110.600; -285.000; -413.000
335.095;    9.500;  135.000;  -91.000
335.230; -244.800; -722.000; -738.000
335.365; -283.100;-1084.000; -990.000
335.499; -296.200;-1108.000;-1037.000
335.634;   36.900;    9.000;  534.000
335.769; -224.900; -755.000; -720.000
335.904; -149.400; -603.000; -561.000
336.038; -174.100; -735.000; -657.000
336.173; -291.200;-1206.000;-1194.000
336.308;  -48.100; -116.000; -189.000
336.443;  -51.700; -544.000; -634.000
336.577; -219.100; -936.000; -787.000
336.712;   30.000;   -4.000;  -12.000
336.847; -156.000; -724.000; -607.000
336.981;  -42.800; -272.000; -208.000
337.116;  269.000;  615.000;  501.000
337.250;   35.100; -434.000; -421.000
337.385;  146.000; -297.000; -208.000
337.520;  -45.300; -632.000; -603.000
337.654;  -75.700; -215.000; -126.000
337.789; -236.800; -989.000; -933.000
337.923;  -61.600; -104.000; -205.000
338.058; -204.200; -673.000; -738.000
338.192; -137.300; -611.000; -488.000
338.327;  -36.400;  -18.000; -155.000
338.461; -142.800; -299.000; -469.000
338.596; -170.600; -780.000; -638.000
338.730; -207.500; -767.000; -803.000
338.865;   67.700;  -46.000; -140.000
338.999; -176.100; -846.000; -702.000
339.134; -111.000; -634.000; -536.000
339.268; -114.200; -741.000; -603.000
339.403;  125.300; -740.000; -775.000
339.537;  -35.800; -894.000; -820.000
339.671; -221.000; -829.000; -813.000
339.806; -143.000; -556.000; -512.000
339.940;  -16.400; -261.000; -235.000
340.074; -184.500; -685.000; -510.000
340.209;  -73.200; -351.000; -230.000
340.343; -149.100; -517.000; -573.000
340.477;  284.800;  998.000; 1036.000
340.612; -184.700;-1033.000; -900.000
340.746;   72.900; -199.000; -243.000
340.880; -190.600; -924.000; -785.000
341.014;   -8.800;  -45.000; -154.000
341.149; -191.600; -756.000; -718.000
341.283; -231.900; -839.000; -754.000
341.417; -236.300;-1124.000; -938.000
341.551;  -36.800; -768.000; -708.000
341.685; -129.000; -633.000; -611.000
341.820; -125.200; -562.000; -493.000
341.954; -105.000; -218.000; -349.000
342.088; -280.400;-1102.000;-1019.000
342.222;   81.200;  565.000;  618.000
342.356; -112.700; -395.000; -335.000
342.490; -210.100; -880.000; -841.000
342.624;  -75.100; -339.000; -242.000
342.758;  -46.400; -364.000; -312.000
342.892; -189.100; -710.000; -585.000
343.026;  -16.400;  -58.000; -116.000
343.160; -113.500; -426.000; -376.000
343.294; -118.600; -474.000; -337.000
343.428;  -80.800; -488.000; -448.000
343.562;  -54.800; -172.000;  -23.000
343.696;  -58.700; -385.000; -314.000
343.830;  -76.300; -362.000; -356.000
343.964;   -8.400; -231.000; -168.000
344.098;  773.200;  199.000;   70.000
344.232;  565.000; -266.000; -127.000
344.366;  -34.400; -567.000; -453.000
344.500;  -68.900; -665.000; -744.000
344.634;   11.400; -324.000; -164.000
344.768;  -65.000; -531.000; -341.000
344.902;   73.900;  278.000;  256.000
345.035; -115.500; -556.000; -496.000
345.169; -241.700; -933.000; -656.000
345.303; -118.400; -308.000; -482.000
345.437; -178.400; -826.000; -717.000
345.571; -161.800; -675.000; -594.000
345.704; -128.800; -309.000; -532.000
345.838;  -29.700; -331.000; -284.000
345.972; -135.200; -543.000; -495.000
346.106;  108.400; -179.000; -190.000
346.239;  297.200; -312.000; -243.000
346.373;  -15.900; -343.000; -302.000
346.507; -291.600; -950.000; -962.000
346.640;  103.200;  -30.000;   13.000
346.774; -152.200; -650.000; -797.000
346.908;  -29.100; -138.000;  -11.000
347.041; -150.400; -646.000; -593.000
347.175;   53.800;  259.000;   27.000
347.309; -158.300; -698.000; -628.000
347.442; -205.000; -883.000; -732.000
347.576;  330.900;  670.000;  668.000
347.709;  139.500; -123.000;  -52.000
347.843; -189.500; -933.000; -825.000
347.976;  120.800;  235.000;  294.000
348.110; -356.000;-1268.000;-1186.000
348.243; -174.200; -679.000; -772.000
348.377;   12.800;  -26.000;   60.000
348.510;  126.600;  403.000;  540.000
348.644;  -68.700;  -37.000; -159.000
348.777;   38.200;  180.000;  191.000
348.911;  -36.700; -142.000; -112.000
349.044;  244.700;  471.000;  448.000
349.178;  -45.400;-1069.000;-1006.000
349.311;  139.800;  141.000;  255.000
349.444; -124.700; -927.000; -813.000
349.578;  -57.300; -347.000; -200.000
349.711; -251.000; -959.000; -862.000
349.845; -108.800; -661.000; -591.000
349.978; -315.500;-1224.000;-1137.000
350.111; -168.100; -546.000; -612.000
350.244; -184.500; -596.000; -700.000
350.378;  -70.500; -392.000; -393.000
350.511; -122.200; -393.000; -426.000
350.644; -218.900; -808.000; -806.000
350.778;   23.400;  168.000;  104.000
350.911;   31.600;  134.000;  140.000
351.044; -169.600; -685.000; -615.000
351.177;  -38.200; -321.000; -281.000
351.310;   11.700;    3.000; -131.000
351.444; -191.900; -888.000; -788.000
351.577;   84.000;  140.000;   90.000
351.710;  207.500;  593.000;  417.000
351.843;  -63.200; -165.000;  -77.000
351.976;    5.700;  149.000;  -79.000
352.109; -168.900; -621.000; -612.000
352.242;  -60.800; -464.000; -419.000
352.376; -124.300; -580.000; -636.000
352.509;   14.000; -437.000; -356.000
352.642; -156.100; -654.000; -604.000
352.775;   24.600; -141.000;  -98.000
352.908; -258.700; -933.000; -904.000
353.041; -198.800; -814.000; -824.000
353.174;  -99.400; -551.000; -424.000
353.307; -193.300; -753.000; -764.000
353.440;  127.200;  541.000;  453.000
353.573; -240.900; -957.000;-1008.000
353.706; -136.000; -384.000; -558.000
353.839;  -83.500; -264.000; -220.000
353.971; -191.400; -657.000; -512.000
354.104; -211.700; -896.000; -835.000
354.237; -154.400; -627.000; -662.000
354.370; -183.400; -846.000; -879.000
354.503; -378.700;-1231.000;-1308.000
354.636;  -96.300; -529.000; -348.000
354.769; -260.200; -937.000; -860.000
354.902;  -59.800; -230.000; -139.000
355.034;  -52.100; -164.000; -220.000
355.167;  -68.100; -262.000; -162.000
355.300; -241.700;-1061.000; -880.000
355.433;  667.000;  -71.000;  -14.000
355.565;  905.400; -402.000; -384.000
355.698;  230.000; -356.000; -296.000
355.831; -160.200; -882.000; -801.000
355.964;    3.600; -285.000; -170.000
356.096; -197.300; -856.000; -843.000
356.229;  -97.100; -523.000; -530.000
356.362;  140.100; -373.000; -266.000
356.494;  349.200; -229.000; -162.000
356.627;  372.200;  269.000;  377.000
356.760;  456.400;  120.000;   53.000
356.892;  523.600; -286.000; -601.000
357.025;  502.600;  403.000;  389.000
357.157;  392.600; -167.000; -179.000
357.290;  393.300; -856.000; -713.000
357.423;   18.500; -667.000; -556.000
357.555;   58.200; -217.000; -228.000
357.688;  -39.700; -483.000; -364.000
357.820;  145.600; -870.000; -877.000
357.953; 2477.500; -563.000; -589.000
358.085;  433.400; -632.000; -612.000
358.218;  542.600;-1131.000; -932.000
358.350;  166.600;  -58.000;  312.000
358.483; -300.000;-1300.000;-1187.000
358.615; -203.800;-1182.000;-1078.000
358.747; -239.300;-1187.000;-1058.000
358.880; -109.900; -810.000; -744.000
359.012;  -35.600; -376.000; -202.000
359.145; -115.200; -480.000; -511.000
359.277; -150.400; -962.000; -913.000
359.409; 2187.200;  536.000;  231.000
359.542;  398.600; -738.000; -688.000
359.674;   50.600;   46.000;   13.000
359.806; -102.700; -565.000; -438.000
359.939; -101.300; -617.000; -516.000
360.071; -112.300; -583.000; -579.000
360.203;  -60.200; -411.000; -364.000
360.335;   47.000;  164.000;  -16.000
360.468;   80.700; -249.000; -307.000
360.600; 1586.100; -547.000; -454.000
360.732; 1752.400; -546.000; -423.000
360.864;   37.600;-1216.000;-1044.000
360.996;   80.800; -516.000; -554.000
361.129;  -81.300; -389.000; -598.000
361.261;   29.200;  110.000; -113.000
361.393;  -61.700; -252.000; -214.000
361.525;   64.100;   94.000;  244.000
361.657; -147.600; -821.000; -703.000
361.789;  -16.200; -139.000; -155.000
361.921;   53.300; -642.000; -593.000
362.053;  256.600;  524.000;  541.000
362.185;   98.200;  288.000;   72.000
362.318; -176.700; -709.000; -705.000
362.450;  128.100;  294.000;  444.000
362.582;  -62.900; -913.000; -870.000
362.714;  -39.200; -353.000; -332.000
362.846; -155.400; -606.000; -490.000
362.978; -236.000; -941.000; -811.000
363.109;   -9.800; -161.000; -260.000
363.241;  196.400; -739.000; -749.000
363.373;  187.100; -649.000; -564.000
363.505;  437.200; -186.000;  -91.000
363.637;   33.100; -787.000; -601.000
363.769; -267.800;-1067.000;-1080.000
363.901; -147.400; -596.000; -654.000
364.033; -285.800;-1103.000;-1062.000
364.165;  -27.900; -283.000; -283.000
364.296;   -3.000; -316.000; -177.000
364.428; -195.700;-1344.000;-1220.000
364.560; -166.700; -679.000; -661.000
364.692; -160.600; -738.000; -835.000
364.824;   91.900; -588.000; -456.000
364.955;  243.700; -402.000; -564.000
365.087;  432.900;-1097.000; -852.000
365.219; -146.300; -686.000; -816.000
365.351; -167.000; -526.000; -572.000
365.482;  117.800;  300.000;  240.000
365.614;  -91.200; -402.000; -314.000
365.746; -183.200; -729.000; -752.000
365.877; -194.600; -706.000; -672.000
366.009;  192.100;  -35.000;  -62.000
366.141; -263.100;-1249.000;-1134.000
366.272; -200.400; -803.000; -719.000
366.404; -221.500;-1005.000; -874.000
366.535;   11.400; -139.000;  -12.000
366.667; -172.800; -644.000; -649.000
366.799;   99.300;  353.000;  203.000
366.930; -247.800; -862.000; -996.000
367.062;    6.200; -639.000; -613.000
367.193;  -39.300; -872.000; -842.000
367.325; -142.000; -580.000; -684.000
367.456;  -26.500; -246.000;   31.000
367.588;   83.900; -371.000; -318.000
367.719;  -31.100;  -44.000;  -45.000
367.851;  -21.100; -222.000; -241.000
367.982; -173.200; -875.000; -732.000
368.113;   25.100; -475.000; -358.000
368.245; -257.800; -960.000; -841.000
368.376;  -37.400; -254.000; -302.000
368.508;  -77.400; -188.000; -263.000
368.639; -270.700;-1166.000;-1034.000
368.770; -135.900; -670.000; -589.000
368.902; -165.800; -836.000; -926.000
369.033; -243.000; -906.000; -855.000
369.164; -142.100; -720.000; -653.000
369.296; -182.900; -452.000; -601.000
369.427;  -41.800; -209.000; -144.000
369.558; -111.900; -593.000; -377.000
369.689; -176.700; -721.000; -569.000
369.821; -251.100; -951.000; -845.000
369.952;   18.300;   42.000; -108.000
370.083;  -96.700; -229.000; -108.000
370.214; -172.500; -735.000; -650.000
370.345;   10.800;   65.000;   81.000
370.477; -214.500; -810.000; -790.000
370.608;  190.400; -328.000; -264.000
370.739; -228.100;-1233.000;-1292.000
370.870; -214.600;-1102.000; -923.000
371.001;  -23.900; -378.000; -467.000
371.132; -148.200; -754.000; -735.000
371.263;  -38.300;  -42.000; -148.000
371.394; -229.800; -841.000; -748.000
371.525;   84.400;  345.000;  225.000
371.657; -208.400; -808.000; -670.000
371.788;  105.900;  103.000;  199.000
371.919;   45.800; -384.000; -304.000
372.050; 2976.100;  -91.000; -156.000
372.181;  894.400; -188.000; -294.000
372.311;  298.100;   42.000; -127.000
372.442;  -33.500; -457.000; -451.000
372.573;  -51.900; -444.000; -340.000
372.704; -244.000;-1008.000; -980.000
372.835;  -18.100; -228.000; -289.000
372.966; -128.100; -646.000; -554.000
373.097; -189.700; -575.000; -711.000
373.228; -153.400; -717.000; -542.000
373.359;  -27.100; -824.000; -536.000
373.490;  537.000; -881.000; -727.000
373.620;  662.800;-1001.000; -803.000
373.751; 1385.000; -332.000; -396.000
373.882;  502.200; -663.000; -733.000
374.013;   47.400; -449.000; -262.000
374.143; -123.800; -581.000; -659.000
374.274; -252.800; -987.000; -908.000
374.405;   73.700; -388.000; -276.000
374.536;  267.600; -526.000; -387.000
374.666;  796.000; -759.000; -807.000
374.797;   27.700; -817.000; -868.000
374.928;  542.000; -710.000; -560.000
375.058;  531.400; -535.000; -500.000
375.189;   31.000;  -59.000;  -93.000
375.320; -219.100; -928.000;-1034.000
375.450; -124.000; -625.000; -616.000
375.581; -122.800; -526.000; -436.000
375.712;  -78.300; -574.000; -250.000
375.842;  138.500; -438.000; -415.000
375.973;   14.200; -554.000; -513.000
376.103; -130.600; -665.000; -648.000
376.234; -162.500; -531.000; -552.000
376.364; -193.200; -944.000; -867.000
376.495;  372.700;  925.000;  529.000
376.625; -107.200; -472.000; -485.000
376.756;  -67.100; -709.000; -678.000
376.886; -273.100;-1178.000;-1026.000
377.017; -139.300;-1048.000;-1061.000
377.147;  121.900; -786.000; -782.000
377.278;  100.200;  174.000;  228.000
377.408; -228.300; -801.000; -815.000
377.538; -191.300; -707.000; -693.000
377.669; -141.100; -537.000; -613.000
377.799; -166.700; -645.000; -635.000
377.929; -115.100; -610.000; -428.000
378.060; -239.400; -781.000; -847.000
378.190; -133.400; -726.000; -531.000
378.320;  -96.100; -401.000; -406.000
378.451;   20.900; -131.000;  -22.000
378.581;   -4.900;  -67.000; -110.000
378.711;  269.400; 1035.000;  866.000
378.841; -119.900; -533.000; -675.000
378.972; -203.000; -871.000; -751.000
379.102;  -72.700; -652.000; -579.000
379.232;  -26.900; -126.000;  -73.000
379.362; -250.200;-1001.000; -885.000
379.492;  -77.200; -373.000; -424.000
379.623;  105.200;    0.000;  111.000
379.753; -248.100;-1107.000; -974.000
379.883;  199.400;   59.000;  156.000
380.013; -177.100;-1081.000;-1017.000
380.143; -264.800;-1097.000;-1056.000
380.273; -210.100; -985.000; -861.000
380.403;  -29.300; -344.000; -257.000
380.533; -160.800; -651.000; -664.000
380.663;   94.700;  173.000;  128.000
380.793; -279.300;-1027.000;-1074.000
380.923;  -11.400; -103.000;  -34.000
381.053; -205.000; -613.000; -623.000
381.183;  -31.300; -106.000; -248.000
381.313;  -54.800; -656.000; -470.000
381.443;  -44.600; -692.000; -473.000
381.573;   85.600; -402.000; -409.000
381.703;  -23.100;-1249.000;-1095.000
381.833; -350.200;-1454.000;-1336.000
381.963;  111.600; -134.000;  -87.000
382.093;  862.500; -925.000; -909.000
382.223;  189.700; -713.000; -602.000
382.353; -108.400; -801.000; -608.000
382.482;  153.800;-1091.000; -964.000
382.612;  476.000; -872.000; -644.000
382.742;  205.300; -695.000; -622.000
382.872;   97.000; -565.000; -551.000
383.002;   85.600;  347.000; -132.000
383.131;  -59.400; -226.000; -160.000
383.261; -121.100; -706.000; -768.000
383.391;  104.300; -552.000; -377.000
383.521; 2179.300;  451.000;  263.000
383.650;  304.500; -947.000; -904.000
383.780; -116.300; -783.000; -656.000
383.910;  225.000;  880.000;  802.000
384.039; -134.100; -794.000; -656.000
384.169;  -77.500;-1205.000;-1017.000
384.299; -139.500; -650.000; -662.000
384.428; -212.800; -764.000; -680.000
384.558;  -83.600; -308.000; -275.000
384.687;  -89.900; -414.000; -334.000
384.817;   28.900;   75.000;   -2.000
384.947;   11.900; -234.000; -141.000
385.076;  391.400;  982.000;  912.000
385.206;  151.500;  369.000;  480.000
385.335;  -83.600; -549.000; -417.000
385.465; -169.000; -655.000; -663.000
385.594;  113.400;  -53.000;  -44.000
385.724;  188.700; -868.000; -838.000
385.853;   61.100; -296.000; -270.000
385.982; 1031.200; -743.000; -787.000
386.112; 1567.400;-1052.000; -871.000
386.241;   68.800; -307.000; -312.000
386.371;    3.400; -174.000;  -87.000
386.500; -111.500; -825.000; -789.000
386.629; -121.900; -874.000; -817.000
386.759;   36.800;  -43.000;   68.000
386.888;  -12.500; -170.000; -250.000
387.017; -126.100; -648.000; -620.000
387.147; -177.200; -771.000; -798.000
387.276;  -62.400; -410.000; -397.000
387.405;  -65.400; -398.000; -342.000
387.535; -110.900; -452.000; -361.000
387.664; -113.400; -692.000; -620.000
387.793;   11.000; -198.000; -113.000
387.922;  440.400;  255.000;  200.000
388.052;  -57.900; -576.000; -423.000
388.181;  -65.400; -342.000; -472.000
388.310; -133.100; -889.000; -710.000
388.439; -150.000; -749.000; -742.000
388.568;  166.000;  365.000;  244.000
388.697;  724.600; -756.000; -653.000
388.826;   28.300; -768.000; -666.000
388.956;   17.200; -285.000; -307.000
389.085;  -59.200; -347.000; -287.000
389.214; -197.900; -842.000; -872.000
389.343; -145.800; -645.000; -413.000
389.472;  310.800;  126.000;  149.000
389.601;  435.900;   91.000;    0.000
389.730;  -74.300; -568.000; -687.000
389.859;   99.900;  226.000;   46.000
389.988;  115.900; -423.000; -408.000
390.117;   55.000; -168.000; -146.000
390.246;  -29.800; -331.000; -320.000
390.375;    9.200; -673.000; -626.000
390.504; -129.900; -703.000; -621.000
390.633; -199.300; -672.000; -726.000
390.761; -111.600; -732.000; -645.000
390.890;   31.200;   -4.000; -130.000
391.019; -101.300; -421.000; -441.000
391.148; -220.200; -826.000; -855.000
391.277; -129.200; -576.000; -493.000
391.406; -166.700; -821.000; -805.000
391.534;   94.400;  574.000; -301.000
391.663; -117.800; -583.000; -645.000
391.792; -199.100; -673.000; -701.000
391.921;   71.700;   -3.000;   15.000
392.050;  129.500; -287.000; -228.000
392.178; -194.900;-1206.000;-1061.000
392.307;   13.100; -758.000; -712.000
392.436;  -35.900; -427.000; -641.000
392.564;   29.800;  166.000;   -6.000
392.693; -194.800; -860.000; -682.000
392.822;   67.500; -529.000; -534.000
392.950;  -79.000; -880.000; -714.000
393.079;  215.600; -188.000; -328.000
393.208;  -65.600; -488.000; -511.000
393.336;   -7.800; -170.000; -145.000
393.465;  -75.400; -317.000; -199.000
393.593;   16.100;   62.000;   79.000
393.722; -271.800;-1121.000; -916.000
393.850;  -35.500; -188.000;  -61.000
393.979; -282.100; -926.000; -805.000
394.107; -121.300; -517.000; -537.000
394.236; -102.300; -570.000; -507.000
394.364;  263.300;  383.000;  206.000
394.493;  168.700; -911.000; -767.000
394.621; -153.300; -955.000; -916.000
394.750;  297.200; -873.000; -923.000
394.878; 1871.200; -247.000; -149.000
395.007; 2282.500; -721.000; -807.000
395.135;   39.300; -790.000; -721.000
395.263; -278.100;-1038.000;-1040.000
395.392;   21.600;  -25.000; -107.000
395.520; -178.600; -818.000; -679.000
395.648; -219.500; -865.000; -915.000
395.777;  -74.500; -366.000; -405.000
395.905; -104.700; -449.000; -564.000
396.033;   23.000;  217.000;  172.000
396.162;  447.700; -399.000; -453.000
396.290;  443.900;  -17.000;   -2.000
396.418;  -11.800; -555.000; -514.000
396.546; -198.100; -571.000; -466.000
396.674; -202.200; -850.000; -878.000
396.803;    0.700;  -72.000;  -23.000
396.931;   20.600; -179.000; -199.000
397.059; -156.700;-1026.000; -989.000
397.187; -233.700;-1026.000; -975.000
397.315; -247.500; -884.000; -649.000
397.443; -162.300; -592.000; -443.000
397.572; -131.200; -578.000; -424.000
397.700; -105.600; -607.000; -614.000
397.828;  -30.700;  120.000;  -90.000
397.956; -121.600; -508.000; -478.000
398.084; -181.400; -767.000; -626.000
398.212;   41.200;  137.000;  124.000
398.340;   22.800;  -56.000;  159.000
398.468;  -32.300; -390.000; -169.000
398.596; -281.000; -993.000; -953.000
398.724; -228.000; -762.000; -767.000
398.852; -283.000;-1024.000; -976.000
398.980; -148.900; -560.000; -560.000
399.108; -153.300; -982.000; -735.000
399.236;   13.300;   13.000;    8.000
399.363;   45.900;  222.000;  196.000
399.491; -130.600; -404.000; -398.000
399.619; -226.200; -829.000; -800.000
399.747; -195.400; -859.000; -771.000
399.875;  107.800;  220.000;  234.000
400.003; -105.100; -359.000; -284.000
400.130; -136.400; -421.000; -341.000
400.258;  -15.100;  -83.000;   38.000
400.386;  -76.800; -352.000; -168.000
400.514;  -93.600; -526.000; -587.000
400.641; -236.500; -928.000; -802.000
400.769; -257.900; -979.000; -888.000
400.897; -226.100; -838.000; -793.000
401.025;  -11.400; -166.000; -152.000
401.152;   27.500;  220.000;   38.000
401.280; -135.600; -430.000; -429.000
401.408; -213.900; -712.000; -576.000
401.535; -188.900; -735.000; -758.000
401.663; -340.000;-1134.000;-1054.000
401.790; -142.400; -514.000; -525.000
401.918;   94.600;  436.000;  405.000
402.046;   24.000;  134.000;  122.000
402.173;  -38.700;  -18.000;    7.000
402.301; -107.600; -519.000; -397.000
402.428;  113.800;  528.000;  383.000
402.556; -293.200;-1188.000; -913.000
402.683;  -31.900;  -20.000;   -1.000
402.811;  -18.000;  -37.000; -206.000
402.938;   30.100;   20.000;   27.000
403.066;   49.600; -574.000; -558.000
403.193;  274.400;  299.000;  239.000
403.321;  121.500; -396.000; -574.000
403.448;  271.900;   83.000;   27.000
403.575;  114.800;  -90.000;  -46.000
403.703; -167.400; -732.000; -557.000
403.830; -104.800; -531.000; -496.000
403.957; -282.900;-1117.000;-1023.000
404.085;  -43.000;  -61.000; -172.000
404.212;  111.000;  -50.000;   63.000
404.339;  120.100; -566.000; -306.000
404.467; 3593.500; -612.000; -524.000
404.594; 2297.400; -287.000; -227.000
404.721;  437.600; -869.000; -764.000
404.848;   72.900; -113.000; -202.000
404.976; -216.000; -856.000; -783.000
405.103;  -12.300;  -14.000;  -82.000
405.230;   28.300;  190.000;  226.000
405.357;   65.800;  117.000;   44.000
405.484;  178.000;  -49.000;    5.000
405.612;  -66.500; -548.000; -563.000
405.739; -114.600; -488.000; -243.000
405.866;  161.600;  669.000;  385.000
405.993;  -65.900; -398.000; -102.000
406.120; -233.900; -801.000; -887.000
406.247; -106.000; -323.000; -342.000
406.374;  445.500;  540.000;  629.000
406.501;  -45.600; -632.000; -702.000
406.628; -157.400; -621.000; -589.000
406.755; -201.800; -803.000; -620.000
406.882;  -61.900; -228.000; -277.000
407.009; -199.300; -719.000; -628.000
407.136;  -15.100; -480.000; -401.000
407.263;  -85.600; -939.000; -829.000
407.390; -155.300; -692.000; -614.000
407.517; -348.400;-1139.000;-1187.000
407.644;  -80.100; -332.000; -256.000
407.771; -121.700; -249.000; -287.000
407.898;   63.200;  168.000;  328.000
408.025; -123.700; -421.000; -313.000
408.151;    1.500;   82.000;  153.000
408.278;  -84.000; -267.000; -216.000
408.405; -221.900; -931.000; -899.000
408.532; -135.700; -549.000; -542.000
408.659; -214.100; -677.000; -648.000
408.785; -367.100;-1298.000;-1170.000
408.912;  -79.000; -412.000; -296.000
409.039; -149.700; -610.000; -686.000
409.166; -124.300; -591.000; -555.000
409.292; -187.800; -571.000; -534.000
409.419; -184.500; -665.000; -649.000
409.546; -114.200; -431.000; -192.000
409.672; -172.600; -713.000; -545.000
409.799;   -8.200;  -36.000;   34.000
409.926;  -40.400; -180.000; -179.000
410.052; -312.400;-1127.000;-1091.000
410.179; -114.100; -368.000; -392.000
410.305; -144.400; -375.000; -493.000
410.432;  -75.200; -220.000; -333.000
410.558; -143.900; -305.000; -380.000
410.685; -177.900; -688.000; -431.000
410.812; -153.700; -409.000; -588.000
410.938; -238.100; -964.000; -808.000
411.065; -176.700; -671.000; -645.000
411.191;  -37.900; -189.000; -174.000
411.317; -199.700; -823.000; -742.000
411.444;  -72.200; -317.000; -246.000
411.570;  -90.700; -339.000; -294.000
411.697; -199.200; -758.000; -752.000
411.823; -317.500; -989.000; -999.000
411.949;  -42.700;  -56.000;   17.000
412.076; -198.500; -539.000; -519.000
412.202; -182.700; -758.000; -757.000
412.329; -241.600; -798.000; -752.000
412.455; -196.500; -821.000; -657.000
412.581;   18.800;  -15.000;  172.000
412.707; -144.300; -540.000; -457.000
412.834;   23.300;  156.000;  219.000
412.960; -189.200; -785.000; -784.000
413.086; -191.700; -743.000; -701.000
413.212;  227.900;  604.000;  578.000
413.339; -172.900; -685.000; -701.000
413.465;  -49.000; -364.000; -310.000
413.591; -198.800; -757.000; -474.000
413.717;  -94.900; -358.000; -366.000
413.843; -252.100; -839.000; -861.000
413.969;  -93.700;  -47.000; -292.000
414.096; -197.700; -679.000; -679.000
414.222;  -27.400;  -33.000;   85.000
414.348; -104.100; -652.000; -385.000
414.474;   38.600;   38.000;  -52.000
414.600;   -4.000; -126.000; -144.000
414.726;  -32.700;  -96.000;  -55.000
414.852; -116.600; -365.000; -342.000
414.978;   25.300;  104.000;  -18.000
415.104;   55.800;   38.000;   80.000
415.230;  -31.700; -329.000; -330.000
415.356;  -70.600; -409.000; -514.000
415.482;  118.400;   13.000;  -35.000
415.608;  168.100; -247.000; -323.000
415.734;  662.700;   67.000;   38.000
415.860;13797.100; -875.000; -767.000
415.986; 8957.500; -685.000; -607.000
416.111;  623.600; -798.000; -652.000
416.237;   78.000; -424.000; -571.000
416.363;  702.800; -765.000; -733.000
416.489; 2714.300; -324.000; -251.000
416.615;  129.200; -707.000; -742.000
416.741; -115.400; -677.000; -784.000
416.866; -196.300; -673.000; -736.000
416.992; -253.400; -801.000; -818.000
417.118;  -54.100;  -41.000;  -80.000
417.244; -159.000; -798.000; -531.000
417.369; -193.100; -801.000; -612.000
417.495;  -42.900; -325.000; -254.000
417.621; -217.900;-1015.000; -803.000
417.746;  -84.600; -579.000; -572.000
417.872;   36.200; -254.000; -144.000
417.998;  -38.400; -515.000; -530.000
418.123;  591.600;-1073.000; -845.000
418.249; 3340.100; -512.000; -601.000
418.374;  289.500; -916.000; -824.000
418.500;  -19.600; -383.000; -482.000
418.626;  117.200;   70.000;  -59.000
418.751;    5.500; -549.000; -448.000
418.877;   16.200; -637.000; -643.000
419.002; 1186.000; -688.000; -560.000
419.128; 8027.800; -930.000; -721.000
419.253; 1675.600; -967.000; -837.000
419.379;  130.700; -391.000; -338.000
419.504;  330.500;  325.000;  415.000
419.629;  311.300; -393.000; -212.000
419.755; 2379.700; -317.000; -254.000
419.880;13201.000;  -98.000;   67.000
420.006; 7567.200; -280.000; -221.000
420.131;19428.800; -662.000; -775.000
420.256; 2510.100; -315.000; -316.000
420.382;  247.600; -665.000; -687.000
420.507;  -81.800; -649.000; -778.000
420.632;   49.200; -337.000; -339.000
420.758;  182.200; -251.000; -425.000
420.883; -178.300; -876.000; -672.000
421.008; -193.400; -775.000; -619.000
421.133; -233.200; -509.000; -467.000
421.259;  -79.300; -325.000; -259.000
421.384; -208.200; -834.000; -693.000
421.509; -167.500;-1052.000; -862.000
421.634;  888.500; -936.000; -820.000
421.759;  341.300; -359.000; -327.000
421.885; -119.000; -717.000; -656.000
422.010; -124.900; -673.000; -542.000
422.135; -277.800; -695.000; -727.000
422.260;   84.600;  340.000;  280.000
422.385;  -50.800;   12.000;  -98.000
422.510;   50.900;  151.000;  -26.000
422.635;    8.200;  -87.000;  -43.000
422.760;  -11.800; -766.000; -791.000
422.885;   35.000;  -57.000;  -80.000
423.010;  -37.400; -112.000; -169.000
423.135; -184.300; -481.000; -561.000
423.260;  -27.500; -150.000; -245.000
423.385;  112.400;  476.000;  222.000
423.510;   38.500;   71.000;  -22.000
423.635;   83.600;  133.000;   45.000
423.760;  114.700;  383.000;  328.000
423.885;   85.700;  336.000;  391.000
424.010;   17.700;  -68.000;  -13.000
424.135;  -32.100;    5.000;  -33.000
424.259; -144.200; -654.000; -457.000
424.384; -124.500; -279.000; -272.000
424.509;  -30.000; -260.000; -186.000
424.634; -210.200; -761.000; -623.000
424.759; -131.300; -688.000; -544.000
424.883; -107.600; -506.000; -527.000
425.008;   28.500; -502.000; -410.000
425.133; 1237.800; -679.000; -653.000
425.258;  453.600; -517.000; -381.000
425.382;  684.900; -867.000; -774.000
425.507; 1741.500; -487.000; -543.000
425.632;  164.000; -802.000; -663.000
425.756;  287.300; -256.000; -146.000
425.881; 4226.400; -831.000; -857.000
426.006;10529.800; -604.000; -355.000
426.130; 1428.900; -696.000; -508.000
426.255;  120.700; -611.000; -491.000
426.379;   97.600; -189.000; -577.000
426.504;  394.800;  660.000;  544.000
426.629; 2633.700; -519.000; -466.000
426.753; 1698.200;   64.000;  -46.000
426.878;  154.300; -252.000; -288.000
427.002;  -31.400; -651.000; -668.000
427.127; 1195.500;  -35.000; -158.000
427.251; 7880.600;  372.000;  401.000
427.375; 1933.500; -191.000; -173.000
427.500; 1540.300; -616.000; -610.000
427.624;  492.100; -234.000; -400.000
427.749;   17.000; -216.000; -225.000
427.873;  -90.000; -499.000; -412.000
427.997;  -37.300; -222.000; -230.000
428.122;  233.500;  795.000;  703.000
428.246;  122.400;  433.000;  434.000
428.371; -240.300; -869.000; -773.000
428.495; -149.500; -624.000; -646.000
428.619;   -3.600; -186.000; -117.000
428.743;   52.100;   65.000;  132.000
428.868;  -71.700; -732.000; -643.000
428.992; 1000.200; -219.000; -326.000
429.116;  396.300; -329.000; -357.000
429.240;  299.400;  419.000;  426.000
429.365;  -83.700; -454.000; -574.000
429.489; -131.900; -638.000; -647.000
429.613;    9.800; -236.000; -177.000
429.737;  -53.600; -563.000; -432.000
429.861;  169.000; -247.000; -133.000
429.985; 3812.600; -425.000; -305.000
430.109; 3670.400; -770.000; -908.000
430.234;  449.500;   76.000;  -50.000
430.358;   20.800; -250.000; -160.000
430.482; -128.000; -672.000; -564.000
430.606; -127.800; -655.000; -375.000
430.730;  -47.700; -437.000; -388.000
430.854;  -48.600; -909.000; -835.000
430.978; -154.500; -795.000; -764.000
431.102; -134.300; -499.000; -422.000
431.226; -213.900; -874.000; -815.000
431.350;  107.500;  345.000;  422.000
431.474; -129.700; -661.000; -373.000
431.597; -247.300;-1060.000; -848.000
431.721;  -92.300; -276.000; -267.000
431.845; -207.900; -704.000; -472.000
431.969; -149.800; -304.000; -349.000
432.093; -140.400; -395.000; -317.000
432.217;    0.500;   32.000;   82.000
432.341; -169.100; -523.000; -518.000
432.464;   14.000;   96.000;   40.000
432.588;   50.000; -401.000; -329.000
432.712;   23.700;  -52.000;  -52.000
432.836;   77.900;  213.000;  263.000
432.959;  -71.600; -372.000; -311.000
433.083;   42.500;   11.000;    2.000
433.207;  349.900;  285.000;  930.000
433.330; 3383.600; -391.000; -200.000
433.454; 3682.000; -654.000; -638.000
433.578; 2312.700;  583.000;  278.000
433.701;  221.600; -623.000; -675.000
433.825;   30.100; -292.000; -299.000
433.949;  111.000;   28.000;  -72.000
434.072;  -22.300; -410.000; -323.000
434.196;  -36.700; -309.000; -117.000
434.319; 7457.900;25482.000;25124.000
434.443;  411.900; -656.000; -603.000
434.566; 1716.300;  281.000;   62.000
434.690;  158.600; -637.000; -383.000
434.813;   15.000; -251.000; -173.000
434.937; -140.500; -569.000; -696.000
435.060;  -92.000; -423.000; -332.000
435.184;  173.900; -492.000; -217.000
435.307;  118.200;  159.000;  102.000
435.431;  -11.500;  -40.000;   24.000
435.554; -102.600; -399.000; -240.000
435.677; -107.900; -350.000; -258.000
435.801;  -56.500;  -25.000;   49.000
435.924;  -15.500;    1.000;  -67.000
436.048; -250.500;-1019.000; -732.000
436.171;  -88.200; -240.000;  -66.000
436.294;  -50.700; -248.000; -229.000
436.417; -112.500; -963.000; -849.000
436.541; -198.000; -814.000; -840.000
436.664;  -75.000; -242.000; -316.000
436.787;  -12.600;   13.000;  113.000
436.910; -191.700; -792.000; -422.000
437.034;   65.400;  142.000;  143.000
437.157;   62.500;  -11.000;    0.000
437.280; -117.700; -392.000; -292.000
437.403; -218.000; -982.000; -869.000
437.526;  417.400; -903.000; -865.000
437.649; 1810.300; -505.000; -332.000
437.772;  157.300; -692.000; -540.000
437.896;  219.200;  700.000;  544.000
438.019; -189.800; -758.000; -503.000
438.142; -136.000; -596.000; -506.000
438.265; -115.200; -639.000; -670.000
438.388;  323.000; -520.000; -410.000
438.511;  -41.900; -597.000; -394.000
438.634; -121.800; -247.000; -125.000
438.757; -205.700; -693.000; -619.000
438.880;  -12.400;  -34.000;  -57.000
439.003; -117.100; -417.000; -437.000
439.126; -113.100; -287.000; -167.000
439.248;  -59.500;  -98.000; -139.000
439.371;  -17.000;    9.000;  -53.000
439.494;  132.400;  510.000;  439.000
439.617;  -38.600;   65.000;  -88.000
439.740; -277.500; -968.000; -816.000
439.863; -225.600; -755.000; -595.000
439.986; -198.500; -476.000; -431.000
440.108; -104.700; -161.000; -112.000
440.231; -301.600; -950.000; -836.000
440.354;  -92.100;  -64.000; -150.000
440.477;  -71.400; -566.000; -542.000
440.599;  -58.900; -200.000; -225.000
440.722; -223.200; -709.000; -586.000
440.845;  205.000;  751.000;  928.000
440.968; -172.300; -415.000; -311.000
441.090;  -42.100; -199.000;  -33.000
441.213; -289.400;-1021.000; -825.000
441.336;  -57.100; -159.000;   -5.000
441.458; -109.000; -549.000; -396.000
441.581; -191.000; -628.000; -629.000
441.703;  -68.800; -152.000;   13.000
441.826; -172.300; -557.000; -400.000
441.948;  -47.400;   56.000;   51.000
442.071;   83.400;  555.000;  424.000
442.193; -199.400; -531.000; -485.000
442.316;   42.200;  152.000;   97.000
442.438;    0.800; -233.000;  -10.000
442.561;   59.900;  272.000;  262.000
442.683;  408.800; -809.000; -522.000
442.806;  916.900;   -8.000;   74.000
442.928; -134.900; -859.000; -604.000
443.051; -120.700; -577.000; -373.000
443.173; -144.000; -341.000; -339.000
443.295; -141.000; -263.000; -371.000
443.418; -115.400; -321.000;  -29.000
443.540;  -25.900; -106.000;   -4.000
443.662; -195.700; -563.000; -465.000
443.785;   44.200;  335.000;  199.000
443.907; -178.700; -362.000; -208.000
444.029; -215.700; -767.000; -494.000
444.152; -246.600; -644.000; -554.000
444.274;  -13.900;  -18.000;  -24.000
444.396; -173.400; -461.000; -221.000
444.518; -210.400; -691.000; -454.000
444.640; -128.700; -268.000; -111.000
444.763;   28.100;  388.000;  249.000
444.885; -182.800; -432.000; -392.000
445.007;   -1.700;   35.000;   86.000
445.129; -166.300; -610.000; -515.000
445.251; -176.200; -372.000; -439.000
445.373; -215.700; -537.000; -386.000
445.495;   77.200;  242.000;  350.000
445.617;  168.300;  853.000;  753.000
445.739;  -99.000; -215.000;  -97.000
445.861;  -70.800; -245.000; -112.000
445.984;  -90.800; -267.000; -101.000
446.105;  148.200; -418.000; -251.000
446.227;  516.400; -176.000;  -19.000
446.349;  -80.200; -358.000; -249.000
446.471; -184.500; -615.000; -448.000
446.593;  -88.700; -316.000;   19.000
446.715;  -30.700;  -67.000;   41.000
446.837;  182.900;  697.000;  832.000
446.959; -147.700; -457.000; -478.000
447.081; -190.600; -628.000; -518.000
447.203;  182.500;  862.000;  834.000
447.325; -132.700; -270.000;   42.000
447.446;   64.600;  286.000;  530.000
447.568; -283.300; -921.000; -803.000
447.690; -155.500; -236.000; -245.000
447.812; -238.500; -798.000; -519.000
447.933;  -24.300;  155.000;  127.000
448.055;  -75.700; -306.000; -261.000
448.177;  164.600;   31.000;   79.000
448.299;  -75.000; -935.000; -727.000
448.420;   43.800;  -25.000;  159.000
448.542;  -37.500;   -3.000;   33.000
448.664;   -6.000;  109.000;  322.000
448.785;   -6.300;  265.000;   83.000
448.907; -138.100; -614.000; -353.000
449.028; -171.300; -771.000; -471.000
449.150;  173.000;  492.000;  589.000
449.272; -320.000;-1044.000; -913.000
449.393;  120.600;  612.000;  694.000
449.515; -234.300; -634.000; -581.000
449.636;  -69.300; -264.000; -155.000
449.758;  175.000;  763.000;  622.000
449.879; -151.700; -498.000; -396.000
450.001; -124.500; -149.000;  -49.000
450.122;  -36.500;  -95.000;  162.000
450.244;    6.900;   37.000;  364.000
450.365; -152.500; -495.000; -301.000
450.486;   -9.200;   80.000;  268.000
450.608;   79.700;  393.000;  326.000
450.729;  161.900;  578.000;  645.000
450.850;  -63.600; -574.000; -466.000
450.972;  369.800; -552.000; -389.000
451.093; 3199.400;  190.000;  588.000
451.214; 1101.000; -516.000; -337.000
451.336;  306.300;  773.000;  579.000
451.457;   56.400;  264.000;  393.000
451.578;  -65.500; -118.000;  -74.000
451.699; -191.400; -546.000; -540.000
451.821;  -62.200; -284.000;  -50.000
451.942;   23.400;  278.000;  285.000
452.063;   69.000;  228.000;  419.000
452.184;  346.600;  -54.000;  -49.000
452.305;  717.400;  103.000;  170.000
452.427;  -35.900; -549.000; -301.000
452.548;  -33.500;   23.000;   79.000
452.669;  -47.500; -257.000;  -89.000
452.790;  -88.600;    3.000;  -18.000
452.911;   35.900;  195.000;  259.000
453.032;  -93.100; -289.000;  -60.000
453.153;  -24.600;  -29.000;   81.000
453.274;  174.500;  737.000;  868.000
453.395;  -50.500;  -51.000;  175.000
453.516;  183.700; 1317.000; 1388.000
453.637; -129.200; -205.000; -150.000
453.758;  -76.000;   15.000;   69.000
453.879; -170.300; -462.000; -250.000
454.000;  191.800; 1086.000;  948.000
454.121; -196.300; -554.000; -326.000
454.242; -169.200; -599.000; -383.000
454.362;  -27.400;  -99.000;  114.000
454.483;  -89.700; -309.000; -229.000
454.604;  108.200;  512.000;  580.000
454.725; -204.500; -627.000; -555.000
454.846; -184.100; -474.000; -406.000
454.967;   40.300;  230.000;  539.000
455.087;   -2.400;  179.000;  153.000
455.208;   91.400;  554.000;  856.000
455.329;  -59.200;  -22.000;   82.000
455.450;  103.200;  473.000;  633.000
455.570; -123.300; -234.000; -211.000
455.691;   -2.500;  201.000;  407.000
455.812; -174.500; -270.000;  -92.000
455.932;  -58.700;  107.000;  -97.000
456.053; -109.700;   36.000;   24.000
456.173; -140.600; -433.000; -355.000
456.294; -186.400; -476.000; -303.000
456.415; -103.800;  -73.000;   70.000
456.535;   21.100;  297.000;  273.000
456.656;   -2.100;  132.000;  240.000
456.776;  -63.400;    3.000;  298.000
456.897;   16.800;  308.000;  513.000
457.017;  -79.500; -153.000;   -3.000
457.138; -183.300; -402.000; -249.000
457.258;   16.100;  263.000;  224.000
457.379;   22.000;  509.000;  521.000
457.499;   33.700;  443.000;  432.000
457.620; -186.800; -407.000; -231.000
457.740; -119.800; -132.000;  -11.000
457.860;  -66.000;   87.000;   44.000
457.981;  -28.200;  132.000;  124.000
458.101;  -94.500;  -89.000;   40.000
458.221;   41.800;  336.000;  402.000
458.342;  -84.200;   -4.000;  -37.000
458.462;   69.400;  617.000;  352.000
458.582;  -89.900; -302.000; -294.000
458.703;   11.700;  303.000;  154.000
458.823;  -16.400;   22.000;  163.000
458.943;   60.200;  341.000;  467.000
459.063;  -28.400; 1124.000;  192.000
459.183;   20.000;  328.000;  313.000
459.304;   40.200;  315.000;  517.000
459.424; -105.500; -246.000;  -89.000
459.544;  303.800;  388.000;  764.000
459.664;  615.500;  499.000;  506.000
459.784;  339.400; 1004.000; 1175.000
459.904;  156.000;  867.000;  744.000
460.024;  151.800;  867.000;  684.000
460.144;   73.100;  449.000;  554.000
460.264;   62.000;  515.000;  327.000
460.385; -145.100; -145.000; -119.000
460.505;  155.400;  905.000;  858.000
460.625;  -81.900;  -17.000;  -68.000
460.745;   26.000;  396.000;  541.000
460.864;  -18.300;  153.000;  469.000
460.984;   64.700;  499.000;  573.000
461.104;  324.000; 1656.000; 1775.000
461.224;   90.600;  657.000;  650.000
461.344;   -5.400;  431.000;  360.000
461.464;    7.300;  258.000;  513.000
461.584;   13.600;  283.000;  466.000
461.704;  -75.400;   58.000;  108.000
461.824;  -59.900;  238.000;  259.000
461.943;  -38.900;  191.000;  130.000
462.063;  -63.400;    2.000;  324.000
462.183;  126.100;  639.000;  717.000
462.303;  267.400; 1678.000; 1230.000
462.422;   95.200;  781.000;  840.000
462.542;  -34.100;  271.000;  391.000
462.662;   66.600;  353.000;  380.000
462.782;  269.600;  833.000;  572.000
462.901;  398.300;  545.000;  717.000
463.021;  420.600; 1702.000; 1638.000
463.141;   -9.200;  337.000;  770.000
463.260;   44.200;  614.000;  474.000
463.380;   98.200;  902.000;  884.000
463.499;   13.000;  342.000;  332.000
463.619;  -16.500;  581.000;  559.000
463.738;  320.900; 1644.000;  903.000
463.858;   97.200;  657.000;  811.000
463.978;   24.200;  542.000;  396.000
464.097;  153.200;  921.000; 1114.000
464.217;  268.300; 1196.000; 1143.000
464.336;  236.700; 1068.000; 1130.000
464.455;   -4.100;  328.000;  659.000
464.575;   75.000;  597.000;  602.000
464.694;  295.700; 1204.000; 1179.000
464.814;  215.500; 1190.000; 1138.000
464.933;  155.600; 1095.000; 1027.000
465.052;  246.700; 1412.000; 1054.000
465.172;  175.300;  922.000;  799.000
465.291;  282.100; 1376.000; 1320.000
465.410;  100.900;  462.000;  735.000
465.530;  238.900; 1355.000; 1310.000
465.649;  202.500; 1209.000; 1273.000
465.768;  317.100; 1673.000; 1508.000
465.888;  139.600;  941.000; 1174.000
466.007;  260.500; 1335.000; 1440.000
466.126;   48.900;  721.000;  641.000
466.245;  164.200; 1176.000; 1187.000
466.364;   71.800;  950.000; 1060.000
466.484;  203.900; 1024.000; 1213.000
466.603;  156.800; 1101.000; 1222.000
466.722;  293.600; 1490.000; 1769.000
466.841;  227.600; 1151.000; 1401.000
466.960;  150.600; 1069.000;  972.000
467.079;  337.800; 1971.000; 1786.000
467.198;  168.200; 1238.000; 1181.000
467.317;  271.500; 1768.000; 1162.000
467.436;  224.500; 1709.000; 1261.000
467.555;  359.100; 1796.000; 1746.000
467.674;  212.900; 1227.000; 1329.000
467.793;  194.100; 1376.000; 1374.000
467.912;  249.800; 1658.000; 1539.000
468.031;  346.100; 2038.000; 1930.000
468.150;  354.100; 1842.000; 1837.000
468.269;  453.900; 2313.000; 2090.000
468.388;  435.900; 2168.000; 2339.000
468.507;  585.000; 2884.000; 2903.000
468.626;  633.300; 2555.000; 2541.000
468.744;  344.300; 2018.000; 2174.000
468.863;  474.300; 2312.000; 2523.000
468.982;  246.400; 1503.000; 1555.000
469.101;  507.700; 2788.000; 2692.000
469.220;  381.300; 2333.000; 2176.000
469.338;  567.500; 2935.000; 3051.000
469.457;  428.600; 2719.000; 2545.000
469.576;  761.500; 3953.000; 3784.000
469.695;  561.300; 2877.000; 3066.000
469.813;  922.300; 4148.000; 4192.000
469.932;  867.400; 4255.000; 4485.000
470.051;  832.000; 4075.000; 4161.000
470.169; 1195.200; 4470.000; 4338.000
470.288; 1644.900; 4700.000; 4809.000
470.406; 1319.900; 5059.000; 5194.000
470.525; 1277.400; 6101.000; 5787.000
470.644; 1420.700; 6847.000; 6794.000
470.762; 1657.700; 8397.000; 7873.000
470.881; 1829.800; 8651.000; 8464.000
470.999; 2108.100; 9685.000; 9151.000
471.118; 2290.600;11174.000;10711.000

