
Integration time [ms]: 100.000
Averaging Nr. [scans]: 40
Smoothing Nr. [pixels]: 0
Data measured with spectrometer [name]: 2101012U2
Wave   ;Sample   ;Dark     ;Reference
[nm]   ;[counts] ;[counts] ;[counts] 

197.733;   53.875;  516.000;  404.000
197.879;  -72.800; -610.000; -634.000
198.025;  -46.325; -475.000; -420.000
198.171;  -79.275; -602.000; -612.000
198.317;  -15.600; -401.000; -316.000
198.463;  -53.075; -655.000; -404.000
198.609;   25.150;  181.000; -137.000
198.755;  -83.600; -644.000; -410.000
198.901;  -74.600; -505.000; -424.000
199.047;  -46.400; -615.000; -488.000
199.193;  -39.550; -230.000; -468.000
199.339;  -43.325; -222.000; -369.000
199.485;   28.400;  330.000;  271.000
199.631;   30.900;  227.000;  310.000
199.777;  -35.550; -466.000; -398.000
199.923;  -63.375; -610.000; -424.000
200.069;    0.550; -141.000;  -58.000
200.215;   52.600;  128.000;  453.000
200.361;   49.150;  243.000;  477.000
200.507;  -65.275; -600.000; -373.000
200.653;  -19.950; -371.000; -194.000
200.798;  -36.175; -215.000; -125.000
200.944;  -12.075; -146.000;  -41.000
201.090;   32.450;   61.000;  222.000
201.236;    5.525; -116.000; -158.000
201.382;  133.000;  874.000;  903.000
201.528;   15.250;  -58.000;  -48.000
201.674;  -34.650; -386.000; -293.000
201.819;  -59.575; -540.000; -439.000
201.965;  -83.250; -699.000; -447.000
202.111;  -17.575; -273.000; -226.000
202.257;  -28.350; -250.000; -238.000
202.402;   -2.450;   13.000;  -36.000
202.548;  -28.825; -169.000; -116.000
202.694;   83.400;  410.000; -183.000
202.840;  -76.200; -603.000; -531.000
202.985;  -72.825; -681.000; -639.000
203.131; -105.225; -832.000; -666.000
203.277;  -23.800; -199.000; -262.000
203.423;  -48.350; -434.000; -520.000
203.568;  -38.675; -462.000; -237.000
203.714;  -56.725; -535.000; -542.000
203.860;  -78.650; -682.000; -641.000
204.005;   12.725;  112.000;  167.000
204.151;   69.400;  561.000;  556.000
204.296;  -39.450; -354.000; -221.000
204.442;  -73.650; -600.000; -547.000
204.588;  -78.825; -592.000; -579.000
204.733;   24.850;  178.000;  168.000
204.879; -125.675;-1018.000; -822.000
205.025;    7.975;  -99.000;  126.000
205.170;   -7.600;  -17.000;   94.000
205.316;   76.675;  438.000;  661.000
205.461;  -71.175; -698.000; -554.000
205.607;   77.850;  609.000;  665.000
205.752;  -78.650; -626.000; -551.000
205.898;  -42.200; -501.000; -391.000
206.043;  -57.100; -578.000; -506.000
206.189;  -49.850; -243.000; -285.000
206.334;   70.175;  554.000;  606.000
206.480;   72.300;  409.000;  239.000
206.625;  -74.875; -529.000; -552.000
206.771;  -48.100; -451.000; -373.000
206.916;  -26.425; -210.000; -537.000
207.062;  -54.500; -545.000; -591.000
207.207;  -50.350; -546.000; -443.000
207.353;   60.925;  185.000;  460.000
207.498;    8.200;  196.000;   85.000
207.643;  -42.725; -501.000; -370.000
207.789; -130.075;-1069.000; -910.000
207.934;  -87.500; -665.000; -713.000
208.080;  -30.575; -154.000;   66.000
208.225;   -2.900;  -22.000;  -57.000
208.370;  -80.750; -727.000; -619.000
208.516;  -70.750; -741.000; -487.000
208.661;  -24.950; -127.000;  -69.000
208.806;   -6.950; -165.000; -171.000
208.952; -134.675;-1044.000; -731.000
209.097;   66.925;  378.000;  349.000
209.242;  -36.500; -307.000; -382.000
209.387;   56.350;  392.000;  350.000
209.533;  -57.925; -321.000; -350.000
209.678;   76.000;  472.000;  543.000
209.823;  -40.075; -408.000; -310.000
209.969;  -94.425; -860.000; -757.000
210.114;  -90.225; -907.000; -719.000
210.259;  -96.975; -939.000; -889.000
210.404;   -9.350; -171.000;  103.000
210.549;   10.150;  108.000;    3.000
210.695;  -15.250;   -3.000;  -95.000
210.840;   40.175;   94.000;   67.000
210.985;  -46.450; -484.000; -303.000
211.130;   77.000;  268.000;  406.000
211.275;   14.850;  207.000;  199.000
211.420;  -56.525; -300.000; -289.000
211.566;  -70.750; -536.000; -489.000
211.711;   22.625;  218.000;  157.000
211.856;  -71.550; -545.000; -519.000
212.001;   16.250;  151.000;   44.000
212.146;   19.275;  153.000;   49.000
212.291;  -15.875; -210.000; -186.000
212.436;  -27.250; -280.000;   -6.000
212.581;  -80.025; -685.000; -653.000
212.726;  -80.000; -487.000; -538.000
212.871;  -52.450; -552.000; -217.000
213.016; -134.475;-1172.000;-1029.000
213.161;   58.200;  406.000;  291.000
213.306;  -68.375; -435.000; -577.000
213.451;  -90.100; -778.000; -689.000
213.596;  -39.325; -455.000; -347.000
213.741;  -42.875; -448.000; -538.000
213.886;  -74.125; -498.000; -517.000
214.031;  -27.675; -294.000; -124.000
214.176;  -49.000; -408.000; -341.000
214.321;  -10.800; -296.000; -157.000
214.466;  -23.025; -163.000;  -43.000
214.611;   -0.625;  -61.000;  -10.000
214.756; -112.000; -948.000; -858.000
214.901;  -14.475; -388.000; -226.000
215.046; -112.425; -797.000; -825.000
215.191;   29.400;  128.000;   35.000
215.336;  -18.200; -157.000;  -19.000
215.480;  -53.525; -684.000; -505.000
215.625;  -17.600; -175.000;  -19.000
215.770;  -77.250; -757.000; -662.000
215.915;   -3.775;   -5.000;  -97.000
216.060;  -11.600; -113.000;  -21.000
216.205; -118.850; -731.000; -779.000
216.349;  -62.800; -470.000; -533.000
216.494; -128.025; -939.000; -867.000
216.639; -112.775; -823.000; -888.000
216.784;  -97.525; -577.000; -525.000
216.929;   56.950;  392.000;  281.000
217.073;  -27.025; -244.000;  -31.000
217.218;   16.600;   78.000;  -47.000
217.363;  -78.475; -656.000; -618.000
217.507;  -68.925; -623.000; -588.000
217.652; -128.050; -845.000; -874.000
217.797;  -84.175; -708.000; -659.000
217.942;  -97.300; -856.000; -720.000
218.086;   79.650;  608.000;  539.000
218.231;  -23.850; -174.000;  -26.000
218.376;  -37.200; -337.000; -229.000
218.520;   13.775;  -41.000;   96.000
218.665;  -23.900; -338.000; -204.000
218.810;  -56.600; -275.000; -233.000
218.954;   24.900;  201.000;   35.000
219.099; -105.550; -713.000; -963.000
219.243;  -64.600; -589.000; -554.000
219.388;  -37.050; -264.000; -136.000
219.532;   -5.275; -116.000; -116.000
219.677;  -77.325; -564.000; -521.000
219.822;    0.475;   33.000;   89.000
219.966;   13.275;   17.000;  -99.000
220.111;  -27.525; -328.000;  -40.000
220.255;  -93.100; -797.000; -750.000
220.400;  -18.975; -180.000; -146.000
220.544;  -73.325; -516.000; -450.000
220.689;  -42.200; -422.000; -451.000
220.833;  -15.800; -123.000;  -58.000
220.978;  -35.800; -393.000; -563.000
221.122;   31.325;  319.000;  307.000
221.267; -110.850; -906.000; -837.000
221.411;  -68.525; -478.000; -394.000
221.555;  -14.650; -104.000;  -23.000
221.700;  -53.225; -329.000; -222.000
221.844;   29.350;  255.000;  272.000
221.989;  -46.150; -328.000; -311.000
222.133;  -35.225; -289.000; -307.000
222.277;  -18.050;    5.000;   78.000
222.422;    2.000;  227.000;  113.000
222.566;  -44.050; -381.000; -214.000
222.711;  -43.075; -414.000; -479.000
222.855;  -85.525; -643.000; -586.000
222.999;  -73.325; -642.000; -717.000
223.144;  -34.950; -195.000; -194.000
223.288;   51.400;  423.000;  251.000
223.432;   36.475;  184.000;  230.000
223.576;    9.350;  152.000;  -21.000
223.721;   30.950;  364.000;  273.000
223.865;  -46.950; -472.000; -475.000
224.009;  232.525; 1673.000; 1631.000
224.153;  -79.775; -660.000; -671.000
224.298;  -78.575; -531.000; -489.000
224.442;   -7.400;  -74.000;  -33.000
224.586;   -9.425; -169.000; -106.000
224.730;  -91.675; -858.000; -670.000
224.875; -102.975; -739.000; -688.000
225.019;   19.575;  102.000;  188.000
225.163;   62.350;  208.000;  341.000
225.307;   20.550;   97.000;  -91.000
225.451;   50.900;  360.000;  481.000
225.595;   30.800;  264.000;  176.000
225.739;  -18.925; -170.000;  -94.000
225.884;   19.875;   86.000;    5.000
226.028; -100.725; -760.000; -626.000
226.172;  -25.325; -260.000; -273.000
226.316; -122.575; -941.000; -902.000
226.460;  -58.425; -645.000; -493.000
226.604;  -43.050; -406.000; -400.000
226.748;  -97.750; -836.000; -733.000
226.892;  -36.650; -227.000; -181.000
227.036;  -32.925; -537.000; -447.000
227.180;  -59.125; -551.000; -375.000
227.324;  -57.125; -561.000; -580.000
227.468; -118.575; -819.000; -717.000
227.612;   10.475;  242.000;  -28.000
227.756;  -96.250; -845.000; -698.000
227.900;   62.150;  342.000;  441.000
228.044;  -58.475; -509.000; -290.000
228.188;   65.350;  448.000;  568.000
228.332;  -77.025; -546.000; -472.000
228.476;  -11.825; -223.000; -149.000
228.620;  -33.675; -210.000; -150.000
228.764;   74.350;  431.000;  349.000
228.908;  -15.375; -155.000;   30.000
229.052;  -55.025; -615.000; -528.000
229.195;   -3.675; -172.000;   13.000
229.339;  -24.100; -235.000; -305.000
229.483;  -33.150;    5.000; -162.000
229.627;   -8.100; -156.000;  139.000
229.771;  -36.225; -218.000; -294.000
229.915;   11.925;  230.000;   79.000
230.059;  -87.525; -648.000; -663.000
230.202;  -26.075; -370.000; -317.000
230.346;  -13.875; -107.000;  107.000
230.490;  -62.375; -489.000; -521.000
230.634; -109.700; -736.000; -553.000
230.777;   78.700;  478.000;  509.000
230.921;  -62.725; -450.000; -359.000
231.065;  -47.975; -246.000; -286.000
231.209;   28.400;  261.000;  265.000
231.352;   21.700;   54.000;   40.000
231.496;   20.975;  568.000;  188.000
231.640;  -75.800; -693.000; -621.000
231.783;   70.275;  546.000;  525.000
231.927;  -52.325; -294.000; -365.000
232.071; -120.850; -962.000; -736.000
232.214; -104.400; -980.000; -764.000
232.358;  -89.725; -683.000; -599.000
232.502;   11.975;  -19.000;    7.000
232.645; -124.375;-1090.000; -927.000
232.789;  -16.875; -257.000; -218.000
232.933;  -39.075; -407.000; -224.000
233.076; -122.575;-1038.000; -897.000
233.220; -100.325; -752.000; -777.000
233.363;  -64.250; -669.000; -477.000
233.507;   43.150;  371.000;  129.000
233.650;  -90.700; -764.000; -834.000
233.794;   41.375;  438.000;  461.000
233.938;  -67.225; -530.000; -362.000
234.081;  -27.150;  -93.000;   31.000
234.225;  -68.475; -631.000; -539.000
234.368; -115.900; -773.000; -723.000
234.512;  -42.825; -385.000; -299.000
234.655;  -81.100; -582.000; -555.000
234.798;  -56.250; -493.000; -466.000
234.942; -121.625; -884.000;-1002.000
235.085;  -66.400; -651.000; -443.000
235.229;  -81.850; -405.000; -410.000
235.372;  -54.825; -247.000; -191.000
235.516;  -63.100; -397.000; -321.000
235.659;   19.825;   92.000;  121.000
235.802;  -17.475;  -38.000;  -22.000
235.946;   27.550;  335.000;  215.000
236.089;   29.600;  126.000;  250.000
236.233;   55.300;  275.000;  298.000
236.376;  -47.750; -235.000; -378.000
236.519;  -39.075; -297.000; -319.000
236.663;  -26.075; -215.000; -117.000
236.806; -134.225;-1029.000; -999.000
236.949;   57.225;  543.000;  431.000
237.092;   53.575;  412.000;  391.000
237.236;  -82.650; -589.000; -502.000
237.379;   66.950;  352.000;  428.000
237.522; -116.125; -879.000; -768.000
237.666;  -16.725; -271.000;   18.000
237.809; -123.775; -851.000; -823.000
237.952;   33.900;  469.000;  271.000
238.095;  -59.050; -447.000; -442.000
238.238;   80.300;  688.000;  700.000
238.382;   -7.550;  166.000;  103.000
238.525;  -63.000; -598.000; -511.000
238.668; -131.000;-1060.000; -985.000
238.811;  -77.675; -638.000; -643.000
238.954;  -46.350; -483.000; -334.000
239.097;  107.250;  617.000;  664.000
239.241;   24.025;  394.000;  326.000
239.384;  -42.225; -254.000; -214.000
239.527;  -60.050; -424.000; -224.000
239.670; -146.725; -994.000;-1091.000
239.813; -100.725; -696.000; -658.000
239.956;   85.975;  579.000;  473.000
240.099; -112.300; -778.000; -725.000
240.242;   62.900;  428.000;  432.000
240.385;   42.375;  466.000;  450.000
240.528;  -65.025; -706.000; -473.000
240.671;    5.850;  189.000;  134.000
240.814;  -28.425; -441.000; -158.000
240.957; -100.775; -767.000; -578.000
241.100;  -79.525; -779.000; -755.000
241.243; -145.575;-1234.000; -893.000
241.386;  -74.625; -508.000; -379.000
241.529;  -95.000; -735.000; -547.000
241.672;  -54.600; -566.000; -495.000
241.815; -114.200; -832.000; -808.000
241.958;  -19.875; -125.000; -182.000
242.101;  -88.550; -545.000; -390.000
242.244;  -32.200; -270.000; -325.000
242.387;  -52.100; -304.000; -246.000
242.530;   58.125;  470.000;  134.000
242.673;  -41.500; -381.000; -309.000
242.815; -112.800; -925.000; -899.000
242.958;  -61.950; -482.000; -381.000
243.101;   18.125;  132.000;  187.000
243.244;  -82.425; -564.000; -521.000
243.387;  -55.925; -313.000; -316.000
243.530; -104.200; -657.000; -674.000
243.672;    0.925;   43.000;  -92.000
243.815;  -49.500; -355.000; -283.000
243.958;   -5.450;   98.000;  -26.000
244.101;   -2.550;   59.000;  -16.000
244.243;   -3.675;  -47.000;  101.000
244.386; -106.150; -761.000; -630.000
244.529;  -26.500; -132.000; -139.000
244.672; -152.875;-1154.000; -951.000
244.814; -100.875; -621.000; -794.000
244.957;  -65.725; -380.000; -304.000
245.100;  -65.225; -489.000; -489.000
245.242;  -59.100; -387.000; -374.000
245.385;   -1.200;  -59.000;  -39.000
245.528; -118.875; -871.000; -705.000
245.670;   86.875;  612.000;  634.000
245.813;  -71.350; -599.000; -547.000
245.956;  -48.750; -324.000; -275.000
246.098;  -70.225; -508.000; -650.000
246.241;   11.425;  194.000;   48.000
246.383;   -4.025; -119.000;  -73.000
246.526;  -62.225; -454.000; -525.000
246.669; -114.175; -889.000; -780.000
246.811;   17.050;  172.000;   -1.000
246.954;  -64.475; -512.000; -426.000
247.096;  -18.950;  -84.000;   -6.000
247.239;  -65.025; -482.000; -445.000
247.381;  -54.925; -647.000; -488.000
247.524;   71.600;  645.000;  679.000
247.666;  -16.750;   58.000;   11.000
247.809; -116.750; -887.000; -691.000
247.951;   -3.425;  -75.000;  138.000
248.094;   22.675;  432.000;  308.000
248.236; -154.000;-1262.000;-1238.000
248.378;    4.075; -356.000;  -81.000
248.521;  -21.925; -334.000; -337.000
248.663;  -32.600; -236.000; -267.000
248.806;  -14.925; -300.000; -266.000
248.948;  -94.000; -886.000; -763.000
249.090;  -34.125; -428.000; -398.000
249.233;  -44.050; -344.000; -381.000
249.375;  -66.425; -474.000; -451.000
249.518;  -20.925;  -83.000; -133.000
249.660;   -9.950; -103.000;    3.000
249.802; -161.250;-1303.000;-1189.000
249.945;  -67.375; -612.000; -540.000
250.087; -110.650; -834.000; -768.000
250.229;  -44.475; -362.000; -480.000
250.371;  -65.225; -494.000; -439.000
250.514;  -60.150; -310.000; -244.000
250.656;   -7.900;   69.000;  102.000
250.798; -111.275; -849.000; -800.000
250.940;  -60.225; -322.000; -322.000
251.083;  -13.875; -335.000; -111.000
251.225;   61.625;  338.000;  310.000
251.367;  -46.650; -274.000; -373.000
251.509;  -36.350; -265.000; -210.000
251.651;  -89.000; -731.000; -671.000
251.794;   51.600;  538.000;  632.000
251.936; -106.050; -821.000; -747.000
252.078;  -85.625; -540.000; -461.000
252.220;  -64.925; -645.000; -477.000
252.362;   63.375;  344.000;  462.000
252.504;  -61.225; -677.000; -584.000
252.646; -112.400; -875.000; -722.000
252.788;   -5.050;   14.000; -128.000
252.931;  -33.725; -257.000; -253.000
253.073;  -45.700; -376.000; -317.000
253.215;   -2.850;  141.000;  122.000
253.357;  -22.725;   82.000; -153.000
253.499;  -48.450; -374.000; -234.000
253.641;  -88.350; -749.000; -594.000
253.783;  -87.725; -609.000; -527.000
253.925;  -83.250; -586.000; -591.000
254.067; -111.725; -744.000; -667.000
254.209;  -34.425; -391.000; -259.000
254.351; -142.000; -865.000; -883.000
254.493;  -65.775; -441.000; -417.000
254.635; -124.675; -936.000; -818.000
254.777;  -85.675; -752.000; -687.000
254.918;  -71.750; -512.000; -430.000
255.060;  -58.400; -551.000; -395.000
255.202;  -62.575; -473.000; -261.000
255.344;  -74.375; -658.000; -455.000
255.486;  -74.375; -471.000; -406.000
255.628; -110.050; -780.000; -781.000
255.770; -101.325; -676.000; -536.000
255.912;  -63.875; -559.000; -468.000
256.053;  -97.050; -730.000; -508.000
256.195;  142.950; 1008.000;  903.000
256.337;  -99.050; -861.000; -595.000
256.479;   54.600;  532.000;  416.000
256.621;  -46.450; -394.000; -212.000
256.762;  -98.100; -789.000; -742.000
256.904;   45.550;  485.000;  487.000
257.046;  -33.500; -381.000; -271.000
257.188;  -49.475; -351.000; -264.000
257.329;  -73.100; -525.000; -464.000
257.471; -114.950; -939.000; -807.000
257.613;  -61.250; -584.000; -498.000
257.755; -140.200;-1073.000; -982.000
257.896;   33.025;  286.000;  392.000
258.038;  -64.225; -403.000; -352.000
258.180;  -33.975; -354.000; -279.000
258.321;  -75.850; -581.000; -457.000
258.463;   -8.175;  -71.000;  133.000
258.605;  -97.125; -562.000; -570.000
258.746;  -99.375; -886.000; -772.000
258.888; -150.450;-1026.000;-1020.000
259.029;   21.950;  121.000;   -8.000
259.171;  -85.550; -614.000; -550.000
259.313;   -3.875;  -49.000;  -47.000
259.454;  -82.325; -536.000; -414.000
259.596;  -57.000; -483.000; -390.000
259.737;  -79.450; -590.000; -474.000
259.879;   38.200;  217.000;  311.000
260.020;   92.550;  901.000;  636.000
260.162;  -18.150; -146.000; -253.000
260.303; -111.225; -768.000; -687.000
260.445;  -78.700; -609.000; -613.000
260.586;   21.100;  392.000;  157.000
260.728;  -42.875; -360.000; -248.000
260.869; -117.900; -350.000; -343.000
261.011;   89.175;  706.000;  537.000
261.152;  -70.125; -479.000; -319.000
261.293;  -92.225; -576.000; -595.000
261.435;  -49.325; -219.000; -184.000
261.576;  -36.850; -455.000; -325.000
261.718;   31.550;  420.000;  470.000
261.859; -128.475; -940.000; -949.000
262.000; -137.225; -951.000;-1016.000
262.142;  -14.275;  -52.000;  -60.000
262.283; -123.575; -808.000; -691.000
262.424;  -81.825; -666.000; -625.000
262.566; -159.825;-1161.000; -983.000
262.707; -120.000; -840.000; -830.000
262.848; -111.525; -769.000; -726.000
262.990;  -42.725; -362.000; -345.000
263.131;   66.950;  650.000;  681.000
263.272;    3.000;  -61.000;  -41.000
263.413;  -96.475; -589.000; -561.000
263.555;  -62.450; -669.000; -143.000
263.696;  -82.950; -550.000; -641.000
263.837;  -55.700; -449.000; -551.000
263.978;  -12.150;   -5.000;  -77.000
264.119;  -52.325; -283.000; -264.000
264.261; -116.600; -847.000; -630.000
264.402;   -9.925;   33.000;   40.000
264.543;  -94.450; -509.000; -524.000
264.684;  -12.975;   61.000;  -50.000
264.825;  -71.725; -816.000; -538.000
264.966;   -3.150;  -84.000;  -67.000
265.107; -112.275; -646.000; -670.000
265.248; -116.675; -825.000; -812.000
265.390;  -21.450;  152.000;   -9.000
265.531;  -28.350; -238.000; -107.000
265.672;  -94.250; -557.000; -630.000
265.813;   57.925;  563.000;  439.000
265.954; -140.900; -959.000; -940.000
266.095;  -17.450; -372.000; -322.000
266.236;  -94.050; -686.000; -548.000
266.377;  -41.925; -243.000; -297.000
266.518;  -73.750; -619.000; -547.000
266.659;   30.850;  170.000;  268.000
266.800;    8.000;   83.000;   85.000
266.941;  -69.375; -487.000; -478.000
267.082;   16.000;  354.000;   99.000
267.223;  -53.525; -344.000; -273.000
267.364; -114.650; -892.000; -686.000
267.504;  -14.075;    3.000;  135.000
267.645;   -9.925;  160.000;   67.000
267.786;  -32.925; -147.000;  -86.000
267.927;  -58.500; -473.000; -379.000
268.068;  -18.050; -186.000;  -61.000
268.209;  -45.600; -175.000; -413.000
268.350;  -55.150; -388.000; -532.000
268.490;  -90.300; -648.000; -521.000
268.631;   26.625;  127.000;  225.000
268.772; -122.025; -874.000; -647.000
268.913;  -41.825; -328.000; -476.000
269.054;  -16.700; -117.000;   12.000
269.194;  -51.750; -418.000; -402.000
269.335; -159.825;-1137.000;-1074.000
269.476;  -21.775;   33.000;  -35.000
269.617;  -53.800; -347.000; -392.000
269.757;  -84.150; -713.000; -646.000
269.898; -113.125; -856.000; -613.000
270.039;  -65.525; -415.000; -405.000
270.180; -130.000; -952.000; -816.000
270.320;  -23.475; -190.000; -250.000
270.461;  -46.775; -277.000; -249.000
270.602;  -20.275; -186.000; -156.000
270.742; -126.000; -868.000; -943.000
270.883;  -73.375; -442.000; -390.000
271.023;  -59.875; -358.000; -357.000
271.164;  -74.325; -607.000; -528.000
271.305; -107.075; -666.000; -654.000
271.445;  -87.850; -722.000; -683.000
271.586;  -64.850; -462.000; -283.000
271.726;  -53.425; -397.000; -322.000
271.867;  -57.075; -594.000; -534.000
272.008;  170.525; -473.000; -285.000
272.148;  113.475;  462.000;  468.000
272.289;    7.025; -113.000; -181.000
272.429;   15.100;   19.000;  185.000
272.570;  -90.825; -633.000; -737.000
272.710;  -98.250; -825.000; -775.000
272.851;  -19.575;  113.000; -130.000
272.991; -159.300;-1173.000;-1077.000
273.131;  -73.625; -419.000; -459.000
273.272;  -96.600; -683.000; -723.000
273.412;   10.800; -143.000;  -31.000
273.553;  -53.200; -488.000; -507.000
273.693;  144.675;  913.000;  858.000
273.834; -102.475; -894.000; -692.000
273.974;  -74.750; -664.000; -615.000
274.114;  -96.750; -772.000; -560.000
274.255;   88.425;  414.000;  373.000
274.395;   -2.900; -180.000; -125.000
274.535;   39.225;  199.000;  350.000
274.676;   20.175;  225.000;   94.000
274.816;    4.700;  110.000;   34.000
274.956;  -78.925; -624.000; -690.000
275.097;  -64.975;-1014.000; -922.000
275.237; -123.500; -913.000; -803.000
275.377;  -89.350; -778.000; -689.000
275.517; -144.975; -878.000; -937.000
275.658;  -55.200; -590.000; -555.000
275.798;  -75.875; -606.000; -413.000
275.938;    4.625;  215.000;  323.000
276.078;  -98.675; -626.000; -395.000
276.218;   16.375;   99.000;  104.000
276.359; -132.975;-1026.000;-1024.000
276.499;  -79.900; -605.000; -446.000
276.639;  -30.325; -305.000; -151.000
276.779;  -36.875; -475.000; -357.000
276.919; -118.075; -783.000; -624.000
277.059;  -14.000; -261.000; -212.000
277.199;  -50.675; -357.000; -259.000
277.340;   43.300;  287.000;  175.000
277.480; -106.050; -840.000; -693.000
277.620;   25.525;  192.000;   16.000
277.760; -189.550;-1533.000;-1294.000
277.900;    8.650;  113.000;   33.000
278.040;    0.400;  137.000;  159.000
278.180;   30.650;  270.000;  170.000
278.320;   -3.100;   21.000;   56.000
278.460;  -75.225; -443.000; -469.000
278.600;  -85.750; -708.000; -598.000
278.740;   42.050;  448.000;  224.000
278.880;  -70.725; -768.000; -791.000
279.020;  -20.650; -194.000; -144.000
279.160;  -75.575; -672.000; -595.000
279.300; -118.000; -926.000; -873.000
279.440;  -88.550; -709.000; -622.000
279.579;  -27.175;-1014.000; -929.000
279.719;  -48.000; -410.000; -394.000
279.859;   60.850;   -4.000;   41.000
279.999;   11.675; -208.000;  101.000
280.139;  -10.375; -435.000; -387.000
280.279;  -80.100; -708.000; -745.000
280.419;  -29.325; -229.000; -147.000
280.559;  -44.900; -259.000; -180.000
280.698;  -87.200; -790.000; -639.000
280.838;  -90.050; -778.000; -800.000
280.978;  -95.050; -846.000; -790.000
281.118; -112.175; -811.000; -704.000
281.257;    7.300;   24.000;    6.000
281.397; -133.200;-1094.000; -960.000
281.537;  -83.325; -599.000; -712.000
281.677;  -24.950; -150.000; -101.000
281.816;  -93.200; -700.000; -630.000
281.956;  -53.350; -193.000; -257.000
282.096;  -55.250; -539.000; -396.000
282.235; -121.875; -672.000; -638.000
282.375;  -22.575; -243.000;  -98.000
282.515; -102.300; -715.000; -707.000
282.654;   32.850;   29.000;  106.000
282.794;   20.100;  388.000;  244.000
282.934;  -66.200; -530.000; -491.000
283.073; -127.550;-1030.000; -857.000
283.213;  -55.625; -460.000; -467.000
283.353;  -35.300; -408.000; -349.000
283.492;  -43.650; -264.000; -296.000
283.632;  -48.575; -254.000; -168.000
283.771;  -94.100; -859.000; -730.000
283.911;  -54.025; -369.000; -260.000
284.050;  -95.550; -794.000; -748.000
284.190; -151.925;-1229.000;-1096.000
284.329; -135.150;-1055.000; -964.000
284.469;  -79.400; -516.000; -591.000
284.608;  -51.200; -559.000; -598.000
284.748; -100.100; -614.000; -570.000
284.887;   -8.450;  -87.000;  -20.000
285.027; -129.975; -844.000; -892.000
285.166;  -28.750; -192.000; -249.000
285.306;  -10.925; -116.000;  -33.000
285.445;  -42.475; -229.000; -343.000
285.584;  -93.200; -630.000; -494.000
285.724;  -48.775; -282.000; -322.000
285.863; -107.425; -857.000; -507.000
286.002;  -49.500; -366.000; -276.000
286.142; -105.750; -715.000; -622.000
286.281;  -73.275; -525.000; -493.000
286.420;  -96.200; -554.000; -417.000
286.560;   92.350;  653.000;  623.000
286.699; -137.150; -958.000; -912.000
286.838;  -85.550; -590.000; -591.000
286.978;  -94.275; -533.000; -537.000
287.117; -131.925;-1085.000; -950.000
287.256;  -47.725; -228.000; -211.000
287.395;  -55.875; -197.000; -378.000
287.535;  -56.450; -370.000; -298.000
287.674;  -69.875; -509.000; -484.000
287.813;   39.450;  661.000;  533.000
287.952; -128.950;-1010.000; -871.000
288.091; -142.575;-1049.000; -915.000
288.231;    0.850;   13.000;   15.000
288.370; -168.525;-1217.000;-1200.000
288.509;  -90.150; -728.000; -645.000
288.648;  -82.700; -770.000; -548.000
288.787;  -28.300; -243.000;  -87.000
288.926;  -60.900; -454.000; -475.000
289.065;  111.100;  859.000;  672.000
289.204;  -49.075; -377.000; -217.000
289.344;  -98.200; -791.000; -690.000
289.483;   10.250;  416.000;  304.000
289.622;  -31.250; -291.000; -149.000
289.761;  -22.025; -309.000; -166.000
289.900; -107.350; -785.000; -626.000
290.039;   -5.625;  -12.000;  -95.000
290.178;  -49.075; -274.000; -180.000
290.317;  -88.525; -618.000; -479.000
290.456;  -73.500; -463.000; -451.000
290.595; -123.275; -961.000; -833.000
290.734; -130.750; -904.000; -891.000
290.873;  -53.125; -456.000; -420.000
291.011; -108.850; -833.000; -843.000
291.150; -117.450; -770.000; -682.000
291.289;  -23.150; -343.000; -110.000
291.428;  -98.725; -599.000; -480.000
291.567;  -62.175; -370.000; -442.000
291.706;  -11.300;  109.000;  154.000
291.845;  -91.675; -597.000; -505.000
291.984; -169.200;-1234.000;-1061.000
292.122;   62.900;  602.000;  582.000
292.261;   48.975;  620.000;  463.000
292.400;   -1.850; -144.000;  211.000
292.539; -129.100; -959.000; -813.000
292.678;  -34.125; -325.000; -300.000
292.816; -158.875;-1136.000; -965.000
292.955;  -87.900; -844.000; -684.000
293.094;  -34.525; -173.000; -337.000
293.233;  -60.550; -556.000; -400.000
293.371;  -42.825; -225.000;  -84.000
293.510;  -98.475; -866.000; -780.000
293.649; -131.850; -959.000; -924.000
293.787;  -78.825;-1083.000;-1012.000
293.926;  -18.475; -113.000;  -32.000
294.065;  -46.725; -379.000; -290.000
294.203;   45.050;  298.000;  406.000
294.342;   21.475;   74.000;  156.000
294.481; 6321.125;51180.000; -836.000
294.619;  -32.375; -425.000; -582.000
294.758; -134.750;-1230.000;-1137.000
294.896;   60.500; -125.000;    5.000
295.035; -131.275;-1040.000;-1006.000
295.174; -124.950;-1082.000; -954.000
295.312;  -39.100; -323.000; -203.000
295.451;  -23.600; -307.000; -428.000
295.589;  -61.150; -389.000; -518.000
295.728;   18.050; -292.000; -165.000
295.866;   -8.725;  -36.000;  -51.000
296.005;  -57.500; -584.000; -341.000
296.143;  -68.750; -558.000; -596.000
296.282; -109.975; -957.000; -881.000
296.420;  -83.025; -657.000; -557.000
296.559;  -86.450; -892.000; -633.000
296.697;   12.750; -847.000; -665.000
296.835;   35.550;-1141.000;-1002.000
296.974;   41.950;  -23.000;   39.000
297.112;  -15.775; -443.000; -504.000
297.251;  -78.075; -815.000; -755.000
297.389;   62.550; -576.000; -438.000
297.527;    7.650; -145.000;  -83.000
297.666;  -56.925; -486.000; -438.000
297.804;  -62.175; -404.000; -264.000
297.942;  -20.325; -136.000; -161.000
298.081;   -7.200; -183.000;   63.000
298.219;   59.200;  -17.000;  -19.000
298.357;   27.600; -144.000;  -71.000
298.495;    9.275; -810.000; -812.000
298.634;   47.450;  245.000;  219.000
298.772;   23.750; -220.000; -338.000
298.910;  -33.675; -309.000; -182.000
299.048;  -25.150; -130.000; -153.000
299.187;  -47.700; -350.000; -250.000
299.325;    8.300;   52.000;  122.000
299.463;   39.175; -389.000; -299.000
299.601;   71.050; -327.000; -271.000
299.739; -114.525; -908.000; -883.000
299.877;  -81.875; -791.000; -703.000
300.016;  -41.700;-1095.000; -935.000
300.154;  132.075;  -19.000; -161.000
300.292;   38.975; -428.000; -348.000
300.430;   18.600; -408.000; -291.000
300.568; -126.075; -940.000; -874.000
300.706;  -54.500; -366.000; -469.000
300.844;  -87.375;-1108.000; -979.000
300.982;  100.225;  246.000;  282.000
301.120; -112.125; -965.000; -866.000
301.258;  -71.775; -812.000; -705.000
301.396;   22.625;  104.000;  -41.000
301.534;   55.325; -218.000; -293.000
301.672;  -32.100; -664.000; -521.000
301.810;   10.950; -613.000; -545.000
301.948;   90.150;   53.000;  149.000
302.086;  552.000; -250.000;  -32.000
302.224;  824.050; -610.000; -585.000
302.362;    9.975; -558.000; -622.000
302.500;  -34.225; -923.000; -893.000
302.638;   83.700;  128.000;  245.000
302.776;  -15.325; -352.000; -408.000
302.913;   52.200;  447.000;  236.000
303.051;   -5.500;  -86.000;  -23.000
303.189;   41.450;   90.000;  118.000
303.327;  -41.400; -341.000; -256.000
303.465;  -93.200; -832.000; -588.000
303.603;  -93.300; -805.000; -604.000
303.740;   97.325;  417.000;  241.000
303.878;   -3.225; -800.000; -759.000
304.016;  -93.500; -915.000; -790.000
304.154; -129.875;-1123.000;-1152.000
304.291;  -37.000; -505.000; -554.000
304.429;    5.600;  102.000;   74.000
304.567; -126.250; -908.000; -893.000
304.705;  -64.675; -408.000; -515.000
304.842;   80.875; -616.000; -540.000
304.980;   32.175;  215.000;   35.000
305.118;   37.250; -367.000; -365.000
305.255;  -90.850; -945.000; -927.000
305.393;   59.525;  178.000;  239.000
305.531; -104.375;-1173.000; -956.000
305.668;  -69.300; -663.000; -582.000
305.806;  110.050; -358.000; -439.000
305.943;   86.975; -629.000; -637.000
306.081;   45.350; -378.000; -267.000
306.219; -113.025; -863.000; -748.000
306.356;    6.450;  158.000;   27.000
306.494;   93.050;  981.000;  761.000
306.631;  -20.350;  -11.000;  -55.000
306.769;   -6.975; -613.000; -485.000
306.906;  -19.425; -284.000; -258.000
307.044;  -58.450; -473.000; -488.000
307.181;  -80.800; -410.000; -332.000
307.319;    8.825;  112.000;   87.000
307.456; -182.950;-1191.000;-1153.000
307.594; -108.825; -980.000; -727.000
307.731;  -26.625; -371.000; -164.000
307.868;    1.275;  -15.000;   20.000
308.006; -142.325; -961.000; -847.000
308.143;  -78.925; -618.000; -330.000
308.281;  152.875;  -37.000; -254.000
308.418;  -22.250; -748.000; -640.000
308.555;  -76.125; -400.000; -250.000
308.693;  -73.550; -577.000; -573.000
308.830; -113.925; -712.000; -657.000
308.967;  -13.400; -215.000;  -95.000
309.105;  -55.100; -507.000; -396.000
309.242;   37.375; -468.000; -367.000
309.379;  268.575; -577.000; -655.000
309.517;  -79.650; -936.000; -948.000
309.654;  -99.525; -910.000; -734.000
309.791;  -75.025; -662.000; -580.000
309.928; -128.125; -977.000; -914.000
310.065;  163.350;  819.000;  697.000
310.203;  -18.125; -825.000; -850.000
310.340;  -23.700; -465.000; -321.000
310.477;  -81.850; -412.000; -516.000
310.614;  -58.425; -383.000; -473.000
310.751;  -85.450; -427.000; -518.000
310.889;  -42.175;    1.000;   11.000
311.026; -160.450;-1161.000; -939.000
311.163;  -44.350; -386.000; -380.000
311.300;  -83.150; -512.000; -479.000
311.437;  -79.075; -658.000; -619.000
311.574; -162.300;-1226.000; -985.000
311.711;  -74.975; -595.000; -433.000
311.848;  -60.875; -380.000; -388.000
311.985;   -1.825;  270.000;   93.000
312.122; -117.450; -932.000; -762.000
312.259; -142.450; -941.000; -994.000
312.396;  -84.675; -508.000; -551.000
312.533;  -97.150; -812.000; -790.000
312.670; -145.900;-1070.000; -898.000
312.807;  -42.700; -352.000; -367.000
312.944;  -91.325; -513.000; -611.000
313.081;  -48.325; -150.000; -415.000
313.218; -116.650;-1111.000; -867.000
313.355;   -9.575; -531.000; -449.000
313.492;  -19.600; -455.000; -292.000
313.629;  127.750;  815.000;  735.000
313.766; -169.650;-1176.000;-1008.000
313.902;  -16.275; -186.000;   21.000
314.039;  -50.675; -372.000; -289.000
314.176;   25.400;  286.000;  192.000
314.313;  -69.025; -569.000; -473.000
314.450;  -74.275; -788.000; -684.000
314.587;  -70.650; -468.000; -480.000
314.723;   -0.625;  -78.000;  130.000
314.860;   22.650;  318.000;  332.000
314.997;   31.675;  223.000;  142.000
315.134;  -31.125; -385.000; -368.000
315.270;  -30.225; -480.000; -496.000
315.407; -133.000;-1094.000; -967.000
315.544;  -57.700; -657.000; -538.000
315.681;  -67.600; -681.000; -565.000
315.817;   21.625; -133.000; -176.000
315.954;    4.475; -613.000; -392.000
316.091; -132.575;-1045.000;-1023.000
316.227;  -29.600;  -71.000; -179.000
316.364;   -5.950;   23.000;    6.000
316.500;  -38.275; -113.000; -300.000
316.637;  -45.100; -181.000; -302.000
316.774;  -92.425; -625.000; -358.000
316.910;  -90.225; -598.000; -629.000
317.047;  -82.125; -487.000; -351.000
317.183;  -59.200; -435.000; -566.000
317.320;   -9.850; -367.000; -321.000
317.456;  -57.650; -733.000; -805.000
317.593;  -94.100; -598.000; -641.000
317.729;    0.000;  168.000;  -67.000
317.866; -202.675;-1434.000;-1285.000
318.002;  -81.025; -708.000; -948.000
318.139; -118.550; -883.000; -867.000
318.275; -127.625;-1003.000; -738.000
318.412;  -64.675; -517.000; -336.000
318.548;  -57.425; -751.000; -720.000
318.685; -103.325; -985.000; -888.000
318.821;  -98.325; -762.000; -735.000
318.957;  -27.975;   34.000;  -23.000
319.094;   37.575;  297.000;  154.000
319.230;  -75.225; -756.000; -742.000
319.367;   95.425; -471.000; -520.000
319.503;   29.300; -538.000; -436.000
319.639;  -94.600; -877.000; -793.000
319.775;  -70.075; -750.000; -685.000
319.912;  -54.500; -424.000; -519.000
320.048;  -93.225;-1184.000;-1184.000
320.184;   73.575;   59.000;   70.000
320.321;  -70.775; -497.000; -467.000
320.457;   60.175;  475.000;  662.000
320.593;  -74.950; -375.000; -382.000
320.729; -114.700; -732.000; -734.000
320.866;  -85.825; -577.000; -635.000
321.002;  -91.025; -759.000; -809.000
321.138;  -10.650; -135.000; -211.000
321.274;   68.000; -148.000; -115.000
321.410;  -48.050; -585.000; -353.000
321.546;  -43.575;-1011.000; -911.000
321.683;   42.850;  400.000;  185.000
321.819;    7.700;  -48.000; -117.000
321.955; -116.750; -743.000; -722.000
322.091;  -56.150; -585.000; -540.000
322.227;  -11.950; -382.000; -202.000
322.363;  -31.900; -320.000; -215.000
322.499;  -55.325; -343.000; -331.000
322.635;  152.975;  636.000;  443.000
322.771;    8.900; -139.000;   12.000
322.907;   74.450;  129.000;  327.000
323.043;  -30.225; -115.000; -206.000
323.179;  -38.200; -394.000; -363.000
323.315;   -5.175; -401.000; -371.000
323.451;   61.800; -328.000; -236.000
323.587;   54.675;  -60.000;  -77.000
323.723;    6.225; -682.000; -601.000
323.859;  -31.450; -258.000;  -76.000
323.995;  -36.025; -467.000; -409.000
324.131; -119.200; -967.000; -892.000
324.267;  -56.725; -254.000; -276.000
324.402; -131.725; -960.000; -983.000
324.538;  -25.625; -279.000; -104.000
324.674;   11.000;  164.000;   77.000
324.810;  110.450;  226.000;  308.000
324.946;  -24.775; -810.000; -658.000
325.082;  -76.900; -568.000; -475.000
325.217;  -11.250;  -62.000;   16.000
325.353; -104.100; -764.000; -659.000
325.489; -101.725; -540.000; -506.000
325.625;  -70.125; -579.000; -525.000
325.760;   63.100;  517.000;  376.000
325.896;  -11.625; -515.000; -702.000
326.032;  -59.050; -403.000; -352.000
326.168;  -65.050; -462.000; -369.000
326.303;  -68.425; -352.000; -461.000
326.439;  -11.575; -336.000; -276.000
326.575;  -10.025; -190.000;  -29.000
326.710;   -5.850; -156.000;  -30.000
326.846;  -13.750;  146.000;  103.000
326.982;  -93.400; -530.000; -548.000
327.117;  -66.675; -481.000; -442.000
327.253;  -79.225; -745.000; -742.000
327.388; -170.800;-1137.000;-1153.000
327.524;  -60.975; -811.000; -578.000
327.659;  -26.475;  -58.000;  -22.000
327.795;  -22.275;   69.000;   45.000
327.931;  -89.600; -723.000; -499.000
328.066;  -28.300; -417.000; -276.000
328.202;  -29.050;   12.000; -129.000
328.337;   81.925;  957.000;  713.000
328.473;   21.775;  -12.000;  -74.000
328.608;  -28.775; -256.000; -267.000
328.743;  -84.750; -799.000; -664.000
328.879;   13.850;  214.000;  114.000
329.014;  -49.375; -102.000; -122.000
329.150;  -88.150; -358.000; -483.000
329.285;  -63.700; -465.000; -466.000
329.421;  -50.325; -548.000; -246.000
329.556;  -29.075;  -36.000;   85.000
329.691;  -90.775; -633.000; -615.000
329.827;  -83.525; -626.000; -480.000
329.962;  -34.925;  131.000; -301.000
330.097;  -89.975; -673.000; -585.000
330.233;  -45.075; -410.000; -223.000
330.368; -136.450; -839.000; -628.000
330.503;  -17.900;    3.000;   98.000
330.638;    1.250;  -93.000; -125.000
330.774;  -62.975; -609.000; -530.000
330.909;  -67.375; -434.000; -244.000
331.044;  -88.975; -714.000; -708.000
331.179; -171.225;-1217.000;-1109.000
331.315;   -6.425;   77.000;   20.000
331.450;    0.075;  157.000;  285.000
331.585;  -93.825; -805.000; -706.000
331.720;  -88.725; -510.000; -460.000
331.855;  -15.975;  -35.000; -102.000
331.990;  288.500;   62.000;  138.000
332.126;  129.300; -110.000;   71.000
332.261;  -33.000; -379.000; -265.000
332.396;    5.550; -135.000; -242.000
332.531;  -93.275;-1074.000;-1031.000
332.666;   23.375; -519.000; -363.000
332.801; -116.100; -726.000; -807.000
332.936;  -29.950; -192.000; -122.000
333.071; -152.900; -870.000; -817.000
333.206;    0.700;  307.000;  379.000
333.341;   15.375;  344.000;  418.000
333.476; -101.975; -627.000; -623.000
333.611;  -44.475; -251.000; -173.000
333.746;  -60.525; -381.000; -464.000
333.881; -127.975; -973.000; -935.000
334.016; -133.075; -936.000; -917.000
334.151; -142.000; -746.000; -702.000
334.286;   22.850;  152.000;  186.000
334.421;  -27.100; -125.000; -178.000
334.556;  -85.800; -611.000; -567.000
334.690;  -92.250; -631.000; -577.000
334.825;   50.750;  381.000;   83.000
334.960;  -75.425; -285.000; -413.000
335.095;    6.075;  135.000;  -91.000
335.230; -106.975; -722.000; -738.000
335.365; -142.100;-1084.000; -990.000
335.499; -143.375;-1108.000;-1037.000
335.634;   11.325;    9.000;  534.000
335.769; -106.400; -755.000; -720.000
335.904;  -64.275; -603.000; -561.000
336.038;  -58.825; -735.000; -657.000
336.173; -123.900;-1206.000;-1194.000
336.308;   -4.825; -116.000; -189.000
336.443;    9.075; -544.000; -634.000
336.577;  -87.675; -936.000; -787.000
336.712;   54.500;   -4.000;  -12.000
336.847;  -52.200; -724.000; -607.000
336.981;   41.300; -272.000; -208.000
337.116;  252.825;  615.000;  501.000
337.250;  129.975; -434.000; -421.000
337.385;  285.025; -297.000; -208.000
337.520;  114.900; -632.000; -603.000
337.654;  -48.750; -215.000; -126.000
337.789; -124.400; -989.000; -933.000
337.923;  -45.175; -104.000; -205.000
338.058;  -91.225; -673.000; -738.000
338.192;  -57.375; -611.000; -488.000
338.327;   -2.375;  -18.000; -155.000
338.461;  -78.300; -299.000; -469.000
338.596;  -91.850; -780.000; -638.000
338.730;  -92.750; -767.000; -803.000
338.865;  102.450;  -46.000; -140.000
338.999;  -47.350; -846.000; -702.000
339.134;  -17.150; -634.000; -536.000
339.268;    5.150; -741.000; -603.000
339.403;  376.650; -740.000; -775.000
339.537;  140.025; -894.000; -820.000
339.671; -107.425; -829.000; -813.000
339.806;  -60.675; -556.000; -512.000
339.940;   11.425; -261.000; -235.000
340.074;  -77.075; -685.000; -510.000
340.209;  -50.525; -351.000; -230.000
340.343;  -97.175; -517.000; -573.000
340.477;  138.775;  998.000; 1036.000
340.612;  -49.125;-1033.000; -900.000
340.746;  160.725; -199.000; -243.000
340.880;  -77.575; -924.000; -785.000
341.014;  -25.825;  -45.000; -154.000
341.149; -122.175; -756.000; -718.000
341.283; -118.700; -839.000; -754.000
341.417; -113.925;-1124.000; -938.000
341.551;   98.175; -768.000; -708.000
341.685;  -50.975; -633.000; -611.000
341.820;  -49.000; -562.000; -493.000
341.954;  -61.300; -218.000; -349.000
342.088; -155.750;-1102.000;-1019.000
342.222;   52.750;  565.000;  618.000
342.356;  -75.200; -395.000; -335.000
342.490;  -92.075; -880.000; -841.000
342.624;  -52.575; -339.000; -242.000
342.758;  -15.075; -364.000; -312.000
342.892;  -74.750; -710.000; -585.000
343.026;  -48.750;  -58.000; -116.000
343.160;  -61.750; -426.000; -376.000
343.294;  -84.500; -474.000; -337.000
343.428;  -35.800; -488.000; -448.000
343.562;  -23.300; -172.000;  -23.000
343.696;  -37.300; -385.000; -314.000
343.830;  -31.650; -362.000; -356.000
343.964;    9.750; -231.000; -168.000
344.098;  787.950;  199.000;   70.000
344.232;  661.475; -266.000; -127.000
344.366;   76.750; -567.000; -453.000
344.500;   26.850; -665.000; -744.000
344.634;   10.875; -324.000; -164.000
344.768;  -21.675; -531.000; -341.000
344.902;   12.975;  278.000;  256.000
345.035;  -74.525; -556.000; -496.000
345.169; -141.500; -933.000; -656.000
345.303;  -31.750; -308.000; -482.000
345.437;  -97.575; -826.000; -717.000
345.571;  -77.975; -675.000; -594.000
345.704;  -69.225; -309.000; -532.000
345.838;  -17.925; -331.000; -284.000
345.972;  -57.125; -543.000; -495.000
346.106;  162.175; -179.000; -190.000
346.239;  413.650; -312.000; -243.000
346.373;   -6.100; -343.000; -302.000
346.507; -148.650; -950.000; -962.000
346.640;  119.550;  -30.000;   13.000
346.774;  -55.750; -650.000; -797.000
346.908;  -10.650; -138.000;  -11.000
347.041;  -93.250; -646.000; -593.000
347.175;   -2.475;  259.000;   27.000
347.309;  -89.750; -698.000; -628.000
347.442;  -99.700; -883.000; -732.000
347.576;  238.150;  670.000;  668.000
347.709;  150.525; -123.000;  -52.000
347.843; -102.175; -933.000; -825.000
347.976;   25.850;  235.000;  294.000
348.110; -181.375;-1268.000;-1186.000
348.243; -113.175; -679.000; -772.000
348.377;   -8.350;  -26.000;   60.000
348.510;   57.475;  403.000;  540.000
348.644;  -49.875;  -37.000; -159.000
348.777;    3.250;  180.000;  191.000
348.911;  -41.550; -142.000; -112.000
349.044;  145.900;  471.000;  448.000
349.178;  120.075;-1069.000;-1006.000
349.311;  102.575;  141.000;  255.000
349.444;   -3.525; -927.000; -813.000
349.578;  -22.900; -347.000; -200.000
349.711; -118.550; -959.000; -862.000
349.845;   -5.650; -661.000; -591.000
349.978; -154.150;-1224.000;-1137.000
350.111;  -96.475; -546.000; -612.000
350.244;  -91.250; -596.000; -700.000
350.378;  -15.450; -392.000; -393.000
350.511;  -67.425; -393.000; -426.000
350.644; -112.125; -808.000; -806.000
350.778;    9.825;  168.000;  104.000
350.911;   -9.000;  134.000;  140.000
351.044;  -98.100; -685.000; -615.000
351.177;  -39.550; -321.000; -281.000
351.310;  -21.000;    3.000; -131.000
351.444;  -94.900; -888.000; -788.000
351.577;   89.900;  140.000;   90.000
351.710;   84.450;  593.000;  417.000
351.843;  -44.825; -165.000;  -77.000
351.976;  -12.975;  149.000;  -79.000
352.109;  -96.675; -621.000; -612.000
352.242;  -33.875; -464.000; -419.000
352.376;  -77.675; -580.000; -636.000
352.509;  126.775; -437.000; -356.000
352.642;    0.525; -654.000; -604.000
352.775;   43.775; -141.000;  -98.000
352.908; -129.300; -933.000; -904.000
353.041; -112.575; -814.000; -824.000
353.174;  -57.500; -551.000; -424.000
353.307;  -85.900; -753.000; -764.000
353.440;   60.200;  541.000;  453.000
353.573; -121.025; -957.000;-1008.000
353.706;  -63.375; -384.000; -558.000
353.839;  -29.475; -264.000; -220.000
353.971;  -84.225; -657.000; -512.000
354.104;  -76.325; -896.000; -835.000
354.237;  -38.100; -627.000; -662.000
354.370; -102.450; -846.000; -879.000
354.503; -179.050;-1231.000;-1308.000
354.636;  -47.200; -529.000; -348.000
354.769; -123.275; -937.000; -860.000
354.902;   -9.775; -230.000; -139.000
355.034;  -15.375; -164.000; -220.000
355.167;  -29.300; -262.000; -162.000
355.300;  -89.600;-1061.000; -880.000
355.433;  992.050;  -71.000;  -14.000
355.565; 1589.350; -402.000; -384.000
355.698;  399.850; -356.000; -296.000
355.831;    4.075; -882.000; -801.000
355.964;   58.950; -285.000; -170.000
356.096;  -93.075; -856.000; -843.000
356.229;  -16.750; -523.000; -530.000
356.362;  337.975; -373.000; -266.000
356.494;  612.275; -229.000; -162.000
356.627;  425.425;  269.000;  377.000
356.760;  668.625;  120.000;   53.000
356.892; 1038.850; -286.000; -601.000
357.025;  573.500;  403.000;  389.000
357.157;  503.675; -167.000; -179.000
357.290;  749.175; -856.000; -713.000
357.423;  215.675; -667.000; -556.000
357.555;  101.200; -217.000; -228.000
357.688;  104.175; -483.000; -364.000
357.820;  411.875; -870.000; -877.000
357.953; 3447.575; -563.000; -589.000
358.085;  711.375; -632.000; -612.000
358.218;  897.425;-1131.000; -932.000
358.350;  167.675;  -58.000;  312.000
358.483; -133.250;-1300.000;-1187.000
358.615;  -34.350;-1182.000;-1078.000
358.747;  -82.275;-1187.000;-1058.000
358.880;    4.200; -810.000; -744.000
359.012;  -18.875; -376.000; -202.000
359.145;  -51.725; -480.000; -511.000
359.277;   48.775; -962.000; -913.000
359.409; 2802.150;  536.000;  231.000
359.542;  724.875; -738.000; -688.000
359.674;   46.400;   46.000;   13.000
359.806;  -72.725; -565.000; -438.000
359.939;  -37.425; -617.000; -516.000
360.071;   -9.550; -583.000; -579.000
360.203;  -14.225; -411.000; -364.000
360.335;   39.625;  164.000;  -16.000
360.468;  184.875; -249.000; -307.000
360.600; 2302.500; -547.000; -454.000
360.732; 3057.050; -546.000; -423.000
360.864;  435.325;-1216.000;-1044.000
360.996;  211.350; -516.000; -554.000
361.129;   34.300; -389.000; -598.000
361.261;   18.300;  110.000; -113.000
361.393;  -36.175; -252.000; -214.000
361.525;   22.075;   94.000;  244.000
361.657;  -32.050; -821.000; -703.000
361.789;   -9.750; -139.000; -155.000
361.921;  175.525; -642.000; -593.000
362.053;  211.100;  524.000;  541.000
362.185;   32.025;  288.000;   72.000
362.318;  -94.025; -709.000; -705.000
362.450;   87.650;  294.000;  444.000
362.582;   50.625; -913.000; -870.000
362.714;  -42.775; -353.000; -332.000
362.846;  -86.250; -606.000; -490.000
362.978; -140.450; -941.000; -811.000
363.109;   27.050; -161.000; -260.000
363.241;  344.500; -739.000; -749.000
363.373;  429.475; -649.000; -564.000
363.505;  708.975; -186.000;  -91.000
363.637;  159.475; -787.000; -601.000
363.769; -130.400;-1067.000;-1080.000
363.901;  -72.100; -596.000; -654.000
364.033; -141.650;-1103.000;-1062.000
364.165;  -14.175; -283.000; -283.000
364.296;   82.175; -316.000; -177.000
364.428;   83.925;-1344.000;-1220.000
364.560;  -70.750; -679.000; -661.000
364.692;  -74.575; -738.000; -835.000
364.824;  189.450; -588.000; -456.000
364.955;  441.250; -402.000; -564.000
365.087; 1030.375;-1097.000; -852.000
365.219;   38.850; -686.000; -816.000
365.351;  -76.500; -526.000; -572.000
365.482;   40.200;  300.000;  240.000
365.614;  -49.800; -402.000; -314.000
365.746;  -98.800; -729.000; -752.000
365.877;  -89.225; -706.000; -672.000
366.009;  268.175;  -35.000;  -62.000
366.141;  -80.250;-1249.000;-1134.000
366.272; -103.675; -803.000; -719.000
366.404; -114.325;-1005.000; -874.000
366.535;  -10.575; -139.000;  -12.000
366.667; -105.825; -644.000; -649.000
366.799;   31.175;  353.000;  203.000
366.930; -121.625; -862.000; -996.000
367.062;  115.975; -639.000; -613.000
367.193;  180.825; -872.000; -842.000
367.325;  -69.025; -580.000; -684.000
367.456;   22.575; -246.000;   31.000
367.588;  158.050; -371.000; -318.000
367.719;   26.475;  -44.000;  -45.000
367.851;  -22.050; -222.000; -241.000
367.982;  -63.050; -875.000; -732.000
368.113;   77.200; -475.000; -358.000
368.245; -111.550; -960.000; -841.000
368.376;  -31.475; -254.000; -302.000
368.508;  -41.950; -188.000; -263.000
368.639; -152.800;-1166.000;-1034.000
368.770;  -33.675; -670.000; -589.000
368.902;  -78.375; -836.000; -926.000
369.033; -109.050; -906.000; -855.000
369.164;  -49.950; -720.000; -653.000
369.296; -100.600; -452.000; -601.000
369.427;  -10.525; -209.000; -144.000
369.558;  -73.150; -593.000; -377.000
369.689;  -93.500; -721.000; -569.000
369.821; -139.050; -951.000; -845.000
369.952;  -19.450;   42.000; -108.000
370.083;  -72.000; -229.000; -108.000
370.214;  -84.750; -735.000; -650.000
370.345;  -15.350;   65.000;   81.000
370.477;  -81.875; -810.000; -790.000
370.608;  177.700; -328.000; -264.000
370.739;  -59.175;-1233.000;-1292.000
370.870;  -49.400;-1102.000; -923.000
371.001;   71.375; -378.000; -467.000
371.132;  -89.600; -754.000; -735.000
371.263;  -21.125;  -42.000; -148.000
371.394; -141.050; -841.000; -748.000
371.525;   24.400;  345.000;  225.000
371.657;  -96.800; -808.000; -670.000
371.788;   47.025;  103.000;  199.000
371.919;  137.850; -384.000; -304.000
372.050; 3210.525;  -91.000; -156.000
372.181;  983.325; -188.000; -294.000
372.311;  295.875;   42.000; -127.000
372.442;   19.300; -457.000; -451.000
372.573;  -37.300; -444.000; -340.000
372.704; -137.675;-1008.000; -980.000
372.835;   55.000; -228.000; -289.000
372.966;  -59.350; -646.000; -554.000
373.097;  -82.400; -575.000; -711.000
373.228;  -45.100; -717.000; -542.000
373.359;   87.575; -824.000; -536.000
373.490;  769.300; -881.000; -727.000
373.620; 1010.375;-1001.000; -803.000
373.751; 1491.825; -332.000; -396.000
373.882;  666.425; -663.000; -733.000
374.013;   54.325; -449.000; -262.000
374.143;  -51.075; -581.000; -659.000
374.274; -107.475; -987.000; -908.000
374.405;  138.550; -388.000; -276.000
374.536;  358.475; -526.000; -387.000
374.666;  933.675; -759.000; -807.000
374.797;  157.650; -817.000; -868.000
374.928;  717.925; -710.000; -560.000
375.058;  741.100; -535.000; -500.000
375.189;   68.575;  -59.000;  -93.000
375.320; -121.525; -928.000;-1034.000
375.450;  -46.525; -625.000; -616.000
375.581;  -59.550; -526.000; -436.000
375.712;  -44.050; -574.000; -250.000
375.842;  227.100; -438.000; -415.000
375.973;  168.875; -554.000; -513.000
376.103;  -64.450; -665.000; -648.000
376.234;  -81.075; -531.000; -552.000
376.364;  -65.900; -944.000; -867.000
376.495;  278.325;  925.000;  529.000
376.625;  -40.300; -472.000; -485.000
376.756;   28.375; -709.000; -678.000
376.886;  -96.900;-1178.000;-1026.000
377.017;   46.350;-1048.000;-1061.000
377.147;  377.900; -786.000; -782.000
377.278;   54.875;  174.000;  228.000
377.408; -134.450; -801.000; -815.000
377.538; -105.250; -707.000; -693.000
377.669;  -86.500; -537.000; -613.000
377.799; -101.750; -645.000; -635.000
377.929;  -84.375; -610.000; -428.000
378.060; -144.725; -781.000; -847.000
378.190;  -65.250; -726.000; -531.000
378.320;  -38.975; -401.000; -406.000
378.451;  -14.875; -131.000;  -22.000
378.581;   -5.075;  -67.000; -110.000
378.711;  122.725; 1035.000;  866.000
378.841;  -42.325; -533.000; -675.000
378.972;  -84.800; -871.000; -751.000
379.102;  -29.275; -652.000; -579.000
379.232;  -25.075; -126.000;  -73.000
379.362; -119.025;-1001.000; -885.000
379.492;   -0.475; -373.000; -424.000
379.623;   96.275;    0.000;  111.000
379.753; -100.875;-1107.000; -974.000
379.883;  165.800;   59.000;  156.000
380.013;  -19.475;-1081.000;-1017.000
380.143; -109.025;-1097.000;-1056.000
380.273; -112.000; -985.000; -861.000
380.403;  -10.700; -344.000; -257.000
380.533;  -50.425; -651.000; -664.000
380.663;   47.100;  173.000;  128.000
380.793; -110.775;-1027.000;-1074.000
380.923;  -36.475; -103.000;  -34.000
381.053;  -90.950; -613.000; -623.000
381.183;  -53.450; -106.000; -248.000
381.313;    7.500; -656.000; -470.000
381.443;   14.525; -692.000; -473.000
381.573;  137.400; -402.000; -409.000
381.703;  196.600;-1249.000;-1095.000
381.833; -142.325;-1454.000;-1336.000
381.963;   99.550; -134.000;  -87.000
382.093; 1227.900; -925.000; -909.000
382.223;  382.475; -713.000; -602.000
382.353;  -34.250; -801.000; -608.000
382.482;  268.300;-1091.000; -964.000
382.612;  653.300; -872.000; -644.000
382.742;  364.875; -695.000; -622.000
382.872;  205.550; -565.000; -551.000
383.002;   58.600;  347.000; -132.000
383.131;  -31.500; -226.000; -160.000
383.261;  -45.475; -706.000; -768.000
383.391;  294.850; -552.000; -377.000
383.521; 3487.350;  451.000;  263.000
383.650;  889.775; -947.000; -904.000
383.780;   -7.700; -783.000; -656.000
383.910;   98.050;  880.000;  802.000
384.039;   -7.925; -794.000; -656.000
384.169;  148.125;-1205.000;-1017.000
384.299;  -32.375; -650.000; -662.000
384.428; -115.300; -764.000; -680.000
384.558;  -50.000; -308.000; -275.000
384.687;  -68.000; -414.000; -334.000
384.817;   -5.750;   75.000;   -2.000
384.947;   -0.200; -234.000; -141.000
385.076;  247.400;  982.000;  912.000
385.206;   81.000;  369.000;  480.000
385.335;  -41.600; -549.000; -417.000
385.465;  -87.625; -655.000; -663.000
385.594;  100.075;  -53.000;  -44.000
385.724;  330.250; -868.000; -838.000
385.853;   74.250; -296.000; -270.000
385.982; 1132.575; -743.000; -787.000
386.112; 1907.575;-1052.000; -871.000
386.241;  114.750; -307.000; -312.000
386.371;    6.450; -174.000;  -87.000
386.500;  -26.050; -825.000; -789.000
386.629;    4.500; -874.000; -817.000
386.759;   53.750;  -43.000;   68.000
386.888;  -31.350; -170.000; -250.000
387.017;  -91.925; -648.000; -620.000
387.147;  -95.925; -771.000; -798.000
387.276;  -28.025; -410.000; -397.000
387.405;   -7.875; -398.000; -342.000
387.535;  -49.975; -452.000; -361.000
387.664;  -66.550; -692.000; -620.000
387.793;   37.350; -198.000; -113.000
387.922;  416.800;  255.000;  200.000
388.052;  -18.500; -576.000; -423.000
388.181;  -29.700; -342.000; -472.000
388.310;  -33.575; -889.000; -710.000
388.439;  -70.925; -749.000; -742.000
388.568;  136.800;  365.000;  244.000
388.697;  860.125; -756.000; -653.000
388.826;  176.000; -768.000; -666.000
388.956;   32.675; -285.000; -307.000
389.085;  -47.350; -347.000; -287.000
389.214; -114.875; -842.000; -872.000
389.343;  -65.625; -645.000; -413.000
389.472;  410.550;  126.000;  149.000
389.601;  525.400;   91.000;    0.000
389.730;  -11.100; -568.000; -687.000
389.859;   37.975;  226.000;   46.000
389.988;  131.325; -423.000; -408.000
390.117;  113.025; -168.000; -146.000
390.246;  -17.700; -331.000; -320.000
390.375;   52.150; -673.000; -626.000
390.504;  -61.825; -703.000; -621.000
390.633; -109.875; -672.000; -726.000
390.761;  -87.025; -732.000; -645.000
390.890;   -7.500;   -4.000; -130.000
391.019;  -54.100; -421.000; -441.000
391.148; -133.675; -826.000; -855.000
391.277;  -78.675; -576.000; -493.000
391.406; -110.950; -821.000; -805.000
391.534;    8.700;  574.000; -301.000
391.663;  -85.025; -583.000; -645.000
391.792;  -99.375; -673.000; -701.000
391.921;   59.425;   -3.000;   15.000
392.050;  121.875; -287.000; -228.000
392.178;  -68.500;-1206.000;-1061.000
392.307;   89.100; -758.000; -712.000
392.436;   41.975; -427.000; -641.000
392.564;   12.175;  166.000;   -6.000
392.693; -102.725; -860.000; -682.000
392.822;  135.325; -529.000; -534.000
392.950;   55.575; -880.000; -714.000
393.079;  276.825; -188.000; -328.000
393.208;   13.475; -488.000; -511.000
393.336;  -15.400; -170.000; -145.000
393.465;  -47.325; -317.000; -199.000
393.593;   -4.475;   62.000;   79.000
393.722; -165.025;-1121.000; -916.000
393.850;  -35.725; -188.000;  -61.000
393.979; -149.650; -926.000; -805.000
394.107;  -67.175; -517.000; -537.000
394.236;  -34.950; -570.000; -507.000
394.364;  186.725;  383.000;  206.000
394.493;  314.950; -911.000; -767.000
394.621;   -7.825; -955.000; -916.000
394.750;  752.275; -873.000; -923.000
394.878; 3085.400; -247.000; -149.000
395.007; 4352.575; -721.000; -807.000
395.135;  351.125; -790.000; -721.000
395.263;  -88.150;-1038.000;-1040.000
395.392;   -2.425;  -25.000; -107.000
395.520; -136.175; -818.000; -679.000
395.648; -105.300; -865.000; -915.000
395.777;  -49.100; -366.000; -405.000
395.905;  -58.050; -449.000; -564.000
396.033;    8.750;  217.000;  172.000
396.162;  497.075; -399.000; -453.000
396.290;  466.700;  -17.000;   -2.000
396.418;   68.300; -555.000; -514.000
396.546;  -95.575; -571.000; -466.000
396.674; -115.200; -850.000; -878.000
396.803;    2.425;  -72.000;  -23.000
396.931;   50.650; -179.000; -199.000
397.059;    1.675;-1026.000; -989.000
397.187; -119.475;-1026.000; -975.000
397.315; -143.125; -884.000; -649.000
397.443;  -97.925; -592.000; -443.000
397.572; -104.100; -578.000; -424.000
397.700;  -25.250; -607.000; -614.000
397.828;   -0.300;  120.000;  -90.000
397.956;  -55.950; -508.000; -478.000
398.084;  -64.050; -767.000; -626.000
398.212;   21.650;  137.000;  124.000
398.340;    2.300;  -56.000;  159.000
398.468;   -2.100; -390.000; -169.000
398.596; -122.825; -993.000; -953.000
398.724; -118.275; -762.000; -767.000
398.852; -164.400;-1024.000; -976.000
398.980;  -72.625; -560.000; -560.000
399.108;  -76.750; -982.000; -735.000
399.236;   14.950;   13.000;    8.000
399.363;   -2.350;  222.000;  196.000
399.491;  -63.550; -404.000; -398.000
399.619; -127.325; -829.000; -800.000
399.747; -104.525; -859.000; -771.000
399.875;   67.625;  220.000;  234.000
400.003;  -54.200; -359.000; -284.000
400.130;  -99.475; -421.000; -341.000
400.258;  -31.700;  -83.000;   38.000
400.386;  -61.575; -352.000; -168.000
400.514;  -64.925; -526.000; -587.000
400.641;  -87.275; -928.000; -802.000
400.769; -123.600; -979.000; -888.000
400.897; -122.200; -838.000; -793.000
401.025;  -35.650; -166.000; -152.000
401.152;   -5.700;  220.000;   38.000
401.280;  -76.600; -430.000; -429.000
401.408; -119.525; -712.000; -576.000
401.535; -112.275; -735.000; -758.000
401.663; -187.500;-1134.000;-1054.000
401.790;  -90.900; -514.000; -525.000
401.918;   30.325;  436.000;  405.000
402.046;  -20.100;  134.000;  122.000
402.173;  -33.875;  -18.000;    7.000
402.301;  -74.350; -519.000; -397.000
402.428;   31.125;  528.000;  383.000
402.556; -134.375;-1188.000; -913.000
402.683;  -24.125;  -20.000;   -1.000
402.811;  -43.775;  -37.000; -206.000
402.938;  -20.900;   20.000;   27.000
403.066;  141.625; -574.000; -558.000
403.193;  280.025;  299.000;  239.000
403.321;  192.100; -396.000; -574.000
403.448;  272.125;   83.000;   27.000
403.575;  120.375;  -90.000;  -46.000
403.703; -108.225; -732.000; -557.000
403.830;  -74.175; -531.000; -496.000
403.957; -139.250;-1117.000;-1023.000
404.085;   11.000;  -61.000; -172.000
404.212;   81.625;  -50.000;   63.000
404.339;  270.525; -566.000; -306.000
404.467; 6112.100; -612.000; -524.000
404.594; 4012.825; -287.000; -227.000
404.721;  876.850; -869.000; -764.000
404.848;   70.700; -113.000; -202.000
404.976; -105.025; -856.000; -783.000
405.103;  -11.325;  -14.000;  -82.000
405.230;  -15.125;  190.000;  226.000
405.357;   23.750;  117.000;   44.000
405.484;  277.325;  -49.000;    5.000
405.612;   52.650; -548.000; -563.000
405.739;  -61.975; -488.000; -243.000
405.866;   69.550;  669.000;  385.000
405.993;  -51.900; -398.000; -102.000
406.120; -123.850; -801.000; -887.000
406.247;  -70.550; -323.000; -342.000
406.374;  356.450;  540.000;  629.000
406.501;   77.125; -632.000; -702.000
406.628;  -77.800; -621.000; -589.000
406.755; -108.375; -803.000; -620.000
406.882;  -41.525; -228.000; -277.000
407.009; -116.950; -719.000; -628.000
407.136;   21.975; -480.000; -401.000
407.263;   73.700; -939.000; -829.000
407.390;  -88.800; -692.000; -614.000
407.517; -170.475;-1139.000;-1187.000
407.644;  -73.850; -332.000; -256.000
407.771;  -75.050; -249.000; -287.000
407.898;   16.625;  168.000;  328.000
408.025;  -85.675; -421.000; -313.000
408.151;  -27.525;   82.000;  153.000
408.278;  -73.250; -267.000; -216.000
408.405; -117.575; -931.000; -899.000
408.532;  -76.075; -549.000; -542.000
408.659; -117.075; -677.000; -648.000
408.785; -205.350;-1298.000;-1170.000
408.912;  -75.375; -412.000; -296.000
409.039; -108.500; -610.000; -686.000
409.166;  -96.100; -591.000; -555.000
409.292; -114.475; -571.000; -534.000
409.419; -114.000; -665.000; -649.000
409.546;  -79.525; -431.000; -192.000
409.672; -111.650; -713.000; -545.000
409.799;  -41.600;  -36.000;   34.000
409.926;  -47.450; -180.000; -179.000
410.052; -180.575;-1127.000;-1091.000
410.179;  -60.450; -368.000; -392.000
410.305;  -88.300; -375.000; -493.000
410.432;  -54.900; -220.000; -333.000
410.558; -100.250; -305.000; -380.000
410.685; -116.700; -688.000; -431.000
410.812;  -95.375; -409.000; -588.000
410.938; -128.575; -964.000; -808.000
411.065; -116.625; -671.000; -645.000
411.191;  -21.050; -189.000; -174.000
411.317; -127.700; -823.000; -742.000
411.444;  -80.525; -317.000; -246.000
411.570;  -73.275; -339.000; -294.000
411.697; -130.050; -758.000; -752.000
411.823; -171.475; -989.000; -999.000
411.949;  -56.050;  -56.000;   17.000
412.076; -124.350; -539.000; -519.000
412.202; -122.500; -758.000; -757.000
412.329; -128.525; -798.000; -752.000
412.455; -114.925; -821.000; -657.000
412.581;  -28.050;  -15.000;  172.000
412.707;  -71.575; -540.000; -457.000
412.834;    1.725;  156.000;  219.000
412.960;  -96.750; -785.000; -784.000
413.086; -105.900; -743.000; -701.000
413.212;  136.375;  604.000;  578.000
413.339;  -76.750; -685.000; -701.000
413.465;  -28.450; -364.000; -310.000
413.591;  -92.675; -757.000; -474.000
413.717;  -58.575; -358.000; -366.000
413.843; -138.175; -839.000; -861.000
413.969;  -64.775;  -47.000; -292.000
414.096; -107.275; -679.000; -679.000
414.222;   -8.300;  -33.000;   85.000
414.348;  -47.075; -652.000; -385.000
414.474;   83.050;   38.000;  -52.000
414.600;  -24.150; -126.000; -144.000
414.726;  -18.175;  -96.000;  -55.000
414.852;  -65.050; -365.000; -342.000
414.978;   32.025;  104.000;  -18.000
415.104;   39.575;   38.000;   80.000
415.230;   17.575; -329.000; -330.000
415.356;   33.200; -409.000; -514.000
415.482;  179.350;   13.000;  -35.000
415.608;  289.350; -247.000; -323.000
415.734;  968.400;   67.000;   38.000
415.860;20409.025; -875.000; -767.000
415.986;15741.450; -685.000; -607.000
416.111; 1408.200; -798.000; -652.000
416.237;  300.950; -424.000; -571.000
416.363; 1180.850; -765.000; -733.000
416.489; 4566.475; -324.000; -251.000
416.615;  535.525; -707.000; -742.000
416.741;  -20.300; -677.000; -784.000
416.866;  -87.700; -673.000; -736.000
416.992; -120.275; -801.000; -818.000
417.118;  -24.900;  -41.000;  -80.000
417.244;  -84.925; -798.000; -531.000
417.369;  -91.600; -801.000; -612.000
417.495;   -7.900; -325.000; -254.000
417.621;  -97.900;-1015.000; -803.000
417.746;    0.875; -579.000; -572.000
417.872;   37.250; -254.000; -144.000
417.998;   63.825; -515.000; -530.000
418.123; 1067.575;-1073.000; -845.000
418.249; 5786.775; -512.000; -601.000
418.374;  875.275; -916.000; -824.000
418.500;  119.500; -383.000; -482.000
418.626;  122.625;   70.000;  -59.000
418.751;  101.900; -549.000; -448.000
418.877;  214.050; -637.000; -643.000
419.002; 1819.675; -688.000; -560.000
419.128;13422.650; -930.000; -721.000
419.253; 3501.575; -967.000; -837.000
419.379;  465.525; -391.000; -338.000
419.504;  408.100;  325.000;  415.000
419.629;  558.575; -393.000; -212.000
419.755; 3703.700; -317.000; -254.000
419.880;23098.000;  -98.000;   67.000
420.006;12213.575; -280.000; -221.000
420.131;31570.075; -662.000; -775.000
420.256; 4802.700; -315.000; -316.000
420.382;  636.625; -665.000; -687.000
420.507;   80.475; -649.000; -778.000
420.632;   95.400; -337.000; -339.000
420.758;  174.775; -251.000; -425.000
420.883;  -86.650; -876.000; -672.000
421.008;  -97.025; -775.000; -619.000
421.133;  -90.800; -509.000; -467.000
421.259;  -52.475; -325.000; -259.000
421.384; -107.200; -834.000; -693.000
421.509;  -63.475;-1052.000; -862.000
421.634;  875.600; -936.000; -820.000
421.759;  389.550; -359.000; -327.000
421.885;  -60.100; -717.000; -656.000
422.010;  -86.925; -673.000; -542.000
422.135; -150.950; -695.000; -727.000
422.260;   30.350;  340.000;  280.000
422.385;  -45.700;   12.000;  -98.000
422.510;   14.225;  151.000;  -26.000
422.635;    7.150;  -87.000;  -43.000
422.760;   81.900; -766.000; -791.000
422.885;   49.825;  -57.000;  -80.000
423.010;  -28.500; -112.000; -169.000
423.135; -107.950; -481.000; -561.000
423.260;  -35.350; -150.000; -245.000
423.385;   43.650;  476.000;  222.000
423.510;   22.700;   71.000;  -22.000
423.635;   51.525;  133.000;   45.000
423.760;   44.075;  383.000;  328.000
423.885;   35.225;  336.000;  391.000
424.010;    2.875;  -68.000;  -13.000
424.135;  -19.725;    5.000;  -33.000
424.259;  -86.925; -654.000; -457.000
424.384;  -58.475; -279.000; -272.000
424.509;  -28.450; -260.000; -186.000
424.634;  -95.775; -761.000; -623.000
424.759;  -29.875; -688.000; -544.000
424.883;  -21.950; -506.000; -527.000
425.008;  154.050; -502.000; -410.000
425.133; 2093.225; -679.000; -653.000
425.258; 1034.175; -517.000; -381.000
425.382;  896.750; -867.000; -774.000
425.507; 2396.200; -487.000; -543.000
425.632;  434.000; -802.000; -663.000
425.756;  503.050; -256.000; -146.000
425.881; 6954.600; -831.000; -857.000
426.006;20046.775; -604.000; -355.000
426.130; 3225.050; -696.000; -508.000
426.255;  419.600; -611.000; -491.000
426.379;  182.175; -189.000; -577.000
426.504;  369.425;  660.000;  544.000
426.629; 4144.775; -519.000; -466.000
426.753; 3013.550;   64.000;  -46.000
426.878;  345.900; -252.000; -288.000
427.002;  186.450; -651.000; -668.000
427.127; 1581.850;  -35.000; -158.000
427.251;12184.975;  372.000;  401.000
427.375; 3701.050; -191.000; -173.000
427.500; 2094.350; -616.000; -610.000
427.624;  719.500; -234.000; -400.000
427.749;   75.925; -216.000; -225.000
427.873;  -41.450; -499.000; -412.000
427.997;  -35.125; -222.000; -230.000
428.122;   64.950;  795.000;  703.000
428.246;   64.775;  433.000;  434.000
428.371; -135.925; -869.000; -773.000
428.495; -113.750; -624.000; -646.000
428.619;  -53.250; -186.000; -117.000
428.743;   20.125;   65.000;  132.000
428.868;  -16.500; -732.000; -643.000
428.992; 1212.700; -219.000; -326.000
429.116;  498.900; -329.000; -357.000
429.240;  226.275;  419.000;  426.000
429.365;  -27.675; -454.000; -574.000
429.489;  -56.525; -638.000; -647.000
429.613;   26.675; -236.000; -177.000
429.737;   40.675; -563.000; -432.000
429.861;  247.850; -247.000; -133.000
429.985; 5733.925; -425.000; -305.000
430.109; 6693.800; -770.000; -908.000
430.234;  791.350;   76.000;  -50.000
430.358;   65.225; -250.000; -160.000
430.482;  -75.025; -672.000; -564.000
430.606;  -69.650; -655.000; -375.000
430.730;  -21.425; -437.000; -388.000
430.854;   73.625; -909.000; -835.000
430.978;  -90.225; -795.000; -764.000
431.102;  -99.750; -499.000; -422.000
431.226; -117.450; -874.000; -815.000
431.350;   10.075;  345.000;  422.000
431.474;  -87.050; -661.000; -373.000
431.597; -164.850;-1060.000; -848.000
431.721;  -73.000; -276.000; -267.000
431.845; -117.525; -704.000; -472.000
431.969;  -82.175; -304.000; -349.000
432.093;  -94.525; -395.000; -317.000
432.217;  -19.125;   32.000;   82.000
432.341;  -87.200; -523.000; -518.000
432.464;  -11.500;   96.000;   40.000
432.588;  117.125; -401.000; -329.000
432.712;   82.650;  -52.000;  -52.000
432.836;   30.675;  213.000;  263.000
432.959;  -16.400; -372.000; -311.000
433.083;   88.150;   11.000;    2.000
433.207;  387.325;  285.000;  930.000
433.330; 5258.650; -391.000; -200.000
433.454; 6924.550; -654.000; -638.000
433.578; 3930.800;  583.000;  278.000
433.701;  765.875; -623.000; -675.000
433.825;  128.025; -292.000; -299.000
433.949;  133.125;   28.000;  -72.000
434.072;   23.250; -410.000; -323.000
434.196;  -20.550; -309.000; -117.000
434.319; 3611.200;25482.000;25124.000
434.443;  690.525; -656.000; -603.000
434.566; 2875.175;  281.000;   62.000
434.690;  542.125; -637.000; -383.000
434.813;   65.875; -251.000; -173.000
434.937;  -84.400; -569.000; -696.000
435.060;  -54.525; -423.000; -332.000
435.184;  193.825; -492.000; -217.000
435.307;   95.950;  159.000;  102.000
435.431;  -20.700;  -40.000;   24.000
435.554;  -80.475; -399.000; -240.000
435.677;  -97.775; -350.000; -258.000
435.801;  -54.100;  -25.000;   49.000
435.924;  -15.350;    1.000;  -67.000
436.048; -124.650;-1019.000; -732.000
436.171;  -63.050; -240.000;  -66.000
436.294;  -34.125; -248.000; -229.000
436.417;  106.075; -963.000; -849.000
436.541;  -79.925; -814.000; -840.000
436.664;  -52.025; -242.000; -316.000
436.787;  -36.825;   13.000;  113.000
436.910; -115.975; -792.000; -422.000
437.034;  -13.025;  142.000;  143.000
437.157;   14.825;  -11.000;    0.000
437.280;  -60.125; -392.000; -292.000
437.403; -115.325; -982.000; -869.000
437.526;  388.400; -903.000; -865.000
437.649; 1704.275; -505.000; -332.000
437.772;  230.650; -692.000; -540.000
437.896;   87.050;  700.000;  544.000
438.019;  -99.250; -758.000; -503.000
438.142;  -97.725; -596.000; -506.000
438.265;  -43.200; -639.000; -670.000
438.388;  400.675; -520.000; -410.000
438.511;   44.450; -597.000; -394.000
438.634;  -59.125; -247.000; -125.000
438.757; -121.925; -693.000; -619.000
438.880;  -33.250;  -34.000;  -57.000
439.003;  -93.525; -417.000; -437.000
439.126;  -66.775; -287.000; -167.000
439.248;  -63.225;  -98.000; -139.000
439.371;  -49.450;    9.000;  -53.000
439.494;   20.400;  510.000;  439.000
439.617;  -53.000;   65.000;  -88.000
439.740; -169.350; -968.000; -816.000
439.863; -137.700; -755.000; -595.000
439.986; -129.200; -476.000; -431.000
440.108;  -59.150; -161.000; -112.000
440.231; -162.925; -950.000; -836.000
440.354;  -55.750;  -64.000; -150.000
440.477;  -18.075; -566.000; -542.000
440.599;  -23.800; -200.000; -225.000
440.722; -130.625; -709.000; -586.000
440.845;   71.825;  751.000;  928.000
440.968; -111.350; -415.000; -311.000
441.090;  -64.625; -199.000;  -33.000
441.213; -172.075;-1021.000; -825.000
441.336;  -51.075; -159.000;   -5.000
441.458;  -92.300; -549.000; -396.000
441.581;  -91.500; -628.000; -629.000
441.703;  -73.850; -152.000;   13.000
441.826; -106.500; -557.000; -400.000
441.948;  -58.825;   56.000;   51.000
442.071;   17.875;  555.000;  424.000
442.193; -128.425; -531.000; -485.000
442.316;    5.675;  152.000;   97.000
442.438;   52.550; -233.000;  -10.000
442.561;   67.200;  272.000;  262.000
442.683;  372.550; -809.000; -522.000
442.806;  887.150;   -8.000;   74.000
442.928;   -5.225; -859.000; -604.000
443.051;  -66.350; -577.000; -373.000
443.173;  -93.275; -341.000; -339.000
443.295;  -96.125; -263.000; -371.000
443.418;  -84.225; -321.000;  -29.000
443.540;  -17.250; -106.000;   -4.000
443.662; -119.350; -563.000; -465.000
443.785;  -26.100;  335.000;  199.000
443.907; -110.000; -362.000; -208.000
444.029; -144.725; -767.000; -494.000
444.152; -132.575; -644.000; -554.000
444.274;  -33.825;  -18.000;  -24.000
444.396; -116.925; -461.000; -221.000
444.518; -135.450; -691.000; -454.000
444.640; -111.475; -268.000; -111.000
444.763;   -8.375;  388.000;  249.000
444.885; -117.925; -432.000; -392.000
445.007;  -32.300;   35.000;   86.000
445.129; -119.175; -610.000; -515.000
445.251; -114.375; -372.000; -439.000
445.373; -144.475; -537.000; -386.000
445.495;   10.800;  242.000;  350.000
445.617;   32.725;  853.000;  753.000
445.739;  -60.200; -215.000;  -97.000
445.861;  -50.725; -245.000; -112.000
445.984;  -41.850; -267.000; -101.000
446.105;  126.225; -418.000; -251.000
446.227;  479.375; -176.000;  -19.000
446.349;  -17.125; -358.000; -249.000
446.471; -101.675; -615.000; -448.000
446.593;  -66.400; -316.000;   19.000
446.715;  -25.875;  -67.000;   41.000
446.837;   52.175;  697.000;  832.000
446.959;  -86.575; -457.000; -478.000
447.081; -135.150; -628.000; -518.000
447.203;   52.175;  862.000;  834.000
447.325;  -90.100; -270.000;   42.000
447.446;  -14.600;  286.000;  530.000
447.568; -153.425; -921.000; -803.000
447.690;  -78.775; -236.000; -245.000
447.812; -146.900; -798.000; -519.000
447.933;  -31.650;  155.000;  127.000
448.055;  -73.825; -306.000; -261.000
448.177;   98.625;   31.000;   79.000
448.299;   33.850; -935.000; -727.000
448.420;    3.875;  -25.000;  159.000
448.542;  -48.425;   -3.000;   33.000
448.664;  -19.775;  109.000;  322.000
448.785;  -39.025;  265.000;   83.000
448.907; -108.350; -614.000; -353.000
449.028;  -69.425; -771.000; -471.000
449.150;   67.800;  492.000;  589.000
449.272; -168.825;-1044.000; -913.000
449.393;   37.750;  612.000;  694.000
449.515; -142.550; -634.000; -581.000
449.636;  -55.025; -264.000; -155.000
449.758;   50.075;  763.000;  622.000
449.879; -104.800; -498.000; -396.000
450.001;  -85.875; -149.000;  -49.000
450.122;  -38.000;  -95.000;  162.000
450.244;  -33.100;   37.000;  364.000
450.365;  -92.375; -495.000; -301.000
450.486;  -23.250;   80.000;  268.000
450.608;   14.325;  393.000;  326.000
450.729;   73.250;  578.000;  645.000
450.850;   18.725; -574.000; -466.000
450.972;  788.750; -552.000; -389.000
451.093; 5313.700;  190.000;  588.000
451.214; 2490.300; -516.000; -337.000
451.336;  411.075;  773.000;  579.000
451.457;   60.850;  264.000;  393.000
451.578;  -27.925; -118.000;  -74.000
451.699; -127.850; -546.000; -540.000
451.821;  -54.275; -284.000;  -50.000
451.942;    2.825;  278.000;  285.000
452.063;   37.075;  228.000;  419.000
452.184;  589.000;  -54.000;  -49.000
452.305; 1218.400;  103.000;  170.000
452.427;  161.775; -549.000; -301.000
452.548;  -13.200;   23.000;   79.000
452.669;  -45.600; -257.000;  -89.000
452.790;  -49.525;    3.000;  -18.000
452.911;  -14.500;  195.000;  259.000
453.032;  -78.300; -289.000;  -60.000
453.153;  -55.850;  -29.000;   81.000
453.274;   62.875;  737.000;  868.000
453.395;  -51.725;  -51.000;  175.000
453.516;  117.125; 1317.000; 1388.000
453.637;  -83.825; -205.000; -150.000
453.758;  -63.000;   15.000;   69.000
453.879; -119.625; -462.000; -250.000
454.000;   72.775; 1086.000;  948.000
454.121; -120.650; -554.000; -326.000
454.242; -125.025; -599.000; -383.000
454.362;  -53.375;  -99.000;  114.000
454.483;  -41.825; -309.000; -229.000
454.604;   43.800;  512.000;  580.000
454.725; -129.675; -627.000; -555.000
454.846; -123.775; -474.000; -406.000
454.967;  -33.875;  230.000;  539.000
455.087;  -51.700;  179.000;  153.000
455.208;   13.950;  554.000;  856.000
455.329;  -74.850;  -22.000;   82.000
455.450;   52.050;  473.000;  633.000
455.570;  -73.800; -234.000; -211.000
455.691;  -51.650;  201.000;  407.000
455.812; -110.125; -270.000;  -92.000
455.932;  -57.975;  107.000;  -97.000
456.053;  -92.675;   36.000;   24.000
456.173; -118.825; -433.000; -355.000
456.294; -149.650; -476.000; -303.000
456.415;  -56.875;  -73.000;   70.000
456.535;  -36.000;  297.000;  273.000
456.656;  -55.850;  132.000;  240.000
456.776;  -73.100;    3.000;  298.000
456.897;   -8.300;  308.000;  513.000
457.017;  -75.900; -153.000;   -3.000
457.138; -115.925; -402.000; -249.000
457.258;  -32.375;  263.000;  224.000
457.379;  -11.200;  509.000;  521.000
457.499;  -35.750;  443.000;  432.000
457.620; -112.425; -407.000; -231.000
457.740; -108.275; -132.000;  -11.000
457.860;  -60.575;   87.000;   44.000
457.981;  -49.575;  132.000;  124.000
458.101;  -79.000;  -89.000;   40.000
458.221;  -17.350;  336.000;  402.000
458.342;  -78.900;   -4.000;  -37.000
458.462;   26.375;  617.000;  352.000
458.582;  -30.675; -302.000; -294.000
458.703;   14.625;  303.000;  154.000
458.823;  -24.300;   22.000;  163.000
458.943;   25.375;  341.000;  467.000
459.063;  -11.500; 1124.000;  192.000
459.183;  -21.975;  328.000;  313.000
459.304;   -4.200;  315.000;  517.000
459.424;  -66.125; -246.000;  -89.000
459.544;  333.850;  388.000;  764.000
459.664;  897.150;  499.000;  506.000
459.784;  353.925; 1004.000; 1175.000
459.904;   57.825;  867.000;  744.000
460.024;   65.700;  867.000;  684.000
460.144;    4.475;  449.000;  554.000
460.264;  -17.000;  515.000;  327.000
460.385;  -88.275; -145.000; -119.000
460.505;   15.825;  905.000;  858.000
460.625;  -92.000;  -17.000;  -68.000
460.745;  -16.975;  396.000;  541.000
460.864;  -39.525;  153.000;  469.000
460.984;   23.275;  499.000;  573.000
461.104;  134.375; 1656.000; 1775.000
461.224;   21.075;  657.000;  650.000
461.344;  -33.125;  431.000;  360.000
461.464;  -38.525;  258.000;  513.000
461.584;  -14.300;  283.000;  466.000
461.704;  -52.825;   58.000;  108.000
461.824;  -54.225;  238.000;  259.000
461.943;  -44.475;  191.000;  130.000
462.063;  -72.525;    2.000;  324.000
462.183;   35.825;  639.000;  717.000
462.303;   81.850; 1678.000; 1230.000
462.422;   25.100;  781.000;  840.000
462.542;  -54.575;  271.000;  391.000
462.662;   34.350;  353.000;  380.000
462.782;  243.300;  833.000;  572.000
462.901;  522.675;  545.000;  717.000
463.021;  303.425; 1702.000; 1638.000
463.141;   -0.950;  337.000;  770.000
463.260;  -26.650;  614.000;  474.000
463.380;   14.900;  902.000;  884.000
463.499;  -46.550;  342.000;  332.000
463.619;  -29.675;  581.000;  559.000
463.738;  102.300; 1644.000;  903.000
463.858;    8.250;  657.000;  811.000
463.978;  -37.800;  542.000;  396.000
464.097;   43.050;  921.000; 1114.000
464.217;  117.525; 1196.000; 1143.000
464.336;  128.650; 1068.000; 1130.000
464.455;  -50.650;  328.000;  659.000
464.575;   30.325;  597.000;  602.000
464.694;  136.950; 1204.000; 1179.000
464.814;  138.700; 1190.000; 1138.000
464.933;   71.325; 1095.000; 1027.000
465.052;   88.575; 1412.000; 1054.000
465.172;   70.550;  922.000;  799.000
465.291;  130.400; 1376.000; 1320.000
465.410;    4.850;  462.000;  735.000
465.530;   67.650; 1355.000; 1310.000
465.649;   51.975; 1209.000; 1273.000
465.768;  146.450; 1673.000; 1508.000
465.888;   41.675;  941.000; 1174.000
466.007;   95.425; 1335.000; 1440.000
466.126;  -17.600;  721.000;  641.000
466.245;   46.025; 1176.000; 1187.000
466.364;   22.600;  950.000; 1060.000
466.484;   52.700; 1024.000; 1213.000
466.603;   21.975; 1101.000; 1222.000
466.722;  113.250; 1490.000; 1769.000
466.841;   58.825; 1151.000; 1401.000
466.960;   41.350; 1069.000;  972.000
467.079;  123.550; 1971.000; 1786.000
467.198;   43.850; 1238.000; 1181.000
467.317;   83.550; 1768.000; 1162.000
467.436;   63.100; 1709.000; 1261.000
467.555;  116.050; 1796.000; 1746.000
467.674;   65.075; 1227.000; 1329.000
467.793;   43.900; 1376.000; 1374.000
467.912;   80.225; 1658.000; 1539.000
468.031;  141.175; 2038.000; 1930.000
468.150;  133.750; 1842.000; 1837.000
468.269;  178.575; 2313.000; 2090.000
468.388;  177.000; 2168.000; 2339.000
468.507;  240.925; 2884.000; 2903.000
468.626;  268.700; 2555.000; 2541.000
468.744;  145.750; 2018.000; 2174.000
468.863;  204.800; 2312.000; 2523.000
468.982;   84.525; 1503.000; 1555.000
469.101;  224.750; 2788.000; 2692.000
469.220;  129.550; 2333.000; 2176.000
469.338;  238.550; 2935.000; 3051.000
469.457;  199.125; 2719.000; 2545.000
469.576;  339.575; 3953.000; 3784.000
469.695;  234.700; 2877.000; 3066.000
469.813;  419.125; 4148.000; 4192.000
469.932;  410.750; 4255.000; 4485.000
470.051;  404.200; 4075.000; 4161.000
470.169;  861.500; 4470.000; 4338.000
470.288; 1562.625; 4700.000; 4809.000
470.406;  931.750; 5059.000; 5194.000
470.525;  650.375; 6101.000; 5787.000
470.644;  638.700; 6847.000; 6794.000
470.762;  804.950; 8397.000; 7873.000
470.881;  893.950; 8651.000; 8464.000
470.999; 1042.325; 9685.000; 9151.000
471.118; 1113.775;11174.000;10711.000

