
Integration time [ms]: 100.000
Averaging Nr. [scans]: 40
Smoothing Nr. [pixels]: 0
Data measured with spectrometer [name]: 2101012U2
Wave   ;Sample   ;Dark     ;Reference
[nm]   ;[counts] ;[counts] ;[counts] 

197.733;   61.275;  516.000;  404.000
197.879;  -92.550; -610.000; -634.000
198.025;  -38.150; -475.000; -420.000
198.171;  -70.550; -602.000; -612.000
198.317;  -29.675; -401.000; -316.000
198.463;  -63.050; -655.000; -404.000
198.609;   29.850;  181.000; -137.000
198.755;  -89.825; -644.000; -410.000
198.901;  -66.025; -505.000; -424.000
199.047;  -69.025; -615.000; -488.000
199.193;  -39.175; -230.000; -468.000
199.339;  -34.975; -222.000; -369.000
199.485;   32.725;  330.000;  271.000
199.631;   18.025;  227.000;  310.000
199.777;  -50.300; -466.000; -398.000
199.923;  -58.600; -610.000; -424.000
200.069;   -6.550; -141.000;  -58.000
200.215;   41.725;  128.000;  453.000
200.361;   32.350;  243.000;  477.000
200.507;  -48.900; -600.000; -373.000
200.653;  -12.100; -371.000; -194.000
200.798;  -39.300; -215.000; -125.000
200.944;    8.600; -146.000;  -41.000
201.090;   32.975;   61.000;  222.000
201.236;    2.725; -116.000; -158.000
201.382;  117.725;  874.000;  903.000
201.528;    4.675;  -58.000;  -48.000
201.674;  -50.650; -386.000; -293.000
201.819;  -43.300; -540.000; -439.000
201.965;  -69.350; -699.000; -447.000
202.111;  -17.125; -273.000; -226.000
202.257;  -33.375; -250.000; -238.000
202.402;   14.600;   13.000;  -36.000
202.548;  -18.850; -169.000; -116.000
202.694;   85.950;  410.000; -183.000
202.840;  -71.000; -603.000; -531.000
202.985;  -63.475; -681.000; -639.000
203.131;  -96.025; -832.000; -666.000
203.277;  -22.175; -199.000; -262.000
203.423;  -39.375; -434.000; -520.000
203.568;  -33.250; -462.000; -237.000
203.714;  -58.400; -535.000; -542.000
203.860;  -74.525; -682.000; -641.000
204.005;    7.950;  112.000;  167.000
204.151;   68.400;  561.000;  556.000
204.296;  -40.875; -354.000; -221.000
204.442;  -54.525; -600.000; -547.000
204.588;  -80.525; -592.000; -579.000
204.733;    8.750;  178.000;  168.000
204.879; -129.525;-1018.000; -822.000
205.025;    9.975;  -99.000;  126.000
205.170;    0.725;  -17.000;   94.000
205.316;   81.625;  438.000;  661.000
205.461;  -76.875; -698.000; -554.000
205.607;   75.950;  609.000;  665.000
205.752;  -74.175; -626.000; -551.000
205.898;  -47.125; -501.000; -391.000
206.043;  -50.300; -578.000; -506.000
206.189;  -28.675; -243.000; -285.000
206.334;   77.375;  554.000;  606.000
206.480;   83.025;  409.000;  239.000
206.625;  -78.650; -529.000; -552.000
206.771;  -43.725; -451.000; -373.000
206.916;  -37.575; -210.000; -537.000
207.062;  -66.550; -545.000; -591.000
207.207;  -65.100; -546.000; -443.000
207.353;   56.600;  185.000;  460.000
207.498;   12.300;  196.000;   85.000
207.643;  -52.475; -501.000; -370.000
207.789; -122.175;-1069.000; -910.000
207.934;  -71.575; -665.000; -713.000
208.080;  -23.400; -154.000;   66.000
208.225;   -0.750;  -22.000;  -57.000
208.370;  -87.225; -727.000; -619.000
208.516;  -74.450; -741.000; -487.000
208.661;  -29.150; -127.000;  -69.000
208.806;  -14.925; -165.000; -171.000
208.952; -124.400;-1044.000; -731.000
209.097;   73.500;  378.000;  349.000
209.242;  -49.200; -307.000; -382.000
209.387;   77.950;  392.000;  350.000
209.533;  -44.700; -321.000; -350.000
209.678;   71.775;  472.000;  543.000
209.823;  -46.575; -408.000; -310.000
209.969;  -95.550; -860.000; -757.000
210.114; -103.750; -907.000; -719.000
210.259; -112.750; -939.000; -889.000
210.404;  -12.575; -171.000;  103.000
210.549;    9.125;  108.000;    3.000
210.695;  -22.650;   -3.000;  -95.000
210.840;   33.975;   94.000;   67.000
210.985;  -62.175; -484.000; -303.000
211.130;   60.425;  268.000;  406.000
211.275;   10.675;  207.000;  199.000
211.420;  -49.125; -300.000; -289.000
211.566;  -66.100; -536.000; -489.000
211.711;   22.400;  218.000;  157.000
211.856;  -68.900; -545.000; -519.000
212.001;   15.100;  151.000;   44.000
212.146;   16.050;  153.000;   49.000
212.291;  -24.200; -210.000; -186.000
212.436;  -21.825; -280.000;   -6.000
212.581;  -85.750; -685.000; -653.000
212.726;  -66.400; -487.000; -538.000
212.871;  -44.675; -552.000; -217.000
213.016; -134.525;-1172.000;-1029.000
213.161;   56.100;  406.000;  291.000
213.306;  -72.075; -435.000; -577.000
213.451;  -79.125; -778.000; -689.000
213.596;  -58.575; -455.000; -347.000
213.741;  -45.575; -448.000; -538.000
213.886;  -72.600; -498.000; -517.000
214.031;  -28.250; -294.000; -124.000
214.176;  -46.950; -408.000; -341.000
214.321;  -13.275; -296.000; -157.000
214.466;  -15.600; -163.000;  -43.000
214.611;    1.500;  -61.000;  -10.000
214.756; -110.525; -948.000; -858.000
214.901;  -14.925; -388.000; -226.000
215.046; -111.575; -797.000; -825.000
215.191;   16.950;  128.000;   35.000
215.336;  -15.450; -157.000;  -19.000
215.480;  -58.800; -684.000; -505.000
215.625;  -18.625; -175.000;  -19.000
215.770;  -88.250; -757.000; -662.000
215.915;   -5.000;   -5.000;  -97.000
216.060;   -3.600; -113.000;  -21.000
216.205; -111.575; -731.000; -779.000
216.349;  -72.450; -470.000; -533.000
216.494; -126.450; -939.000; -867.000
216.639; -102.500; -823.000; -888.000
216.784;  -86.425; -577.000; -525.000
216.929;   58.300;  392.000;  281.000
217.073;   -4.575; -244.000;  -31.000
217.218;   10.375;   78.000;  -47.000
217.363;  -87.825; -656.000; -618.000
217.507;  -66.825; -623.000; -588.000
217.652; -109.150; -845.000; -874.000
217.797;  -85.450; -708.000; -659.000
217.942; -100.350; -856.000; -720.000
218.086;   71.025;  608.000;  539.000
218.231;  -28.675; -174.000;  -26.000
218.376;  -32.075; -337.000; -229.000
218.520;   -2.775;  -41.000;   96.000
218.665;  -29.375; -338.000; -204.000
218.810;  -38.825; -275.000; -233.000
218.954;   18.200;  201.000;   35.000
219.099; -102.350; -713.000; -963.000
219.243;  -61.475; -589.000; -554.000
219.388;  -33.375; -264.000; -136.000
219.532;   -1.200; -116.000; -116.000
219.677;  -83.800; -564.000; -521.000
219.822;   18.075;   33.000;   89.000
219.966;   -2.425;   17.000;  -99.000
220.111;  -16.900; -328.000;  -40.000
220.255; -103.025; -797.000; -750.000
220.400;  -20.400; -180.000; -146.000
220.544;  -72.725; -516.000; -450.000
220.689;  -49.500; -422.000; -451.000
220.833;  -25.825; -123.000;  -58.000
220.978;  -37.875; -393.000; -563.000
221.122;   21.375;  319.000;  307.000
221.267; -113.575; -906.000; -837.000
221.411;  -51.425; -478.000; -394.000
221.555;   -2.475; -104.000;  -23.000
221.700;  -43.800; -329.000; -222.000
221.844;   33.550;  255.000;  272.000
221.989;  -47.550; -328.000; -311.000
222.133;  -37.375; -289.000; -307.000
222.277;    0.325;    5.000;   78.000
222.422;   19.150;  227.000;  113.000
222.566;  -38.675; -381.000; -214.000
222.711;  -42.500; -414.000; -479.000
222.855;  -79.475; -643.000; -586.000
222.999;  -77.750; -642.000; -717.000
223.144;  -31.625; -195.000; -194.000
223.288;   67.050;  423.000;  251.000
223.432;   23.050;  184.000;  230.000
223.576;   12.075;  152.000;  -21.000
223.721;   29.825;  364.000;  273.000
223.865;  -52.225; -472.000; -475.000
224.009;  224.175; 1673.000; 1631.000
224.153;  -60.850; -660.000; -671.000
224.298;  -67.175; -531.000; -489.000
224.442;   -5.500;  -74.000;  -33.000
224.586;  -10.500; -169.000; -106.000
224.730;  -77.800; -858.000; -670.000
224.875; -112.825; -739.000; -688.000
225.019;   12.075;  102.000;  188.000
225.163;   57.325;  208.000;  341.000
225.307;   22.275;   97.000;  -91.000
225.451;   44.975;  360.000;  481.000
225.595;   23.000;  264.000;  176.000
225.739;  -20.800; -170.000;  -94.000
225.884;    4.775;   86.000;    5.000
226.028; -101.125; -760.000; -626.000
226.172;  -43.975; -260.000; -273.000
226.316; -120.675; -941.000; -902.000
226.460;  -63.025; -645.000; -493.000
226.604;  -56.300; -406.000; -400.000
226.748;  -92.600; -836.000; -733.000
226.892;  -29.375; -227.000; -181.000
227.036;  -35.175; -537.000; -447.000
227.180;  -55.800; -551.000; -375.000
227.324;  -56.275; -561.000; -580.000
227.468; -113.650; -819.000; -717.000
227.612;   21.075;  242.000;  -28.000
227.756;  -84.200; -845.000; -698.000
227.900;   54.425;  342.000;  441.000
228.044;  -65.325; -509.000; -290.000
228.188;   43.925;  448.000;  568.000
228.332;  -79.775; -546.000; -472.000
228.476;  -22.900; -223.000; -149.000
228.620;  -17.550; -210.000; -150.000
228.764;   54.025;  431.000;  349.000
228.908;  -13.375; -155.000;   30.000
229.052;  -51.500; -615.000; -528.000
229.195;  -31.225; -172.000;   13.000
229.339;  -19.975; -235.000; -305.000
229.483;  -19.100;    5.000; -162.000
229.627;   -2.300; -156.000;  139.000
229.771;  -47.625; -218.000; -294.000
229.915;   16.375;  230.000;   79.000
230.059;  -98.450; -648.000; -663.000
230.202;  -46.575; -370.000; -317.000
230.346;  -15.800; -107.000;  107.000
230.490;  -54.400; -489.000; -521.000
230.634; -106.175; -736.000; -553.000
230.777;   67.925;  478.000;  509.000
230.921;  -56.475; -450.000; -359.000
231.065;  -38.525; -246.000; -286.000
231.209;   10.150;  261.000;  265.000
231.352;   11.225;   54.000;   40.000
231.496;   11.050;  568.000;  188.000
231.640;  -84.675; -693.000; -621.000
231.783;   57.175;  546.000;  525.000
231.927;  -35.450; -294.000; -365.000
232.071; -112.825; -962.000; -736.000
232.214; -105.750; -980.000; -764.000
232.358;  -99.300; -683.000; -599.000
232.502;   -0.650;  -19.000;    7.000
232.645; -143.250;-1090.000; -927.000
232.789;  -22.125; -257.000; -218.000
232.933;  -48.250; -407.000; -224.000
233.076; -117.025;-1038.000; -897.000
233.220; -110.150; -752.000; -777.000
233.363;  -59.100; -669.000; -477.000
233.507;   60.975;  371.000;  129.000
233.650;  -99.050; -764.000; -834.000
233.794;   37.150;  438.000;  461.000
233.938;  -48.775; -530.000; -362.000
234.081;  -19.575;  -93.000;   31.000
234.225;  -61.450; -631.000; -539.000
234.368; -103.975; -773.000; -723.000
234.512;  -33.250; -385.000; -299.000
234.655;  -85.775; -582.000; -555.000
234.798;  -66.975; -493.000; -466.000
234.942; -126.200; -884.000;-1002.000
235.085;  -76.300; -651.000; -443.000
235.229;  -65.700; -405.000; -410.000
235.372;  -41.125; -247.000; -191.000
235.516;  -57.650; -397.000; -321.000
235.659;   19.875;   92.000;  121.000
235.802;   -5.000;  -38.000;  -22.000
235.946;   42.325;  335.000;  215.000
236.089;   28.750;  126.000;  250.000
236.233;   40.675;  275.000;  298.000
236.376;  -51.675; -235.000; -378.000
236.519;  -49.150; -297.000; -319.000
236.663;  -21.350; -215.000; -117.000
236.806; -122.400;-1029.000; -999.000
236.949;   40.450;  543.000;  431.000
237.092;   35.850;  412.000;  391.000
237.236;  -92.525; -589.000; -502.000
237.379;   59.750;  352.000;  428.000
237.522; -117.300; -879.000; -768.000
237.666;   -8.825; -271.000;   18.000
237.809; -119.825; -851.000; -823.000
237.952;   38.950;  469.000;  271.000
238.095;  -60.800; -447.000; -442.000
238.238;   72.475;  688.000;  700.000
238.382;    4.125;  166.000;  103.000
238.525;  -71.325; -598.000; -511.000
238.668; -135.000;-1060.000; -985.000
238.811;  -72.325; -638.000; -643.000
238.954;  -57.025; -483.000; -334.000
239.097;   88.375;  617.000;  664.000
239.241;   17.675;  394.000;  326.000
239.384;  -35.025; -254.000; -214.000
239.527;  -67.500; -424.000; -224.000
239.670; -129.150; -994.000;-1091.000
239.813; -113.075; -696.000; -658.000
239.956;   74.775;  579.000;  473.000
240.099; -109.350; -778.000; -725.000
240.242;   60.050;  428.000;  432.000
240.385;   32.525;  466.000;  450.000
240.528;  -66.100; -706.000; -473.000
240.671;   -4.250;  189.000;  134.000
240.814;  -23.100; -441.000; -158.000
240.957; -109.575; -767.000; -578.000
241.100;  -74.850; -779.000; -755.000
241.243; -157.925;-1234.000; -893.000
241.386;  -61.200; -508.000; -379.000
241.529;  -87.925; -735.000; -547.000
241.672;  -67.375; -566.000; -495.000
241.815; -109.775; -832.000; -808.000
241.958;  -26.700; -125.000; -182.000
242.101;  -68.500; -545.000; -390.000
242.244;  -40.575; -270.000; -325.000
242.387;  -27.850; -304.000; -246.000
242.530;   53.650;  470.000;  134.000
242.673;  -51.325; -381.000; -309.000
242.815; -114.175; -925.000; -899.000
242.958;  -71.650; -482.000; -381.000
243.101;   14.525;  132.000;  187.000
243.244;  -72.400; -564.000; -521.000
243.387;  -50.875; -313.000; -316.000
243.530; -102.300; -657.000; -674.000
243.672;   -7.250;   43.000;  -92.000
243.815;  -59.350; -355.000; -283.000
243.958;    3.325;   98.000;  -26.000
244.101;  -19.475;   59.000;  -16.000
244.243;   -6.900;  -47.000;  101.000
244.386; -103.875; -761.000; -630.000
244.529;  -22.575; -132.000; -139.000
244.672; -147.525;-1154.000; -951.000
244.814; -100.200; -621.000; -794.000
244.957;  -46.075; -380.000; -304.000
245.100;  -69.075; -489.000; -489.000
245.242;  -52.325; -387.000; -374.000
245.385;  -13.150;  -59.000;  -39.000
245.528; -114.100; -871.000; -705.000
245.670;   89.000;  612.000;  634.000
245.813;  -89.400; -599.000; -547.000
245.956;  -21.025; -324.000; -275.000
246.098;  -91.150; -508.000; -650.000
246.241;    5.500;  194.000;   48.000
246.383;  -48.825; -119.000;  -73.000
246.526;  -72.875; -454.000; -525.000
246.669; -113.775; -889.000; -780.000
246.811;   17.400;  172.000;   -1.000
246.954;  -59.025; -512.000; -426.000
247.096;  -17.925;  -84.000;   -6.000
247.239;  -56.825; -482.000; -445.000
247.381;  -84.250; -647.000; -488.000
247.524;   72.700;  645.000;  679.000
247.666;   -3.200;   58.000;   11.000
247.809; -122.325; -887.000; -691.000
247.951;   -4.925;  -75.000;  138.000
248.094;   23.700;  432.000;  308.000
248.236; -150.150;-1262.000;-1238.000
248.378;  -27.675; -356.000;  -81.000
248.521;  -33.375; -334.000; -337.000
248.663;  -40.875; -236.000; -267.000
248.806;  -37.275; -300.000; -266.000
248.948; -106.600; -886.000; -763.000
249.090;  -47.075; -428.000; -398.000
249.233;  -55.600; -344.000; -381.000
249.375;  -68.500; -474.000; -451.000
249.518;  -10.000;  -83.000; -133.000
249.660;   -5.025; -103.000;    3.000
249.802; -177.025;-1303.000;-1189.000
249.945;  -73.825; -612.000; -540.000
250.087; -117.150; -834.000; -768.000
250.229;  -35.250; -362.000; -480.000
250.371;  -72.075; -494.000; -439.000
250.514;  -59.125; -310.000; -244.000
250.656;  -44.425;   69.000;  102.000
250.798; -121.575; -849.000; -800.000
250.940;  -55.525; -322.000; -322.000
251.083;  -44.575; -335.000; -111.000
251.225;   35.000;  338.000;  310.000
251.367;  -41.725; -274.000; -373.000
251.509;  -31.350; -265.000; -210.000
251.651;  -97.375; -731.000; -671.000
251.794;   53.775;  538.000;  632.000
251.936; -116.250; -821.000; -747.000
252.078;  -73.875; -540.000; -461.000
252.220;  -68.300; -645.000; -477.000
252.362;   50.875;  344.000;  462.000
252.504;  -88.200; -677.000; -584.000
252.646; -110.675; -875.000; -722.000
252.788;  -14.225;   14.000; -128.000
252.931;  -50.425; -257.000; -253.000
253.073;  -56.475; -376.000; -317.000
253.215;  -16.725;  141.000;  122.000
253.357;   -9.575;   82.000; -153.000
253.499;  -57.000; -374.000; -234.000
253.641;  -86.175; -749.000; -594.000
253.783; -102.925; -609.000; -527.000
253.925;  -84.650; -586.000; -591.000
254.067; -100.450; -744.000; -667.000
254.209;  -18.200; -391.000; -259.000
254.351; -137.125; -865.000; -883.000
254.493;  -57.950; -441.000; -417.000
254.635; -138.475; -936.000; -818.000
254.777;  -82.525; -752.000; -687.000
254.918;  -60.950; -512.000; -430.000
255.060;  -54.100; -551.000; -395.000
255.202;  -75.600; -473.000; -261.000
255.344;  -66.225; -658.000; -455.000
255.486;  -65.175; -471.000; -406.000
255.628;  -92.725; -780.000; -781.000
255.770;  -85.075; -676.000; -536.000
255.912;  -64.050; -559.000; -468.000
256.053;  -88.425; -730.000; -508.000
256.195;  156.200; 1008.000;  903.000
256.337;  -99.000; -861.000; -595.000
256.479;   53.050;  532.000;  416.000
256.621;  -48.975; -394.000; -212.000
256.762;  -91.350; -789.000; -742.000
256.904;   46.600;  485.000;  487.000
257.046;  -32.950; -381.000; -271.000
257.188;  -45.525; -351.000; -264.000
257.329;  -75.425; -525.000; -464.000
257.471; -119.275; -939.000; -807.000
257.613;  -69.650; -584.000; -498.000
257.755; -145.375;-1073.000; -982.000
257.896;   29.300;  286.000;  392.000
258.038;  -65.200; -403.000; -352.000
258.180;  -41.425; -354.000; -279.000
258.321;  -78.125; -581.000; -457.000
258.463;  -20.275;  -71.000;  133.000
258.605;  -87.625; -562.000; -570.000
258.746; -106.125; -886.000; -772.000
258.888; -139.750;-1026.000;-1020.000
259.029;   20.975;  121.000;   -8.000
259.171;  -87.850; -614.000; -550.000
259.313;   -5.125;  -49.000;  -47.000
259.454;  -75.150; -536.000; -414.000
259.596;  -52.625; -483.000; -390.000
259.737;  -76.925; -590.000; -474.000
259.879;   32.450;  217.000;  311.000
260.020;   79.750;  901.000;  636.000
260.162;  -31.125; -146.000; -253.000
260.303; -123.625; -768.000; -687.000
260.445;  -76.225; -609.000; -613.000
260.586;   17.075;  392.000;  157.000
260.728;  -43.975; -360.000; -248.000
260.869;  -70.150; -350.000; -343.000
261.011;   82.275;  706.000;  537.000
261.152;  -66.550; -479.000; -319.000
261.293;  -78.600; -576.000; -595.000
261.435;  -41.375; -219.000; -184.000
261.576;  -45.625; -455.000; -325.000
261.718;   46.400;  420.000;  470.000
261.859; -121.700; -940.000; -949.000
262.000; -129.175; -951.000;-1016.000
262.142;  -26.400;  -52.000;  -60.000
262.283; -124.525; -808.000; -691.000
262.424;  -79.875; -666.000; -625.000
262.566; -155.325;-1161.000; -983.000
262.707; -109.625; -840.000; -830.000
262.848; -119.150; -769.000; -726.000
262.990;  -45.350; -362.000; -345.000
263.131;   77.225;  650.000;  681.000
263.272;  -13.650;  -61.000;  -41.000
263.413;  -94.725; -589.000; -561.000
263.555;  -68.425; -669.000; -143.000
263.696;  -93.950; -550.000; -641.000
263.837;  -54.450; -449.000; -551.000
263.978;   -4.075;   -5.000;  -77.000
264.119;  -45.850; -283.000; -264.000
264.261; -118.175; -847.000; -630.000
264.402;   -6.600;   33.000;   40.000
264.543;  -76.500; -509.000; -524.000
264.684;  -19.625;   61.000;  -50.000
264.825;  -72.250; -816.000; -538.000
264.966;  -11.925;  -84.000;  -67.000
265.107; -111.500; -646.000; -670.000
265.248; -109.100; -825.000; -812.000
265.390;  -21.275;  152.000;   -9.000
265.531;  -31.800; -238.000; -107.000
265.672;  -88.175; -557.000; -630.000
265.813;   54.400;  563.000;  439.000
265.954; -143.075; -959.000; -940.000
266.095;  -21.475; -372.000; -322.000
266.236; -102.000; -686.000; -548.000
266.377;  -54.500; -243.000; -297.000
266.518;  -71.425; -619.000; -547.000
266.659;   15.600;  170.000;  268.000
266.800;    2.750;   83.000;   85.000
266.941;  -73.125; -487.000; -478.000
267.082;   10.450;  354.000;   99.000
267.223;  -55.150; -344.000; -273.000
267.364; -120.075; -892.000; -686.000
267.504;  -11.625;    3.000;  135.000
267.645;   -0.400;  160.000;   67.000
267.786;  -28.450; -147.000;  -86.000
267.927;  -82.150; -473.000; -379.000
268.068;  -19.425; -186.000;  -61.000
268.209;  -62.375; -175.000; -413.000
268.350;  -72.150; -388.000; -532.000
268.490;  -93.650; -648.000; -521.000
268.631;   22.350;  127.000;  225.000
268.772; -114.625; -874.000; -647.000
268.913;  -46.975; -328.000; -476.000
269.054;  -24.325; -117.000;   12.000
269.194;  -49.950; -418.000; -402.000
269.335; -150.200;-1137.000;-1074.000
269.476;  -14.525;   33.000;  -35.000
269.617;  -41.050; -347.000; -392.000
269.757;  -90.800; -713.000; -646.000
269.898; -106.300; -856.000; -613.000
270.039;  -52.150; -415.000; -405.000
270.180; -123.950; -952.000; -816.000
270.320;  -32.600; -190.000; -250.000
270.461;  -50.450; -277.000; -249.000
270.602;  -21.825; -186.000; -156.000
270.742; -140.350; -868.000; -943.000
270.883;  -63.675; -442.000; -390.000
271.023;  -48.625; -358.000; -357.000
271.164;  -76.625; -607.000; -528.000
271.305; -108.525; -666.000; -654.000
271.445;  -90.850; -722.000; -683.000
271.586;  -77.875; -462.000; -283.000
271.726;  -61.975; -397.000; -322.000
271.867;  -89.425; -594.000; -534.000
272.008;   49.675; -473.000; -285.000
272.148;   68.775;  462.000;  468.000
272.289;  -18.425; -113.000; -181.000
272.429;    2.975;   19.000;  185.000
272.570; -104.400; -633.000; -737.000
272.710; -119.500; -825.000; -775.000
272.851;  -19.100;  113.000; -130.000
272.991; -165.175;-1173.000;-1077.000
273.131;  -62.950; -419.000; -459.000
273.272; -108.050; -683.000; -723.000
273.412;  -17.850; -143.000;  -31.000
273.553;  -78.000; -488.000; -507.000
273.693;  112.625;  913.000;  858.000
273.834; -104.700; -894.000; -692.000
273.974;  -81.425; -664.000; -615.000
274.114;  -93.350; -772.000; -560.000
274.255;   43.325;  414.000;  373.000
274.395;  -31.600; -180.000; -125.000
274.535;   24.775;  199.000;  350.000
274.676;    9.250;  225.000;   94.000
274.816;   -9.150;  110.000;   34.000
274.956;  -86.275; -624.000; -690.000
275.097; -105.350;-1014.000; -922.000
275.237; -123.950; -913.000; -803.000
275.377; -106.150; -778.000; -689.000
275.517; -143.250; -878.000; -937.000
275.658;  -71.075; -590.000; -555.000
275.798;  -87.575; -606.000; -413.000
275.938;   21.375;  215.000;  323.000
276.078;  -86.525; -626.000; -395.000
276.218;    8.700;   99.000;  104.000
276.359; -142.950;-1026.000;-1024.000
276.499;  -76.825; -605.000; -446.000
276.639;  -37.300; -305.000; -151.000
276.779;  -43.425; -475.000; -357.000
276.919; -113.050; -783.000; -624.000
277.059;  -26.125; -261.000; -212.000
277.199;  -61.675; -357.000; -259.000
277.340;   23.725;  287.000;  175.000
277.480; -106.075; -840.000; -693.000
277.620;   13.225;  192.000;   16.000
277.760; -187.775;-1533.000;-1294.000
277.900;    2.550;  113.000;   33.000
278.040;    4.200;  137.000;  159.000
278.180;   18.050;  270.000;  170.000
278.320;   -6.500;   21.000;   56.000
278.460;  -75.425; -443.000; -469.000
278.600;  -88.000; -708.000; -598.000
278.740;   47.625;  448.000;  224.000
278.880; -115.775; -768.000; -791.000
279.020;  -21.375; -194.000; -144.000
279.160;  -90.150; -672.000; -595.000
279.300; -119.725; -926.000; -873.000
279.440; -105.925; -709.000; -622.000
279.579;  -74.350;-1014.000; -929.000
279.719;  -68.950; -410.000; -394.000
279.859;   31.875;   -4.000;   41.000
279.999;   -0.325; -208.000;  101.000
280.139;  -48.725; -435.000; -387.000
280.279;  -93.150; -708.000; -745.000
280.419;  -26.925; -229.000; -147.000
280.559;  -50.900; -259.000; -180.000
280.698;  -94.350; -790.000; -639.000
280.838; -122.450; -778.000; -800.000
280.978;  -90.175; -846.000; -790.000
281.118; -118.825; -811.000; -704.000
281.257;    3.725;   24.000;    6.000
281.397; -145.000;-1094.000; -960.000
281.537; -105.025; -599.000; -712.000
281.677;  -13.200; -150.000; -101.000
281.816;  -90.825; -700.000; -630.000
281.956;  -38.800; -193.000; -257.000
282.096;  -75.175; -539.000; -396.000
282.235; -101.125; -672.000; -638.000
282.375;  -32.050; -243.000;  -98.000
282.515; -109.100; -715.000; -707.000
282.654;   11.700;   29.000;  106.000
282.794;   17.575;  388.000;  244.000
282.934;  -55.450; -530.000; -491.000
283.073; -116.425;-1030.000; -857.000
283.213;  -70.575; -460.000; -467.000
283.353;  -53.325; -408.000; -349.000
283.492;  -41.550; -264.000; -296.000
283.632;  -51.475; -254.000; -168.000
283.771;  -98.000; -859.000; -730.000
283.911;  -61.275; -369.000; -260.000
284.050;  -92.975; -794.000; -748.000
284.190; -155.175;-1229.000;-1096.000
284.329; -134.375;-1055.000; -964.000
284.469; -103.575; -516.000; -591.000
284.608;  -64.350; -559.000; -598.000
284.748;  -89.225; -614.000; -570.000
284.887;  -14.375;  -87.000;  -20.000
285.027; -128.475; -844.000; -892.000
285.166;  -40.925; -192.000; -249.000
285.306;  -25.600; -116.000;  -33.000
285.445;  -51.800; -229.000; -343.000
285.584; -103.525; -630.000; -494.000
285.724;  -38.675; -282.000; -322.000
285.863; -113.575; -857.000; -507.000
286.002;  -57.300; -366.000; -276.000
286.142; -112.025; -715.000; -622.000
286.281;  -65.500; -525.000; -493.000
286.420;  -88.275; -554.000; -417.000
286.560;  100.075;  653.000;  623.000
286.699; -136.850; -958.000; -912.000
286.838;  -83.725; -590.000; -591.000
286.978;  -89.175; -533.000; -537.000
287.117; -124.250;-1085.000; -950.000
287.256;  -31.725; -228.000; -211.000
287.395;  -54.950; -197.000; -378.000
287.535;  -44.950; -370.000; -298.000
287.674;  -84.675; -509.000; -484.000
287.813;   42.200;  661.000;  533.000
287.952; -127.450;-1010.000; -871.000
288.091; -152.075;-1049.000; -915.000
288.231;   -8.950;   13.000;   15.000
288.370; -169.525;-1217.000;-1200.000
288.509;  -85.725; -728.000; -645.000
288.648;  -88.700; -770.000; -548.000
288.787;  -35.925; -243.000;  -87.000
288.926;  -58.425; -454.000; -475.000
289.065;  109.525;  859.000;  672.000
289.204;  -66.300; -377.000; -217.000
289.344;  -85.125; -791.000; -690.000
289.483;    5.675;  416.000;  304.000
289.622;  -33.150; -291.000; -149.000
289.761;  -38.150; -309.000; -166.000
289.900; -105.550; -785.000; -626.000
290.039;  -17.650;  -12.000;  -95.000
290.178;  -50.900; -274.000; -180.000
290.317;  -89.250; -618.000; -479.000
290.456;  -68.975; -463.000; -451.000
290.595; -128.600; -961.000; -833.000
290.734; -134.350; -904.000; -891.000
290.873;  -70.000; -456.000; -420.000
291.011; -103.950; -833.000; -843.000
291.150; -108.200; -770.000; -682.000
291.289;  -26.400; -343.000; -110.000
291.428;  -96.375; -599.000; -480.000
291.567;  -59.400; -370.000; -442.000
291.706;  -19.050;  109.000;  154.000
291.845;  -88.550; -597.000; -505.000
291.984; -182.900;-1234.000;-1061.000
292.122;   63.725;  602.000;  582.000
292.261;   40.025;  620.000;  463.000
292.400;   -5.750; -144.000;  211.000
292.539; -132.050; -959.000; -813.000
292.678;  -35.850; -325.000; -300.000
292.816; -155.025;-1136.000; -965.000
292.955; -101.025; -844.000; -684.000
293.094;  -38.550; -173.000; -337.000
293.233;  -55.250; -556.000; -400.000
293.371;  -46.750; -225.000;  -84.000
293.510; -114.075; -866.000; -780.000
293.649; -136.250; -959.000; -924.000
293.787; -121.500;-1083.000;-1012.000
293.926;  -31.525; -113.000;  -32.000
294.065;  -50.350; -379.000; -290.000
294.203;   36.850;  298.000;  406.000
294.342;   23.350;   74.000;  156.000
294.481; 5835.525;51180.000; -836.000
294.619;  -28.950; -425.000; -582.000
294.758; -150.950;-1230.000;-1137.000
294.896;   19.075; -125.000;    5.000
295.035; -154.250;-1040.000;-1006.000
295.174; -125.575;-1082.000; -954.000
295.312;  -51.025; -323.000; -203.000
295.451;  -40.800; -307.000; -428.000
295.589;  -68.525; -389.000; -518.000
295.728;   -2.475; -292.000; -165.000
295.866;  -18.775;  -36.000;  -51.000
296.005;  -78.975; -584.000; -341.000
296.143;  -87.100; -558.000; -596.000
296.282; -107.625; -957.000; -881.000
296.420;  -87.475; -657.000; -557.000
296.559;  -91.225; -892.000; -633.000
296.697;  -85.800; -847.000; -665.000
296.835;  -93.900;-1141.000;-1002.000
296.974;    3.300;  -23.000;   39.000
297.112;  -43.300; -443.000; -504.000
297.251;  -90.000; -815.000; -755.000
297.389;  -25.675; -576.000; -438.000
297.527;  -14.425; -145.000;  -83.000
297.666;  -74.450; -486.000; -438.000
297.804;  -57.600; -404.000; -264.000
297.942;    3.500; -136.000; -161.000
298.081;  -17.850; -183.000;   63.000
298.219;   20.925;  -17.000;  -19.000
298.357;  -14.250; -144.000;  -71.000
298.495;  -67.550; -810.000; -812.000
298.634;    4.550;  245.000;  219.000
298.772;  -27.400; -220.000; -338.000
298.910;  -52.975; -309.000; -182.000
299.048;  -20.950; -130.000; -153.000
299.187;  -41.125; -350.000; -250.000
299.325;    1.100;   52.000;  122.000
299.463;  -18.750; -389.000; -299.000
299.601;  -14.325; -327.000; -271.000
299.739; -136.275; -908.000; -883.000
299.877;  -89.125; -791.000; -703.000
300.016; -111.325;-1095.000; -935.000
300.154;   29.250;  -19.000; -161.000
300.292;  -33.950; -428.000; -348.000
300.430;  -36.725; -408.000; -291.000
300.568; -136.025; -940.000; -874.000
300.706;  -69.350; -366.000; -469.000
300.844; -121.975;-1108.000; -979.000
300.982;   49.425;  246.000;  282.000
301.120; -131.100; -965.000; -866.000
301.258; -105.375; -812.000; -705.000
301.396;    0.900;  104.000;  -41.000
301.534;  -30.150; -218.000; -293.000
301.672;  -97.125; -664.000; -521.000
301.810;  -68.750; -613.000; -545.000
301.948;   15.625;   53.000;  149.000
302.086;  195.150; -250.000;  -32.000
302.224;  216.375; -610.000; -585.000
302.362;  -59.675; -558.000; -622.000
302.500; -107.650; -923.000; -893.000
302.638;   28.950;  128.000;  245.000
302.776;  -41.725; -352.000; -408.000
302.913;   21.225;  447.000;  236.000
303.051;  -48.500;  -86.000;  -23.000
303.189;   13.225;   90.000;  118.000
303.327;  -56.425; -341.000; -256.000
303.465;  -84.450; -832.000; -588.000
303.603; -104.575; -805.000; -604.000
303.740;   38.750;  417.000;  241.000
303.878;  -93.050; -800.000; -759.000
304.016; -107.600; -915.000; -790.000
304.154; -150.550;-1123.000;-1152.000
304.291;  -64.000; -505.000; -554.000
304.429;    1.325;  102.000;   74.000
304.567; -141.000; -908.000; -893.000
304.705;  -82.900; -408.000; -515.000
304.842;  -25.900; -616.000; -540.000
304.980;   13.975;  215.000;   35.000
305.118;  -23.675; -367.000; -365.000
305.255; -115.325; -945.000; -927.000
305.393;   35.300;  178.000;  239.000
305.531; -144.600;-1173.000; -956.000
305.668;  -81.375; -663.000; -582.000
305.806;   -2.450; -358.000; -439.000
305.943;  -29.425; -629.000; -637.000
306.081;   -9.600; -378.000; -267.000
306.219; -107.550; -863.000; -748.000
306.356;  -20.200;  158.000;   27.000
306.494;  115.300;  981.000;  761.000
306.631;   -7.900;  -11.000;  -55.000
306.769;  -30.575; -613.000; -485.000
306.906;  -38.650; -284.000; -258.000
307.044;  -55.625; -473.000; -488.000
307.181;  -63.550; -410.000; -332.000
307.319;    5.950;  112.000;   87.000
307.456; -170.275;-1191.000;-1153.000
307.594; -110.100; -980.000; -727.000
307.731;  -26.000; -371.000; -164.000
307.868;   -6.225;  -15.000;   20.000
308.006; -125.675; -961.000; -847.000
308.143;  -75.675; -618.000; -330.000
308.281;   29.175;  -37.000; -254.000
308.418;  -64.375; -748.000; -640.000
308.555;  -73.475; -400.000; -250.000
308.693;  -72.450; -577.000; -573.000
308.830; -108.950; -712.000; -657.000
308.967;  -22.825; -215.000;  -95.000
309.105;  -58.675; -507.000; -396.000
309.242;  -22.850; -468.000; -367.000
309.379;   22.175; -577.000; -655.000
309.517; -116.800; -936.000; -948.000
309.654; -111.700; -910.000; -734.000
309.791;  -70.175; -662.000; -580.000
309.928; -130.950; -977.000; -914.000
310.065;  122.025;  819.000;  697.000
310.203;  -85.975; -825.000; -850.000
310.340;  -52.650; -465.000; -321.000
310.477;  -70.400; -412.000; -516.000
310.614;  -63.850; -383.000; -473.000
310.751;  -73.000; -427.000; -518.000
310.889;  -29.150;    1.000;   11.000
311.026; -150.175;-1161.000; -939.000
311.163;  -47.775; -386.000; -380.000
311.300;  -83.300; -512.000; -479.000
311.437;  -76.950; -658.000; -619.000
311.574; -147.300;-1226.000; -985.000
311.711;  -67.325; -595.000; -433.000
311.848;  -48.625; -380.000; -388.000
311.985;    4.500;  270.000;   93.000
312.122; -121.925; -932.000; -762.000
312.259; -118.200; -941.000; -994.000
312.396;  -72.400; -508.000; -551.000
312.533;  -98.025; -812.000; -790.000
312.670; -141.600;-1070.000; -898.000
312.807;  -36.300; -352.000; -367.000
312.944;  -82.800; -513.000; -611.000
313.081;  -29.625; -150.000; -415.000
313.218; -102.450;-1111.000; -867.000
313.355;  -18.050; -531.000; -449.000
313.492;  -24.675; -455.000; -292.000
313.629;  109.525;  815.000;  735.000
313.766; -150.900;-1176.000;-1008.000
313.902;   -3.500; -186.000;   21.000
314.039;  -57.575; -372.000; -289.000
314.176;   42.375;  286.000;  192.000
314.313;  -73.650; -569.000; -473.000
314.450; -100.325; -788.000; -684.000
314.587;  -61.175; -468.000; -480.000
314.723;   -1.875;  -78.000;  130.000
314.860;   25.475;  318.000;  332.000
314.997;   12.500;  223.000;  142.000
315.134;  -52.950; -385.000; -368.000
315.270;  -17.675; -480.000; -496.000
315.407; -123.450;-1094.000; -967.000
315.544;  -33.800; -657.000; -538.000
315.681;  -61.600; -681.000; -565.000
315.817;   33.050; -133.000; -176.000
315.954;   28.925; -613.000; -392.000
316.091; -126.475;-1045.000;-1023.000
316.227;  -25.150;  -71.000; -179.000
316.364;   -4.700;   23.000;    6.000
316.500;  -42.300; -113.000; -300.000
316.637;  -53.225; -181.000; -302.000
316.774;  -92.650; -625.000; -358.000
316.910;  -93.475; -598.000; -629.000
317.047;  -85.850; -487.000; -351.000
317.183;  -63.025; -435.000; -566.000
317.320;   24.100; -367.000; -321.000
317.456;  -42.200; -733.000; -805.000
317.593; -101.450; -598.000; -641.000
317.729;    1.825;  168.000;  -67.000
317.866; -192.700;-1434.000;-1285.000
318.002;  -98.725; -708.000; -948.000
318.139; -116.575; -883.000; -867.000
318.275; -121.400;-1003.000; -738.000
318.412;  -88.050; -517.000; -336.000
318.548;  -77.600; -751.000; -720.000
318.685; -107.175; -985.000; -888.000
318.821;  -88.600; -762.000; -735.000
318.957;  -35.425;   34.000;  -23.000
319.094;   29.075;  297.000;  154.000
319.230;  -96.800; -756.000; -742.000
319.367;   -2.225; -471.000; -520.000
319.503;  -33.625; -538.000; -436.000
319.639; -102.275; -877.000; -793.000
319.775;  -97.100; -750.000; -685.000
319.912;  -54.875; -424.000; -519.000
320.048; -112.975;-1184.000;-1184.000
320.184;   82.025;   59.000;   70.000
320.321;  -61.625; -497.000; -467.000
320.457;   91.650;  475.000;  662.000
320.593;  -77.825; -375.000; -382.000
320.729;  -99.125; -732.000; -734.000
320.866;  -72.350; -577.000; -635.000
321.002; -104.125; -759.000; -809.000
321.138;  -31.250; -135.000; -211.000
321.274;    2.550; -148.000; -115.000
321.410;  -70.475; -585.000; -353.000
321.546; -107.925;-1011.000; -911.000
321.683;   40.825;  400.000;  185.000
321.819;  -14.500;  -48.000; -117.000
321.955; -111.975; -743.000; -722.000
322.091;  -63.250; -585.000; -540.000
322.227;  -45.150; -382.000; -202.000
322.363;  -54.150; -320.000; -215.000
322.499;  -67.050; -343.000; -331.000
322.635;   90.575;  636.000;  443.000
322.771;  -18.625; -139.000;   12.000
322.907;   37.200;  129.000;  327.000
323.043;  -54.200; -115.000; -206.000
323.179;  -51.275; -394.000; -363.000
323.315;  -56.350; -401.000; -371.000
323.451;    8.275; -328.000; -236.000
323.587;   59.100;  -60.000;  -77.000
323.723;  -46.250; -682.000; -601.000
323.859;  -43.050; -258.000;  -76.000
323.995;  -52.250; -467.000; -409.000
324.131; -114.975; -967.000; -892.000
324.267;  -42.950; -254.000; -276.000
324.402; -136.200; -960.000; -983.000
324.538;  -32.175; -279.000; -104.000
324.674;    0.175;  164.000;   77.000
324.810;   36.925;  226.000;  308.000
324.946;  -60.350; -810.000; -658.000
325.082;  -60.375; -568.000; -475.000
325.217;  -24.400;  -62.000;   16.000
325.353;  -97.875; -764.000; -659.000
325.489;  -82.000; -540.000; -506.000
325.625;  -81.225; -579.000; -525.000
325.760;   82.425;  517.000;  376.000
325.896;   14.650; -515.000; -702.000
326.032;  -71.725; -403.000; -352.000
326.168;  -68.500; -462.000; -369.000
326.303;  -74.050; -352.000; -461.000
326.439;   -9.775; -336.000; -276.000
326.575;   -8.575; -190.000;  -29.000
326.710;   -8.350; -156.000;  -30.000
326.846;  -25.725;  146.000;  103.000
326.982;  -85.200; -530.000; -548.000
327.117;  -73.575; -481.000; -442.000
327.253;  -75.600; -745.000; -742.000
327.388; -174.800;-1137.000;-1153.000
327.524;  -84.650; -811.000; -578.000
327.659;  -41.725;  -58.000;  -22.000
327.795;  -16.225;   69.000;   45.000
327.931;  -96.475; -723.000; -499.000
328.066;  -22.650; -417.000; -276.000
328.202;  -39.875;   12.000; -129.000
328.337;   92.275;  957.000;  713.000
328.473;   26.025;  -12.000;  -74.000
328.608;  -15.775; -256.000; -267.000
328.743; -111.250; -799.000; -664.000
328.879;   -0.450;  214.000;  114.000
329.014;  -48.950; -102.000; -122.000
329.150;  -81.775; -358.000; -483.000
329.285;  -88.150; -465.000; -466.000
329.421;  -42.450; -548.000; -246.000
329.556;  -27.075;  -36.000;   85.000
329.691;  -98.800; -633.000; -615.000
329.827;  -90.750; -626.000; -480.000
329.962;  -49.875;  131.000; -301.000
330.097;  -85.375; -673.000; -585.000
330.233;  -53.075; -410.000; -223.000
330.368; -130.200; -839.000; -628.000
330.503;  -20.475;    3.000;   98.000
330.638;  -22.125;  -93.000; -125.000
330.774;  -79.775; -609.000; -530.000
330.909;  -51.275; -434.000; -244.000
331.044;  -96.325; -714.000; -708.000
331.179; -167.450;-1217.000;-1109.000
331.315;   -1.500;   77.000;   20.000
331.450;    6.425;  157.000;  285.000
331.585;  -85.550; -805.000; -706.000
331.720;  -95.325; -510.000; -460.000
331.855;  -12.125;  -35.000; -102.000
331.990;  398.625;   62.000;  138.000
332.126;  194.425; -110.000;   71.000
332.261;   -3.900; -379.000; -265.000
332.396;   19.100; -135.000; -242.000
332.531;  -53.800;-1074.000;-1031.000
332.666;   89.650; -519.000; -363.000
332.801;  -95.650; -726.000; -807.000
332.936;  -34.400; -192.000; -122.000
333.071; -136.725; -870.000; -817.000
333.206;   14.075;  307.000;  379.000
333.341;   17.025;  344.000;  418.000
333.476;  -94.700; -627.000; -623.000
333.611;  -50.800; -251.000; -173.000
333.746;  -56.375; -381.000; -464.000
333.881; -128.500; -973.000; -935.000
334.016; -132.650; -936.000; -917.000
334.151; -115.525; -746.000; -702.000
334.286;    8.325;  152.000;  186.000
334.421;  -24.900; -125.000; -178.000
334.556;  -91.600; -611.000; -567.000
334.690;  -79.475; -631.000; -577.000
334.825;   38.000;  381.000;   83.000
334.960;  -68.375; -285.000; -413.000
335.095;    1.750;  135.000;  -91.000
335.230; -100.775; -722.000; -738.000
335.365; -118.525;-1084.000; -990.000
335.499; -138.225;-1108.000;-1037.000
335.634;   24.650;    9.000;  534.000
335.769;  -95.400; -755.000; -720.000
335.904;  -62.750; -603.000; -561.000
336.038;  -52.475; -735.000; -657.000
336.173; -111.325;-1206.000;-1194.000
336.308;    7.775; -116.000; -189.000
336.443;   59.925; -544.000; -634.000
336.577;  -55.475; -936.000; -787.000
336.712;   74.400;   -4.000;  -12.000
336.847;  -40.550; -724.000; -607.000
336.981;   59.300; -272.000; -208.000
337.116;  273.350;  615.000;  501.000
337.250;  119.775; -434.000; -421.000
337.385;  468.350; -297.000; -208.000
337.520;  237.975; -632.000; -603.000
337.654;  -42.100; -215.000; -126.000
337.789; -131.900; -989.000; -933.000
337.923;  -49.325; -104.000; -205.000
338.058; -114.075; -673.000; -738.000
338.192;  -74.625; -611.000; -488.000
338.327;  -15.400;  -18.000; -155.000
338.461;  -68.875; -299.000; -469.000
338.596; -106.375; -780.000; -638.000
338.730;  -93.225; -767.000; -803.000
338.865;  154.525;  -46.000; -140.000
338.999;   -7.975; -846.000; -702.000
339.134;   18.225; -634.000; -536.000
339.268;   38.025; -741.000; -603.000
339.403;  559.300; -740.000; -775.000
339.537;  269.650; -894.000; -820.000
339.671; -101.575; -829.000; -813.000
339.806;  -22.675; -556.000; -512.000
339.940;   36.525; -261.000; -235.000
340.074; -107.050; -685.000; -510.000
340.209;  -50.725; -351.000; -230.000
340.343;  -92.400; -517.000; -573.000
340.477;  127.425;  998.000; 1036.000
340.612;   13.275;-1033.000; -900.000
340.746;  250.800; -199.000; -243.000
340.880; -111.550; -924.000; -785.000
341.014;  -13.925;  -45.000; -154.000
341.149; -123.775; -756.000; -718.000
341.283; -101.825; -839.000; -754.000
341.417; -144.900;-1124.000; -938.000
341.551;  -44.050; -768.000; -708.000
341.685;  -58.275; -633.000; -611.000
341.820;  -52.400; -562.000; -493.000
341.954;  -43.150; -218.000; -349.000
342.088; -155.050;-1102.000;-1019.000
342.222;   41.400;  565.000;  618.000
342.356;  -80.525; -395.000; -335.000
342.490; -128.775; -880.000; -841.000
342.624;  -61.150; -339.000; -242.000
342.758;  -58.225; -364.000; -312.000
342.892; -105.025; -710.000; -585.000
343.026;  -50.825;  -58.000; -116.000
343.160;  -71.450; -426.000; -376.000
343.294;  -94.725; -474.000; -337.000
343.428;  -66.725; -488.000; -448.000
343.562;  -34.000; -172.000;  -23.000
343.696;  -47.050; -385.000; -314.000
343.830;  -51.975; -362.000; -356.000
343.964;  -30.050; -231.000; -168.000
344.098;  273.475;  199.000;   70.000
344.232;  226.775; -266.000; -127.000
344.366;   60.825; -567.000; -453.000
344.500;  -46.825; -665.000; -744.000
344.634;  -37.650; -324.000; -164.000
344.768;  -62.100; -531.000; -341.000
344.902;  -10.900;  278.000;  256.000
345.035;  -79.075; -556.000; -496.000
345.169; -146.950; -933.000; -656.000
345.303;  -56.375; -308.000; -482.000
345.437; -113.475; -826.000; -717.000
345.571;  -55.700; -675.000; -594.000
345.704;  -75.450; -309.000; -532.000
345.838;  -21.800; -331.000; -284.000
345.972;  -62.775; -543.000; -495.000
346.106;  247.625; -179.000; -190.000
346.239;  487.000; -312.000; -243.000
346.373;   -5.950; -343.000; -302.000
346.507; -145.550; -950.000; -962.000
346.640;   27.975;  -30.000;   13.000
346.774; -101.500; -650.000; -797.000
346.908;  -30.000; -138.000;  -11.000
347.041; -107.375; -646.000; -593.000
347.175;   -3.750;  259.000;   27.000
347.309; -108.925; -698.000; -628.000
347.442; -122.500; -883.000; -732.000
347.576;   99.125;  670.000;  668.000
347.709;   44.875; -123.000;  -52.000
347.843; -132.075; -933.000; -825.000
347.976;   23.325;  235.000;  294.000
348.110; -179.150;-1268.000;-1186.000
348.243; -108.475; -679.000; -772.000
348.377;    4.600;  -26.000;   60.000
348.510;   35.050;  403.000;  540.000
348.644;  -46.225;  -37.000; -159.000
348.777;   -8.575;  180.000;  191.000
348.911;  -65.675; -142.000; -112.000
349.044;   77.675;  471.000;  448.000
349.178;  -52.500;-1069.000;-1006.000
349.311;   96.475;  141.000;  255.000
349.444;   34.925; -927.000; -813.000
349.578;  -34.175; -347.000; -200.000
349.711; -137.600; -959.000; -862.000
349.845;  -69.700; -661.000; -591.000
349.978; -180.400;-1224.000;-1137.000
350.111;  -85.400; -546.000; -612.000
350.244; -101.925; -596.000; -700.000
350.378;  -51.675; -392.000; -393.000
350.511;  -86.425; -393.000; -426.000
350.644; -105.350; -808.000; -806.000
350.778;    3.975;  168.000;  104.000
350.911;   -6.050;  134.000;  140.000
351.044;  -97.675; -685.000; -615.000
351.177;  -43.250; -321.000; -281.000
351.310;  -39.075;    3.000; -131.000
351.444; -115.750; -888.000; -788.000
351.577;   27.600;  140.000;   90.000
351.710;   71.925;  593.000;  417.000
351.843;  -42.925; -165.000;  -77.000
351.976;  -15.100;  149.000;  -79.000
352.109; -115.075; -621.000; -612.000
352.242;  -68.600; -464.000; -419.000
352.376; -100.550; -580.000; -636.000
352.509;    3.025; -437.000; -356.000
352.642; -106.675; -654.000; -604.000
352.775;  -11.325; -141.000;  -98.000
352.908; -141.925; -933.000; -904.000
353.041; -114.450; -814.000; -824.000
353.174;  -70.525; -551.000; -424.000
353.307;  -98.475; -753.000; -764.000
353.440;   36.075;  541.000;  453.000
353.573; -110.775; -957.000;-1008.000
353.706;  -50.450; -384.000; -558.000
353.839;  -42.675; -264.000; -220.000
353.971; -101.175; -657.000; -512.000
354.104; -118.525; -896.000; -835.000
354.237;  -79.725; -627.000; -662.000
354.370;  -97.425; -846.000; -879.000
354.503; -170.150;-1231.000;-1308.000
354.636;  -37.500; -529.000; -348.000
354.769; -125.825; -937.000; -860.000
354.902;  -40.500; -230.000; -139.000
355.034;  -30.850; -164.000; -220.000
355.167;  -18.625; -262.000; -162.000
355.300;  -75.450;-1061.000; -880.000
355.433; 1413.950;  -71.000;  -14.000
355.565; 2221.675; -402.000; -384.000
355.698;  576.925; -356.000; -296.000
355.831;  -11.750; -882.000; -801.000
355.964;    9.025; -285.000; -170.000
356.096;  -78.450; -856.000; -843.000
356.229;   -6.650; -523.000; -530.000
356.362;  516.425; -373.000; -266.000
356.494;  914.900; -229.000; -162.000
356.627;  323.775;  269.000;  377.000
356.760;  910.000;  120.000;   53.000
356.892; 1505.600; -286.000; -601.000
357.025;  350.575;  403.000;  389.000
357.157;  224.000; -167.000; -179.000
357.290; 1226.650; -856.000; -713.000
357.423;  371.425; -667.000; -556.000
357.555;   91.975; -217.000; -228.000
357.688;  114.800; -483.000; -364.000
357.820;  160.300; -870.000; -877.000
357.953; 1440.200; -563.000; -589.000
358.085;  224.300; -632.000; -612.000
358.218;   96.050;-1131.000; -932.000
358.350;   46.450;  -58.000;  312.000
358.483; -160.600;-1300.000;-1187.000
358.615; -125.575;-1182.000;-1078.000
358.747; -140.600;-1187.000;-1058.000
358.880;  -53.300; -810.000; -744.000
359.012;  -34.975; -376.000; -202.000
359.145;  -61.700; -480.000; -511.000
359.277;  -64.500; -962.000; -913.000
359.409; 1246.800;  536.000;  231.000
359.542;  263.575; -738.000; -688.000
359.674;   23.825;   46.000;   13.000
359.806;  -88.650; -565.000; -438.000
359.939;  -46.050; -617.000; -516.000
360.071;   35.000; -583.000; -579.000
360.203;  -19.750; -411.000; -364.000
360.335;   15.450;  164.000;  -16.000
360.468;   78.475; -249.000; -307.000
360.600; 1319.650; -547.000; -454.000
360.732; 4296.225; -546.000; -423.000
360.864;  667.725;-1216.000;-1044.000
360.996;   61.250; -516.000; -554.000
361.129;  -47.700; -389.000; -598.000
361.261;   -4.850;  110.000; -113.000
361.393;  -47.950; -252.000; -214.000
361.525;   11.425;   94.000;  244.000
361.657; -115.050; -821.000; -703.000
361.789;  -20.500; -139.000; -155.000
361.921;  -40.350; -642.000; -593.000
362.053;   87.850;  524.000;  541.000
362.185;   11.450;  288.000;   72.000
362.318; -113.425; -709.000; -705.000
362.450;   26.625;  294.000;  444.000
362.582;  -88.175; -913.000; -870.000
362.714;  -63.850; -353.000; -332.000
362.846;  -83.775; -606.000; -490.000
362.978; -140.675; -941.000; -811.000
363.109;  -26.300; -161.000; -260.000
363.241;  129.250; -739.000; -749.000
363.373;  605.225; -649.000; -564.000
363.505; 1031.300; -186.000;  -91.000
363.637;  250.625; -787.000; -601.000
363.769; -129.800;-1067.000;-1080.000
363.901;  -74.050; -596.000; -654.000
364.033; -153.525;-1103.000;-1062.000
364.165;  -30.325; -283.000; -283.000
364.296;   80.600; -316.000; -177.000
364.428;  201.075;-1344.000;-1220.000
364.560;  -58.950; -679.000; -661.000
364.692;  -89.250; -738.000; -835.000
364.824;  -12.175; -588.000; -456.000
364.955;  522.950; -402.000; -564.000
365.087; 1734.100;-1097.000; -852.000
365.219;  101.125; -686.000; -816.000
365.351;  -76.775; -526.000; -572.000
365.482;   15.075;  300.000;  240.000
365.614;  -70.925; -402.000; -314.000
365.746; -107.300; -729.000; -752.000
365.877;  -85.550; -706.000; -672.000
366.009;  420.050;  -35.000;  -62.000
366.141;  -52.625;-1249.000;-1134.000
366.272; -113.550; -803.000; -719.000
366.404; -111.650;-1005.000; -874.000
366.535;  -11.275; -139.000;  -12.000
366.667; -116.625; -644.000; -649.000
366.799;   13.850;  353.000;  203.000
366.930; -140.550; -862.000; -996.000
367.062;  181.825; -639.000; -613.000
367.193;  334.650; -872.000; -842.000
367.325;  -42.300; -580.000; -684.000
367.456;   -9.575; -246.000;   31.000
367.588;  270.950; -371.000; -318.000
367.719;   29.250;  -44.000;  -45.000
367.851;  -44.300; -222.000; -241.000
367.982; -111.550; -875.000; -732.000
368.113;  -20.050; -475.000; -358.000
368.245; -141.775; -960.000; -841.000
368.376;  -49.325; -254.000; -302.000
368.508;  -63.100; -188.000; -263.000
368.639; -161.825;-1166.000;-1034.000
368.770;  -84.675; -670.000; -589.000
368.902; -125.025; -836.000; -926.000
369.033; -130.675; -906.000; -855.000
369.164;  -42.900; -720.000; -653.000
369.296; -111.600; -452.000; -601.000
369.427;  -41.700; -209.000; -144.000
369.558;  -79.875; -593.000; -377.000
369.689;  -80.800; -721.000; -569.000
369.821; -134.525; -951.000; -845.000
369.952;  -22.100;   42.000; -108.000
370.083;  -55.450; -229.000; -108.000
370.214; -109.750; -735.000; -650.000
370.345;  -27.200;   65.000;   81.000
370.477; -113.450; -810.000; -790.000
370.608;   17.400; -328.000; -264.000
370.739; -132.975;-1233.000;-1292.000
370.870; -133.000;-1102.000; -923.000
371.001;  -18.450; -378.000; -467.000
371.132; -100.925; -754.000; -735.000
371.263;  -32.675;  -42.000; -148.000
371.394; -141.450; -841.000; -748.000
371.525;   23.900;  345.000;  225.000
371.657; -111.800; -808.000; -670.000
371.788;   27.075;  103.000;  199.000
371.919;    3.850; -384.000; -304.000
372.050; 1247.275;  -91.000; -156.000
372.181;  371.425; -188.000; -294.000
372.311;   92.925;   42.000; -127.000
372.442;  -56.625; -457.000; -451.000
372.573;  -62.200; -444.000; -340.000
372.704; -156.975;-1008.000; -980.000
372.835;  -19.725; -228.000; -289.000
372.966;  -87.800; -646.000; -554.000
373.097;  -96.475; -575.000; -711.000
373.228; -101.500; -717.000; -542.000
373.359;  -50.550; -824.000; -536.000
373.490;  134.600; -881.000; -727.000
373.620;  244.275;-1001.000; -803.000
373.751;  504.900; -332.000; -396.000
373.882;  200.350; -663.000; -733.000
374.013;  -35.200; -449.000; -262.000
374.143;  -78.775; -581.000; -659.000
374.274; -134.200; -987.000; -908.000
374.405;   48.075; -388.000; -276.000
374.536;   90.475; -526.000; -387.000
374.666;  252.975; -759.000; -807.000
374.797;  -23.250; -817.000; -868.000
374.928;  171.775; -710.000; -560.000
375.058;  168.700; -535.000; -500.000
375.189;    2.325;  -59.000;  -93.000
375.320; -136.950; -928.000;-1034.000
375.450;  -54.975; -625.000; -616.000
375.581;  -53.650; -526.000; -436.000
375.712;  -38.500; -574.000; -250.000
375.842;   -6.050; -438.000; -415.000
375.973;  -27.400; -554.000; -513.000
376.103; -102.625; -665.000; -648.000
376.234;  -87.200; -531.000; -552.000
376.364; -124.475; -944.000; -867.000
376.495;  134.675;  925.000;  529.000
376.625;  -71.500; -472.000; -485.000
376.756;  -63.550; -709.000; -678.000
376.886; -154.325;-1178.000;-1026.000
377.017;  150.925;-1048.000;-1061.000
377.147;  636.600; -786.000; -782.000
377.278;   78.575;  174.000;  228.000
377.408; -137.300; -801.000; -815.000
377.538; -101.925; -707.000; -693.000
377.669;  -84.275; -537.000; -613.000
377.799;  -97.100; -645.000; -635.000
377.929;  -86.675; -610.000; -428.000
378.060; -132.575; -781.000; -847.000
378.190;  -41.875; -726.000; -531.000
378.320;  -60.025; -401.000; -406.000
378.451;  -38.375; -131.000;  -22.000
378.581;  -23.800;  -67.000; -110.000
378.711;   80.625; 1035.000;  866.000
378.841;  -84.600; -533.000; -675.000
378.972; -124.125; -871.000; -751.000
379.102;  -69.950; -652.000; -579.000
379.232;  -50.925; -126.000;  -73.000
379.362; -127.750;-1001.000; -885.000
379.492;  -56.250; -373.000; -424.000
379.623;   21.525;    0.000;  111.000
379.753; -122.050;-1107.000; -974.000
379.883;   82.075;   59.000;  156.000
380.013; -103.000;-1081.000;-1017.000
380.143; -114.600;-1097.000;-1056.000
380.273; -116.375; -985.000; -861.000
380.403;  -14.725; -344.000; -257.000
380.533;  -58.600; -651.000; -664.000
380.663;   32.450;  173.000;  128.000
380.793; -152.950;-1027.000;-1074.000
380.923;  -49.100; -103.000;  -34.000
381.053; -102.175; -613.000; -623.000
381.183;  -52.050; -106.000; -248.000
381.313;  -78.900; -656.000; -470.000
381.443;  -65.425; -692.000; -473.000
381.573;  -51.600; -402.000; -409.000
381.703;  -81.775;-1249.000;-1095.000
381.833; -197.075;-1454.000;-1336.000
381.963;   18.075; -134.000;  -87.000
382.093;  383.925; -925.000; -909.000
382.223;   95.675; -713.000; -602.000
382.353;  -93.000; -801.000; -608.000
382.482;   -6.900;-1091.000; -964.000
382.612;  151.150; -872.000; -644.000
382.742;   54.375; -695.000; -622.000
382.872;  -22.375; -565.000; -551.000
383.002;   19.400;  347.000; -132.000
383.131;  -31.950; -226.000; -160.000
383.261;  -58.825; -706.000; -768.000
383.391;  309.950; -552.000; -377.000
383.521; 5113.225;  451.000;  263.000
383.650; 1503.375; -947.000; -904.000
383.780;   42.600; -783.000; -656.000
383.910;   87.725;  880.000;  802.000
384.039;  -87.700; -794.000; -656.000
384.169; -108.250;-1205.000;-1017.000
384.299;  -90.600; -650.000; -662.000
384.428; -124.650; -764.000; -680.000
384.558;  -68.275; -308.000; -275.000
384.687;  -76.350; -414.000; -334.000
384.817;  -10.825;   75.000;   -2.000
384.947;  -50.200; -234.000; -141.000
385.076;  142.650;  982.000;  912.000
385.206;   50.375;  369.000;  480.000
385.335;  -71.175; -549.000; -417.000
385.465; -115.825; -655.000; -663.000
385.594;    3.775;  -53.000;  -44.000
385.724;   18.875; -868.000; -838.000
385.853;  -19.650; -296.000; -270.000
385.982;  321.525; -743.000; -787.000
386.112;  623.700;-1052.000; -871.000
386.241;  -15.450; -307.000; -312.000
386.371;  -18.075; -174.000;  -87.000
386.500;  -66.250; -825.000; -789.000
386.629;   -9.550; -874.000; -817.000
386.759;   76.150;  -43.000;   68.000
386.888;  -29.875; -170.000; -250.000
387.017; -102.150; -648.000; -620.000
387.147; -116.325; -771.000; -798.000
387.276;  -71.400; -410.000; -397.000
387.405;  -49.975; -398.000; -342.000
387.535;  -94.150; -452.000; -361.000
387.664;  -64.675; -692.000; -620.000
387.793;  -24.925; -198.000; -113.000
387.922;  134.150;  255.000;  200.000
388.052;  -70.650; -576.000; -423.000
388.181;  -67.925; -342.000; -472.000
388.310; -107.525; -889.000; -710.000
388.439; -110.950; -749.000; -742.000
388.568;   51.200;  365.000;  244.000
388.697;  256.725; -756.000; -653.000
388.826;  -33.850; -768.000; -666.000
388.956;  -42.475; -285.000; -307.000
389.085;  -73.200; -347.000; -287.000
389.214; -111.250; -842.000; -872.000
389.343;  -76.300; -645.000; -413.000
389.472;  535.500;  126.000;  149.000
389.601;  628.825;   91.000;    0.000
389.730;  -32.175; -568.000; -687.000
389.859;   14.100;  226.000;   46.000
389.988;   33.825; -423.000; -408.000
390.117;   26.425; -168.000; -146.000
390.246;  -58.625; -331.000; -320.000
390.375;  -74.125; -673.000; -626.000
390.504; -106.425; -703.000; -621.000
390.633; -119.600; -672.000; -726.000
390.761; -107.450; -732.000; -645.000
390.890;  -34.625;   -4.000; -130.000
391.019;  -80.050; -421.000; -441.000
391.148; -143.375; -826.000; -855.000
391.277;  -92.600; -576.000; -493.000
391.406; -119.925; -821.000; -805.000
391.534;   -6.300;  574.000; -301.000
391.663; -100.500; -583.000; -645.000
391.792; -108.575; -673.000; -701.000
391.921;  -24.025;   -3.000;   15.000
392.050;   -6.450; -287.000; -228.000
392.178; -156.175;-1206.000;-1061.000
392.307;  -35.250; -758.000; -712.000
392.436;  -50.875; -427.000; -641.000
392.564;    0.375;  166.000;   -6.000
392.693; -128.850; -860.000; -682.000
392.822;  -12.950; -529.000; -534.000
392.950;  -53.450; -880.000; -714.000
393.079;   49.975; -188.000; -328.000
393.208;  -70.850; -488.000; -511.000
393.336;  -32.500; -170.000; -145.000
393.465;  -54.025; -317.000; -199.000
393.593;    2.675;   62.000;   79.000
393.722; -153.050;-1121.000; -916.000
393.850;  -48.350; -188.000;  -61.000
393.979; -156.175; -926.000; -805.000
394.107;  -76.775; -517.000; -537.000
394.236;  -60.625; -570.000; -507.000
394.364;   94.175;  383.000;  206.000
394.493;   52.250; -911.000; -767.000
394.621;    3.550; -955.000; -916.000
394.750; 1138.425; -873.000; -923.000
394.878; 4395.000; -247.000; -149.000
395.007; 6411.800; -721.000; -807.000
395.135;  566.225; -790.000; -721.000
395.263;  -63.025;-1038.000;-1040.000
395.392;    3.000;  -25.000; -107.000
395.520; -134.300; -818.000; -679.000
395.648; -109.425; -865.000; -915.000
395.777;  -77.175; -366.000; -405.000
395.905;  -87.075; -449.000; -564.000
396.033;  -15.150;  217.000;  172.000
396.162;  101.050; -399.000; -453.000
396.290;   98.800;  -17.000;   -2.000
396.418;  -51.975; -555.000; -514.000
396.546; -105.500; -571.000; -466.000
396.674; -135.525; -850.000; -878.000
396.803;  -45.700;  -72.000;  -23.000
396.931;  -25.725; -179.000; -199.000
397.059; -140.275;-1026.000; -989.000
397.187; -144.000;-1026.000; -975.000
397.315; -146.175; -884.000; -649.000
397.443; -109.825; -592.000; -443.000
397.572; -104.250; -578.000; -424.000
397.700; -100.850; -607.000; -614.000
397.828;  -39.050;  120.000;  -90.000
397.956;  -32.600; -508.000; -478.000
398.084;  -35.175; -767.000; -626.000
398.212;    6.550;  137.000;  124.000
398.340;  -20.725;  -56.000;  159.000
398.468;  -61.250; -390.000; -169.000
398.596; -162.475; -993.000; -953.000
398.724; -132.625; -762.000; -767.000
398.852; -173.125;-1024.000; -976.000
398.980;  -81.575; -560.000; -560.000
399.108; -113.525; -982.000; -735.000
399.236;  -12.675;   13.000;    8.000
399.363;   -4.800;  222.000;  196.000
399.491;  -75.675; -404.000; -398.000
399.619; -135.825; -829.000; -800.000
399.747; -113.125; -859.000; -771.000
399.875;   22.500;  220.000;  234.000
400.003;  -68.700; -359.000; -284.000
400.130;  -97.800; -421.000; -341.000
400.258;  -31.900;  -83.000;   38.000
400.386;  -74.300; -352.000; -168.000
400.514;  -96.125; -526.000; -587.000
400.641; -152.775; -928.000; -802.000
400.769; -148.450; -979.000; -888.000
400.897; -127.475; -838.000; -793.000
401.025;  -34.100; -166.000; -152.000
401.152;  -31.125;  220.000;   38.000
401.280;  -82.775; -430.000; -429.000
401.408; -127.925; -712.000; -576.000
401.535; -113.150; -735.000; -758.000
401.663; -198.475;-1134.000;-1054.000
401.790; -102.100; -514.000; -525.000
401.918;   14.300;  436.000;  405.000
402.046;  -13.500;  134.000;  122.000
402.173;  -61.725;  -18.000;    7.000
402.301;  -72.700; -519.000; -397.000
402.428;   13.650;  528.000;  383.000
402.556; -160.225;-1188.000; -913.000
402.683;  -56.425;  -20.000;   -1.000
402.811;  -38.225;  -37.000; -206.000
402.938;  -40.725;   20.000;   27.000
403.066;   -3.700; -574.000; -558.000
403.193;   88.550;  299.000;  239.000
403.321;   49.575; -396.000; -574.000
403.448;  105.475;   83.000;   27.000
403.575;   38.800;  -90.000;  -46.000
403.703; -108.450; -732.000; -557.000
403.830;  -61.225; -531.000; -496.000
403.957; -133.175;-1117.000;-1023.000
404.085;   21.250;  -61.000; -172.000
404.212;   89.525;  -50.000;   63.000
404.339;  415.725; -566.000; -306.000
404.467; 8879.700; -612.000; -524.000
404.594; 5403.175; -287.000; -227.000
404.721;  912.550; -869.000; -764.000
404.848;  100.925; -113.000; -202.000
404.976; -107.025; -856.000; -783.000
405.103;  -23.250;  -14.000;  -82.000
405.230;   -0.450;  190.000;  226.000
405.357;   45.700;  117.000;   44.000
405.484;  421.225;  -49.000;    5.000
405.612;  102.175; -548.000; -563.000
405.739;  -63.350; -488.000; -243.000
405.866;   64.375;  669.000;  385.000
405.993;  -55.375; -398.000; -102.000
406.120; -143.800; -801.000; -887.000
406.247;  -81.225; -323.000; -342.000
406.374;  109.600;  540.000;  629.000
406.501;  -90.325; -632.000; -702.000
406.628; -101.400; -621.000; -589.000
406.755; -134.875; -803.000; -620.000
406.882;  -68.900; -228.000; -277.000
407.009; -119.900; -719.000; -628.000
407.136;  -55.050; -480.000; -401.000
407.263;  -78.250; -939.000; -829.000
407.390; -110.150; -692.000; -614.000
407.517; -186.675;-1139.000;-1187.000
407.644;  -82.525; -332.000; -256.000
407.771; -153.250; -249.000; -287.000
407.898;  -10.350;  168.000;  328.000
408.025;  -88.225; -421.000; -313.000
408.151;   -7.425;   82.000;  153.000
408.278;  -88.575; -267.000; -216.000
408.405; -131.275; -931.000; -899.000
408.532; -107.300; -549.000; -542.000
408.659; -118.900; -677.000; -648.000
408.785; -193.000;-1298.000;-1170.000
408.912;  -69.300; -412.000; -296.000
409.039; -119.250; -610.000; -686.000
409.166; -114.475; -591.000; -555.000
409.292; -112.825; -571.000; -534.000
409.419; -122.625; -665.000; -649.000
409.546;  -84.225; -431.000; -192.000
409.672; -122.125; -713.000; -545.000
409.799;  -48.100;  -36.000;   34.000
409.926;  -46.825; -180.000; -179.000
410.052; -184.150;-1127.000;-1091.000
410.179;  -89.450; -368.000; -392.000
410.305;  -91.225; -375.000; -493.000
410.432;  -44.275; -220.000; -333.000
410.558;  -96.250; -305.000; -380.000
410.685; -101.725; -688.000; -431.000
410.812; -117.850; -409.000; -588.000
410.938; -139.675; -964.000; -808.000
411.065; -111.725; -671.000; -645.000
411.191;  -38.450; -189.000; -174.000
411.317; -127.325; -823.000; -742.000
411.444;  -75.675; -317.000; -246.000
411.570;  -87.725; -339.000; -294.000
411.697; -117.900; -758.000; -752.000
411.823; -186.700; -989.000; -999.000
411.949;  -54.875;  -56.000;   17.000
412.076; -133.025; -539.000; -519.000
412.202; -124.925; -758.000; -757.000
412.329; -134.450; -798.000; -752.000
412.455; -122.000; -821.000; -657.000
412.581;  -36.025;  -15.000;  172.000
412.707;  -99.350; -540.000; -457.000
412.834;  -11.425;  156.000;  219.000
412.960;  -98.350; -785.000; -784.000
413.086; -104.850; -743.000; -701.000
413.212;  104.175;  604.000;  578.000
413.339; -106.600; -685.000; -701.000
413.465;  -56.050; -364.000; -310.000
413.591; -108.675; -757.000; -474.000
413.717;  -63.525; -358.000; -366.000
413.843; -136.500; -839.000; -861.000
413.969;  -51.400;  -47.000; -292.000
414.096;  -94.950; -679.000; -679.000
414.222;  -11.350;  -33.000;   85.000
414.348;  -85.925; -652.000; -385.000
414.474;    6.975;   38.000;  -52.000
414.600;  -24.825; -126.000; -144.000
414.726;  -18.350;  -96.000;  -55.000
414.852;  -42.025; -365.000; -342.000
414.978;   37.925;  104.000;  -18.000
415.104;   43.375;   38.000;   80.000
415.230;   42.525; -329.000; -330.000
415.356;   50.850; -409.000; -514.000
415.482;  227.100;   13.000;  -35.000
415.608;  394.725; -247.000; -323.000
415.734; 1304.175;   67.000;   38.000
415.860;27003.850; -875.000; -767.000
415.986;22128.200; -685.000; -607.000
416.111; 2088.150; -798.000; -652.000
416.237;  455.150; -424.000; -571.000
416.363; 1661.950; -765.000; -733.000
416.489; 6674.275; -324.000; -251.000
416.615;  920.650; -707.000; -742.000
416.741;   58.725; -677.000; -784.000
416.866;  -69.725; -673.000; -736.000
416.992;  -96.300; -801.000; -818.000
417.118;  -21.825;  -41.000;  -80.000
417.244;  -84.675; -798.000; -531.000
417.369;  -94.525; -801.000; -612.000
417.495;  -11.625; -325.000; -254.000
417.621;  -95.650;-1015.000; -803.000
417.746;   -0.400; -579.000; -572.000
417.872;   63.075; -254.000; -144.000
417.998;  121.600; -515.000; -530.000
418.123; 1515.475;-1073.000; -845.000
418.249; 8390.625; -512.000; -601.000
418.374; 1441.950; -916.000; -824.000
418.500;  231.725; -383.000; -482.000
418.626;  161.900;   70.000;  -59.000
418.751;  164.825; -549.000; -448.000
418.877;  292.375; -637.000; -643.000
419.002; 2532.150; -688.000; -560.000
419.128;19261.600; -930.000; -721.000
419.253; 5465.575; -967.000; -837.000
419.379;  722.350; -391.000; -338.000
419.504;  565.475;  325.000;  415.000
419.629;  814.150; -393.000; -212.000
419.755; 5336.250; -317.000; -254.000
419.880;34508.400;  -98.000;   67.000
420.006;17347.450; -280.000; -221.000
420.131;43050.075; -662.000; -775.000
420.256; 6955.400; -315.000; -316.000
420.382;  951.275; -665.000; -687.000
420.507;  162.775; -649.000; -778.000
420.632;   35.950; -337.000; -339.000
420.758;   33.200; -251.000; -425.000
420.883; -100.425; -876.000; -672.000
421.008; -105.100; -775.000; -619.000
421.133;  -90.750; -509.000; -467.000
421.259;  -64.050; -325.000; -259.000
421.384; -158.225; -834.000; -693.000
421.509; -119.325;-1052.000; -862.000
421.634;  135.550; -936.000; -820.000
421.759;   60.100; -359.000; -327.000
421.885; -105.325; -717.000; -656.000
422.010;  -87.150; -673.000; -542.000
422.135; -159.150; -695.000; -727.000
422.260;   14.975;  340.000;  280.000
422.385;  -56.075;   12.000;  -98.000
422.510;  -15.500;  151.000;  -26.000
422.635;  -28.975;  -87.000;  -43.000
422.760;  -10.250; -766.000; -791.000
422.885;   12.875;  -57.000;  -80.000
423.010;  -47.150; -112.000; -169.000
423.135; -104.475; -481.000; -561.000
423.260;  -47.450; -150.000; -245.000
423.385;   19.200;  476.000;  222.000
423.510;   -3.875;   71.000;  -22.000
423.635;    1.400;  133.000;   45.000
423.760;   47.750;  383.000;  328.000
423.885;   24.100;  336.000;  391.000
424.010;   -3.025;  -68.000;  -13.000
424.135;  -25.625;    5.000;  -33.000
424.259;  -82.625; -654.000; -457.000
424.384;  -58.550; -279.000; -272.000
424.509;   -7.325; -260.000; -186.000
424.634;  -90.000; -761.000; -623.000
424.759;  -39.100; -688.000; -544.000
424.883;   11.900; -506.000; -527.000
425.008;  203.850; -502.000; -410.000
425.133; 2815.525; -679.000; -653.000
425.258; 1540.550; -517.000; -381.000
425.382;  479.200; -867.000; -774.000
425.507; 1103.175; -487.000; -543.000
425.632;  373.525; -802.000; -663.000
425.756;  698.925; -256.000; -146.000
425.881;10150.625; -831.000; -857.000
426.006;31094.125; -604.000; -355.000
426.130; 5149.700; -696.000; -508.000
426.255;  710.800; -611.000; -491.000
426.379;  272.550; -189.000; -577.000
426.504;  491.650;  660.000;  544.000
426.629; 5561.725; -519.000; -466.000
426.753; 4328.525;   64.000;  -46.000
426.878;  531.475; -252.000; -288.000
427.002;  303.175; -651.000; -668.000
427.127; 2041.575;  -35.000; -158.000
427.251;17091.750;  372.000;  401.000
427.375; 5559.475; -191.000; -173.000
427.500; 1292.850; -616.000; -610.000
427.624;  377.025; -234.000; -400.000
427.749;   79.600; -216.000; -225.000
427.873;  -30.925; -499.000; -412.000
427.997;  -52.700; -222.000; -230.000
428.122;   52.450;  795.000;  703.000
428.246;   46.250;  433.000;  434.000
428.371; -144.325; -869.000; -773.000
428.495; -117.225; -624.000; -646.000
428.619;  -56.600; -186.000; -117.000
428.743;    3.650;   65.000;  132.000
428.868;  -72.625; -732.000; -643.000
428.992;  465.225; -219.000; -326.000
429.116;  189.225; -329.000; -357.000
429.240;   93.400;  419.000;  426.000
429.365;  -45.925; -454.000; -574.000
429.489;  -63.325; -638.000; -647.000
429.613;   25.475; -236.000; -177.000
429.737;   71.350; -563.000; -432.000
429.861;  371.250; -247.000; -133.000
429.985; 7768.425; -425.000; -305.000
430.109; 9915.450; -770.000; -908.000
430.234; 1231.525;   76.000;  -50.000
430.358;  136.375; -250.000; -160.000
430.482;  -44.425; -672.000; -564.000
430.606;  -76.775; -655.000; -375.000
430.730;  -63.375; -437.000; -388.000
430.854; -105.300; -909.000; -835.000
430.978; -113.475; -795.000; -764.000
431.102;  -91.975; -499.000; -422.000
431.226; -127.175; -874.000; -815.000
431.350;   -7.150;  345.000;  422.000
431.474;  -98.075; -661.000; -373.000
431.597; -162.700;-1060.000; -848.000
431.721;  -70.425; -276.000; -267.000
431.845; -125.075; -704.000; -472.000
431.969;  -85.425; -304.000; -349.000
432.093;  -90.150; -395.000; -317.000
432.217;  -12.750;   32.000;   82.000
432.341;  -91.375; -523.000; -518.000
432.464;  -13.175;   96.000;   40.000
432.588;  -36.025; -401.000; -329.000
432.712;    9.950;  -52.000;  -52.000
432.836;   46.400;  213.000;  263.000
432.959;   24.525; -372.000; -311.000
433.083;  148.600;   11.000;    2.000
433.207;  562.825;  285.000;  930.000
433.330; 7559.400; -391.000; -200.000
433.454;10451.550; -654.000; -638.000
433.578; 5742.725;  583.000;  278.000
433.701; 1230.400; -623.000; -675.000
433.825;  148.250; -292.000; -299.000
433.949;   48.475;   28.000;  -72.000
434.072;  -29.975; -410.000; -323.000
434.196;   -6.450; -309.000; -117.000
434.319; 3473.725;25482.000;25124.000
434.443;  861.875; -656.000; -603.000
434.566; 4049.300;  281.000;   62.000
434.690;  886.775; -637.000; -383.000
434.813;  145.225; -251.000; -173.000
434.937;  -50.275; -569.000; -696.000
435.060;  -82.400; -423.000; -332.000
435.184;  -21.125; -492.000; -217.000
435.307;    7.075;  159.000;  102.000
435.431;  -38.775;  -40.000;   24.000
435.554;  -98.925; -399.000; -240.000
435.677;  -87.300; -350.000; -258.000
435.801;  -49.650;  -25.000;   49.000
435.924;  -32.175;    1.000;  -67.000
436.048; -150.875;-1019.000; -732.000
436.171;  -75.600; -240.000;  -66.000
436.294;  -25.950; -248.000; -229.000
436.417;  233.700; -963.000; -849.000
436.541;  -40.650; -814.000; -840.000
436.664;  -56.950; -242.000; -316.000
436.787;  -34.825;   13.000;  113.000
436.910; -129.400; -792.000; -422.000
437.034;  -17.850;  142.000;  143.000
437.157;    7.150;  -11.000;    0.000
437.280;  -96.750; -392.000; -292.000
437.403; -136.150; -982.000; -869.000
437.526;  -18.400; -903.000; -865.000
437.649;  388.725; -505.000; -332.000
437.772;  -19.525; -692.000; -540.000
437.896;   57.600;  700.000;  544.000
438.019; -115.250; -758.000; -503.000
438.142; -112.075; -596.000; -506.000
438.265; -130.950; -639.000; -670.000
438.388;    2.975; -520.000; -410.000
438.511;  -77.525; -597.000; -394.000
438.634;  -86.050; -247.000; -125.000
438.757; -140.375; -693.000; -619.000
438.880;  -52.900;  -34.000;  -57.000
439.003; -110.275; -417.000; -437.000
439.126;  -76.075; -287.000; -167.000
439.248;  -73.400;  -98.000; -139.000
439.371;  -54.600;    9.000;  -53.000
439.494;   29.375;  510.000;  439.000
439.617;  -61.200;   65.000;  -88.000
439.740; -183.200; -968.000; -816.000
439.863; -127.625; -755.000; -595.000
439.986; -128.200; -476.000; -431.000
440.108;  -45.250; -161.000; -112.000
440.231; -178.100; -950.000; -836.000
440.354;  -56.475;  -64.000; -150.000
440.477; -120.975; -566.000; -542.000
440.599;  -81.900; -200.000; -225.000
440.722; -126.425; -709.000; -586.000
440.845;   46.050;  751.000;  928.000
440.968; -108.700; -415.000; -311.000
441.090;  -73.125; -199.000;  -33.000
441.213; -175.550;-1021.000; -825.000
441.336;  -56.600; -159.000;   -5.000
441.458;  -96.500; -549.000; -396.000
441.581; -118.425; -628.000; -629.000
441.703;  -84.575; -152.000;   13.000
441.826; -114.550; -557.000; -400.000
441.948;  -65.950;   56.000;   51.000
442.071;   11.175;  555.000;  424.000
442.193; -126.450; -531.000; -485.000
442.316;    4.850;  152.000;   97.000
442.438;   61.350; -233.000;  -10.000
442.561;   77.000;  272.000;  262.000
442.683;   27.650; -809.000; -522.000
442.806;  225.250;   -8.000;   74.000
442.928; -106.125; -859.000; -604.000
443.051;  -98.675; -577.000; -373.000
443.173; -103.225; -341.000; -339.000
443.295;  -99.050; -263.000; -371.000
443.418;  -78.700; -321.000;  -29.000
443.540;  -39.125; -106.000;   -4.000
443.662; -126.700; -563.000; -465.000
443.785;  -32.900;  335.000;  199.000
443.907;  -99.550; -362.000; -208.000
444.029; -126.050; -767.000; -494.000
444.152; -154.125; -644.000; -554.000
444.274;  -41.075;  -18.000;  -24.000
444.396; -127.275; -461.000; -221.000
444.518; -119.600; -691.000; -454.000
444.640; -103.675; -268.000; -111.000
444.763;  -29.550;  388.000;  249.000
444.885; -117.100; -432.000; -392.000
445.007;  -47.300;   35.000;   86.000
445.129; -131.325; -610.000; -515.000
445.251; -106.450; -372.000; -439.000
445.373; -145.300; -537.000; -386.000
445.495;    0.700;  242.000;  350.000
445.617;   45.225;  853.000;  753.000
445.739;  -79.125; -215.000;  -97.000
445.861;  -59.775; -245.000; -112.000
445.984;  -72.075; -267.000; -101.000
446.105;  -42.825; -418.000; -251.000
446.227;   83.950; -176.000;  -19.000
446.349;  -96.550; -358.000; -249.000
446.471; -118.850; -615.000; -448.000
446.593;  -89.675; -316.000;   19.000
446.715;  -56.450;  -67.000;   41.000
446.837;   27.825;  697.000;  832.000
446.959; -107.725; -457.000; -478.000
447.081; -140.175; -628.000; -518.000
447.203;   53.425;  862.000;  834.000
447.325;  -91.700; -270.000;   42.000
447.446;  -17.375;  286.000;  530.000
447.568; -153.100; -921.000; -803.000
447.690;  -99.125; -236.000; -245.000
447.812; -149.925; -798.000; -519.000
447.933;  -28.600;  155.000;  127.000
448.055;  -81.500; -306.000; -261.000
448.177;    7.375;   31.000;   79.000
448.299; -120.625; -935.000; -727.000
448.420;  -18.025;  -25.000;  159.000
448.542;  -66.625;   -3.000;   33.000
448.664;  -28.950;  109.000;  322.000
448.785;  -57.000;  265.000;   83.000
448.907; -106.325; -614.000; -353.000
449.028; -116.275; -771.000; -471.000
449.150;   31.675;  492.000;  589.000
449.272; -188.175;-1044.000; -913.000
449.393;   35.500;  612.000;  694.000
449.515; -147.475; -634.000; -581.000
449.636;  -70.050; -264.000; -155.000
449.758;   39.475;  763.000;  622.000
449.879;  -94.100; -498.000; -396.000
450.001;  -78.425; -149.000;  -49.000
450.122;  -27.000;  -95.000;  162.000
450.244;  -20.225;   37.000;  364.000
450.365;  -69.025; -495.000; -301.000
450.486;  -11.000;   80.000;  268.000
450.608;   45.300;  393.000;  326.000
450.729;  100.175;  578.000;  645.000
450.850;   94.650; -574.000; -466.000
450.972; 1220.325; -552.000; -389.000
451.093; 7900.225;  190.000;  588.000
451.214; 4099.050; -516.000; -337.000
451.336;  687.175;  773.000;  579.000
451.457;  100.375;  264.000;  393.000
451.578;  -17.800; -118.000;  -74.000
451.699;  -99.725; -546.000; -540.000
451.821;  -54.125; -284.000;  -50.000
451.942;    1.600;  278.000;  285.000
452.063;   53.375;  228.000;  419.000
452.184;  786.550;  -54.000;  -49.000
452.305; 1741.475;  103.000;  170.000
452.427;  323.075; -549.000; -301.000
452.548;   12.725;   23.000;   79.000
452.669;  -75.125; -257.000;  -89.000
452.790;  -46.675;    3.000;  -18.000
452.911;  -21.675;  195.000;  259.000
453.032;  -82.050; -289.000;  -60.000
453.153;  -61.050;  -29.000;   81.000
453.274;   42.425;  737.000;  868.000
453.395;  -70.100;  -51.000;  175.000
453.516;   97.100; 1317.000; 1388.000
453.637; -103.625; -205.000; -150.000
453.758;  -66.800;   15.000;   69.000
453.879; -122.500; -462.000; -250.000
454.000;   61.200; 1086.000;  948.000
454.121; -132.000; -554.000; -326.000
454.242; -107.900; -599.000; -383.000
454.362;  -72.100;  -99.000;  114.000
454.483;  -18.350; -309.000; -229.000
454.604;   63.300;  512.000;  580.000
454.725; -125.750; -627.000; -555.000
454.846; -122.975; -474.000; -406.000
454.967;  -24.525;  230.000;  539.000
455.087;  -47.750;  179.000;  153.000
455.208;    7.275;  554.000;  856.000
455.329;  -63.650;  -22.000;   82.000
455.450;   54.400;  473.000;  633.000
455.570;  -72.750; -234.000; -211.000
455.691;  -39.325;  201.000;  407.000
455.812; -102.825; -270.000;  -92.000
455.932;  -65.650;  107.000;  -97.000
456.053;  -89.850;   36.000;   24.000
456.173; -110.950; -433.000; -355.000
456.294; -133.600; -476.000; -303.000
456.415;  -69.800;  -73.000;   70.000
456.535;  -51.300;  297.000;  273.000
456.656;  -38.975;  132.000;  240.000
456.776;  -77.100;    3.000;  298.000
456.897;   -8.950;  308.000;  513.000
457.017;  -64.900; -153.000;   -3.000
457.138;  -95.850; -402.000; -249.000
457.258;  -45.250;  263.000;  224.000
457.379;  -28.150;  509.000;  521.000
457.499;  -39.875;  443.000;  432.000
457.620; -118.675; -407.000; -231.000
457.740;  -93.550; -132.000;  -11.000
457.860;  -59.350;   87.000;   44.000
457.981;  -51.225;  132.000;  124.000
458.101;  -71.200;  -89.000;   40.000
458.221;  -25.925;  336.000;  402.000
458.342;  -53.025;   -4.000;  -37.000
458.462;   45.475;  617.000;  352.000
458.582;   35.750; -302.000; -294.000
458.703;   85.675;  303.000;  154.000
458.823;   35.925;   22.000;  163.000
458.943;   33.900;  341.000;  467.000
459.063;   14.650; 1124.000;  192.000
459.183;  -24.100;  328.000;  313.000
459.304;    3.875;  315.000;  517.000
459.424;  -43.650; -246.000;  -89.000
459.544;  464.550;  388.000;  764.000
459.664; 1303.875;  499.000;  506.000
459.784;  505.800; 1004.000; 1175.000
459.904;   73.100;  867.000;  744.000
460.024;   46.800;  867.000;  684.000
460.144;  -15.525;  449.000;  554.000
460.264;  -22.375;  515.000;  327.000
460.385;  -97.550; -145.000; -119.000
460.505;   25.775;  905.000;  858.000
460.625;  -96.300;  -17.000;  -68.000
460.745;  -27.150;  396.000;  541.000
460.864;  -43.925;  153.000;  469.000
460.984;   33.400;  499.000;  573.000
461.104;  148.125; 1656.000; 1775.000
461.224;   18.375;  657.000;  650.000
461.344;  -51.300;  431.000;  360.000
461.464;  -33.550;  258.000;  513.000
461.584;  -34.950;  283.000;  466.000
461.704;  -61.475;   58.000;  108.000
461.824;  -58.775;  238.000;  259.000
461.943;  -34.275;  191.000;  130.000
462.063;  -88.650;    2.000;  324.000
462.183;    5.000;  639.000;  717.000
462.303;   81.550; 1678.000; 1230.000
462.422;   30.900;  781.000;  840.000
462.542;  -33.300;  271.000;  391.000
462.662;   38.375;  353.000;  380.000
462.782;  322.325;  833.000;  572.000
462.901;  730.925;  545.000;  717.000
463.021;  398.100; 1702.000; 1638.000
463.141;   16.250;  337.000;  770.000
463.260;  -20.775;  614.000;  474.000
463.380;   15.050;  902.000;  884.000
463.499;  -51.850;  342.000;  332.000
463.619;  -24.000;  581.000;  559.000
463.738;  101.275; 1644.000;  903.000
463.858;   16.700;  657.000;  811.000
463.978;  -43.400;  542.000;  396.000
464.097;   57.675;  921.000; 1114.000
464.217;  146.425; 1196.000; 1143.000
464.336;  144.975; 1068.000; 1130.000
464.455;  -20.925;  328.000;  659.000
464.575;   13.675;  597.000;  602.000
464.694;  109.475; 1204.000; 1179.000
464.814;  159.175; 1190.000; 1138.000
464.933;   90.075; 1095.000; 1027.000
465.052;   91.300; 1412.000; 1054.000
465.172;   80.150;  922.000;  799.000
465.291;  121.825; 1376.000; 1320.000
465.410;    8.275;  462.000;  735.000
465.530;   77.575; 1355.000; 1310.000
465.649;   49.975; 1209.000; 1273.000
465.768;  127.275; 1673.000; 1508.000
465.888;   42.250;  941.000; 1174.000
466.007;   89.050; 1335.000; 1440.000
466.126;   -5.400;  721.000;  641.000
466.245;   29.375; 1176.000; 1187.000
466.364;   20.675;  950.000; 1060.000
466.484;   49.200; 1024.000; 1213.000
466.603;   40.550; 1101.000; 1222.000
466.722;   94.950; 1490.000; 1769.000
466.841;   43.225; 1151.000; 1401.000
466.960;   38.875; 1069.000;  972.000
467.079;  128.050; 1971.000; 1786.000
467.198;   65.150; 1238.000; 1181.000
467.317;   82.600; 1768.000; 1162.000
467.436;   73.300; 1709.000; 1261.000
467.555;  116.700; 1796.000; 1746.000
467.674;   55.625; 1227.000; 1329.000
467.793;   39.025; 1376.000; 1374.000
467.912;   79.900; 1658.000; 1539.000
468.031;  141.525; 2038.000; 1930.000
468.150;  120.525; 1842.000; 1837.000
468.269;  170.800; 2313.000; 2090.000
468.388;  181.200; 2168.000; 2339.000
468.507;  233.925; 2884.000; 2903.000
468.626;  262.475; 2555.000; 2541.000
468.744;  133.175; 2018.000; 2174.000
468.863;  201.875; 2312.000; 2523.000
468.982;   86.625; 1503.000; 1555.000
469.101;  218.650; 2788.000; 2692.000
469.220;  168.925; 2333.000; 2176.000
469.338;  269.975; 2935.000; 3051.000
469.457;  187.225; 2719.000; 2545.000
469.576;  341.425; 3953.000; 3784.000
469.695;  233.850; 2877.000; 3066.000
469.813;  417.575; 4148.000; 4192.000
469.932;  391.975; 4255.000; 4485.000
470.051;  459.450; 4075.000; 4161.000
470.169; 1021.150; 4470.000; 4338.000
470.288; 1991.325; 4700.000; 4809.000
470.406; 1174.425; 5059.000; 5194.000
470.525;  661.300; 6101.000; 5787.000
470.644;  650.600; 6847.000; 6794.000
470.762;  826.150; 8397.000; 7873.000
470.881;  917.850; 8651.000; 8464.000
470.999; 1081.125; 9685.000; 9151.000
471.118; 1097.400;11174.000;10711.000

