
Integration time [ms]: 200.000
Averaging Nr. [scans]: 10
Smoothing Nr. [pixels]: 0
Data measured with spectrometer [name]: 2101012U2
Wave   ;Sample   ;Dark     ;Reference
[nm]   ;[counts] ;[counts] ;[counts] 

197.733;  118.600;  516.000;  404.000
197.879; -159.300; -610.000; -634.000
198.025;  -87.000; -475.000; -420.000
198.171; -165.400; -602.000; -612.000
198.317;  -71.200; -401.000; -316.000
198.463; -162.200; -655.000; -404.000
198.609;   38.300;  181.000; -137.000
198.755; -171.400; -644.000; -410.000
198.901; -151.700; -505.000; -424.000
199.047; -132.800; -615.000; -488.000
199.193;  -84.400; -230.000; -468.000
199.339;  -78.000; -222.000; -369.000
199.485;   59.100;  330.000;  271.000
199.631;   14.100;  227.000;  310.000
199.777; -115.000; -466.000; -398.000
199.923; -140.900; -610.000; -424.000
200.069;  -10.100; -141.000;  -58.000
200.215;  114.900;  128.000;  453.000
200.361;   82.800;  243.000;  477.000
200.507; -128.700; -600.000; -373.000
200.653;  -61.000; -371.000; -194.000
200.798;  -64.800; -215.000; -125.000
200.944;    1.000; -146.000;  -41.000
201.090;   66.600;   61.000;  222.000
201.236;  -21.900; -116.000; -158.000
201.382;  269.500;  874.000;  903.000
201.528;   -3.000;  -58.000;  -48.000
201.674;  -40.700; -386.000; -293.000
201.819; -138.600; -540.000; -439.000
201.965; -177.700; -699.000; -447.000
202.111;  -40.000; -273.000; -226.000
202.257;  -73.200; -250.000; -238.000
202.402;   -4.900;   13.000;  -36.000
202.548;  -27.800; -169.000; -116.000
202.694;  174.200;  410.000; -183.000
202.840; -145.400; -603.000; -531.000
202.985; -166.300; -681.000; -639.000
203.131; -223.700; -832.000; -666.000
203.277;  -56.700; -199.000; -262.000
203.423;  -78.800; -434.000; -520.000
203.568;  -96.200; -462.000; -237.000
203.714; -112.700; -535.000; -542.000
203.860; -159.600; -682.000; -641.000
204.005;   30.300;  112.000;  167.000
204.151;  143.000;  561.000;  556.000
204.296;  -82.900; -354.000; -221.000
204.442; -174.600; -600.000; -547.000
204.588; -135.600; -592.000; -579.000
204.733;   14.900;  178.000;  168.000
204.879; -254.900;-1018.000; -822.000
205.025;   16.200;  -99.000;  126.000
205.170;  -36.400;  -17.000;   94.000
205.316;  198.600;  438.000;  661.000
205.461; -160.700; -698.000; -554.000
205.607;  182.100;  609.000;  665.000
205.752; -151.700; -626.000; -551.000
205.898;  -96.700; -501.000; -391.000
206.043; -108.000; -578.000; -506.000
206.189;  -97.600; -243.000; -285.000
206.334;  145.200;  554.000;  606.000
206.480;  137.800;  409.000;  239.000
206.625; -168.600; -529.000; -552.000
206.771;  -75.600; -451.000; -373.000
206.916;  -39.300; -210.000; -537.000
207.062; -166.700; -545.000; -591.000
207.207; -135.200; -546.000; -443.000
207.353;  130.200;  185.000;  460.000
207.498;   33.800;  196.000;   85.000
207.643;  -99.000; -501.000; -370.000
207.789; -243.700;-1069.000; -910.000
207.934; -198.700; -665.000; -713.000
208.080;  -16.400; -154.000;   66.000
208.225;   17.700;  -22.000;  -57.000
208.370; -162.400; -727.000; -619.000
208.516; -171.600; -741.000; -487.000
208.661;  -44.000; -127.000;  -69.000
208.806;  -33.800; -165.000; -171.000
208.952; -248.800;-1044.000; -731.000
209.097;  148.100;  378.000;  349.000
209.242;  -84.400; -307.000; -382.000
209.387;   83.000;  392.000;  350.000
209.533;  -97.000; -321.000; -350.000
209.678;  162.300;  472.000;  543.000
209.823;  -77.500; -408.000; -310.000
209.969; -214.100; -860.000; -757.000
210.114; -210.000; -907.000; -719.000
210.259; -271.200; -939.000; -889.000
210.404;  -23.100; -171.000;  103.000
210.549;   55.000;  108.000;    3.000
210.695;  -14.000;   -3.000;  -95.000
210.840;   68.100;   94.000;   67.000
210.985; -144.000; -484.000; -303.000
211.130;  161.600;  268.000;  406.000
211.275;   56.100;  207.000;  199.000
211.420; -117.100; -300.000; -289.000
211.566; -161.600; -536.000; -489.000
211.711;   59.100;  218.000;  157.000
211.856; -118.800; -545.000; -519.000
212.001;   16.900;  151.000;   44.000
212.146;   -0.500;  153.000;   49.000
212.291;  -53.400; -210.000; -186.000
212.436;  -38.900; -280.000;   -6.000
212.581; -192.100; -685.000; -653.000
212.726; -145.800; -487.000; -538.000
212.871;  -87.000; -552.000; -217.000
213.016; -277.000;-1172.000;-1029.000
213.161;  111.200;  406.000;  291.000
213.306; -170.600; -435.000; -577.000
213.451; -233.400; -778.000; -689.000
213.596; -112.900; -455.000; -347.000
213.741; -105.700; -448.000; -538.000
213.886; -170.900; -498.000; -517.000
214.031;  -41.700; -294.000; -124.000
214.176; -118.900; -408.000; -341.000
214.321;  -30.300; -296.000; -157.000
214.466;  -47.300; -163.000;  -43.000
214.611;  -21.800;  -61.000;  -10.000
214.756; -240.900; -948.000; -858.000
214.901;  -54.100; -388.000; -226.000
215.046; -240.400; -797.000; -825.000
215.191;   41.600;  128.000;   35.000
215.336;  -10.500; -157.000;  -19.000
215.480; -165.700; -684.000; -505.000
215.625;   -1.500; -175.000;  -19.000
215.770; -198.300; -757.000; -662.000
215.915;    9.900;   -5.000;  -97.000
216.060;  -14.000; -113.000;  -21.000
216.205; -211.800; -731.000; -779.000
216.349; -147.100; -470.000; -533.000
216.494; -280.300; -939.000; -867.000
216.639; -250.100; -823.000; -888.000
216.784; -159.600; -577.000; -525.000
216.929;   79.600;  392.000;  281.000
217.073;  -31.400; -244.000;  -31.000
217.218;   17.300;   78.000;  -47.000
217.363; -164.500; -656.000; -618.000
217.507; -196.900; -623.000; -588.000
217.652; -244.500; -845.000; -874.000
217.797; -180.000; -708.000; -659.000
217.942; -216.100; -856.000; -720.000
218.086;  153.500;  608.000;  539.000
218.231;  -14.100; -174.000;  -26.000
218.376;  -71.200; -337.000; -229.000
218.520;   30.300;  -41.000;   96.000
218.665;  -60.600; -338.000; -204.000
218.810;  -79.400; -275.000; -233.000
218.954;   23.100;  201.000;   35.000
219.099; -202.500; -713.000; -963.000
219.243; -144.200; -589.000; -554.000
219.388;  -52.600; -264.000; -136.000
219.532;  -18.100; -116.000; -116.000
219.677; -132.800; -564.000; -521.000
219.822;    1.200;   33.000;   89.000
219.966;   19.600;   17.000;  -99.000
220.111;  -51.000; -328.000;  -40.000
220.255; -197.200; -797.000; -750.000
220.400;  -46.400; -180.000; -146.000
220.544; -151.200; -516.000; -450.000
220.689; -123.200; -422.000; -451.000
220.833;  -41.700; -123.000;  -58.000
220.978; -102.200; -393.000; -563.000
221.122;   74.100;  319.000;  307.000
221.267; -251.900; -906.000; -837.000
221.411; -157.000; -478.000; -394.000
221.555;   -6.200; -104.000;  -23.000
221.700;  -69.700; -329.000; -222.000
221.844;   70.600;  255.000;  272.000
221.989;  -86.100; -328.000; -311.000
222.133;  -85.300; -289.000; -307.000
222.277;   -1.000;    5.000;   78.000
222.422;   63.300;  227.000;  113.000
222.566;  -66.800; -381.000; -214.000
222.711; -108.100; -414.000; -479.000
222.855; -147.500; -643.000; -586.000
222.999; -173.900; -642.000; -717.000
223.144;  -68.000; -195.000; -194.000
223.288;   94.500;  423.000;  251.000
223.432;   41.100;  184.000;  230.000
223.576;   40.700;  152.000;  -21.000
223.721;  117.900;  364.000;  273.000
223.865; -111.100; -472.000; -475.000
224.009;  500.000; 1673.000; 1631.000
224.153; -163.100; -660.000; -671.000
224.298; -139.400; -531.000; -489.000
224.442;  -48.100;  -74.000;  -33.000
224.586;  -17.900; -169.000; -106.000
224.730; -193.600; -858.000; -670.000
224.875; -188.900; -739.000; -688.000
225.019;   40.300;  102.000;  188.000
225.163;  138.000;  208.000;  341.000
225.307;   34.900;   97.000;  -91.000
225.451;   86.700;  360.000;  481.000
225.595;   69.700;  264.000;  176.000
225.739;    5.400; -170.000;  -94.000
225.884;   16.600;   86.000;    5.000
226.028; -214.900; -760.000; -626.000
226.172;  -99.200; -260.000; -273.000
226.316; -216.600; -941.000; -902.000
226.460; -149.700; -645.000; -493.000
226.604;  -93.300; -406.000; -400.000
226.748; -207.200; -836.000; -733.000
226.892;  -61.700; -227.000; -181.000
227.036;  -82.100; -537.000; -447.000
227.180; -124.400; -551.000; -375.000
227.324; -136.100; -561.000; -580.000
227.468; -235.800; -819.000; -717.000
227.612;   50.000;  242.000;  -28.000
227.756; -204.500; -845.000; -698.000
227.900;   98.500;  342.000;  441.000
228.044;  -97.700; -509.000; -290.000
228.188;  128.900;  448.000;  568.000
228.332; -165.300; -546.000; -472.000
228.476;  -73.700; -223.000; -149.000
228.620;  -46.900; -210.000; -150.000
228.764;  143.400;  431.000;  349.000
228.908;    2.600; -155.000;   30.000
229.052; -101.400; -615.000; -528.000
229.195;   27.700; -172.000;   13.000
229.339;  -58.300; -235.000; -305.000
229.483;  -42.700;    5.000; -162.000
229.627;   -2.100; -156.000;  139.000
229.771; -113.000; -218.000; -294.000
229.915;   34.100;  230.000;   79.000
230.059; -180.100; -648.000; -663.000
230.202; -103.700; -370.000; -317.000
230.346;  -13.100; -107.000;  107.000
230.490; -155.500; -489.000; -521.000
230.634; -206.400; -736.000; -553.000
230.777;  171.900;  478.000;  509.000
230.921; -141.300; -450.000; -359.000
231.065;  -63.600; -246.000; -286.000
231.209;   59.000;  261.000;  265.000
231.352;   48.100;   54.000;   40.000
231.496;   48.900;  568.000;  188.000
231.640; -167.300; -693.000; -621.000
231.783;  125.300;  546.000;  525.000
231.927; -130.800; -294.000; -365.000
232.071; -247.400; -962.000; -736.000
232.214; -239.200; -980.000; -764.000
232.358; -169.400; -683.000; -599.000
232.502;    8.000;  -19.000;    7.000
232.645; -255.600;-1090.000; -927.000
232.789;  -50.900; -257.000; -218.000
232.933;  -71.600; -407.000; -224.000
233.076; -267.300;-1038.000; -897.000
233.220; -200.300; -752.000; -777.000
233.363; -152.800; -669.000; -477.000
233.507;  138.500;  371.000;  129.000
233.650; -204.700; -764.000; -834.000
233.794;  107.000;  438.000;  461.000
233.938; -109.700; -530.000; -362.000
234.081;  -53.900;  -93.000;   31.000
234.225; -158.700; -631.000; -539.000
234.368; -202.200; -773.000; -723.000
234.512; -104.100; -385.000; -299.000
234.655; -175.600; -582.000; -555.000
234.798; -138.000; -493.000; -466.000
234.942; -262.500; -884.000;-1002.000
235.085; -160.800; -651.000; -443.000
235.229; -149.000; -405.000; -410.000
235.372;  -82.800; -247.000; -191.000
235.516; -110.100; -397.000; -321.000
235.659;   21.900;   92.000;  121.000
235.802;    0.100;  -38.000;  -22.000
235.946;   41.000;  335.000;  215.000
236.089;   64.900;  126.000;  250.000
236.233;  131.000;  275.000;  298.000
236.376;  -95.300; -235.000; -378.000
236.519;  -88.700; -297.000; -319.000
236.663;  -31.500; -215.000; -117.000
236.806; -262.900;-1029.000; -999.000
236.949;  168.100;  543.000;  431.000
237.092;  123.700;  412.000;  391.000
237.236; -154.300; -589.000; -502.000
237.379;  154.000;  352.000;  428.000
237.522; -240.200; -879.000; -768.000
237.666;  -24.900; -271.000;   18.000
237.809; -238.200; -851.000; -823.000
237.952;   83.700;  469.000;  271.000
238.095; -113.500; -447.000; -442.000
238.238;  180.500;  688.000;  700.000
238.382;   39.500;  166.000;  103.000
238.525; -153.600; -598.000; -511.000
238.668; -282.800;-1060.000; -985.000
238.811; -161.800; -638.000; -643.000
238.954;  -98.000; -483.000; -334.000
239.097;  173.600;  617.000;  664.000
239.241;   61.900;  394.000;  326.000
239.384;  -52.800; -254.000; -214.000
239.527;  -92.000; -424.000; -224.000
239.670; -289.100; -994.000;-1091.000
239.813; -223.200; -696.000; -658.000
239.956;  171.100;  579.000;  473.000
240.099; -206.900; -778.000; -725.000
240.242;  146.100;  428.000;  432.000
240.385;  114.700;  466.000;  450.000
240.528; -146.600; -706.000; -473.000
240.671;   66.600;  189.000;  134.000
240.814;  -74.700; -441.000; -158.000
240.957; -176.700; -767.000; -578.000
241.100; -211.000; -779.000; -755.000
241.243; -284.700;-1234.000; -893.000
241.386; -146.800; -508.000; -379.000
241.529; -162.300; -735.000; -547.000
241.672; -150.000; -566.000; -495.000
241.815; -216.000; -832.000; -808.000
241.958;  -38.400; -125.000; -182.000
242.101; -162.900; -545.000; -390.000
242.244;  -61.700; -270.000; -325.000
242.387;  -45.400; -304.000; -246.000
242.530;  136.900;  470.000;  134.000
242.673; -104.900; -381.000; -309.000
242.815; -223.900; -925.000; -899.000
242.958; -137.900; -482.000; -381.000
243.101;   40.200;  132.000;  187.000
243.244; -161.700; -564.000; -521.000
243.387; -115.000; -313.000; -316.000
243.530; -170.300; -657.000; -674.000
243.672;   15.000;   43.000;  -92.000
243.815;  -96.600; -355.000; -283.000
243.958;   31.100;   98.000;  -26.000
244.101;    5.800;   59.000;  -16.000
244.243;  -25.100;  -47.000;  101.000
244.386; -217.500; -761.000; -630.000
244.529;  -18.000; -132.000; -139.000
244.672; -316.200;-1154.000; -951.000
244.814; -202.400; -621.000; -794.000
244.957;  -82.700; -380.000; -304.000
245.100; -147.800; -489.000; -489.000
245.242; -109.800; -387.000; -374.000
245.385;  -22.000;  -59.000;  -39.000
245.528; -234.100; -871.000; -705.000
245.670;  223.700;  612.000;  634.000
245.813; -150.300; -599.000; -547.000
245.956;  -77.400; -324.000; -275.000
246.098; -130.500; -508.000; -650.000
246.241;   36.000;  194.000;   48.000
246.383;  -21.900; -119.000;  -73.000
246.526; -154.400; -454.000; -525.000
246.669; -222.200; -889.000; -780.000
246.811;   38.600;  172.000;   -1.000
246.954; -122.900; -512.000; -426.000
247.096;  -31.700;  -84.000;   -6.000
247.239; -127.300; -482.000; -445.000
247.381; -123.800; -647.000; -488.000
247.524;  205.900;  645.000;  679.000
247.666;   -3.100;   58.000;   11.000
247.809; -215.800; -887.000; -691.000
247.951;  -37.600;  -75.000;  138.000
248.094;   66.800;  432.000;  308.000
248.236; -323.500;-1262.000;-1238.000
248.378;   -8.700; -356.000;  -81.000
248.521;  -78.600; -334.000; -337.000
248.663;  -56.200; -236.000; -267.000
248.806;  -36.000; -300.000; -266.000
248.948; -190.400; -886.000; -763.000
249.090; -106.600; -428.000; -398.000
249.233;  -76.700; -344.000; -381.000
249.375; -128.200; -474.000; -451.000
249.518;   21.600;  -83.000; -133.000
249.660;   -0.400; -103.000;    3.000
249.802; -355.100;-1303.000;-1189.000
249.945; -142.800; -612.000; -540.000
250.087; -227.400; -834.000; -768.000
250.229;  -95.200; -362.000; -480.000
250.371; -136.000; -494.000; -439.000
250.514;  -92.600; -310.000; -244.000
250.656; -110.300;   69.000;  102.000
250.798; -232.900; -849.000; -800.000
250.940;  -90.100; -322.000; -322.000
251.083;  -62.800; -335.000; -111.000
251.225;  182.000;  338.000;  310.000
251.367;  -90.200; -274.000; -373.000
251.509;  -55.200; -265.000; -210.000
251.651; -196.900; -731.000; -671.000
251.794;  112.000;  538.000;  632.000
251.936; -223.400; -821.000; -747.000
252.078; -136.900; -540.000; -461.000
252.220; -120.900; -645.000; -477.000
252.362;  169.600;  344.000;  462.000
252.504; -120.700; -677.000; -584.000
252.646; -218.500; -875.000; -722.000
252.788;  -39.400;   14.000; -128.000
252.931;  -68.200; -257.000; -253.000
253.073;  -81.100; -376.000; -317.000
253.215;    1.500;  141.000;  122.000
253.357;  -27.800;   82.000; -153.000
253.499;  -74.300; -374.000; -234.000
253.641; -199.300; -749.000; -594.000
253.783; -172.000; -609.000; -527.000
253.925; -178.400; -586.000; -591.000
254.067; -207.800; -744.000; -667.000
254.209;  -46.400; -391.000; -259.000
254.351; -278.200; -865.000; -883.000
254.493; -152.600; -441.000; -417.000
254.635; -218.100; -936.000; -818.000
254.777; -191.400; -752.000; -687.000
254.918; -145.500; -512.000; -430.000
255.060;  -99.900; -551.000; -395.000
255.202; -113.900; -473.000; -261.000
255.344; -155.200; -658.000; -455.000
255.486; -133.100; -471.000; -406.000
255.628; -202.100; -780.000; -781.000
255.770; -173.100; -676.000; -536.000
255.912; -124.100; -559.000; -468.000
256.053; -173.400; -730.000; -508.000
256.195;  323.100; 1008.000;  903.000
256.337; -190.400; -861.000; -595.000
256.479;  130.700;  532.000;  416.000
256.621; -108.500; -394.000; -212.000
256.762; -190.700; -789.000; -742.000
256.904;  143.500;  485.000;  487.000
257.046;  -87.800; -381.000; -271.000
257.188;  -76.200; -351.000; -264.000
257.329; -135.100; -525.000; -464.000
257.471; -206.300; -939.000; -807.000
257.613; -152.300; -584.000; -498.000
257.755; -297.800;-1073.000; -982.000
257.896;   81.500;  286.000;  392.000
258.038; -124.600; -403.000; -352.000
258.180;  -89.500; -354.000; -279.000
258.321; -146.800; -581.000; -457.000
258.463;   17.600;  -71.000;  133.000
258.605; -160.900; -562.000; -570.000
258.746; -220.700; -886.000; -772.000
258.888; -306.800;-1026.000;-1020.000
259.029;   43.100;  121.000;   -8.000
259.171; -172.800; -614.000; -550.000
259.313;   19.300;  -49.000;  -47.000
259.454; -155.200; -536.000; -414.000
259.596; -101.400; -483.000; -390.000
259.737; -125.900; -590.000; -474.000
259.879;  116.000;  217.000;  311.000
260.020;  193.500;  901.000;  636.000
260.162;  -66.600; -146.000; -253.000
260.303; -224.200; -768.000; -687.000
260.445; -192.300; -609.000; -613.000
260.586;   65.800;  392.000;  157.000
260.728;  -59.400; -360.000; -248.000
260.869; -120.400; -350.000; -343.000
261.011;  186.700;  706.000;  537.000
261.152; -102.400; -479.000; -319.000
261.293; -132.400; -576.000; -595.000
261.435;  -42.200; -219.000; -184.000
261.576;  -66.300; -455.000; -325.000
261.718;  125.100;  420.000;  470.000
261.859; -244.000; -940.000; -949.000
262.000; -250.100; -951.000;-1016.000
262.142;  -32.100;  -52.000;  -60.000
262.283; -242.200; -808.000; -691.000
262.424; -195.400; -666.000; -625.000
262.566; -307.400;-1161.000; -983.000
262.707; -229.500; -840.000; -830.000
262.848; -241.700; -769.000; -726.000
262.990;  -93.100; -362.000; -345.000
263.131;  176.400;  650.000;  681.000
263.272;  -10.000;  -61.000;  -41.000
263.413; -199.900; -589.000; -561.000
263.555; -107.500; -669.000; -143.000
263.696; -175.900; -550.000; -641.000
263.837; -113.900; -449.000; -551.000
263.978;    5.800;   -5.000;  -77.000
264.119;  -61.000; -283.000; -264.000
264.261; -227.500; -847.000; -630.000
264.402;    8.700;   33.000;   40.000
264.543; -148.600; -509.000; -524.000
264.684;   -0.800;   61.000;  -50.000
264.825; -127.400; -816.000; -538.000
264.966;  -20.700;  -84.000;  -67.000
265.107; -204.500; -646.000; -670.000
265.248; -246.300; -825.000; -812.000
265.390;  -11.100;  152.000;   -9.000
265.531;  -56.200; -238.000; -107.000
265.672; -157.200; -557.000; -630.000
265.813;  127.200;  563.000;  439.000
265.954; -279.200; -959.000; -940.000
266.095;  -47.800; -372.000; -322.000
266.236; -191.400; -686.000; -548.000
266.377;  -70.200; -243.000; -297.000
266.518; -112.100; -619.000; -547.000
266.659;   53.800;  170.000;  268.000
266.800;   17.000;   83.000;   85.000
266.941; -125.700; -487.000; -478.000
267.082;   72.800;  354.000;   99.000
267.223; -119.400; -344.000; -273.000
267.364; -216.100; -892.000; -686.000
267.504;   11.800;    3.000;  135.000
267.645;   21.500;  160.000;   67.000
267.786;  -62.200; -147.000;  -86.000
267.927; -150.400; -473.000; -379.000
268.068;  -28.200; -186.000;  -61.000
268.209;  -97.600; -175.000; -413.000
268.350; -119.400; -388.000; -532.000
268.490; -153.700; -648.000; -521.000
268.631;   97.400;  127.000;  225.000
268.772; -219.600; -874.000; -647.000
268.913; -105.800; -328.000; -476.000
269.054;   -9.500; -117.000;   12.000
269.194;  -85.500; -418.000; -402.000
269.335; -289.100;-1137.000;-1074.000
269.476;  -38.900;   33.000;  -35.000
269.617;  -68.200; -347.000; -392.000
269.757; -180.300; -713.000; -646.000
269.898; -221.700; -856.000; -613.000
270.039; -113.500; -415.000; -405.000
270.180; -259.500; -952.000; -816.000
270.320;  -36.500; -190.000; -250.000
270.461;  -76.700; -277.000; -249.000
270.602;    2.300; -186.000; -156.000
270.742; -212.000; -868.000; -943.000
270.883; -106.200; -442.000; -390.000
271.023;  -97.700; -358.000; -357.000
271.164; -161.600; -607.000; -528.000
271.305; -168.100; -666.000; -654.000
271.445; -197.500; -722.000; -683.000
271.586; -134.600; -462.000; -283.000
271.726; -111.900; -397.000; -322.000
271.867; -154.300; -594.000; -534.000
272.008;  231.000; -473.000; -285.000
272.148;  239.800;  462.000;  468.000
272.289;  -15.600; -113.000; -181.000
272.429;   34.000;   19.000;  185.000
272.570; -178.100; -633.000; -737.000
272.710; -178.000; -825.000; -775.000
272.851;  -31.700;  113.000; -130.000
272.991; -325.900;-1173.000;-1077.000
273.131; -126.400; -419.000; -459.000
273.272; -177.100; -683.000; -723.000
273.412;   22.300; -143.000;  -31.000
273.553;  -93.500; -488.000; -507.000
273.693;  242.500;  913.000;  858.000
273.834; -173.800; -894.000; -692.000
273.974; -156.200; -664.000; -615.000
274.114; -185.700; -772.000; -560.000
274.255;  135.700;  414.000;  373.000
274.395;   -0.600; -180.000; -125.000
274.535;   76.900;  199.000;  350.000
274.676;   94.100;  225.000;   94.000
274.816;    3.300;  110.000;   34.000
274.956; -197.500; -624.000; -690.000
275.097; -158.300;-1014.000; -922.000
275.237; -206.800; -913.000; -803.000
275.377; -175.600; -778.000; -689.000
275.517; -302.300; -878.000; -937.000
275.658; -125.400; -590.000; -555.000
275.798; -149.700; -606.000; -413.000
275.938;   43.200;  215.000;  323.000
276.078; -146.500; -626.000; -395.000
276.218;  -13.300;   99.000;  104.000
276.359; -250.100;-1026.000;-1024.000
276.499; -133.700; -605.000; -446.000
276.639;  -50.800; -305.000; -151.000
276.779; -117.300; -475.000; -357.000
276.919; -205.000; -783.000; -624.000
277.059;  -24.000; -261.000; -212.000
277.199;  -86.500; -357.000; -259.000
277.340;   60.400;  287.000;  175.000
277.480; -214.900; -840.000; -693.000
277.620;   68.300;  192.000;   16.000
277.760; -395.500;-1533.000;-1294.000
277.900;   17.600;  113.000;   33.000
278.040;   28.300;  137.000;  159.000
278.180;   62.100;  270.000;  170.000
278.320;   39.000;   21.000;   56.000
278.460; -127.000; -443.000; -469.000
278.600; -149.700; -708.000; -598.000
278.740;  121.500;  448.000;  224.000
278.880; -177.800; -768.000; -791.000
279.020;   33.800; -194.000; -144.000
279.160; -161.400; -672.000; -595.000
279.300; -216.900; -926.000; -873.000
279.440; -186.400; -709.000; -622.000
279.579; -126.300;-1014.000; -929.000
279.719; -112.400; -410.000; -394.000
279.859;  107.100;   -4.000;   41.000
279.999;   43.200; -208.000;  101.000
280.139;  -63.300; -435.000; -387.000
280.279; -170.900; -708.000; -745.000
280.419;   -2.100; -229.000; -147.000
280.559;  -59.800; -259.000; -180.000
280.698; -180.700; -790.000; -639.000
280.838; -162.800; -778.000; -800.000
280.978; -195.000; -846.000; -790.000
281.118; -204.700; -811.000; -704.000
281.257;   38.900;   24.000;    6.000
281.397; -235.700;-1094.000; -960.000
281.537; -176.200; -599.000; -712.000
281.677;  -23.500; -150.000; -101.000
281.816; -166.400; -700.000; -630.000
281.956;  -46.500; -193.000; -257.000
282.096; -123.800; -539.000; -396.000
282.235; -190.800; -672.000; -638.000
282.375;  -25.800; -243.000;  -98.000
282.515; -168.100; -715.000; -707.000
282.654;   49.800;   29.000;  106.000
282.794;   79.400;  388.000;  244.000
282.934; -104.200; -530.000; -491.000
283.073; -277.400;-1030.000; -857.000
283.213; -118.600; -460.000; -467.000
283.353;  -77.500; -408.000; -349.000
283.492;  -45.600; -264.000; -296.000
283.632;  -58.600; -254.000; -168.000
283.771; -188.700; -859.000; -730.000
283.911;  -75.200; -369.000; -260.000
284.050; -218.100; -794.000; -748.000
284.190; -339.300;-1229.000;-1096.000
284.329; -266.600;-1055.000; -964.000
284.469; -128.400; -516.000; -591.000
284.608; -126.800; -559.000; -598.000
284.748; -140.900; -614.000; -570.000
284.887;  -21.000;  -87.000;  -20.000
285.027; -265.200; -844.000; -892.000
285.166;  -75.800; -192.000; -249.000
285.306;   17.700; -116.000;  -33.000
285.445;  -70.600; -229.000; -343.000
285.584; -182.600; -630.000; -494.000
285.724;  -87.700; -282.000; -322.000
285.863; -198.900; -857.000; -507.000
286.002;  -80.000; -366.000; -276.000
286.142; -209.500; -715.000; -622.000
286.281; -132.700; -525.000; -493.000
286.420; -153.200; -554.000; -417.000
286.560;  209.500;  653.000;  623.000
286.699; -246.900; -958.000; -912.000
286.838; -161.500; -590.000; -591.000
286.978; -174.500; -533.000; -537.000
287.117; -270.400;-1085.000; -950.000
287.256;  -31.900; -228.000; -211.000
287.395;  -60.900; -197.000; -378.000
287.535;  -76.400; -370.000; -298.000
287.674; -170.800; -509.000; -484.000
287.813;  160.000;  661.000;  533.000
287.952; -254.900;-1010.000; -871.000
288.091; -298.900;-1049.000; -915.000
288.231;   35.200;   13.000;   15.000
288.370; -318.600;-1217.000;-1200.000
288.509; -173.700; -728.000; -645.000
288.648; -176.700; -770.000; -548.000
288.787;  -30.700; -243.000;  -87.000
288.926;  -97.800; -454.000; -475.000
289.065;  236.900;  859.000;  672.000
289.204;  -73.700; -377.000; -217.000
289.344; -154.500; -791.000; -690.000
289.483;   48.900;  416.000;  304.000
289.622;  -56.900; -291.000; -149.000
289.761;  -36.900; -309.000; -166.000
289.900; -209.200; -785.000; -626.000
290.039;   -4.100;  -12.000;  -95.000
290.178;  -58.600; -274.000; -180.000
290.317; -139.100; -618.000; -479.000
290.456; -122.500; -463.000; -451.000
290.595; -259.100; -961.000; -833.000
290.734; -291.000; -904.000; -891.000
290.873; -109.000; -456.000; -420.000
291.011; -207.600; -833.000; -843.000
291.150; -177.600; -770.000; -682.000
291.289;  -47.300; -343.000; -110.000
291.428; -145.000; -599.000; -480.000
291.567;  -84.100; -370.000; -442.000
291.706;    8.200;  109.000;  154.000
291.845; -168.800; -597.000; -505.000
291.984; -306.200;-1234.000;-1061.000
292.122;  159.500;  602.000;  582.000
292.261;  129.500;  620.000;  463.000
292.400;   61.400; -144.000;  211.000
292.539; -237.100; -959.000; -813.000
292.678;  -58.300; -325.000; -300.000
292.816; -284.500;-1136.000; -965.000
292.955; -156.000; -844.000; -684.000
293.094;  -27.700; -173.000; -337.000
293.233; -125.600; -556.000; -400.000
293.371;  -80.400; -225.000;  -84.000
293.510; -223.900; -866.000; -780.000
293.649; -255.600; -959.000; -924.000
293.787; -194.600;-1083.000;-1012.000
293.926;   -7.800; -113.000;  -32.000
294.065;  -83.200; -379.000; -290.000
294.203;  113.500;  298.000;  406.000
294.342;   40.600;   74.000;  156.000
294.481;12266.500;51180.000; -836.000
294.619;  -49.200; -425.000; -582.000
294.758; -271.400;-1230.000;-1137.000
294.896;  112.700; -125.000;    5.000
295.035; -242.800;-1040.000;-1006.000
295.174; -259.400;-1082.000; -954.000
295.312;  -63.400; -323.000; -203.000
295.451;  -33.300; -307.000; -428.000
295.589;  -94.300; -389.000; -518.000
295.728;   17.500; -292.000; -165.000
295.866;   19.800;  -36.000;  -51.000
296.005; -148.200; -584.000; -341.000
296.143; -152.700; -558.000; -596.000
296.282; -201.000; -957.000; -881.000
296.420; -164.100; -657.000; -557.000
296.559; -168.900; -892.000; -633.000
296.697;  -28.700; -847.000; -665.000
296.835;   -8.900;-1141.000;-1002.000
296.974;   59.200;  -23.000;   39.000
297.112;  -24.500; -443.000; -504.000
297.251; -170.400; -815.000; -755.000
297.389;   56.300; -576.000; -438.000
297.527;   60.800; -145.000;  -83.000
297.666;  -98.600; -486.000; -438.000
297.804;  -64.700; -404.000; -264.000
297.942;   -6.700; -136.000; -161.000
298.081;   46.100; -183.000;   63.000
298.219;   70.500;  -17.000;  -19.000
298.357;   82.600; -144.000;  -71.000
298.495;  -15.400; -810.000; -812.000
298.634;  105.000;  245.000;  219.000
298.772;   65.400; -220.000; -338.000
298.910;  -47.400; -309.000; -182.000
299.048;   12.800; -130.000; -153.000
299.187;  -48.900; -350.000; -250.000
299.325;   41.500;   52.000;  122.000
299.463;    5.800; -389.000; -299.000
299.601;  127.700; -327.000; -271.000
299.739; -213.800; -908.000; -883.000
299.877; -164.300; -791.000; -703.000
300.016; -152.800;-1095.000; -935.000
300.154;  223.100;  -19.000; -161.000
300.292;   20.600; -428.000; -348.000
300.430;   20.600; -408.000; -291.000
300.568; -208.200; -940.000; -874.000
300.706;  -95.700; -366.000; -469.000
300.844; -193.900;-1108.000; -979.000
300.982;  207.400;  246.000;  282.000
301.120; -215.800; -965.000; -866.000
301.258; -141.700; -812.000; -705.000
301.396;   49.200;  104.000;  -41.000
301.534;   76.000; -218.000; -293.000
301.672;  -30.000; -664.000; -521.000
301.810;  -38.700; -613.000; -545.000
301.948;  206.900;   53.000;  149.000
302.086;  759.500; -250.000;  -32.000
302.224; 1255.200; -610.000; -585.000
302.362;   -3.400; -558.000; -622.000
302.500;  -66.900; -923.000; -893.000
302.638;  172.100;  128.000;  245.000
302.776;  -12.200; -352.000; -408.000
302.913;   91.400;  447.000;  236.000
303.051;  -17.200;  -86.000;  -23.000
303.189;   92.000;   90.000;  118.000
303.327;  -90.400; -341.000; -256.000
303.465; -169.900; -832.000; -588.000
303.603; -160.000; -805.000; -604.000
303.740;  209.600;  417.000;  241.000
303.878;  -36.000; -800.000; -759.000
304.016; -185.900; -915.000; -790.000
304.154; -250.800;-1123.000;-1152.000
304.291;  -71.500; -505.000; -554.000
304.429;   21.700;  102.000;   74.000
304.567; -262.500; -908.000; -893.000
304.705;  -72.200; -408.000; -515.000
304.842;   79.400; -616.000; -540.000
304.980;  130.800;  215.000;   35.000
305.118;   35.600; -367.000; -365.000
305.255; -194.600; -945.000; -927.000
305.393;   64.800;  178.000;  239.000
305.531; -228.100;-1173.000; -956.000
305.668; -133.600; -663.000; -582.000
305.806;  140.500; -358.000; -439.000
305.943;   70.400; -629.000; -637.000
306.081;   54.000; -378.000; -267.000
306.219; -201.500; -863.000; -748.000
306.356;   35.500;  158.000;   27.000
306.494;  239.200;  981.000;  761.000
306.631;   35.700;  -11.000;  -55.000
306.769;   12.900; -613.000; -485.000
306.906;  -19.000; -284.000; -258.000
307.044; -116.600; -473.000; -488.000
307.181; -101.700; -410.000; -332.000
307.319;   75.000;  112.000;   87.000
307.456; -309.300;-1191.000;-1153.000
307.594; -211.400; -980.000; -727.000
307.731;   -8.000; -371.000; -164.000
307.868;   36.400;  -15.000;   20.000
308.006; -267.000; -961.000; -847.000
308.143; -133.900; -618.000; -330.000
308.281;  312.100;  -37.000; -254.000
308.418;  -38.900; -748.000; -640.000
308.555; -111.200; -400.000; -250.000
308.693; -141.700; -577.000; -573.000
308.830; -203.200; -712.000; -657.000
308.967;  -11.000; -215.000;  -95.000
309.105;  -68.500; -507.000; -396.000
309.242;   56.300; -468.000; -367.000
309.379;  578.000; -577.000; -655.000
309.517; -109.700; -936.000; -948.000
309.654; -199.100; -910.000; -734.000
309.791; -152.500; -662.000; -580.000
309.928; -225.700; -977.000; -914.000
310.065;  301.800;  819.000;  697.000
310.203;  -81.500; -825.000; -850.000
310.340;  -14.100; -465.000; -321.000
310.477; -124.800; -412.000; -516.000
310.614; -117.800; -383.000; -473.000
310.751; -112.900; -427.000; -518.000
310.889;    4.200;    1.000;   11.000
311.026; -260.700;-1161.000; -939.000
311.163; -104.000; -386.000; -380.000
311.300; -110.600; -512.000; -479.000
311.437; -139.800; -658.000; -619.000
311.574; -285.400;-1226.000; -985.000
311.711; -125.700; -595.000; -433.000
311.848;  -42.800; -380.000; -388.000
311.985;   43.300;  270.000;   93.000
312.122; -210.700; -932.000; -762.000
312.259; -218.400; -941.000; -994.000
312.396; -131.100; -508.000; -551.000
312.533; -154.300; -812.000; -790.000
312.670; -216.100;-1070.000; -898.000
312.807;  -38.400; -352.000; -367.000
312.944; -148.300; -513.000; -611.000
313.081;  -59.200; -150.000; -415.000
313.218; -188.300;-1111.000; -867.000
313.355;   -9.900; -531.000; -449.000
313.492;  -13.500; -455.000; -292.000
313.629;  245.200;  815.000;  735.000
313.766; -334.100;-1176.000;-1008.000
313.902;   -7.500; -186.000;   21.000
314.039;  -33.800; -372.000; -289.000
314.176;  101.200;  286.000;  192.000
314.313;  -98.900; -569.000; -473.000
314.450; -130.200; -788.000; -684.000
314.587;  -66.500; -468.000; -480.000
314.723;   17.000;  -78.000;  130.000
314.860;  110.500;  318.000;  332.000
314.997;   75.000;  223.000;  142.000
315.134;  -90.700; -385.000; -368.000
315.270;  -72.500; -480.000; -496.000
315.407; -251.500;-1094.000; -967.000
315.544; -102.500; -657.000; -538.000
315.681; -115.800; -681.000; -565.000
315.817;   46.000; -133.000; -176.000
315.954;    3.100; -613.000; -392.000
316.091; -267.000;-1045.000;-1023.000
316.227;    1.800;  -71.000; -179.000
316.364;   14.900;   23.000;    6.000
316.500;  -62.600; -113.000; -300.000
316.637;  -84.200; -181.000; -302.000
316.774; -153.900; -625.000; -358.000
316.910; -159.500; -598.000; -629.000
317.047; -112.700; -487.000; -351.000
317.183;  -86.000; -435.000; -566.000
317.320;  -45.300; -367.000; -321.000
317.456; -115.700; -733.000; -805.000
317.593; -137.400; -598.000; -641.000
317.729;   34.000;  168.000;  -67.000
317.866; -393.600;-1434.000;-1285.000
318.002; -174.200; -708.000; -948.000
318.139; -202.200; -883.000; -867.000
318.275; -212.700;-1003.000; -738.000
318.412;  -95.400; -517.000; -336.000
318.548; -130.100; -751.000; -720.000
318.685; -213.600; -985.000; -888.000
318.821; -171.600; -762.000; -735.000
318.957;  -13.100;   34.000;  -23.000
319.094;  102.900;  297.000;  154.000
319.230; -167.900; -756.000; -742.000
319.367;  149.300; -471.000; -520.000
319.503;   85.900; -538.000; -436.000
319.639; -197.900; -877.000; -793.000
319.775; -142.900; -750.000; -685.000
319.912; -107.800; -424.000; -519.000
320.048; -204.400;-1184.000;-1184.000
320.184;  160.400;   59.000;   70.000
320.321; -100.500; -497.000; -467.000
320.457;  151.300;  475.000;  662.000
320.593;  -97.900; -375.000; -382.000
320.729; -192.400; -732.000; -734.000
320.866;  -89.200; -577.000; -635.000
321.002; -147.300; -759.000; -809.000
321.138;  -18.300; -135.000; -211.000
321.274;  130.000; -148.000; -115.000
321.410;  -44.300; -585.000; -353.000
321.546; -113.000;-1011.000; -911.000
321.683;  128.600;  400.000;  185.000
321.819;   33.500;  -48.000; -117.000
321.955; -200.300; -743.000; -722.000
322.091; -104.200; -585.000; -540.000
322.227;  -32.400; -382.000; -202.000
322.363;  -61.300; -320.000; -215.000
322.499;  -74.100; -343.000; -331.000
322.635;  280.700;  636.000;  443.000
322.771;   37.300; -139.000;   12.000
322.907;  182.600;  129.000;  327.000
323.043;  -33.800; -115.000; -206.000
323.179;  -62.600; -394.000; -363.000
323.315;  -25.200; -401.000; -371.000
323.451;  104.600; -328.000; -236.000
323.587;  111.200;  -60.000;  -77.000
323.723;    8.400; -682.000; -601.000
323.859;  -13.400; -258.000;  -76.000
323.995;  -70.300; -467.000; -409.000
324.131; -247.200; -967.000; -892.000
324.267;  -52.500; -254.000; -276.000
324.402; -232.300; -960.000; -983.000
324.538;  -19.600; -279.000; -104.000
324.674;   46.500;  164.000;   77.000
324.810;  227.900;  226.000;  308.000
324.946;   11.400; -810.000; -658.000
325.082; -159.300; -568.000; -475.000
325.217;   14.600;  -62.000;   16.000
325.353; -179.300; -764.000; -659.000
325.489; -173.600; -540.000; -506.000
325.625; -145.800; -579.000; -525.000
325.760;  151.700;  517.000;  376.000
325.896;  -83.400; -515.000; -702.000
326.032;  -51.000; -403.000; -352.000
326.168; -104.200; -462.000; -369.000
326.303; -109.100; -352.000; -461.000
326.439;  -45.500; -336.000; -276.000
326.575;   40.700; -190.000;  -29.000
326.710;  -13.900; -156.000;  -30.000
326.846;    1.100;  146.000;  103.000
326.982; -143.800; -530.000; -548.000
327.117; -125.500; -481.000; -442.000
327.253; -155.600; -745.000; -742.000
327.388; -224.700;-1137.000;-1153.000
327.524; -107.900; -811.000; -578.000
327.659;  -25.100;  -58.000;  -22.000
327.795;   -4.900;   69.000;   45.000
327.931; -130.300; -723.000; -499.000
328.066;  -15.700; -417.000; -276.000
328.202;   11.600;   12.000; -129.000
328.337;  231.200;  957.000;  713.000
328.473;   24.600;  -12.000;  -74.000
328.608;  -16.100; -256.000; -267.000
328.743; -157.100; -799.000; -664.000
328.879;   61.100;  214.000;  114.000
329.014;  -95.900; -102.000; -122.000
329.150; -136.800; -358.000; -483.000
329.285; -117.800; -465.000; -466.000
329.421;  -63.600; -548.000; -246.000
329.556;    0.800;  -36.000;   85.000
329.691; -187.700; -633.000; -615.000
329.827; -170.500; -626.000; -480.000
329.962;  -59.800;  131.000; -301.000
330.097; -165.700; -673.000; -585.000
330.233;  -65.800; -410.000; -223.000
330.368; -255.000; -839.000; -628.000
330.503;  -16.100;    3.000;   98.000
330.638;   28.400;  -93.000; -125.000
330.774; -138.500; -609.000; -530.000
330.909;  -53.300; -434.000; -244.000
331.044; -185.700; -714.000; -708.000
331.179; -351.200;-1217.000;-1109.000
331.315;   47.400;   77.000;   20.000
331.450;   43.000;  157.000;  285.000
331.585; -163.000; -805.000; -706.000
331.720; -159.600; -510.000; -460.000
331.855;    2.000;  -35.000; -102.000
331.990;  408.700;   62.000;  138.000
332.126;  250.000; -110.000;   71.000
332.261;  -39.200; -379.000; -265.000
332.396;  -27.400; -135.000; -242.000
332.531; -178.100;-1074.000;-1031.000
332.666;   52.400; -519.000; -363.000
332.801; -188.000; -726.000; -807.000
332.936;  -39.900; -192.000; -122.000
333.071; -286.100; -870.000; -817.000
333.206;   89.000;  307.000;  379.000
333.341;   95.500;  344.000;  418.000
333.476; -156.900; -627.000; -623.000
333.611;  -66.900; -251.000; -173.000
333.746;  -66.600; -381.000; -464.000
333.881; -225.500; -973.000; -935.000
334.016; -225.400; -936.000; -917.000
334.151; -233.800; -746.000; -702.000
334.286;   75.000;  152.000;  186.000
334.421;  -32.000; -125.000; -178.000
334.556; -141.700; -611.000; -567.000
334.690; -168.100; -631.000; -577.000
334.825;  144.500;  381.000;   83.000
334.960; -116.600; -285.000; -413.000
335.095;    1.900;  135.000;  -91.000
335.230; -188.100; -722.000; -738.000
335.365; -261.800;-1084.000; -990.000
335.499; -279.000;-1108.000;-1037.000
335.634;   34.300;    9.000;  534.000
335.769; -191.900; -755.000; -720.000
335.904; -123.300; -603.000; -561.000
336.038; -110.000; -735.000; -657.000
336.173; -266.100;-1206.000;-1194.000
336.308;    7.700; -116.000; -189.000
336.443;   14.700; -544.000; -634.000
336.577; -177.200; -936.000; -787.000
336.712;  109.400;   -4.000;  -12.000
336.847; -120.500; -724.000; -607.000
336.981;   17.400; -272.000; -208.000
337.116;  412.100;  615.000;  501.000
337.250;  172.200; -434.000; -421.000
337.385;  392.700; -297.000; -208.000
337.520;  124.400; -632.000; -603.000
337.654;  -33.800; -215.000; -126.000
337.789; -266.600; -989.000; -933.000
337.923;  -23.200; -104.000; -205.000
338.058; -170.700; -673.000; -738.000
338.192;  -93.700; -611.000; -488.000
338.327;   16.900;  -18.000; -155.000
338.461; -104.400; -299.000; -469.000
338.596; -150.300; -780.000; -638.000
338.730; -176.400; -767.000; -803.000
338.865;  181.200;  -46.000; -140.000
338.999; -107.800; -846.000; -702.000
339.134;  -92.700; -634.000; -536.000
339.268;  -13.700; -741.000; -603.000
339.403;  512.200; -740.000; -775.000
339.537;  136.800; -894.000; -820.000
339.671; -194.800; -829.000; -813.000
339.806; -117.500; -556.000; -512.000
339.940;    4.900; -261.000; -235.000
340.074; -176.000; -685.000; -510.000
340.209;  -68.200; -351.000; -230.000
340.343; -153.200; -517.000; -573.000
340.477;  354.400;  998.000; 1036.000
340.612;  -83.100;-1033.000; -900.000
340.746;  239.000; -199.000; -243.000
340.880; -145.300; -924.000; -785.000
341.014;   -2.600;  -45.000; -154.000
341.149; -203.400; -756.000; -718.000
341.283; -193.000; -839.000; -754.000
341.417; -209.400;-1124.000; -938.000
341.551;   98.500; -768.000; -708.000
341.685;  -80.800; -633.000; -611.000
341.820;  -80.900; -562.000; -493.000
341.954;  -65.200; -218.000; -349.000
342.088; -289.400;-1102.000;-1019.000
342.222;  128.000;  565.000;  618.000
342.356; -122.700; -395.000; -335.000
342.490; -199.400; -880.000; -841.000
342.624;  -77.000; -339.000; -242.000
342.758;   -2.600; -364.000; -312.000
342.892; -153.000; -710.000; -585.000
343.026;  -36.100;  -58.000; -116.000
343.160;  -86.000; -426.000; -376.000
343.294; -135.800; -474.000; -337.000
343.428;  -53.500; -488.000; -448.000
343.562;  -12.000; -172.000;  -23.000
343.696;  -65.900; -385.000; -314.000
343.830;  -50.200; -362.000; -356.000
343.964;   29.200; -231.000; -168.000
344.098; 1211.100;  199.000;   70.000
344.232;  948.600; -266.000; -127.000
344.366;  129.100; -567.000; -453.000
344.500;   38.600; -665.000; -744.000
344.634;   24.700; -324.000; -164.000
344.768;  -40.400; -531.000; -341.000
344.902;   60.400;  278.000;  256.000
345.035; -129.100; -556.000; -496.000
345.169; -273.800; -933.000; -656.000
345.303;  -73.000; -308.000; -482.000
345.437; -161.700; -826.000; -717.000
345.571; -164.300; -675.000; -594.000
345.704; -104.200; -309.000; -532.000
345.838;   -7.700; -331.000; -284.000
345.972;  -84.400; -543.000; -495.000
346.106;  278.100; -179.000; -190.000
346.239;  584.900; -312.000; -243.000
346.373;   -6.700; -343.000; -302.000
346.507; -276.900; -950.000; -962.000
346.640;  189.200;  -30.000;   13.000
346.774;  -94.200; -650.000; -797.000
346.908;   -3.500; -138.000;  -11.000
347.041; -177.500; -646.000; -593.000
347.175;   31.900;  259.000;   27.000
347.309; -147.400; -698.000; -628.000
347.442; -200.400; -883.000; -732.000
347.576;  444.600;  670.000;  668.000
347.709;  264.200; -123.000;  -52.000
347.843; -203.300; -933.000; -825.000
347.976;  119.700;  235.000;  294.000
348.110; -339.500;-1268.000;-1186.000
348.243; -197.900; -679.000; -772.000
348.377;   58.300;  -26.000;   60.000
348.510;  149.000;  403.000;  540.000
348.644;  -34.100;  -37.000; -159.000
348.777;   44.100;  180.000;  191.000
348.911;  -47.200; -142.000; -112.000
349.044;  290.200;  471.000;  448.000
349.178;  132.500;-1069.000;-1006.000
349.311;  192.800;  141.000;  255.000
349.444;  -23.700; -927.000; -813.000
349.578;  -23.400; -347.000; -200.000
349.711; -200.400; -959.000; -862.000
349.845;  -55.100; -661.000; -591.000
349.978; -281.400;-1224.000;-1137.000
350.111; -156.400; -546.000; -612.000
350.244; -138.400; -596.000; -700.000
350.378;  -22.000; -392.000; -393.000
350.511; -123.400; -393.000; -426.000
350.644; -197.300; -808.000; -806.000
350.778;   72.400;  168.000;  104.000
350.911;   38.000;  134.000;  140.000
351.044; -174.400; -685.000; -615.000
351.177;  -47.700; -321.000; -281.000
351.310;  -18.300;    3.000; -131.000
351.444; -180.200; -888.000; -788.000
351.577;  180.500;  140.000;   90.000
351.710;  225.500;  593.000;  417.000
351.843;  -26.900; -165.000;  -77.000
351.976;   33.200;  149.000;  -79.000
352.109; -122.900; -621.000; -612.000
352.242;  -95.500; -464.000; -419.000
352.376; -131.400; -580.000; -636.000
352.509;  159.600; -437.000; -356.000
352.642;  -87.100; -654.000; -604.000
352.775;   82.900; -141.000;  -98.000
352.908; -216.900; -933.000; -904.000
353.041; -198.700; -814.000; -824.000
353.174; -105.000; -551.000; -424.000
353.307; -178.500; -753.000; -764.000
353.440;  119.900;  541.000;  453.000
353.573; -220.400; -957.000;-1008.000
353.706;  -19.100; -384.000; -558.000
353.839;  -27.100; -264.000; -220.000
353.971; -178.600; -657.000; -512.000
354.104; -198.000; -896.000; -835.000
354.237;  -90.200; -627.000; -662.000
354.370; -177.500; -846.000; -879.000
354.503; -355.900;-1231.000;-1308.000
354.636;  -84.300; -529.000; -348.000
354.769; -268.200; -937.000; -860.000
354.902;  -59.200; -230.000; -139.000
355.034;  -23.100; -164.000; -220.000
355.167;  -43.900; -262.000; -162.000
355.300; -188.900;-1061.000; -880.000
355.433; 1502.400;  -71.000;  -14.000
355.565; 2305.500; -402.000; -384.000
355.698;  584.800; -356.000; -296.000
355.831;  -53.200; -882.000; -801.000
355.964;   98.300; -285.000; -170.000
356.096; -190.000; -856.000; -843.000
356.229;  -34.500; -523.000; -530.000
356.362;  533.700; -373.000; -266.000
356.494;  940.900; -229.000; -162.000
356.627;  704.300;  269.000;  377.000
356.760; 1052.100;  120.000;   53.000
356.892; 1468.300; -286.000; -601.000
357.025;  907.200;  403.000;  389.000
357.157;  769.000; -167.000; -179.000
357.290; 1067.200; -856.000; -713.000
357.423;  275.200; -667.000; -556.000
357.555;  119.200; -217.000; -228.000
357.688;  108.400; -483.000; -364.000
357.820;  504.600; -870.000; -877.000
357.953; 4925.300; -563.000; -589.000
358.085;  965.200; -632.000; -612.000
358.218; 1284.200;-1131.000; -932.000
358.350;  241.800;  -58.000;  312.000
358.483; -259.500;-1300.000;-1187.000
358.615; -168.400;-1182.000;-1078.000
358.747; -194.300;-1187.000;-1058.000
358.880;  -49.100; -810.000; -744.000
359.012;  -14.900; -376.000; -202.000
359.145;  -94.600; -480.000; -511.000
359.277;   -0.900; -962.000; -913.000
359.409; 4058.800;  536.000;  231.000
359.542;  947.100; -738.000; -688.000
359.674;  120.500;   46.000;   13.000
359.806; -111.700; -565.000; -438.000
359.939;  -92.600; -617.000; -516.000
360.071;  -30.800; -583.000; -579.000
360.203;  -27.400; -411.000; -364.000
360.335;  117.300;  164.000;  -16.000
360.468;  254.300; -249.000; -307.000
360.600; 3302.300; -547.000; -454.000
360.732; 4424.500; -546.000; -423.000
360.864;  520.800;-1216.000;-1044.000
360.996;  331.500; -516.000; -554.000
361.129;   -6.300; -389.000; -598.000
361.261;   66.200;  110.000; -113.000
361.393;  -32.600; -252.000; -214.000
361.525;   73.500;   94.000;  244.000
361.657;  -97.400; -821.000; -703.000
361.789;    7.700; -139.000; -155.000
361.921;  230.200; -642.000; -593.000
362.053;  404.000;  524.000;  541.000
362.185;   98.300;  288.000;   72.000
362.318; -165.800; -709.000; -705.000
362.450;  194.400;  294.000;  444.000
362.582;   18.100; -913.000; -870.000
362.714;  -50.600; -353.000; -332.000
362.846; -132.600; -606.000; -490.000
362.978; -270.800; -941.000; -811.000
363.109;   64.600; -161.000; -260.000
363.241;  485.800; -739.000; -749.000
363.373;  622.200; -649.000; -564.000
363.505; 1088.400; -186.000;  -91.000
363.637;  241.900; -787.000; -601.000
363.769; -253.000;-1067.000;-1080.000
363.901; -122.100; -596.000; -654.000
364.033; -251.900;-1103.000;-1062.000
364.165;  -19.100; -283.000; -283.000
364.296;  138.200; -316.000; -177.000
364.428;    4.700;-1344.000;-1220.000
364.560; -122.300; -679.000; -661.000
364.692; -128.600; -738.000; -835.000
364.824;  314.800; -588.000; -456.000
364.955;  617.900; -402.000; -564.000
365.087; 1507.100;-1097.000; -852.000
365.219;  -42.300; -686.000; -816.000
365.351; -106.700; -526.000; -572.000
365.482;  143.700;  300.000;  240.000
365.614;  -56.100; -402.000; -314.000
365.746; -178.300; -729.000; -752.000
365.877; -159.200; -706.000; -672.000
366.009;  418.500;  -35.000;  -62.000
366.141; -194.900;-1249.000;-1134.000
366.272; -220.700; -803.000; -719.000
366.404; -200.300;-1005.000; -874.000
366.535;   -1.200; -139.000;  -12.000
366.667; -174.300; -644.000; -649.000
366.799;  133.400;  353.000;  203.000
366.930; -236.900; -862.000; -996.000
367.062;  163.600; -639.000; -613.000
367.193;  215.000; -872.000; -842.000
367.325; -123.100; -580.000; -684.000
367.456;   46.900; -246.000;   31.000
367.588;  236.100; -371.000; -318.000
367.719;   50.200;  -44.000;  -45.000
367.851;  -23.300; -222.000; -241.000
367.982; -136.000; -875.000; -732.000
368.113;   71.000; -475.000; -358.000
368.245; -270.300; -960.000; -841.000
368.376;  -49.900; -254.000; -302.000
368.508;  -42.500; -188.000; -263.000
368.639; -270.700;-1166.000;-1034.000
368.770;  -57.400; -670.000; -589.000
368.902; -164.300; -836.000; -926.000
369.033; -210.300; -906.000; -855.000
369.164;  -90.400; -720.000; -653.000
369.296; -180.900; -452.000; -601.000
369.427;   -4.000; -209.000; -144.000
369.558;  -72.700; -593.000; -377.000
369.689; -154.400; -721.000; -569.000
369.821; -240.200; -951.000; -845.000
369.952;   -8.400;   42.000; -108.000
370.083;  -98.100; -229.000; -108.000
370.214; -145.900; -735.000; -650.000
370.345;   16.200;   65.000;   81.000
370.477; -151.200; -810.000; -790.000
370.608;  293.000; -328.000; -264.000
370.739; -160.500;-1233.000;-1292.000
370.870; -156.800;-1102.000; -923.000
371.001;   65.700; -378.000; -467.000
371.132; -165.700; -754.000; -735.000
371.263;   -3.200;  -42.000; -148.000
371.394; -228.600; -841.000; -748.000
371.525;  114.900;  345.000;  225.000
371.657; -183.200; -808.000; -670.000
371.788;  134.900;  103.000;  199.000
371.919;  242.900; -384.000; -304.000
372.050; 4884.500;  -91.000; -156.000
372.181; 1364.700; -188.000; -294.000
372.311;  470.600;   42.000; -127.000
372.442;  -10.200; -457.000; -451.000
372.573;   -9.200; -444.000; -340.000
372.704; -229.300;-1008.000; -980.000
372.835;  100.200; -228.000; -289.000
372.966; -116.800; -646.000; -554.000
373.097; -121.200; -575.000; -711.000
373.228; -101.100; -717.000; -542.000
373.359;  126.600; -824.000; -536.000
373.490; 1164.600; -881.000; -727.000
373.620; 1372.000;-1001.000; -803.000
373.751; 2335.900; -332.000; -396.000
373.882;  974.200; -663.000; -733.000
374.013;   57.700; -449.000; -262.000
374.143; -112.100; -581.000; -659.000
374.274; -261.200; -987.000; -908.000
374.405;  225.900; -388.000; -276.000
374.536;  559.300; -526.000; -387.000
374.666; 1369.600; -759.000; -807.000
374.797;  213.700; -817.000; -868.000
374.928; 1028.200; -710.000; -560.000
375.058; 1060.700; -535.000; -500.000
375.189;  110.800;  -59.000;  -93.000
375.320; -213.400; -928.000;-1034.000
375.450; -134.600; -625.000; -616.000
375.581; -108.000; -526.000; -436.000
375.712;  -56.300; -574.000; -250.000
375.842;  373.100; -438.000; -415.000
375.973;  220.800; -554.000; -513.000
376.103; -124.400; -665.000; -648.000
376.234; -153.100; -531.000; -552.000
376.364; -147.700; -944.000; -867.000
376.495;  526.000;  925.000;  529.000
376.625;  -48.000; -472.000; -485.000
376.756;   12.300; -709.000; -678.000
376.886; -180.800;-1178.000;-1026.000
377.017;   76.500;-1048.000;-1061.000
377.147;  558.700; -786.000; -782.000
377.278;  113.900;  174.000;  228.000
377.408; -236.100; -801.000; -815.000
377.538; -180.900; -707.000; -693.000
377.669; -132.500; -537.000; -613.000
377.799; -151.400; -645.000; -635.000
377.929; -120.400; -610.000; -428.000
378.060; -239.000; -781.000; -847.000
378.190;  -95.100; -726.000; -531.000
378.320;  -74.400; -401.000; -406.000
378.451;  -23.900; -131.000;  -22.000
378.581;  -19.000;  -67.000; -110.000
378.711;  322.800; 1035.000;  866.000
378.841;  -47.300; -533.000; -675.000
378.972; -174.200; -871.000; -751.000
379.102;  -56.500; -652.000; -579.000
379.232;    1.400; -126.000;  -73.000
379.362; -219.500;-1001.000; -885.000
379.492;  -16.200; -373.000; -424.000
379.623;  142.900;    0.000;  111.000
379.753; -190.900;-1107.000; -974.000
379.883;  311.400;   59.000;  156.000
380.013;  -95.900;-1081.000;-1017.000
380.143; -234.600;-1097.000;-1056.000
380.273; -215.100; -985.000; -861.000
380.403;    4.900; -344.000; -257.000
380.533;  -81.500; -651.000; -664.000
380.663;  114.000;  173.000;  128.000
380.793; -208.600;-1027.000;-1074.000
380.923;  -72.400; -103.000;  -34.000
381.053; -166.400; -613.000; -623.000
381.183;  -44.300; -106.000; -248.000
381.313;   28.400; -656.000; -470.000
381.443;   -0.200; -692.000; -473.000
381.573;  200.100; -402.000; -409.000
381.703;  198.700;-1249.000;-1095.000
381.833; -275.500;-1454.000;-1336.000
381.963;  171.600; -134.000;  -87.000
382.093; 1767.400; -925.000; -909.000
382.223;  477.400; -713.000; -602.000
382.353;  -66.600; -801.000; -608.000
382.482;  394.600;-1091.000; -964.000
382.612;  963.900; -872.000; -644.000
382.742;  479.900; -695.000; -622.000
382.872;  314.700; -565.000; -551.000
383.002;  142.000;  347.000; -132.000
383.131;    8.200; -226.000; -160.000
383.261; -121.100; -706.000; -768.000
383.391;  420.200; -552.000; -377.000
383.521; 5257.800;  451.000;  263.000
383.650; 1141.000; -947.000; -904.000
383.780;  -16.800; -783.000; -656.000
383.910;  248.900;  880.000;  802.000
384.039;    7.600; -794.000; -656.000
384.169;  134.500;-1205.000;-1017.000
384.299;  -99.300; -650.000; -662.000
384.428; -153.900; -764.000; -680.000
384.558;  -74.400; -308.000; -275.000
384.687;  -76.000; -414.000; -334.000
384.817;   48.400;   75.000;   -2.000
384.947;   51.200; -234.000; -141.000
385.076;  492.600;  982.000;  912.000
385.206;  164.900;  369.000;  480.000
385.335;  -79.500; -549.000; -417.000
385.465; -134.600; -655.000; -663.000
385.594;  173.200;  -53.000;  -44.000
385.724;  487.000; -868.000; -838.000
385.853;  124.400; -296.000; -270.000
385.982; 1781.800; -743.000; -787.000
386.112; 2643.700;-1052.000; -871.000
386.241;  132.500; -307.000; -312.000
386.371;   52.100; -174.000;  -87.000
386.500;  -43.400; -825.000; -789.000
386.629;    1.300; -874.000; -817.000
386.759;  120.000;  -43.000;   68.000
386.888;    8.300; -170.000; -250.000
387.017; -123.200; -648.000; -620.000
387.147; -181.100; -771.000; -798.000
387.276;  -19.400; -410.000; -397.000
387.405;   -4.600; -398.000; -342.000
387.535;  -77.400; -452.000; -361.000
387.664; -117.200; -692.000; -620.000
387.793;   76.900; -198.000; -113.000
387.922;  701.700;  255.000;  200.000
388.052;  -14.400; -576.000; -423.000
388.181;   -9.000; -342.000; -472.000
388.310;  -43.300; -889.000; -710.000
388.439; -145.600; -749.000; -742.000
388.568;  269.800;  365.000;  244.000
388.697; 1318.700; -756.000; -653.000
388.826;  199.700; -768.000; -666.000
388.956;   94.400; -285.000; -307.000
389.085;  -63.600; -347.000; -287.000
389.214; -209.800; -842.000; -872.000
389.343;  -96.600; -645.000; -413.000
389.472;  701.300;  126.000;  149.000
389.601;  766.200;   91.000;    0.000
389.730;  -43.400; -568.000; -687.000
389.859;  142.800;  226.000;   46.000
389.988;  216.600; -423.000; -408.000
390.117;  221.000; -168.000; -146.000
390.246;   -9.700; -331.000; -320.000
390.375;  108.600; -673.000; -626.000
390.504; -103.500; -703.000; -621.000
390.633; -175.000; -672.000; -726.000
390.761; -110.000; -732.000; -645.000
390.890;   38.300;   -4.000; -130.000
391.019;  -58.400; -421.000; -441.000
391.148; -201.100; -826.000; -855.000
391.277; -118.900; -576.000; -493.000
391.406; -182.900; -821.000; -805.000
391.534;   78.700;  574.000; -301.000
391.663; -104.000; -583.000; -645.000
391.792; -166.700; -673.000; -701.000
391.921;  131.000;   -3.000;   15.000
392.050;  234.400; -287.000; -228.000
392.178; -173.700;-1206.000;-1061.000
392.307;   98.200; -758.000; -712.000
392.436;   39.500; -427.000; -641.000
392.564;   64.300;  166.000;   -6.000
392.693; -162.400; -860.000; -682.000
392.822;  245.300; -529.000; -534.000
392.950;   54.700; -880.000; -714.000
393.079;  395.000; -188.000; -328.000
393.208;    8.100; -488.000; -511.000
393.336;   15.000; -170.000; -145.000
393.465;  -46.600; -317.000; -199.000
393.593;   41.900;   62.000;   79.000
393.722; -239.700;-1121.000; -916.000
393.850;  -27.900; -188.000;  -61.000
393.979; -266.800; -926.000; -805.000
394.107;  -79.500; -517.000; -537.000
394.236;  -48.800; -570.000; -507.000
394.364;  476.500;  383.000;  206.000
394.493;  601.000; -911.000; -767.000
394.621;  -55.700; -955.000; -916.000
394.750; 1093.000; -873.000; -923.000
394.878; 4638.300; -247.000; -149.000
395.007; 6005.900; -721.000; -807.000
395.135;  380.700; -790.000; -721.000
395.263; -162.200;-1038.000;-1040.000
395.392;   14.100;  -25.000; -107.000
395.520; -175.100; -818.000; -679.000
395.648; -188.700; -865.000; -915.000
395.777;   -5.900; -366.000; -405.000
395.905; -102.500; -449.000; -564.000
396.033;   75.900;  217.000;  172.000
396.162; 1130.600; -399.000; -453.000
396.290;  966.100;  -17.000;   -2.000
396.418;  119.700; -555.000; -514.000
396.546; -154.200; -571.000; -466.000
396.674; -188.000; -850.000; -878.000
396.803;   47.200;  -72.000;  -23.000
396.931;  107.100; -179.000; -199.000
397.059;  -58.000;-1026.000; -989.000
397.187; -228.000;-1026.000; -975.000
397.315; -217.600; -884.000; -649.000
397.443; -139.400; -592.000; -443.000
397.572; -164.600; -578.000; -424.000
397.700;  -68.400; -607.000; -614.000
397.828;   32.300;  120.000;  -90.000
397.956;  -80.800; -508.000; -478.000
398.084; -106.000; -767.000; -626.000
398.212;  104.700;  137.000;  124.000
398.340;   32.700;  -56.000;  159.000
398.468;   33.800; -390.000; -169.000
398.596; -240.900; -993.000; -953.000
398.724; -210.300; -762.000; -767.000
398.852; -292.500;-1024.000; -976.000
398.980; -109.000; -560.000; -560.000
399.108; -107.500; -982.000; -735.000
399.236;   52.700;   13.000;    8.000
399.363;   42.500;  222.000;  196.000
399.491; -115.200; -404.000; -398.000
399.619; -221.400; -829.000; -800.000
399.747; -192.800; -859.000; -771.000
399.875;  167.100;  220.000;  234.000
400.003;  -85.700; -359.000; -284.000
400.130; -156.000; -421.000; -341.000
400.258;  -13.700;  -83.000;   38.000
400.386;  -73.300; -352.000; -168.000
400.514;  -81.900; -526.000; -587.000
400.641; -174.200; -928.000; -802.000
400.769; -248.300; -979.000; -888.000
400.897; -185.500; -838.000; -793.000
401.025;   15.700; -166.000; -152.000
401.152;   74.200;  220.000;   38.000
401.280; -148.900; -430.000; -429.000
401.408; -193.500; -712.000; -576.000
401.535; -201.900; -735.000; -758.000
401.663; -339.800;-1134.000;-1054.000
401.790; -146.600; -514.000; -525.000
401.918;  126.500;  436.000;  405.000
402.046;   21.500;  134.000;  122.000
402.173;   16.200;  -18.000;    7.000
402.301; -107.400; -519.000; -397.000
402.428;  136.000;  528.000;  383.000
402.556; -282.600;-1188.000; -913.000
402.683;  -45.400;  -20.000;   -1.000
402.811;  -41.000;  -37.000; -206.000
402.938;   38.700;   20.000;   27.000
403.066;  221.300; -574.000; -558.000
403.193;  409.700;  299.000;  239.000
403.321;  286.600; -396.000; -574.000
403.448;  442.800;   83.000;   27.000
403.575;  153.300;  -90.000;  -46.000
403.703; -162.900; -732.000; -557.000
403.830; -111.200; -531.000; -496.000
403.957; -252.000;-1117.000;-1023.000
404.085;   20.100;  -61.000; -172.000
404.212;  193.300;  -50.000;   63.000
404.339;  409.600; -566.000; -306.000
404.467; 9263.800; -612.000; -524.000
404.594; 5514.200; -287.000; -227.000
404.721; 1159.300; -869.000; -764.000
404.848;  126.800; -113.000; -202.000
404.976; -172.700; -856.000; -783.000
405.103;   21.200;  -14.000;  -82.000
405.230;   42.800;  190.000;  226.000
405.357;   78.500;  117.000;   44.000
405.484;  440.700;  -49.000;    5.000
405.612;   76.700; -548.000; -563.000
405.739;  -88.600; -488.000; -243.000
405.866;  184.200;  669.000;  385.000
405.993;  -66.000; -398.000; -102.000
406.120; -240.000; -801.000; -887.000
406.247;  -92.400; -323.000; -342.000
406.374;  659.100;  540.000;  629.000
406.501;   63.800; -632.000; -702.000
406.628; -153.900; -621.000; -589.000
406.755; -165.800; -803.000; -620.000
406.882;  -81.100; -228.000; -277.000
407.009; -156.400; -719.000; -628.000
407.136;   76.500; -480.000; -401.000
407.263;   64.400; -939.000; -829.000
407.390; -127.800; -692.000; -614.000
407.517; -308.600;-1139.000;-1187.000
407.644;  -87.500; -332.000; -256.000
407.771; -109.000; -249.000; -287.000
407.898;   70.800;  168.000;  328.000
408.025;  -80.900; -421.000; -313.000
408.151;   53.500;   82.000;  153.000
408.278;  -77.200; -267.000; -216.000
408.405; -215.000; -931.000; -899.000
408.532; -131.600; -549.000; -542.000
408.659; -195.000; -677.000; -648.000
408.785; -339.400;-1298.000;-1170.000
408.912;  -81.100; -412.000; -296.000
409.039; -174.500; -610.000; -686.000
409.166; -193.600; -591.000; -555.000
409.292; -185.700; -571.000; -534.000
409.419; -189.800; -665.000; -649.000
409.546; -131.600; -431.000; -192.000
409.672; -177.400; -713.000; -545.000
409.799;  -26.800;  -36.000;   34.000
409.926;  -18.600; -180.000; -179.000
410.052; -308.000;-1127.000;-1091.000
410.179;  -70.100; -368.000; -392.000
410.305; -101.600; -375.000; -493.000
410.432;  -71.600; -220.000; -333.000
410.558; -149.900; -305.000; -380.000
410.685; -163.300; -688.000; -431.000
410.812; -144.500; -409.000; -588.000
410.938; -243.400; -964.000; -808.000
411.065; -157.500; -671.000; -645.000
411.191;   -8.000; -189.000; -174.000
411.317; -210.000; -823.000; -742.000
411.444;  -86.500; -317.000; -246.000
411.570;  -63.100; -339.000; -294.000
411.697; -186.800; -758.000; -752.000
411.823; -315.600; -989.000; -999.000
411.949;  -15.500;  -56.000;   17.000
412.076; -185.100; -539.000; -519.000
412.202; -199.800; -758.000; -757.000
412.329; -211.900; -798.000; -752.000
412.455; -191.600; -821.000; -657.000
412.581;   13.100;  -15.000;  172.000
412.707; -106.300; -540.000; -457.000
412.834;   51.500;  156.000;  219.000
412.960; -187.800; -785.000; -784.000
413.086; -179.100; -743.000; -701.000
413.212;  289.100;  604.000;  578.000
413.339; -122.100; -685.000; -701.000
413.465;    0.600; -364.000; -310.000
413.591; -196.800; -757.000; -474.000
413.717;  -67.200; -358.000; -366.000
413.843; -260.500; -839.000; -861.000
413.969;  -86.600;  -47.000; -292.000
414.096; -171.700; -679.000; -679.000
414.222;   27.700;  -33.000;   85.000
414.348;  -33.000; -652.000; -385.000
414.474;  116.700;   38.000;  -52.000
414.600;  -27.400; -126.000; -144.000
414.726;   -6.900;  -96.000;  -55.000
414.852;  -70.600; -365.000; -342.000
414.978;   80.700;  104.000;  -18.000
415.104;  112.700;   38.000;   80.000
415.230;   25.200; -329.000; -330.000
415.356;   63.800; -409.000; -514.000
415.482;  302.700;   13.000;  -35.000
415.608;  434.400; -247.000; -323.000
415.734; 1587.200;   67.000;   38.000
415.860;32212.100; -875.000; -767.000
415.986;21153.900; -685.000; -607.000
416.111; 1745.800; -798.000; -652.000
416.237;  372.600; -424.000; -571.000
416.363; 1944.000; -765.000; -733.000
416.489; 6508.400; -324.000; -251.000
416.615;  588.400; -707.000; -742.000
416.741;  -49.500; -677.000; -784.000
416.866; -173.600; -673.000; -736.000
416.992; -205.500; -801.000; -818.000
417.118;  -37.900;  -41.000;  -80.000
417.244; -104.500; -798.000; -531.000
417.369; -152.400; -801.000; -612.000
417.495;    9.400; -325.000; -254.000
417.621; -167.800;-1015.000; -803.000
417.746;   -3.800; -579.000; -572.000
417.872;  107.100; -254.000; -144.000
417.998;   91.100; -515.000; -530.000
418.123; 1755.600;-1073.000; -845.000
418.249; 8426.900; -512.000; -601.000
418.374; 1030.100; -916.000; -824.000
418.500;  144.900; -383.000; -482.000
418.626;  187.100;   70.000;  -59.000
418.751;  173.200; -549.000; -448.000
418.877;  301.100; -637.000; -643.000
419.002; 3140.600; -688.000; -560.000
419.128;19737.600; -930.000; -721.000
419.253; 4328.100; -967.000; -837.000
419.379;  612.500; -391.000; -338.000
419.504;  644.800;  325.000;  415.000
419.629;  816.900; -393.000; -212.000
419.755; 6266.600; -317.000; -254.000
419.880;33466.500;  -98.000;   67.000
420.006;18445.000; -280.000; -221.000
420.131;44994.600; -662.000; -775.000
420.256; 5898.400; -315.000; -316.000
420.382;  795.000; -665.000; -687.000
420.507;   96.900; -649.000; -778.000
420.632;  152.600; -337.000; -339.000
420.758;  308.800; -251.000; -425.000
420.883; -166.100; -876.000; -672.000
421.008; -153.900; -775.000; -619.000
421.133; -128.300; -509.000; -467.000
421.259;  -81.400; -325.000; -259.000
421.384; -235.100; -834.000; -693.000
421.509; -128.000;-1052.000; -862.000
421.634; 1438.900; -936.000; -820.000
421.759;  511.000; -359.000; -327.000
421.885; -117.300; -717.000; -656.000
422.010; -132.100; -673.000; -542.000
422.135; -240.000; -695.000; -727.000
422.260;   87.900;  340.000;  280.000
422.385;  -28.300;   12.000;  -98.000
422.510;   46.800;  151.000;  -26.000
422.635;  109.800;  -87.000;  -43.000
422.760;  127.200; -766.000; -791.000
422.885;  134.700;  -57.000;  -80.000
423.010;  -23.800; -112.000; -169.000
423.135; -170.900; -481.000; -561.000
423.260;  -18.600; -150.000; -245.000
423.385;  159.100;  476.000;  222.000
423.510;   92.300;   71.000;  -22.000
423.635;  137.300;  133.000;   45.000
423.760;  143.000;  383.000;  328.000
423.885;  142.400;  336.000;  391.000
424.010;   49.000;  -68.000;  -13.000
424.135;  -13.700;    5.000;  -33.000
424.259; -145.400; -654.000; -457.000
424.384; -113.200; -279.000; -272.000
424.509;  -49.400; -260.000; -186.000
424.634; -167.800; -761.000; -623.000
424.759;  -79.700; -688.000; -544.000
424.883;  -20.900; -506.000; -527.000
425.008;  260.300; -502.000; -410.000
425.133; 3260.900; -679.000; -653.000
425.258; 1311.900; -517.000; -381.000
425.382; 1447.800; -867.000; -774.000
425.507; 3429.800; -487.000; -543.000
425.632;  552.600; -802.000; -663.000
425.756;  717.500; -256.000; -146.000
425.881;11276.200; -831.000; -857.000
426.006;27806.200; -604.000; -355.000
426.130; 3922.600; -696.000; -508.000
426.255;  513.100; -611.000; -491.000
426.379;  274.600; -189.000; -577.000
426.504;  672.400;  660.000;  544.000
426.629; 6506.400; -519.000; -466.000
426.753; 3983.600;   64.000;  -46.000
426.878;  486.200; -252.000; -288.000
427.002;  208.100; -651.000; -668.000
427.127; 2758.100;  -35.000; -158.000
427.251;18339.200;  372.000;  401.000
427.375; 4633.100; -191.000; -173.000
427.500; 3096.200; -616.000; -610.000
427.624;  912.600; -234.000; -400.000
427.749;  139.000; -216.000; -225.000
427.873;  -81.700; -499.000; -412.000
427.997;  -56.500; -222.000; -230.000
428.122;  222.800;  795.000;  703.000
428.246;  166.200;  433.000;  434.000
428.371; -230.600; -869.000; -773.000
428.495; -163.400; -624.000; -646.000
428.619;  -10.300; -186.000; -117.000
428.743;   70.300;   65.000;  132.000
428.868;  -10.200; -732.000; -643.000
428.992; 1866.000; -219.000; -326.000
429.116;  678.700; -329.000; -357.000
429.240;  387.900;  419.000;  426.000
429.365;   -3.000; -454.000; -574.000
429.489;  -81.500; -638.000; -647.000
429.613;   82.100; -236.000; -177.000
429.737;   61.600; -563.000; -432.000
429.861;  479.600; -247.000; -133.000
429.985; 9249.300; -425.000; -305.000
430.109; 9128.300; -770.000; -908.000
430.234; 1038.600;   76.000;  -50.000
430.358;   97.300; -250.000; -160.000
430.482; -110.000; -672.000; -564.000
430.606; -106.200; -655.000; -375.000
430.730;   32.200; -437.000; -388.000
430.854;   46.900; -909.000; -835.000
430.978; -145.200; -795.000; -764.000
431.102; -114.400; -499.000; -422.000
431.226; -221.700; -874.000; -815.000
431.350;  103.600;  345.000;  422.000
431.474; -114.000; -661.000; -373.000
431.597; -283.900;-1060.000; -848.000
431.721; -121.200; -276.000; -267.000
431.845; -213.300; -704.000; -472.000
431.969; -117.800; -304.000; -349.000
432.093; -128.100; -395.000; -317.000
432.217;    7.100;   32.000;   82.000
432.341; -125.900; -523.000; -518.000
432.464;   57.700;   96.000;   40.000
432.588;  238.800; -401.000; -329.000
432.712;  173.100;  -52.000;  -52.000
432.836;  133.000;  213.000;  263.000
432.959;   -3.300; -372.000; -311.000
433.083;  175.700;   11.000;    2.000
433.207;  710.000;  285.000;  930.000
433.330; 8541.900; -391.000; -200.000
433.454; 9481.800; -654.000; -638.000
433.578; 5609.800;  583.000;  278.000
433.701;  909.900; -623.000; -675.000
433.825;  175.500; -292.000; -299.000
433.949;  223.900;   28.000;  -72.000
434.072;   54.500; -410.000; -323.000
434.196;   -3.300; -309.000; -117.000
434.319; 7753.500;25482.000;25124.000
434.443; 1199.500; -656.000; -603.000
434.566; 4200.400;  281.000;   62.000
434.690;  611.400; -637.000; -383.000
434.813;  111.800; -251.000; -173.000
434.937; -137.100; -569.000; -696.000
435.060;  -67.600; -423.000; -332.000
435.184;  333.700; -492.000; -217.000
435.307;  169.400;  159.000;  102.000
435.431;  -10.100;  -40.000;   24.000
435.554;  -87.200; -399.000; -240.000
435.677; -134.200; -350.000; -258.000
435.801;  -16.900;  -25.000;   49.000
435.924;  -13.900;    1.000;  -67.000
436.048; -254.100;-1019.000; -732.000
436.171;  -67.400; -240.000;  -66.000
436.294;  -48.100; -248.000; -229.000
436.417;  133.100; -963.000; -849.000
436.541; -132.000; -814.000; -840.000
436.664;  -81.800; -242.000; -316.000
436.787;    6.700;   13.000;  113.000
436.910; -212.300; -792.000; -422.000
437.034;   39.700;  142.000;  143.000
437.157;   89.700;  -11.000;    0.000
437.280; -100.400; -392.000; -292.000
437.403; -202.600; -982.000; -869.000
437.526;  789.800; -903.000; -865.000
437.649; 2666.600; -505.000; -332.000
437.772;  301.100; -692.000; -540.000
437.896;  230.800;  700.000;  544.000
438.019; -126.400; -758.000; -503.000
438.142; -127.800; -596.000; -506.000
438.265;  -52.200; -639.000; -670.000
438.388;  655.300; -520.000; -410.000
438.511;   70.700; -597.000; -394.000
438.634;  -58.800; -247.000; -125.000
438.757; -214.000; -693.000; -619.000
438.880;  -28.400;  -34.000;  -57.000
439.003; -126.100; -417.000; -437.000
439.126;  -62.300; -287.000; -167.000
439.248;  -80.300;  -98.000; -139.000
439.371;  -25.200;    9.000;  -53.000
439.494;   96.700;  510.000;  439.000
439.617;  -57.400;   65.000;  -88.000
439.740; -286.600; -968.000; -816.000
439.863; -239.500; -755.000; -595.000
439.986; -190.200; -476.000; -431.000
440.108;  -39.200; -161.000; -112.000
440.231; -310.200; -950.000; -836.000
440.354;  -37.900;  -64.000; -150.000
440.477;  -20.200; -566.000; -542.000
440.599;  -24.300; -200.000; -225.000
440.722; -179.700; -709.000; -586.000
440.845;  195.600;  751.000;  928.000
440.968; -143.100; -415.000; -311.000
441.090;  -81.200; -199.000;  -33.000
441.213; -280.400;-1021.000; -825.000
441.336;  -32.900; -159.000;   -5.000
441.458;  -93.000; -549.000; -396.000
441.581; -179.400; -628.000; -629.000
441.703;  -76.200; -152.000;   13.000
441.826; -171.400; -557.000; -400.000
441.948;   -6.800;   56.000;   51.000
442.071;  129.000;  555.000;  424.000
442.193; -228.300; -531.000; -485.000
442.316;   82.400;  152.000;   97.000
442.438;  111.500; -233.000;  -10.000
442.561;  154.700;  272.000;  262.000
442.683;  666.900; -809.000; -522.000
442.806; 1354.500;   -8.000;   74.000
442.928;  -65.400; -859.000; -604.000
443.051; -101.800; -577.000; -373.000
443.173; -130.700; -341.000; -339.000
443.295; -122.800; -263.000; -371.000
443.418;  -78.300; -321.000;  -29.000
443.540;   34.300; -106.000;   -4.000
443.662; -176.700; -563.000; -465.000
443.785;    8.800;  335.000;  199.000
443.907; -169.500; -362.000; -208.000
444.029; -189.100; -767.000; -494.000
444.152; -231.100; -644.000; -554.000
444.274;  -15.100;  -18.000;  -24.000
444.396; -169.000; -461.000; -221.000
444.518; -181.500; -691.000; -454.000
444.640; -152.300; -268.000; -111.000
444.763;   27.900;  388.000;  249.000
444.885; -189.800; -432.000; -392.000
445.007;  -37.700;   35.000;   86.000
445.129; -192.400; -610.000; -515.000
445.251; -170.300; -372.000; -439.000
445.373; -203.600; -537.000; -386.000
445.495;   49.900;  242.000;  350.000
445.617;  140.200;  853.000;  753.000
445.739;  -78.000; -215.000;  -97.000
445.861;  -48.300; -245.000; -112.000
445.984;  -48.100; -267.000; -101.000
446.105;  248.000; -418.000; -251.000
446.227;  737.900; -176.000;  -19.000
446.349;  -62.400; -358.000; -249.000
446.471; -191.200; -615.000; -448.000
446.593;  -88.900; -316.000;   19.000
446.715;   36.900;  -67.000;   41.000
446.837;  197.800;  697.000;  832.000
446.959; -156.100; -457.000; -478.000
447.081; -226.800; -628.000; -518.000
447.203;  187.300;  862.000;  834.000
447.325; -102.500; -270.000;   42.000
447.446;   30.200;  286.000;  530.000
447.568; -243.400; -921.000; -803.000
447.690; -119.500; -236.000; -245.000
447.812; -233.000; -798.000; -519.000
447.933;    8.200;  155.000;  127.000
448.055;  -69.000; -306.000; -261.000
448.177;  255.000;   31.000;   79.000
448.299;   22.600; -935.000; -727.000
448.420;   91.100;  -25.000;  159.000
448.542;  -34.500;   -3.000;   33.000
448.664;   33.800;  109.000;  322.000
448.785;    9.100;  265.000;   83.000
448.907; -114.900; -614.000; -353.000
449.028;  -88.600; -771.000; -471.000
449.150;  138.700;  492.000;  589.000
449.272; -323.300;-1044.000; -913.000
449.393;  104.200;  612.000;  694.000
449.515; -211.500; -634.000; -581.000
449.636;  -81.100; -264.000; -155.000
449.758;  206.200;  763.000;  622.000
449.879; -160.400; -498.000; -396.000
450.001;  -91.100; -149.000;  -49.000
450.122;  -15.500;  -95.000;  162.000
450.244;    9.600;   37.000;  364.000
450.365; -139.100; -495.000; -301.000
450.486;   11.300;   80.000;  268.000
450.608;   90.100;  393.000;  326.000
450.729;  220.400;  578.000;  645.000
450.850;   28.700; -574.000; -466.000
450.972; 1308.700; -552.000; -389.000
451.093; 8174.200;  190.000;  588.000
451.214; 3097.400; -516.000; -337.000
451.336;  655.900;  773.000;  579.000
451.457;  128.900;  264.000;  393.000
451.578;  -65.300; -118.000;  -74.000
451.699; -180.500; -546.000; -540.000
451.821;  -69.100; -284.000;  -50.000
451.942;   25.900;  278.000;  285.000
452.063;   94.500;  228.000;  419.000
452.184;  931.300;  -54.000;  -49.000
452.305; 1728.300;  103.000;  170.000
452.427;  179.100; -549.000; -301.000
452.548;   -0.400;   23.000;   79.000
452.669;  -64.700; -257.000;  -89.000
452.790;  -30.400;    3.000;  -18.000
452.911;   26.700;  195.000;  259.000
453.032;  -88.300; -289.000;  -60.000
453.153;  -35.700;  -29.000;   81.000
453.274;  195.200;  737.000;  868.000
453.395;  -35.800;  -51.000;  175.000
453.516;  330.500; 1317.000; 1388.000
453.637;  -88.900; -205.000; -150.000
453.758;  -59.700;   15.000;   69.000
453.879; -217.000; -462.000; -250.000
454.000;  197.500; 1086.000;  948.000
454.121; -197.200; -554.000; -326.000
454.242; -185.600; -599.000; -383.000
454.362;  -39.100;  -99.000;  114.000
454.483;  -49.500; -309.000; -229.000
454.604;  145.900;  512.000;  580.000
454.725; -221.300; -627.000; -555.000
454.846; -217.500; -474.000; -406.000
454.967;   -1.700;  230.000;  539.000
455.087;  -24.500;  179.000;  153.000
455.208;  110.200;  554.000;  856.000
455.329;  -54.500;  -22.000;   82.000
455.450;  118.600;  473.000;  633.000
455.570; -124.600; -234.000; -211.000
455.691;   -8.700;  201.000;  407.000
455.812; -152.400; -270.000;  -92.000
455.932;  -63.400;  107.000;  -97.000
456.053; -111.800;   36.000;   24.000
456.173; -173.500; -433.000; -355.000
456.294; -228.000; -476.000; -303.000
456.415;  -30.200;  -73.000;   70.000
456.535;  -38.400;  297.000;  273.000
456.656;  -36.700;  132.000;  240.000
456.776;  -87.600;    3.000;  298.000
456.897;   42.700;  308.000;  513.000
457.017;  -62.700; -153.000;   -3.000
457.138; -173.800; -402.000; -249.000
457.258;   29.200;  263.000;  224.000
457.379;   45.100;  509.000;  521.000
457.499;   38.700;  443.000;  432.000
457.620; -213.500; -407.000; -231.000
457.740; -110.500; -132.000;  -11.000
457.860;  -91.800;   87.000;   44.000
457.981;  -42.500;  132.000;  124.000
458.101;  -92.000;  -89.000;   40.000
458.221;   55.100;  336.000;  402.000
458.342;  -54.700;   -4.000;  -37.000
458.462;   93.300;  617.000;  352.000
458.582;   -5.900; -302.000; -294.000
458.703;   55.400;  303.000;  154.000
458.823;  -16.800;   22.000;  163.000
458.943;  106.700;  341.000;  467.000
459.063;   -4.700; 1124.000;  192.000
459.183;  -11.600;  328.000;  313.000
459.304;   54.200;  315.000;  517.000
459.424;  -75.900; -246.000;  -89.000
459.544;  654.000;  388.000;  764.000
459.664; 1338.700;  499.000;  506.000
459.784;  536.100; 1004.000; 1175.000
459.904;  138.400;  867.000;  744.000
460.024;  194.500;  867.000;  684.000
460.144;   37.400;  449.000;  554.000
460.264;    1.000;  515.000;  327.000
460.385; -136.300; -145.000; -119.000
460.505;  172.200;  905.000;  858.000
460.625; -121.900;  -17.000;  -68.000
460.745;   15.800;  396.000;  541.000
460.864;  -38.400;  153.000;  469.000
460.984;   44.100;  499.000;  573.000
461.104;  352.000; 1656.000; 1775.000
461.224;   89.300;  657.000;  650.000
461.344;    1.400;  431.000;  360.000
461.464;   -3.800;  258.000;  513.000
461.584;   28.900;  283.000;  466.000
461.704;  -44.200;   58.000;  108.000
461.824;  -47.700;  238.000;  259.000
461.943;   -7.200;  191.000;  130.000
462.063;  -51.100;    2.000;  324.000
462.183;  103.900;  639.000;  717.000
462.303;  306.200; 1678.000; 1230.000
462.422;  129.500;  781.000;  840.000
462.542;   -2.700;  271.000;  391.000
462.662;   86.500;  353.000;  380.000
462.782;  456.200;  833.000;  572.000
462.901;  814.300;  545.000;  717.000
463.021;  553.700; 1702.000; 1638.000
463.141;   60.700;  337.000;  770.000
463.260;   37.600;  614.000;  474.000
463.380;  122.600;  902.000;  884.000
463.499;  -24.100;  342.000;  332.000
463.619;  -16.700;  581.000;  559.000
463.738;  337.500; 1644.000;  903.000
463.858;   76.600;  657.000;  811.000
463.978;   27.400;  542.000;  396.000
464.097;  160.100;  921.000; 1114.000
464.217;  301.500; 1196.000; 1143.000
464.336;  301.900; 1068.000; 1130.000
464.455;  -23.400;  328.000;  659.000
464.575;   96.600;  597.000;  602.000
464.694;  337.000; 1204.000; 1179.000
464.814;  296.900; 1190.000; 1138.000
464.933;  214.500; 1095.000; 1027.000
465.052;  249.700; 1412.000; 1054.000
465.172;  189.900;  922.000;  799.000
465.291;  325.800; 1376.000; 1320.000
465.410;   90.400;  462.000;  735.000
465.530;  234.100; 1355.000; 1310.000
465.649;  240.700; 1209.000; 1273.000
465.768;  320.600; 1673.000; 1508.000
465.888;  160.000;  941.000; 1174.000
466.007;  258.000; 1335.000; 1440.000
466.126;   65.100;  721.000;  641.000
466.245;  147.000; 1176.000; 1187.000
466.364;  104.800;  950.000; 1060.000
466.484;  207.200; 1024.000; 1213.000
466.603;  134.600; 1101.000; 1222.000
466.722;  254.100; 1490.000; 1769.000
466.841;  218.000; 1151.000; 1401.000
466.960;  136.400; 1069.000;  972.000
467.079;  375.200; 1971.000; 1786.000
467.198;  192.800; 1238.000; 1181.000
467.317;  260.200; 1768.000; 1162.000
467.436;  198.400; 1709.000; 1261.000
467.555;  320.200; 1796.000; 1746.000
467.674;  181.400; 1227.000; 1329.000
467.793;  171.100; 1376.000; 1374.000
467.912;  278.400; 1658.000; 1539.000
468.031;  330.400; 2038.000; 1930.000
468.150;  307.100; 1842.000; 1837.000
468.269;  464.400; 2313.000; 2090.000
468.388;  467.900; 2168.000; 2339.000
468.507;  585.600; 2884.000; 2903.000
468.626;  616.600; 2555.000; 2541.000
468.744;  332.400; 2018.000; 2174.000
468.863;  455.700; 2312.000; 2523.000
468.982;  255.700; 1503.000; 1555.000
469.101;  489.200; 2788.000; 2692.000
469.220;  419.900; 2333.000; 2176.000
469.338;  603.200; 2935.000; 3051.000
469.457;  460.300; 2719.000; 2545.000
469.576;  759.700; 3953.000; 3784.000
469.695;  559.000; 2877.000; 3066.000
469.813;  903.700; 4148.000; 4192.000
469.932;  899.500; 4255.000; 4485.000
470.051;  850.100; 4075.000; 4161.000
470.169; 1671.300; 4470.000; 4338.000
470.288; 2641.900; 4700.000; 4809.000
470.406; 1610.000; 5059.000; 5194.000
470.525; 1332.900; 6101.000; 5787.000
470.644; 1318.900; 6847.000; 6794.000
470.762; 1702.300; 8397.000; 7873.000
470.881; 1928.700; 8651.000; 8464.000
470.999; 2181.400; 9685.000; 9151.000
471.118; 2240.800;11174.000;10711.000

