
Integration time [ms]: 100.000
Averaging Nr. [scans]: 40
Smoothing Nr. [pixels]: 0
Data measured with spectrometer [name]: 2101012U2
Wave   ;Sample   ;Dark     ;Reference
[nm]   ;[counts] ;[counts] ;[counts] 

197.733;   59.350;  516.000;  404.000
197.879;  -82.675; -610.000; -634.000
198.025;  -56.025; -475.000; -420.000
198.171;  -76.675; -602.000; -612.000
198.317;  -26.325; -401.000; -316.000
198.463;  -53.350; -655.000; -404.000
198.609;   23.100;  181.000; -137.000
198.755;  -76.625; -644.000; -410.000
198.901;  -71.400; -505.000; -424.000
199.047;  -60.300; -615.000; -488.000
199.193;  -40.800; -230.000; -468.000
199.339;  -43.450; -222.000; -369.000
199.485;   35.250;  330.000;  271.000
199.631;   18.475;  227.000;  310.000
199.777;  -43.325; -466.000; -398.000
199.923;  -54.175; -610.000; -424.000
200.069;   -8.025; -141.000;  -58.000
200.215;   54.700;  128.000;  453.000
200.361;   42.125;  243.000;  477.000
200.507;  -59.175; -600.000; -373.000
200.653;  -35.950; -371.000; -194.000
200.798;  -27.550; -215.000; -125.000
200.944;   -4.825; -146.000;  -41.000
201.090;   46.800;   61.000;  222.000
201.236;  -15.325; -116.000; -158.000
201.382;  126.275;  874.000;  903.000
201.528;   -5.425;  -58.000;  -48.000
201.674;  -55.375; -386.000; -293.000
201.819;  -57.750; -540.000; -439.000
201.965;  -84.250; -699.000; -447.000
202.111;  -25.975; -273.000; -226.000
202.257;  -36.150; -250.000; -238.000
202.402;  -12.800;   13.000;  -36.000
202.548;  -27.400; -169.000; -116.000
202.694;   87.275;  410.000; -183.000
202.840;  -63.225; -603.000; -531.000
202.985;  -73.300; -681.000; -639.000
203.131; -102.125; -832.000; -666.000
203.277;  -26.525; -199.000; -262.000
203.423;  -51.675; -434.000; -520.000
203.568;  -39.525; -462.000; -237.000
203.714;  -59.900; -535.000; -542.000
203.860;  -75.675; -682.000; -641.000
204.005;   23.425;  112.000;  167.000
204.151;   66.975;  561.000;  556.000
204.296;  -39.800; -354.000; -221.000
204.442;  -65.250; -600.000; -547.000
204.588;  -61.850; -592.000; -579.000
204.733;   12.650;  178.000;  168.000
204.879; -126.500;-1018.000; -822.000
205.025;    8.750;  -99.000;  126.000
205.170;   -3.575;  -17.000;   94.000
205.316;   83.575;  438.000;  661.000
205.461;  -78.750; -698.000; -554.000
205.607;   87.025;  609.000;  665.000
205.752;  -62.175; -626.000; -551.000
205.898;  -55.100; -501.000; -391.000
206.043;  -67.225; -578.000; -506.000
206.189;  -28.575; -243.000; -285.000
206.334;   75.750;  554.000;  606.000
206.480;   76.175;  409.000;  239.000
206.625;  -69.225; -529.000; -552.000
206.771;  -33.975; -451.000; -373.000
206.916;  -23.425; -210.000; -537.000
207.062;  -82.275; -545.000; -591.000
207.207;  -63.350; -546.000; -443.000
207.353;   46.650;  185.000;  460.000
207.498;   33.775;  196.000;   85.000
207.643;  -63.250; -501.000; -370.000
207.789; -122.825;-1069.000; -910.000
207.934;  -92.125; -665.000; -713.000
208.080;  -20.250; -154.000;   66.000
208.225;   -0.525;  -22.000;  -57.000
208.370;  -78.825; -727.000; -619.000
208.516;  -85.000; -741.000; -487.000
208.661;  -20.250; -127.000;  -69.000
208.806;  -13.675; -165.000; -171.000
208.952; -114.100;-1044.000; -731.000
209.097;   78.325;  378.000;  349.000
209.242;  -38.250; -307.000; -382.000
209.387;   70.925;  392.000;  350.000
209.533;  -51.550; -321.000; -350.000
209.678;   91.825;  472.000;  543.000
209.823;  -49.200; -408.000; -310.000
209.969; -107.100; -860.000; -757.000
210.114; -103.900; -907.000; -719.000
210.259; -116.525; -939.000; -889.000
210.404;   10.675; -171.000;  103.000
210.549;   10.700;  108.000;    3.000
210.695;   -5.050;   -3.000;  -95.000
210.840;   24.825;   94.000;   67.000
210.985;  -56.775; -484.000; -303.000
211.130;   68.825;  268.000;  406.000
211.275;   33.050;  207.000;  199.000
211.420;  -59.475; -300.000; -289.000
211.566;  -62.000; -536.000; -489.000
211.711;   13.575;  218.000;  157.000
211.856;  -66.575; -545.000; -519.000
212.001;    4.025;  151.000;   44.000
212.146;   23.650;  153.000;   49.000
212.291;  -20.050; -210.000; -186.000
212.436;  -20.625; -280.000;   -6.000
212.581;  -74.950; -685.000; -653.000
212.726;  -64.825; -487.000; -538.000
212.871;  -48.100; -552.000; -217.000
213.016; -164.225;-1172.000;-1029.000
213.161;   56.125;  406.000;  291.000
213.306;  -61.475; -435.000; -577.000
213.451; -100.950; -778.000; -689.000
213.596;  -40.325; -455.000; -347.000
213.741;  -61.025; -448.000; -538.000
213.886;  -68.525; -498.000; -517.000
214.031;  -34.325; -294.000; -124.000
214.176;  -51.175; -408.000; -341.000
214.321;  -25.600; -296.000; -157.000
214.466;  -13.975; -163.000;  -43.000
214.611;  -18.075;  -61.000;  -10.000
214.756; -113.025; -948.000; -858.000
214.901;  -15.650; -388.000; -226.000
215.046; -118.800; -797.000; -825.000
215.191;   -0.500;  128.000;   35.000
215.336;  -20.975; -157.000;  -19.000
215.480;  -77.700; -684.000; -505.000
215.625;   -7.100; -175.000;  -19.000
215.770;  -80.825; -757.000; -662.000
215.915;   -6.375;   -5.000;  -97.000
216.060;   -0.450; -113.000;  -21.000
216.205;  -86.725; -731.000; -779.000
216.349;  -76.325; -470.000; -533.000
216.494; -127.125; -939.000; -867.000
216.639; -112.200; -823.000; -888.000
216.784;  -84.450; -577.000; -525.000
216.929;   39.425;  392.000;  281.000
217.073;   -1.725; -244.000;  -31.000
217.218;   12.825;   78.000;  -47.000
217.363;  -82.650; -656.000; -618.000
217.507;  -86.000; -623.000; -588.000
217.652; -110.850; -845.000; -874.000
217.797;  -96.075; -708.000; -659.000
217.942; -109.875; -856.000; -720.000
218.086;   74.150;  608.000;  539.000
218.231;  -17.425; -174.000;  -26.000
218.376;  -29.950; -337.000; -229.000
218.520;   -8.075;  -41.000;   96.000
218.665;  -27.875; -338.000; -204.000
218.810;  -25.300; -275.000; -233.000
218.954;    4.725;  201.000;   35.000
219.099; -110.375; -713.000; -963.000
219.243;  -60.075; -589.000; -554.000
219.388;  -26.900; -264.000; -136.000
219.532;   -1.475; -116.000; -116.000
219.677;  -69.125; -564.000; -521.000
219.822;    3.350;   33.000;   89.000
219.966;    4.775;   17.000;  -99.000
220.111;  -36.425; -328.000;  -40.000
220.255;  -85.025; -797.000; -750.000
220.400;  -18.000; -180.000; -146.000
220.544;  -63.675; -516.000; -450.000
220.689;  -53.800; -422.000; -451.000
220.833;   -7.625; -123.000;  -58.000
220.978;  -44.500; -393.000; -563.000
221.122;   24.725;  319.000;  307.000
221.267; -109.325; -906.000; -837.000
221.411;  -61.450; -478.000; -394.000
221.555;   -5.350; -104.000;  -23.000
221.700;  -49.325; -329.000; -222.000
221.844;   29.725;  255.000;  272.000
221.989;  -38.600; -328.000; -311.000
222.133;  -32.375; -289.000; -307.000
222.277;   -2.050;    5.000;   78.000
222.422;   18.100;  227.000;  113.000
222.566;  -33.675; -381.000; -214.000
222.711;  -50.725; -414.000; -479.000
222.855;  -79.850; -643.000; -586.000
222.999;  -84.175; -642.000; -717.000
223.144;  -26.450; -195.000; -194.000
223.288;   48.175;  423.000;  251.000
223.432;   41.125;  184.000;  230.000
223.576;   20.200;  152.000;  -21.000
223.721;   35.850;  364.000;  273.000
223.865;  -49.000; -472.000; -475.000
224.009;  258.875; 1673.000; 1631.000
224.153;  -90.850; -660.000; -671.000
224.298;  -62.025; -531.000; -489.000
224.442;  -18.675;  -74.000;  -33.000
224.586;   -6.950; -169.000; -106.000
224.730; -107.650; -858.000; -670.000
224.875; -109.100; -739.000; -688.000
225.019;   14.550;  102.000;  188.000
225.163;   68.850;  208.000;  341.000
225.307;   27.125;   97.000;  -91.000
225.451;   62.025;  360.000;  481.000
225.595;   14.325;  264.000;  176.000
225.739;  -11.850; -170.000;  -94.000
225.884;    2.200;   86.000;    5.000
226.028;  -98.650; -760.000; -626.000
226.172;  -35.275; -260.000; -273.000
226.316; -116.875; -941.000; -902.000
226.460;  -75.750; -645.000; -493.000
226.604;  -50.150; -406.000; -400.000
226.748; -102.775; -836.000; -733.000
226.892;  -37.925; -227.000; -181.000
227.036;  -48.950; -537.000; -447.000
227.180;  -43.675; -551.000; -375.000
227.324;  -63.575; -561.000; -580.000
227.468; -110.225; -819.000; -717.000
227.612;    3.225;  242.000;  -28.000
227.756;  -97.450; -845.000; -698.000
227.900;   44.450;  342.000;  441.000
228.044;  -40.925; -509.000; -290.000
228.188;   57.525;  448.000;  568.000
228.332;  -83.050; -546.000; -472.000
228.476;  -44.500; -223.000; -149.000
228.620;  -18.025; -210.000; -150.000
228.764;   75.450;  431.000;  349.000
228.908;  -13.875; -155.000;   30.000
229.052;  -58.150; -615.000; -528.000
229.195;   -2.525; -172.000;   13.000
229.339;  -21.950; -235.000; -305.000
229.483;  -17.725;    5.000; -162.000
229.627;   -0.775; -156.000;  139.000
229.771;  -49.225; -218.000; -294.000
229.915;   14.775;  230.000;   79.000
230.059;  -87.775; -648.000; -663.000
230.202;  -35.725; -370.000; -317.000
230.346;  -21.900; -107.000;  107.000
230.490;  -57.775; -489.000; -521.000
230.634; -108.425; -736.000; -553.000
230.777;   72.625;  478.000;  509.000
230.921;  -52.625; -450.000; -359.000
231.065;  -50.800; -246.000; -286.000
231.209;   34.050;  261.000;  265.000
231.352;   17.750;   54.000;   40.000
231.496;   27.900;  568.000;  188.000
231.640;  -80.150; -693.000; -621.000
231.783;   55.600;  546.000;  525.000
231.927;  -46.625; -294.000; -365.000
232.071; -111.875; -962.000; -736.000
232.214; -111.250; -980.000; -764.000
232.358; -106.775; -683.000; -599.000
232.502;   -1.050;  -19.000;    7.000
232.645; -134.675;-1090.000; -927.000
232.789;  -24.525; -257.000; -218.000
232.933;  -47.775; -407.000; -224.000
233.076; -143.475;-1038.000; -897.000
233.220; -106.350; -752.000; -777.000
233.363;  -67.375; -669.000; -477.000
233.507;   62.675;  371.000;  129.000
233.650;  -87.575; -764.000; -834.000
233.794;   42.600;  438.000;  461.000
233.938;  -56.800; -530.000; -362.000
234.081;  -13.450;  -93.000;   31.000
234.225;  -65.950; -631.000; -539.000
234.368; -116.225; -773.000; -723.000
234.512;  -46.450; -385.000; -299.000
234.655;  -87.650; -582.000; -555.000
234.798;  -69.625; -493.000; -466.000
234.942; -121.100; -884.000;-1002.000
235.085;  -78.000; -651.000; -443.000
235.229;  -57.825; -405.000; -410.000
235.372;  -61.625; -247.000; -191.000
235.516;  -51.800; -397.000; -321.000
235.659;   11.000;   92.000;  121.000
235.802;  -11.925;  -38.000;  -22.000
235.946;   28.025;  335.000;  215.000
236.089;   30.575;  126.000;  250.000
236.233;   42.875;  275.000;  298.000
236.376;  -39.625; -235.000; -378.000
236.519;  -58.575; -297.000; -319.000
236.663;  -27.700; -215.000; -117.000
236.806; -144.400;-1029.000; -999.000
236.949;   81.175;  543.000;  431.000
237.092;   36.400;  412.000;  391.000
237.236;  -71.875; -589.000; -502.000
237.379;   64.875;  352.000;  428.000
237.522; -123.875; -879.000; -768.000
237.666;  -22.075; -271.000;   18.000
237.809; -125.200; -851.000; -823.000
237.952;   35.775;  469.000;  271.000
238.095;  -79.950; -447.000; -442.000
238.238;   70.475;  688.000;  700.000
238.382;    1.500;  166.000;  103.000
238.525;  -71.750; -598.000; -511.000
238.668; -127.400;-1060.000; -985.000
238.811;  -82.300; -638.000; -643.000
238.954;  -44.100; -483.000; -334.000
239.097;   86.700;  617.000;  664.000
239.241;   38.075;  394.000;  326.000
239.384;  -30.775; -254.000; -214.000
239.527;  -66.050; -424.000; -224.000
239.670; -142.325; -994.000;-1091.000
239.813; -101.425; -696.000; -658.000
239.956;   76.300;  579.000;  473.000
240.099; -103.350; -778.000; -725.000
240.242;   51.925;  428.000;  432.000
240.385;   38.725;  466.000;  450.000
240.528;  -85.875; -706.000; -473.000
240.671;   22.775;  189.000;  134.000
240.814;  -37.225; -441.000; -158.000
240.957;  -90.525; -767.000; -578.000
241.100;  -94.125; -779.000; -755.000
241.243; -141.825;-1234.000; -893.000
241.386;  -62.500; -508.000; -379.000
241.529;  -78.475; -735.000; -547.000
241.672;  -65.525; -566.000; -495.000
241.815; -101.575; -832.000; -808.000
241.958;  -31.925; -125.000; -182.000
242.101;  -82.250; -545.000; -390.000
242.244;  -48.125; -270.000; -325.000
242.387;  -44.075; -304.000; -246.000
242.530;   55.150;  470.000;  134.000
242.673;  -35.200; -381.000; -309.000
242.815; -119.675; -925.000; -899.000
242.958;  -59.500; -482.000; -381.000
243.101;   22.025;  132.000;  187.000
243.244;  -77.075; -564.000; -521.000
243.387;  -47.675; -313.000; -316.000
243.530;  -95.025; -657.000; -674.000
243.672;  -18.100;   43.000;  -92.000
243.815;  -43.550; -355.000; -283.000
243.958;    3.975;   98.000;  -26.000
244.101;    1.000;   59.000;  -16.000
244.243;  -20.325;  -47.000;  101.000
244.386; -104.050; -761.000; -630.000
244.529;  -20.250; -132.000; -139.000
244.672; -157.400;-1154.000; -951.000
244.814;  -88.125; -621.000; -794.000
244.957;  -43.675; -380.000; -304.000
245.100;  -81.225; -489.000; -489.000
245.242;  -45.025; -387.000; -374.000
245.385;  -23.325;  -59.000;  -39.000
245.528; -105.950; -871.000; -705.000
245.670;   83.025;  612.000;  634.000
245.813;  -76.825; -599.000; -547.000
245.956;  -30.375; -324.000; -275.000
246.098;  -79.050; -508.000; -650.000
246.241;    1.200;  194.000;   48.000
246.383;  -12.150; -119.000;  -73.000
246.526;  -87.950; -454.000; -525.000
246.669; -121.600; -889.000; -780.000
246.811;    9.750;  172.000;   -1.000
246.954;  -59.175; -512.000; -426.000
247.096;  -18.825;  -84.000;   -6.000
247.239;  -55.400; -482.000; -445.000
247.381;  -83.750; -647.000; -488.000
247.524;   83.075;  645.000;  679.000
247.666;  -13.625;   58.000;   11.000
247.809; -111.525; -887.000; -691.000
247.951;   -2.950;  -75.000;  138.000
248.094;   36.275;  432.000;  308.000
248.236; -159.150;-1262.000;-1238.000
248.378;   17.900; -356.000;  -81.000
248.521;  -22.275; -334.000; -337.000
248.663;  -38.525; -236.000; -267.000
248.806;  -23.875; -300.000; -266.000
248.948;  -78.350; -886.000; -763.000
249.090;  -33.200; -428.000; -398.000
249.233;  -45.525; -344.000; -381.000
249.375;  -73.850; -474.000; -451.000
249.518;  -25.025;  -83.000; -133.000
249.660;   -9.925; -103.000;    3.000
249.802; -168.300;-1303.000;-1189.000
249.945;  -81.875; -612.000; -540.000
250.087; -118.525; -834.000; -768.000
250.229;  -46.400; -362.000; -480.000
250.371;  -73.300; -494.000; -439.000
250.514;  -51.200; -310.000; -244.000
250.656;  -53.950;   69.000;  102.000
250.798; -122.300; -849.000; -800.000
250.940;  -56.825; -322.000; -322.000
251.083;  -41.100; -335.000; -111.000
251.225;   57.900;  338.000;  310.000
251.367;  -39.700; -274.000; -373.000
251.509;  -33.300; -265.000; -210.000
251.651; -104.025; -731.000; -671.000
251.794;   54.575;  538.000;  632.000
251.936; -107.600; -821.000; -747.000
252.078;  -87.025; -540.000; -461.000
252.220;  -80.400; -645.000; -477.000
252.362;   89.400;  344.000;  462.000
252.504;  -65.225; -677.000; -584.000
252.646; -106.875; -875.000; -722.000
252.788;   -8.675;   14.000; -128.000
252.931;  -35.150; -257.000; -253.000
253.073;  -49.625; -376.000; -317.000
253.215;    3.250;  141.000;  122.000
253.357;  -20.325;   82.000; -153.000
253.499;  -46.475; -374.000; -234.000
253.641;  -88.600; -749.000; -594.000
253.783;  -90.550; -609.000; -527.000
253.925;  -87.575; -586.000; -591.000
254.067; -110.625; -744.000; -667.000
254.209;  -20.725; -391.000; -259.000
254.351; -133.600; -865.000; -883.000
254.493;  -64.300; -441.000; -417.000
254.635; -115.150; -936.000; -818.000
254.777;  -89.250; -752.000; -687.000
254.918;  -63.225; -512.000; -430.000
255.060;  -69.575; -551.000; -395.000
255.202;  -58.500; -473.000; -261.000
255.344;  -77.850; -658.000; -455.000
255.486;  -64.850; -471.000; -406.000
255.628; -103.475; -780.000; -781.000
255.770;  -77.825; -676.000; -536.000
255.912;  -70.000; -559.000; -468.000
256.053;  -93.275; -730.000; -508.000
256.195;  138.525; 1008.000;  903.000
256.337; -107.775; -861.000; -595.000
256.479;   63.250;  532.000;  416.000
256.621;  -34.100; -394.000; -212.000
256.762; -109.175; -789.000; -742.000
256.904;   67.025;  485.000;  487.000
257.046;  -54.425; -381.000; -271.000
257.188;  -44.575; -351.000; -264.000
257.329;  -74.200; -525.000; -464.000
257.471; -121.575; -939.000; -807.000
257.613;  -62.900; -584.000; -498.000
257.755; -146.475;-1073.000; -982.000
257.896;   37.225;  286.000;  392.000
258.038;  -59.525; -403.000; -352.000
258.180;  -45.100; -354.000; -279.000
258.321;  -78.750; -581.000; -457.000
258.463;  -12.650;  -71.000;  133.000
258.605;  -76.525; -562.000; -570.000
258.746; -112.650; -886.000; -772.000
258.888; -158.625;-1026.000;-1020.000
259.029;   25.275;  121.000;   -8.000
259.171;  -88.650; -614.000; -550.000
259.313;   -3.575;  -49.000;  -47.000
259.454;  -64.075; -536.000; -414.000
259.596;  -57.550; -483.000; -390.000
259.737;  -77.275; -590.000; -474.000
259.879;   43.825;  217.000;  311.000
260.020;   99.425;  901.000;  636.000
260.162;  -33.350; -146.000; -253.000
260.303; -101.800; -768.000; -687.000
260.445;  -82.350; -609.000; -613.000
260.586;   22.900;  392.000;  157.000
260.728;  -44.750; -360.000; -248.000
260.869; -107.975; -350.000; -343.000
261.011;   83.875;  706.000;  537.000
261.152;  -68.325; -479.000; -319.000
261.293;  -89.700; -576.000; -595.000
261.435;  -24.275; -219.000; -184.000
261.576;  -54.800; -455.000; -325.000
261.718;   46.775;  420.000;  470.000
261.859; -146.725; -940.000; -949.000
262.000; -120.125; -951.000;-1016.000
262.142;  -30.575;  -52.000;  -60.000
262.283; -103.800; -808.000; -691.000
262.424;  -88.025; -666.000; -625.000
262.566; -148.250;-1161.000; -983.000
262.707; -110.625; -840.000; -830.000
262.848; -117.500; -769.000; -726.000
262.990;  -51.875; -362.000; -345.000
263.131;   72.025;  650.000;  681.000
263.272;  -11.800;  -61.000;  -41.000
263.413;  -76.925; -589.000; -561.000
263.555;  -74.950; -669.000; -143.000
263.696;  -85.250; -550.000; -641.000
263.837;  -68.675; -449.000; -551.000
263.978;  -10.125;   -5.000;  -77.000
264.119;  -56.300; -283.000; -264.000
264.261; -116.625; -847.000; -630.000
264.402;    4.650;   33.000;   40.000
264.543;  -73.200; -509.000; -524.000
264.684;  -17.450;   61.000;  -50.000
264.825;  -65.275; -816.000; -538.000
264.966;   -0.075;  -84.000;  -67.000
265.107; -121.575; -646.000; -670.000
265.248; -116.625; -825.000; -812.000
265.390;  -17.575;  152.000;   -9.000
265.531;  -27.075; -238.000; -107.000
265.672;  -72.875; -557.000; -630.000
265.813;   66.200;  563.000;  439.000
265.954; -152.175; -959.000; -940.000
266.095;  -12.450; -372.000; -322.000
266.236;  -91.550; -686.000; -548.000
266.377;  -50.775; -243.000; -297.000
266.518;  -72.700; -619.000; -547.000
266.659;   20.750;  170.000;  268.000
266.800;    6.200;   83.000;   85.000
266.941;  -83.125; -487.000; -478.000
267.082;   19.775;  354.000;   99.000
267.223;  -53.625; -344.000; -273.000
267.364; -110.650; -892.000; -686.000
267.504;  -13.950;    3.000;  135.000
267.645;   -0.400;  160.000;   67.000
267.786;  -30.600; -147.000;  -86.000
267.927;  -64.125; -473.000; -379.000
268.068;  -22.000; -186.000;  -61.000
268.209;  -37.725; -175.000; -413.000
268.350;  -46.425; -388.000; -532.000
268.490;  -69.850; -648.000; -521.000
268.631;   20.475;  127.000;  225.000
268.772; -113.200; -874.000; -647.000
268.913;  -52.350; -328.000; -476.000
269.054;   -7.250; -117.000;   12.000
269.194;  -54.250; -418.000; -402.000
269.335; -165.700;-1137.000;-1074.000
269.476;  -26.275;   33.000;  -35.000
269.617;  -44.650; -347.000; -392.000
269.757;  -93.975; -713.000; -646.000
269.898; -111.075; -856.000; -613.000
270.039;  -66.800; -415.000; -405.000
270.180; -129.425; -952.000; -816.000
270.320;  -28.550; -190.000; -250.000
270.461;  -36.175; -277.000; -249.000
270.602;   -7.050; -186.000; -156.000
270.742; -128.825; -868.000; -943.000
270.883;  -55.025; -442.000; -390.000
271.023;  -52.125; -358.000; -357.000
271.164;  -77.475; -607.000; -528.000
271.305;  -97.325; -666.000; -654.000
271.445; -110.125; -722.000; -683.000
271.586;  -61.650; -462.000; -283.000
271.726;  -42.875; -397.000; -322.000
271.867;  -50.425; -594.000; -534.000
272.008;  190.475; -473.000; -285.000
272.148;  141.325;  462.000;  468.000
272.289;    3.575; -113.000; -181.000
272.429;   25.250;   19.000;  185.000
272.570;  -86.800; -633.000; -737.000
272.710;  -94.000; -825.000; -775.000
272.851;  -28.100;  113.000; -130.000
272.991; -159.150;-1173.000;-1077.000
273.131;  -76.075; -419.000; -459.000
273.272;  -90.550; -683.000; -723.000
273.412;   12.900; -143.000;  -31.000
273.553;  -39.675; -488.000; -507.000
273.693;  126.150;  913.000;  858.000
273.834;  -81.275; -894.000; -692.000
273.974;  -77.325; -664.000; -615.000
274.114; -103.325; -772.000; -560.000
274.255;   79.025;  414.000;  373.000
274.395;   22.500; -180.000; -125.000
274.535;   45.775;  199.000;  350.000
274.676;   26.875;  225.000;   94.000
274.816;   -0.625;  110.000;   34.000
274.956;  -90.500; -624.000; -690.000
275.097;  -77.750;-1014.000; -922.000
275.237; -104.350; -913.000; -803.000
275.377;  -89.525; -778.000; -689.000
275.517; -147.575; -878.000; -937.000
275.658;  -45.900; -590.000; -555.000
275.798;  -58.475; -606.000; -413.000
275.938;   15.425;  215.000;  323.000
276.078; -106.400; -626.000; -395.000
276.218;    1.800;   99.000;  104.000
276.359; -116.200;-1026.000;-1024.000
276.499;  -77.125; -605.000; -446.000
276.639;  -33.000; -305.000; -151.000
276.779;  -52.425; -475.000; -357.000
276.919; -107.775; -783.000; -624.000
277.059;  -20.375; -261.000; -212.000
277.199;  -52.675; -357.000; -259.000
277.340;   32.625;  287.000;  175.000
277.480; -106.175; -840.000; -693.000
277.620;   28.775;  192.000;   16.000
277.760; -191.250;-1533.000;-1294.000
277.900;   15.200;  113.000;   33.000
278.040;   27.125;  137.000;  159.000
278.180;   38.000;  270.000;  170.000
278.320;    4.925;   21.000;   56.000
278.460;  -78.700; -443.000; -469.000
278.600;  -88.225; -708.000; -598.000
278.740;   67.625;  448.000;  224.000
278.880;  -43.750; -768.000; -791.000
279.020;  -19.425; -194.000; -144.000
279.160;  -87.800; -672.000; -595.000
279.300; -130.450; -926.000; -873.000
279.440;  -81.675; -709.000; -622.000
279.579;  -16.200;-1014.000; -929.000
279.719;  -38.650; -410.000; -394.000
279.859;   69.750;   -4.000;   41.000
279.999;   27.950; -208.000;  101.000
280.139;  -18.750; -435.000; -387.000
280.279;  -70.200; -708.000; -745.000
280.419;  -11.025; -229.000; -147.000
280.559;  -18.750; -259.000; -180.000
280.698;  -80.825; -790.000; -639.000
280.838;  -89.825; -778.000; -800.000
280.978; -108.700; -846.000; -790.000
281.118; -113.900; -811.000; -704.000
281.257;    4.925;   24.000;    6.000
281.397; -116.375;-1094.000; -960.000
281.537;  -85.000; -599.000; -712.000
281.677;  -15.075; -150.000; -101.000
281.816;  -90.625; -700.000; -630.000
281.956;  -19.700; -193.000; -257.000
282.096;  -68.725; -539.000; -396.000
282.235; -101.875; -672.000; -638.000
282.375;  -30.775; -243.000;  -98.000
282.515; -102.000; -715.000; -707.000
282.654;   12.575;   29.000;  106.000
282.794;   40.250;  388.000;  244.000
282.934;  -66.150; -530.000; -491.000
283.073; -136.500;-1030.000; -857.000
283.213;  -60.775; -460.000; -467.000
283.353;  -34.150; -408.000; -349.000
283.492;  -17.850; -264.000; -296.000
283.632;  -48.350; -254.000; -168.000
283.771;  -90.050; -859.000; -730.000
283.911;  -45.700; -369.000; -260.000
284.050; -116.575; -794.000; -748.000
284.190; -159.075;-1229.000;-1096.000
284.329; -134.775;-1055.000; -964.000
284.469;  -55.875; -516.000; -591.000
284.608;  -51.825; -559.000; -598.000
284.748;  -76.200; -614.000; -570.000
284.887;  -18.775;  -87.000;  -20.000
285.027; -129.900; -844.000; -892.000
285.166;  -35.875; -192.000; -249.000
285.306;   16.900; -116.000;  -33.000
285.445;  -40.950; -229.000; -343.000
285.584;  -88.775; -630.000; -494.000
285.724;  -47.025; -282.000; -322.000
285.863; -113.775; -857.000; -507.000
286.002;  -65.125; -366.000; -276.000
286.142;  -97.375; -715.000; -622.000
286.281;  -76.900; -525.000; -493.000
286.420;  -79.750; -554.000; -417.000
286.560;   83.225;  653.000;  623.000
286.699; -139.225; -958.000; -912.000
286.838;  -81.875; -590.000; -591.000
286.978;  -80.150; -533.000; -537.000
287.117; -140.200;-1085.000; -950.000
287.256;  -23.625; -228.000; -211.000
287.395;  -51.750; -197.000; -378.000
287.535;  -48.650; -370.000; -298.000
287.674;  -80.825; -509.000; -484.000
287.813;   65.875;  661.000;  533.000
287.952; -133.025;-1010.000; -871.000
288.091; -141.625;-1049.000; -915.000
288.231;   12.350;   13.000;   15.000
288.370; -166.475;-1217.000;-1200.000
288.509;  -88.375; -728.000; -645.000
288.648;  -96.500; -770.000; -548.000
288.787;  -32.950; -243.000;  -87.000
288.926;  -58.425; -454.000; -475.000
289.065;  117.275;  859.000;  672.000
289.204;  -43.350; -377.000; -217.000
289.344;  -91.700; -791.000; -690.000
289.483;   36.375;  416.000;  304.000
289.622;  -19.925; -291.000; -149.000
289.761;  -15.175; -309.000; -166.000
289.900; -112.900; -785.000; -626.000
290.039;  -17.025;  -12.000;  -95.000
290.178;  -31.800; -274.000; -180.000
290.317;  -69.850; -618.000; -479.000
290.456;  -68.875; -463.000; -451.000
290.595; -128.900; -961.000; -833.000
290.734; -139.125; -904.000; -891.000
290.873;  -60.625; -456.000; -420.000
291.011; -124.600; -833.000; -843.000
291.150;  -88.900; -770.000; -682.000
291.289;  -25.500; -343.000; -110.000
291.428;  -88.150; -599.000; -480.000
291.567;  -64.475; -370.000; -442.000
291.706;   -5.000;  109.000;  154.000
291.845;  -93.450; -597.000; -505.000
291.984; -167.000;-1234.000;-1061.000
292.122;   79.100;  602.000;  582.000
292.261;   67.450;  620.000;  463.000
292.400;   -5.900; -144.000;  211.000
292.539; -123.100; -959.000; -813.000
292.678;  -37.650; -325.000; -300.000
292.816; -140.825;-1136.000; -965.000
292.955; -103.800; -844.000; -684.000
293.094;  -23.300; -173.000; -337.000
293.233;  -62.350; -556.000; -400.000
293.371;  -30.950; -225.000;  -84.000
293.510; -116.275; -866.000; -780.000
293.649; -114.000; -959.000; -924.000
293.787;  -59.700;-1083.000;-1012.000
293.926;    3.400; -113.000;  -32.000
294.065;  -43.725; -379.000; -290.000
294.203;   42.325;  298.000;  406.000
294.342;    7.900;   74.000;  156.000
294.481; 5785.450;51180.000; -836.000
294.619;  -31.250; -425.000; -582.000
294.758; -134.150;-1230.000;-1137.000
294.896;   61.425; -125.000;    5.000
295.035; -114.075;-1040.000;-1006.000
295.174; -121.975;-1082.000; -954.000
295.312;  -41.300; -323.000; -203.000
295.451;   -8.325; -307.000; -428.000
295.589;  -53.750; -389.000; -518.000
295.728;   14.875; -292.000; -165.000
295.866;   -3.825;  -36.000;  -51.000
296.005;  -66.525; -584.000; -341.000
296.143;  -59.900; -558.000; -596.000
296.282; -107.150; -957.000; -881.000
296.420;  -86.050; -657.000; -557.000
296.559;  -90.200; -892.000; -633.000
296.697;   33.500; -847.000; -665.000
296.835;   65.775;-1141.000;-1002.000
296.974;   53.075;  -23.000;   39.000
297.112;    9.500; -443.000; -504.000
297.251;  -70.275; -815.000; -755.000
297.389;  114.325; -576.000; -438.000
297.527;   42.475; -145.000;  -83.000
297.666;  -65.900; -486.000; -438.000
297.804;  -51.950; -404.000; -264.000
297.942;  -21.650; -136.000; -161.000
298.081;   -4.525; -183.000;   63.000
298.219;   82.050;  -17.000;  -19.000
298.357;   45.075; -144.000;  -71.000
298.495;   47.875; -810.000; -812.000
298.634;   96.225;  245.000;  219.000
298.772;   62.150; -220.000; -338.000
298.910;  -21.200; -309.000; -182.000
299.048;   -2.300; -130.000; -153.000
299.187;  -26.525; -350.000; -250.000
299.325;   20.600;   52.000;  122.000
299.463;   72.775; -389.000; -299.000
299.601;  121.525; -327.000; -271.000
299.739;  -96.500; -908.000; -883.000
299.877;  -79.400; -791.000; -703.000
300.016;  -36.825;-1095.000; -935.000
300.154;  164.075;  -19.000; -161.000
300.292;   66.600; -428.000; -348.000
300.430;   26.825; -408.000; -291.000
300.568; -101.075; -940.000; -874.000
300.706;  -49.250; -366.000; -469.000
300.844;  -72.075;-1108.000; -979.000
300.982;  118.900;  246.000;  282.000
301.120;  -98.575; -965.000; -866.000
301.258;  -79.475; -812.000; -705.000
301.396;   43.825;  104.000;  -41.000
301.534;   93.525; -218.000; -293.000
301.672;    9.275; -664.000; -521.000
301.810;   29.600; -613.000; -545.000
301.948;  120.675;   53.000;  149.000
302.086;  682.350; -250.000;  -32.000
302.224; 1039.525; -610.000; -585.000
302.362;   55.725; -558.000; -622.000
302.500;  -16.675; -923.000; -893.000
302.638;  104.925;  128.000;  245.000
302.776;   -3.300; -352.000; -408.000
302.913;   41.250;  447.000;  236.000
303.051;    9.950;  -86.000;  -23.000
303.189;   53.150;   90.000;  118.000
303.327;  -35.350; -341.000; -256.000
303.465;  -74.675; -832.000; -588.000
303.603;  -82.300; -805.000; -604.000
303.740;   97.325;  417.000;  241.000
303.878;   34.600; -800.000; -759.000
304.016;  -89.650; -915.000; -790.000
304.154; -121.175;-1123.000;-1152.000
304.291;  -33.575; -505.000; -554.000
304.429;   10.725;  102.000;   74.000
304.567; -127.775; -908.000; -893.000
304.705;  -38.450; -408.000; -515.000
304.842;   95.700; -616.000; -540.000
304.980;   63.350;  215.000;   35.000
305.118;   53.050; -367.000; -365.000
305.255;  -83.375; -945.000; -927.000
305.393;   65.775;  178.000;  239.000
305.531;  -99.725;-1173.000; -956.000
305.668;  -70.375; -663.000; -582.000
305.806;  120.225; -358.000; -439.000
305.943;  124.900; -629.000; -637.000
306.081;   70.275; -378.000; -267.000
306.219; -108.825; -863.000; -748.000
306.356;   -2.250;  158.000;   27.000
306.494;  102.100;  981.000;  761.000
306.631;   10.450;  -11.000;  -55.000
306.769;   17.300; -613.000; -485.000
306.906;  -13.425; -284.000; -258.000
307.044;  -66.775; -473.000; -488.000
307.181;  -52.850; -410.000; -332.000
307.319;   15.800;  112.000;   87.000
307.456; -155.675;-1191.000;-1153.000
307.594; -109.625; -980.000; -727.000
307.731;  -13.275; -371.000; -164.000
307.868;   -4.000;  -15.000;   20.000
308.006; -133.575; -961.000; -847.000
308.143;  -67.625; -618.000; -330.000
308.281;  175.325;  -37.000; -254.000
308.418;    0.800; -748.000; -640.000
308.555;  -55.575; -400.000; -250.000
308.693;  -78.025; -577.000; -573.000
308.830; -111.450; -712.000; -657.000
308.967;  -11.350; -215.000;  -95.000
309.105;  -51.000; -507.000; -396.000
309.242;   40.125; -468.000; -367.000
309.379;  339.100; -577.000; -655.000
309.517;  -64.550; -936.000; -948.000
309.654; -110.725; -910.000; -734.000
309.791;  -86.675; -662.000; -580.000
309.928; -118.375; -977.000; -914.000
310.065;  197.000;  819.000;  697.000
310.203;    9.550; -825.000; -850.000
310.340;  -14.200; -465.000; -321.000
310.477;  -82.650; -412.000; -516.000
310.614;  -70.500; -383.000; -473.000
310.751;  -73.875; -427.000; -518.000
310.889;  -29.100;    1.000;   11.000
311.026; -145.700;-1161.000; -939.000
311.163;  -47.675; -386.000; -380.000
311.300;  -79.875; -512.000; -479.000
311.437;  -89.000; -658.000; -619.000
311.574; -148.500;-1226.000; -985.000
311.711;  -61.375; -595.000; -433.000
311.848;  -38.150; -380.000; -388.000
311.985;   15.000;  270.000;   93.000
312.122; -109.675; -932.000; -762.000
312.259; -130.700; -941.000; -994.000
312.396;  -74.450; -508.000; -551.000
312.533;  -95.475; -812.000; -790.000
312.670; -133.950;-1070.000; -898.000
312.807;  -47.300; -352.000; -367.000
312.944;  -74.425; -513.000; -611.000
313.081;  -39.700; -150.000; -415.000
313.218; -114.075;-1111.000; -867.000
313.355;   10.100; -531.000; -449.000
313.492;    0.750; -455.000; -292.000
313.629;  132.175;  815.000;  735.000
313.766; -152.375;-1176.000;-1008.000
313.902;  -16.175; -186.000;   21.000
314.039;  -64.250; -372.000; -289.000
314.176;   19.875;  286.000;  192.000
314.313;  -80.275; -569.000; -473.000
314.450;  -75.875; -788.000; -684.000
314.587;  -52.675; -468.000; -480.000
314.723;    4.325;  -78.000;  130.000
314.860;   51.200;  318.000;  332.000
314.997;   26.125;  223.000;  142.000
315.134;  -41.100; -385.000; -368.000
315.270;  -26.275; -480.000; -496.000
315.407; -126.350;-1094.000; -967.000
315.544;  -50.275; -657.000; -538.000
315.681;  -60.550; -681.000; -565.000
315.817;   23.075; -133.000; -176.000
315.954;   27.100; -613.000; -392.000
316.091; -127.575;-1045.000;-1023.000
316.227;  -14.525;  -71.000; -179.000
316.364;   -2.200;   23.000;    6.000
316.500;  -42.450; -113.000; -300.000
316.637;  -45.575; -181.000; -302.000
316.774;  -67.625; -625.000; -358.000
316.910;  -93.900; -598.000; -629.000
317.047;  -59.925; -487.000; -351.000
317.183;  -50.175; -435.000; -566.000
317.320;   -4.150; -367.000; -321.000
317.456;  -71.100; -733.000; -805.000
317.593;  -94.200; -598.000; -641.000
317.729;   -4.625;  168.000;  -67.000
317.866; -194.775;-1434.000;-1285.000
318.002; -102.175; -708.000; -948.000
318.139;  -86.625; -883.000; -867.000
318.275; -112.350;-1003.000; -738.000
318.412;  -69.525; -517.000; -336.000
318.548;  -30.250; -751.000; -720.000
318.685;  -93.625; -985.000; -888.000
318.821;  -94.750; -762.000; -735.000
318.957;   -1.625;   34.000;  -23.000
319.094;   37.350;  297.000;  154.000
319.230;  -63.350; -756.000; -742.000
319.367;  150.625; -471.000; -520.000
319.503;   76.375; -538.000; -436.000
319.639;  -98.625; -877.000; -793.000
319.775;  -60.125; -750.000; -685.000
319.912;  -53.925; -424.000; -519.000
320.048;  -79.900;-1184.000;-1184.000
320.184;   70.175;   59.000;   70.000
320.321;  -44.250; -497.000; -467.000
320.457;   66.600;  475.000;  662.000
320.593;  -64.625; -375.000; -382.000
320.729; -103.600; -732.000; -734.000
320.866;  -65.225; -577.000; -635.000
321.002;  -77.250; -759.000; -809.000
321.138;   -2.500; -135.000; -211.000
321.274;   76.500; -148.000; -115.000
321.410;  -25.150; -585.000; -353.000
321.546;  -15.300;-1011.000; -911.000
321.683;   57.875;  400.000;  185.000
321.819;    2.250;  -48.000; -117.000
321.955; -101.775; -743.000; -722.000
322.091;  -35.850; -585.000; -540.000
322.227;    2.350; -382.000; -202.000
322.363;   -9.825; -320.000; -215.000
322.499;  -54.475; -343.000; -331.000
322.635;  169.250;  636.000;  443.000
322.771;   38.750; -139.000;   12.000
322.907;  107.375;  129.000;  327.000
323.043;  -10.025; -115.000; -206.000
323.179;  -48.025; -394.000; -363.000
323.315;   35.675; -401.000; -371.000
323.451;   95.025; -328.000; -236.000
323.587;   76.550;  -60.000;  -77.000
323.723;   32.675; -682.000; -601.000
323.859;  -12.725; -258.000;  -76.000
323.995;  -27.900; -467.000; -409.000
324.131; -126.100; -967.000; -892.000
324.267;  -47.400; -254.000; -276.000
324.402; -125.600; -960.000; -983.000
324.538;  -10.075; -279.000; -104.000
324.674;   27.225;  164.000;   77.000
324.810;  140.575;  226.000;  308.000
324.946;   21.625; -810.000; -658.000
325.082;  -76.900; -568.000; -475.000
325.217;   -1.850;  -62.000;   16.000
325.353; -104.825; -764.000; -659.000
325.489;  -81.725; -540.000; -506.000
325.625;  -77.925; -579.000; -525.000
325.760;   62.075;  517.000;  376.000
325.896;  -19.525; -515.000; -702.000
326.032;  -48.275; -403.000; -352.000
326.168;  -71.250; -462.000; -369.000
326.303;  -47.350; -352.000; -461.000
326.439;  -29.525; -336.000; -276.000
326.575;    1.175; -190.000;  -29.000
326.710;   -2.975; -156.000;  -30.000
326.846;  -27.700;  146.000;  103.000
326.982;  -92.375; -530.000; -548.000
327.117;  -75.025; -481.000; -442.000
327.253;  -95.500; -745.000; -742.000
327.388; -157.000;-1137.000;-1153.000
327.524;  -68.550; -811.000; -578.000
327.659;  -24.025;  -58.000;  -22.000
327.795;  -10.900;   69.000;   45.000
327.931;  -89.450; -723.000; -499.000
328.066;  -28.550; -417.000; -276.000
328.202;  -14.375;   12.000; -129.000
328.337;   83.725;  957.000;  713.000
328.473;   48.025;  -12.000;  -74.000
328.608;  -20.950; -256.000; -267.000
328.743;  -81.200; -799.000; -664.000
328.879;   15.075;  214.000;  114.000
329.014;  -30.800; -102.000; -122.000
329.150;  -77.750; -358.000; -483.000
329.285;  -68.825; -465.000; -466.000
329.421;  -42.625; -548.000; -246.000
329.556;  -17.825;  -36.000;   85.000
329.691; -102.250; -633.000; -615.000
329.827;  -79.875; -626.000; -480.000
329.962;  -47.225;  131.000; -301.000
330.097;  -87.400; -673.000; -585.000
330.233;  -55.525; -410.000; -223.000
330.368; -118.775; -839.000; -628.000
330.503;  -20.900;    3.000;   98.000
330.638;    7.425;  -93.000; -125.000
330.774;  -55.325; -609.000; -530.000
330.909;  -45.150; -434.000; -244.000
331.044; -112.750; -714.000; -708.000
331.179; -165.125;-1217.000;-1109.000
331.315;   12.300;   77.000;   20.000
331.450;   11.775;  157.000;  285.000
331.585;  -81.250; -805.000; -706.000
331.720;  -76.675; -510.000; -460.000
331.855;  -10.425;  -35.000; -102.000
331.990;  258.800;   62.000;  138.000
332.126;  121.175; -110.000;   71.000
332.261;   -6.450; -379.000; -265.000
332.396;    0.850; -135.000; -242.000
332.531;  -94.625;-1074.000;-1031.000
332.666;   17.600; -519.000; -363.000
332.801;  -94.350; -726.000; -807.000
332.936;  -33.425; -192.000; -122.000
333.071; -146.300; -870.000; -817.000
333.206;   20.925;  307.000;  379.000
333.341;   36.700;  344.000;  418.000
333.476;  -80.225; -627.000; -623.000
333.611;  -29.800; -251.000; -173.000
333.746;  -52.325; -381.000; -464.000
333.881; -102.100; -973.000; -935.000
334.016; -132.700; -936.000; -917.000
334.151; -123.050; -746.000; -702.000
334.286;    9.125;  152.000;  186.000
334.421;   -7.225; -125.000; -178.000
334.556;  -75.500; -611.000; -567.000
334.690;  -80.025; -631.000; -577.000
334.825;   49.025;  381.000;   83.000
334.960;  -55.100; -285.000; -413.000
335.095;    0.225;  135.000;  -91.000
335.230; -100.575; -722.000; -738.000
335.365; -133.225;-1084.000; -990.000
335.499; -114.050;-1108.000;-1037.000
335.634;   17.375;    9.000;  534.000
335.769;  -76.300; -755.000; -720.000
335.904;  -51.775; -603.000; -561.000
336.038;  -55.350; -735.000; -657.000
336.173; -127.300;-1206.000;-1194.000
336.308;    4.075; -116.000; -189.000
336.443;   23.200; -544.000; -634.000
336.577;  -61.275; -936.000; -787.000
336.712;   64.050;   -4.000;  -12.000
336.847;  -11.625; -724.000; -607.000
336.981;   69.925; -272.000; -208.000
337.116;  290.575;  615.000;  501.000
337.250;  159.000; -434.000; -421.000
337.385;  230.075; -297.000; -208.000
337.520;   83.275; -632.000; -603.000
337.654;  -44.750; -215.000; -126.000
337.789; -132.975; -989.000; -933.000
337.923;  -15.900; -104.000; -205.000
338.058;  -92.975; -673.000; -738.000
338.192;  -36.500; -611.000; -488.000
338.327;  -20.150;  -18.000; -155.000
338.461;  -52.825; -299.000; -469.000
338.596;  -94.075; -780.000; -638.000
338.730;  -89.875; -767.000; -803.000
338.865;   96.150;  -46.000; -140.000
338.999;  -48.925; -846.000; -702.000
339.134;  -34.425; -634.000; -536.000
339.268;    2.300; -741.000; -603.000
339.403;  362.225; -740.000; -775.000
339.537;  113.525; -894.000; -820.000
339.671; -109.750; -829.000; -813.000
339.806;  -60.275; -556.000; -512.000
339.940;    8.725; -261.000; -235.000
340.074;  -90.275; -685.000; -510.000
340.209;  -49.900; -351.000; -230.000
340.343;  -87.200; -517.000; -573.000
340.477;  147.225;  998.000; 1036.000
340.612;  -47.500;-1033.000; -900.000
340.746;  126.225; -199.000; -243.000
340.880;  -67.475; -924.000; -785.000
341.014;  -13.050;  -45.000; -154.000
341.149; -121.475; -756.000; -718.000
341.283; -116.125; -839.000; -754.000
341.417;  -92.500;-1124.000; -938.000
341.551;  122.600; -768.000; -708.000
341.685;  -23.325; -633.000; -611.000
341.820;  -56.400; -562.000; -493.000
341.954;  -24.100; -218.000; -349.000
342.088; -157.025;-1102.000;-1019.000
342.222;   64.200;  565.000;  618.000
342.356;  -67.975; -395.000; -335.000
342.490;  -92.650; -880.000; -841.000
342.624;  -37.075; -339.000; -242.000
342.758;   -6.150; -364.000; -312.000
342.892;  -66.475; -710.000; -585.000
343.026;  -22.275;  -58.000; -116.000
343.160;  -66.800; -426.000; -376.000
343.294;  -77.175; -474.000; -337.000
343.428;  -21.375; -488.000; -448.000
343.562;   -7.700; -172.000;  -23.000
343.696;  -28.150; -385.000; -314.000
343.830;  -13.400; -362.000; -356.000
343.964;   22.025; -231.000; -168.000
344.098;  980.400;  199.000;   70.000
344.232;  828.025; -266.000; -127.000
344.366;  111.550; -567.000; -453.000
344.500;   69.900; -665.000; -744.000
344.634;   41.200; -324.000; -164.000
344.768;  -13.575; -531.000; -341.000
344.902;   27.000;  278.000;  256.000
345.035;  -73.425; -556.000; -496.000
345.169; -123.700; -933.000; -656.000
345.303;  -22.400; -308.000; -482.000
345.437;  -65.275; -826.000; -717.000
345.571;  -68.100; -675.000; -594.000
345.704;  -59.175; -309.000; -532.000
345.838;   -9.700; -331.000; -284.000
345.972;  -19.750; -543.000; -495.000
346.106;  161.425; -179.000; -190.000
346.239;  430.600; -312.000; -243.000
346.373;    8.225; -343.000; -302.000
346.507; -137.650; -950.000; -962.000
346.640;  158.000;  -30.000;   13.000
346.774;  -45.125; -650.000; -797.000
346.908;  -19.000; -138.000;  -11.000
347.041;  -86.750; -646.000; -593.000
347.175;    3.050;  259.000;   27.000
347.309;  -62.675; -698.000; -628.000
347.442;  -96.475; -883.000; -732.000
347.576;  307.425;  670.000;  668.000
347.709;  211.550; -123.000;  -52.000
347.843;  -85.250; -933.000; -825.000
347.976;   38.850;  235.000;  294.000
348.110; -175.275;-1268.000;-1186.000
348.243; -101.675; -679.000; -772.000
348.377;    5.350;  -26.000;   60.000
348.510;   64.875;  403.000;  540.000
348.644;  -22.725;  -37.000; -159.000
348.777;   -0.050;  180.000;  191.000
348.911;  -48.150; -142.000; -112.000
349.044;  178.225;  471.000;  448.000
349.178;  195.550;-1069.000;-1006.000
349.311;  110.200;  141.000;  255.000
349.444;   -4.275; -927.000; -813.000
349.578;  -19.175; -347.000; -200.000
349.711;  -97.500; -959.000; -862.000
349.845;    7.075; -661.000; -591.000
349.978; -133.550;-1224.000;-1137.000
350.111;  -91.850; -546.000; -612.000
350.244;  -87.025; -596.000; -700.000
350.378;    9.350; -392.000; -393.000
350.511;  -51.225; -393.000; -426.000
350.644; -102.600; -808.000; -806.000
350.778;   13.725;  168.000;  104.000
350.911;    2.250;  134.000;  140.000
351.044;  -93.125; -685.000; -615.000
351.177;  -35.850; -321.000; -281.000
351.310;   -4.400;    3.000; -131.000
351.444;  -85.325; -888.000; -788.000
351.577;  119.800;  140.000;   90.000
351.710;  104.775;  593.000;  417.000
351.843;  -42.025; -165.000;  -77.000
351.976;   -3.775;  149.000;  -79.000
352.109;  -76.000; -621.000; -612.000
352.242;  -33.275; -464.000; -419.000
352.376;  -59.750; -580.000; -636.000
352.509;  185.300; -437.000; -356.000
352.642;   32.350; -654.000; -604.000
352.775;   70.325; -141.000;  -98.000
352.908; -113.525; -933.000; -904.000
353.041;  -98.125; -814.000; -824.000
353.174;  -43.650; -551.000; -424.000
353.307;  -86.675; -753.000; -764.000
353.440;   71.425;  541.000;  453.000
353.573; -111.850; -957.000;-1008.000
353.706;  -52.175; -384.000; -558.000
353.839;  -17.750; -264.000; -220.000
353.971;  -85.525; -657.000; -512.000
354.104;  -81.350; -896.000; -835.000
354.237;  -24.550; -627.000; -662.000
354.370;  -82.975; -846.000; -879.000
354.503; -172.100;-1231.000;-1308.000
354.636;  -44.200; -529.000; -348.000
354.769; -116.450; -937.000; -860.000
354.902;  -12.900; -230.000; -139.000
355.034;  -33.525; -164.000; -220.000
355.167;  -22.325; -262.000; -162.000
355.300;  -82.175;-1061.000; -880.000
355.433;  962.025;  -71.000;  -14.000
355.565; 1471.525; -402.000; -384.000
355.698;  361.950; -356.000; -296.000
355.831;    7.925; -882.000; -801.000
355.964;   71.300; -285.000; -170.000
356.096;  -74.025; -856.000; -843.000
356.229;    3.075; -523.000; -530.000
356.362;  322.800; -373.000; -266.000
356.494;  586.775; -229.000; -162.000
356.627;  518.100;  269.000;  377.000
356.760;  652.500;  120.000;   53.000
356.892;  934.425; -286.000; -601.000
357.025;  686.750;  403.000;  389.000
357.157;  651.250; -167.000; -179.000
357.290;  685.275; -856.000; -713.000
357.423;  205.300; -667.000; -556.000
357.555;  106.875; -217.000; -228.000
357.688;  134.125; -483.000; -364.000
357.820;  507.075; -870.000; -877.000
357.953; 4067.475; -563.000; -589.000
358.085;  857.200; -632.000; -612.000
358.218; 1249.175;-1131.000; -932.000
358.350;  210.875;  -58.000;  312.000
358.483; -116.800;-1300.000;-1187.000
358.615;   -2.350;-1182.000;-1078.000
358.747;  -38.800;-1187.000;-1058.000
358.880;   32.700; -810.000; -744.000
359.012;    7.975; -376.000; -202.000
359.145;  -36.125; -480.000; -511.000
359.277;   76.200; -962.000; -913.000
359.409; 3301.575;  536.000;  231.000
359.542;  894.925; -738.000; -688.000
359.674;   82.425;   46.000;   13.000
359.806;  -58.850; -565.000; -438.000
359.939;  -30.575; -617.000; -516.000
360.071;  -16.900; -583.000; -579.000
360.203;  -19.475; -411.000; -364.000
360.335;   65.050;  164.000;  -16.000
360.468;  196.400; -249.000; -307.000
360.600; 2654.850; -547.000; -454.000
360.732; 2820.450; -546.000; -423.000
360.864;  406.050;-1216.000;-1044.000
360.996;  296.200; -516.000; -554.000
361.129;   49.050; -389.000; -598.000
361.261;   15.225;  110.000; -113.000
361.393;  -25.450; -252.000; -214.000
361.525;   26.000;   94.000;  244.000
361.657;  -27.125; -821.000; -703.000
361.789;   13.625; -139.000; -155.000
361.921;  258.375; -642.000; -593.000
362.053;  273.350;  524.000;  541.000
362.185;   55.300;  288.000;   72.000
362.318;  -78.775; -709.000; -705.000
362.450;  137.850;  294.000;  444.000
362.582;  125.650; -913.000; -870.000
362.714;  -33.725; -353.000; -332.000
362.846;  -92.575; -606.000; -490.000
362.978; -130.875; -941.000; -811.000
363.109;   50.350; -161.000; -260.000
363.241;  469.925; -739.000; -749.000
363.373;  436.275; -649.000; -564.000
363.505;  657.675; -186.000;  -91.000
363.637;  152.925; -787.000; -601.000
363.769; -115.750;-1067.000;-1080.000
363.901;  -76.125; -596.000; -654.000
364.033; -112.600;-1103.000;-1062.000
364.165;   -3.400; -283.000; -283.000
364.296;   78.700; -316.000; -177.000
364.428;   65.975;-1344.000;-1220.000
364.560;  -58.400; -679.000; -661.000
364.692;  -56.750; -738.000; -835.000
364.824;  294.875; -588.000; -456.000
364.955;  438.450; -402.000; -564.000
365.087;  902.925;-1097.000; -852.000
365.219;   22.525; -686.000; -816.000
365.351;  -71.750; -526.000; -572.000
365.482;   47.775;  300.000;  240.000
365.614;  -35.200; -402.000; -314.000
365.746; -101.750; -729.000; -752.000
365.877;  -96.525; -706.000; -672.000
366.009;  256.950;  -35.000;  -62.000
366.141;  -87.800;-1249.000;-1134.000
366.272; -113.375; -803.000; -719.000
366.404; -108.675;-1005.000; -874.000
366.535;  -17.325; -139.000;  -12.000
366.667; -103.125; -644.000; -649.000
366.799;   25.075;  353.000;  203.000
366.930; -105.475; -862.000; -996.000
367.062;  140.975; -639.000; -613.000
367.193;  138.925; -872.000; -842.000
367.325;  -66.600; -580.000; -684.000
367.456;   56.000; -246.000;   31.000
367.588;  146.475; -371.000; -318.000
367.719;   18.700;  -44.000;  -45.000
367.851;  -13.375; -222.000; -241.000
367.982;  -48.625; -875.000; -732.000
368.113;  111.825; -475.000; -358.000
368.245; -116.000; -960.000; -841.000
368.376;  -26.275; -254.000; -302.000
368.508;  -33.275; -188.000; -263.000
368.639; -125.975;-1166.000;-1034.000
368.770;    3.950; -670.000; -589.000
368.902;  -58.775; -836.000; -926.000
369.033; -108.350; -906.000; -855.000
369.164;  -54.825; -720.000; -653.000
369.296; -110.175; -452.000; -601.000
369.427;  -14.450; -209.000; -144.000
369.558;  -46.950; -593.000; -377.000
369.689;  -80.925; -721.000; -569.000
369.821; -121.100; -951.000; -845.000
369.952;  -29.625;   42.000; -108.000
370.083;  -44.750; -229.000; -108.000
370.214;  -90.800; -735.000; -650.000
370.345;  -13.225;   65.000;   81.000
370.477;  -78.575; -810.000; -790.000
370.608;  266.950; -328.000; -264.000
370.739;  -26.350;-1233.000;-1292.000
370.870;  -22.850;-1102.000; -923.000
371.001;   94.550; -378.000; -467.000
371.132;  -63.375; -754.000; -735.000
371.263;  -10.675;  -42.000; -148.000
371.394; -127.400; -841.000; -748.000
371.525;   30.650;  345.000;  225.000
371.657;  -85.975; -808.000; -670.000
371.788;   86.025;  103.000;  199.000
371.919;  161.625; -384.000; -304.000
372.050; 3942.300;  -91.000; -156.000
372.181; 1162.350; -188.000; -294.000
372.311;  420.275;   42.000; -127.000
372.442;   47.775; -457.000; -451.000
372.573;  -16.275; -444.000; -340.000
372.704;  -98.000;-1008.000; -980.000
372.835;   85.000; -228.000; -289.000
372.966;  -50.825; -646.000; -554.000
373.097;  -71.675; -575.000; -711.000
373.228;  -36.150; -717.000; -542.000
373.359;  149.800; -824.000; -536.000
373.490; 1041.400; -881.000; -727.000
373.620; 1260.750;-1001.000; -803.000
373.751; 1975.275; -332.000; -396.000
373.882;  865.475; -663.000; -733.000
374.013;   85.125; -449.000; -262.000
374.143;  -27.900; -581.000; -659.000
374.274;  -86.400; -987.000; -908.000
374.405;  198.400; -388.000; -276.000
374.536;  485.800; -526.000; -387.000
374.666; 1209.950; -759.000; -807.000
374.797;  257.525; -817.000; -868.000
374.928;  946.400; -710.000; -560.000
375.058;  977.275; -535.000; -500.000
375.189;   72.125;  -59.000;  -93.000
375.320; -102.175; -928.000;-1034.000
375.450;  -35.000; -625.000; -616.000
375.581;  -53.825; -526.000; -436.000
375.712;  -28.300; -574.000; -250.000
375.842;  346.900; -438.000; -415.000
375.973;  225.500; -554.000; -513.000
376.103;  -35.050; -665.000; -648.000
376.234;  -89.450; -531.000; -552.000
376.364;  -29.125; -944.000; -867.000
376.495;  332.975;  925.000;  529.000
376.625;    7.475; -472.000; -485.000
376.756;   76.850; -709.000; -678.000
376.886;  -58.375;-1178.000;-1026.000
377.017;   38.250;-1048.000;-1061.000
377.147;  351.875; -786.000; -782.000
377.278;   65.300;  174.000;  228.000
377.408; -119.300; -801.000; -815.000
377.538; -115.525; -707.000; -693.000
377.669;  -75.375; -537.000; -613.000
377.799;  -87.675; -645.000; -635.000
377.929;  -56.525; -610.000; -428.000
378.060; -132.175; -781.000; -847.000
378.190;  -47.575; -726.000; -531.000
378.320;  -51.950; -401.000; -406.000
378.451;  -12.100; -131.000;  -22.000
378.581;  -23.650;  -67.000; -110.000
378.711;  157.750; 1035.000;  866.000
378.841;  -35.400; -533.000; -675.000
378.972;  -54.050; -871.000; -751.000
379.102;   -2.575; -652.000; -579.000
379.232;  -24.875; -126.000;  -73.000
379.362; -110.200;-1001.000; -885.000
379.492;   33.325; -373.000; -424.000
379.623;  108.600;    0.000;  111.000
379.753;  -88.050;-1107.000; -974.000
379.883;  203.100;   59.000;  156.000
380.013;   12.675;-1081.000;-1017.000
380.143; -104.100;-1097.000;-1056.000
380.273;  -92.650; -985.000; -861.000
380.403;   -1.175; -344.000; -257.000
380.533;  -23.525; -651.000; -664.000
380.663;   66.450;  173.000;  128.000
380.793;  -81.350;-1027.000;-1074.000
380.923;  -12.325; -103.000;  -34.000
381.053; -100.700; -613.000; -623.000
381.183;  -27.200; -106.000; -248.000
381.313;   45.675; -656.000; -470.000
381.443;   44.050; -692.000; -473.000
381.573;  221.650; -402.000; -409.000
381.703;  310.375;-1249.000;-1095.000
381.833; -115.150;-1454.000;-1336.000
381.963;  117.600; -134.000;  -87.000
382.093; 1526.725; -925.000; -909.000
382.223;  490.425; -713.000; -602.000
382.353;   -1.450; -801.000; -608.000
382.482;  397.850;-1091.000; -964.000
382.612;  839.550; -872.000; -644.000
382.742;  466.200; -695.000; -622.000
382.872;  307.225; -565.000; -551.000
383.002;   61.425;  347.000; -132.000
383.131;  -13.150; -226.000; -160.000
383.261;  -45.925; -706.000; -768.000
383.391;  305.025; -552.000; -377.000
383.521; 3169.975;  451.000;  263.000
383.650;  742.175; -947.000; -904.000
383.780;  -23.675; -783.000; -656.000
383.910;  112.950;  880.000;  802.000
384.039;   27.775; -794.000; -656.000
384.169;  242.700;-1205.000;-1017.000
384.299;  -22.975; -650.000; -662.000
384.428;  -93.400; -764.000; -680.000
384.558;  -55.775; -308.000; -275.000
384.687;  -40.650; -414.000; -334.000
384.817;    6.825;   75.000;   -2.000
384.947;   23.700; -234.000; -141.000
385.076;  300.100;  982.000;  912.000
385.206;  101.800;  369.000;  480.000
385.335;  -36.750; -549.000; -417.000
385.465;  -68.075; -655.000; -663.000
385.594;  147.475;  -53.000;  -44.000
385.724;  471.075; -868.000; -838.000
385.853;  121.350; -296.000; -270.000
385.982; 1505.800; -743.000; -787.000
386.112; 2345.775;-1052.000; -871.000
386.241;  171.850; -307.000; -312.000
386.371;   19.450; -174.000;  -87.000
386.500;    0.850; -825.000; -789.000
386.629;   23.675; -874.000; -817.000
386.759;   78.025;  -43.000;   68.000
386.888;  -11.525; -170.000; -250.000
387.017;  -72.825; -648.000; -620.000
387.147;  -95.500; -771.000; -798.000
387.276;    4.975; -410.000; -397.000
387.405;   13.500; -398.000; -342.000
387.535;  -40.975; -452.000; -361.000
387.664;  -62.000; -692.000; -620.000
387.793;   73.625; -198.000; -113.000
387.922;  541.275;  255.000;  200.000
388.052;   36.175; -576.000; -423.000
388.181;    9.675; -342.000; -472.000
388.310;   -1.925; -889.000; -710.000
388.439;  -40.000; -749.000; -742.000
388.568;  201.125;  365.000;  244.000
388.697; 1139.850; -756.000; -653.000
388.826;  237.625; -768.000; -666.000
388.956;   64.975; -285.000; -307.000
389.085;  -30.700; -347.000; -287.000
389.214; -112.525; -842.000; -872.000
389.343;  -67.025; -645.000; -413.000
389.472;  381.900;  126.000;  149.000
389.601;  532.175;   91.000;    0.000
389.730;   18.400; -568.000; -687.000
389.859;   77.150;  226.000;   46.000
389.988;  200.400; -423.000; -408.000
390.117;  172.000; -168.000; -146.000
390.246;    7.550; -331.000; -320.000
390.375;  120.225; -673.000; -626.000
390.504;  -47.000; -703.000; -621.000
390.633;  -89.975; -672.000; -726.000
390.761;  -66.875; -732.000; -645.000
390.890;   29.975;   -4.000; -130.000
391.019;  -26.275; -421.000; -441.000
391.148; -131.700; -826.000; -855.000
391.277;  -76.350; -576.000; -493.000
391.406;  -81.650; -821.000; -805.000
391.534;   12.700;  574.000; -301.000
391.663;  -52.625; -583.000; -645.000
391.792;  -88.975; -673.000; -701.000
391.921;  115.450;   -3.000;   15.000
392.050;  194.075; -287.000; -228.000
392.178;  -16.500;-1206.000;-1061.000
392.307;  164.725; -758.000; -712.000
392.436;   99.000; -427.000; -641.000
392.564;   10.900;  166.000;   -6.000
392.693;  -95.700; -860.000; -682.000
392.822;  213.950; -529.000; -534.000
392.950;  113.050; -880.000; -714.000
393.079;  332.025; -188.000; -328.000
393.208;   51.875; -488.000; -511.000
393.336;   -2.125; -170.000; -145.000
393.465;  -55.775; -317.000; -199.000
393.593;   -1.525;   62.000;   79.000
393.722; -139.525;-1121.000; -916.000
393.850;  -40.875; -188.000;  -61.000
393.979; -157.375; -926.000; -805.000
394.107;  -76.450; -517.000; -537.000
394.236;  -16.075; -570.000; -507.000
394.364;  215.625;  383.000;  206.000
394.493;  359.175; -911.000; -767.000
394.621;  -25.750; -955.000; -916.000
394.750;  706.850; -873.000; -923.000
394.878; 2910.825; -247.000; -149.000
395.007; 3969.675; -721.000; -807.000
395.135;  297.050; -790.000; -721.000
395.263;  -62.425;-1038.000;-1040.000
395.392;   -4.475;  -25.000; -107.000
395.520; -131.275; -818.000; -679.000
395.648;  -90.375; -865.000; -915.000
395.777;  -16.250; -366.000; -405.000
395.905;  -50.200; -449.000; -564.000
396.033;   18.525;  217.000;  172.000
396.162;  578.500; -399.000; -453.000
396.290;  522.200;  -17.000;   -2.000
396.418;  116.675; -555.000; -514.000
396.546;  -60.800; -571.000; -466.000
396.674; -100.025; -850.000; -878.000
396.803;    3.100;  -72.000;  -23.000
396.931;  114.950; -179.000; -199.000
397.059;   52.200;-1026.000; -989.000
397.187; -111.625;-1026.000; -975.000
397.315; -129.925; -884.000; -649.000
397.443;  -88.600; -592.000; -443.000
397.572;  -99.125; -578.000; -424.000
397.700;    1.175; -607.000; -614.000
397.828;   21.125;  120.000;  -90.000
397.956;  -40.725; -508.000; -478.000
398.084;  -63.050; -767.000; -626.000
398.212;   39.475;  137.000;  124.000
398.340;    2.325;  -56.000;  159.000
398.468;   39.075; -390.000; -169.000
398.596; -124.625; -993.000; -953.000
398.724; -112.750; -762.000; -767.000
398.852; -156.350;-1024.000; -976.000
398.980;  -73.625; -560.000; -560.000
399.108;  -38.250; -982.000; -735.000
399.236;   36.975;   13.000;    8.000
399.363;    3.850;  222.000;  196.000
399.491;  -69.350; -404.000; -398.000
399.619; -112.225; -829.000; -800.000
399.747; -105.575; -859.000; -771.000
399.875;   84.325;  220.000;  234.000
400.003;  -72.200; -359.000; -284.000
400.130;  -81.225; -421.000; -341.000
400.258;  -34.475;  -83.000;   38.000
400.386;  -71.900; -352.000; -168.000
400.514;  -52.575; -526.000; -587.000
400.641;  -75.775; -928.000; -802.000
400.769; -149.525; -979.000; -888.000
400.897; -118.625; -838.000; -793.000
401.025;  -30.975; -166.000; -152.000
401.152;   15.050;  220.000;   38.000
401.280;  -95.650; -430.000; -429.000
401.408; -102.250; -712.000; -576.000
401.535; -102.850; -735.000; -758.000
401.663; -186.875;-1134.000;-1054.000
401.790; -100.325; -514.000; -525.000
401.918;   36.750;  436.000;  405.000
402.046;  -33.950;  134.000;  122.000
402.173;  -36.075;  -18.000;    7.000
402.301;  -75.375; -519.000; -397.000
402.428;   31.700;  528.000;  383.000
402.556; -145.450;-1188.000; -913.000
402.683;  -35.225;  -20.000;   -1.000
402.811;  -26.100;  -37.000; -206.000
402.938;  -27.000;   20.000;   27.000
403.066;  211.875; -574.000; -558.000
403.193;  355.600;  299.000;  239.000
403.321;  276.325; -396.000; -574.000
403.448;  339.650;   83.000;   27.000
403.575;  142.150;  -90.000;  -46.000
403.703;  -85.350; -732.000; -557.000
403.830;  -71.425; -531.000; -496.000
403.957; -143.775;-1117.000;-1023.000
404.085;   -1.950;  -61.000; -172.000
404.212;  106.375;  -50.000;   63.000
404.339;  260.825; -566.000; -306.000
404.467; 5742.325; -612.000; -524.000
404.594; 3863.150; -287.000; -227.000
404.721;  934.850; -869.000; -764.000
404.848;   82.500; -113.000; -202.000
404.976; -107.750; -856.000; -783.000
405.103;  -11.400;  -14.000;  -82.000
405.230;   15.900;  190.000;  226.000
405.357;   18.900;  117.000;   44.000
405.484;  268.650;  -49.000;    5.000
405.612;   40.875; -548.000; -563.000
405.739;  -81.000; -488.000; -243.000
405.866;   89.075;  669.000;  385.000
405.993;  -48.150; -398.000; -102.000
406.120; -143.100; -801.000; -887.000
406.247;  -61.275; -323.000; -342.000
406.374;  461.875;  540.000;  629.000
406.501;  128.125; -632.000; -702.000
406.628;  -91.350; -621.000; -589.000
406.755;  -98.925; -803.000; -620.000
406.882;  -42.225; -228.000; -277.000
407.009;  -95.100; -719.000; -628.000
407.136;   64.725; -480.000; -401.000
407.263;  159.975; -939.000; -829.000
407.390;  -77.950; -692.000; -614.000
407.517; -156.375;-1139.000;-1187.000
407.644;  -52.550; -332.000; -256.000
407.771;  -69.500; -249.000; -287.000
407.898;    3.375;  168.000;  328.000
408.025;  -64.800; -421.000; -313.000
408.151;  -35.775;   82.000;  153.000
408.278;  -65.550; -267.000; -216.000
408.405; -131.700; -931.000; -899.000
408.532;  -59.100; -549.000; -542.000
408.659; -119.850; -677.000; -648.000
408.785; -189.175;-1298.000;-1170.000
408.912;  -70.725; -412.000; -296.000
409.039; -103.550; -610.000; -686.000
409.166; -115.950; -591.000; -555.000
409.292; -107.425; -571.000; -534.000
409.419; -140.750; -665.000; -649.000
409.546;  -83.100; -431.000; -192.000
409.672; -116.375; -713.000; -545.000
409.799;  -10.100;  -36.000;   34.000
409.926;  -52.425; -180.000; -179.000
410.052; -168.250;-1127.000;-1091.000
410.179;  -59.925; -368.000; -392.000
410.305;  -81.200; -375.000; -493.000
410.432;  -44.950; -220.000; -333.000
410.558;  -94.150; -305.000; -380.000
410.685; -112.275; -688.000; -431.000
410.812;  -87.650; -409.000; -588.000
410.938; -143.150; -964.000; -808.000
411.065; -106.575; -671.000; -645.000
411.191;  -24.525; -189.000; -174.000
411.317; -103.725; -823.000; -742.000
411.444;  -68.825; -317.000; -246.000
411.570;  -86.275; -339.000; -294.000
411.697; -131.250; -758.000; -752.000
411.823; -164.400; -989.000; -999.000
411.949;  -23.150;  -56.000;   17.000
412.076; -112.350; -539.000; -519.000
412.202; -127.075; -758.000; -757.000
412.329; -138.750; -798.000; -752.000
412.455; -113.825; -821.000; -657.000
412.581;  -14.800;  -15.000;  172.000
412.707;  -67.250; -540.000; -457.000
412.834;   20.125;  156.000;  219.000
412.960;  -75.700; -785.000; -784.000
413.086;  -98.975; -743.000; -701.000
413.212;  153.275;  604.000;  578.000
413.339;  -71.125; -685.000; -701.000
413.465;   20.350; -364.000; -310.000
413.591;  -93.300; -757.000; -474.000
413.717;  -56.825; -358.000; -366.000
413.843; -154.050; -839.000; -861.000
413.969;  -61.650;  -47.000; -292.000
414.096;  -85.625; -679.000; -679.000
414.222;  -13.275;  -33.000;   85.000
414.348;  -13.750; -652.000; -385.000
414.474;   94.050;   38.000;  -52.000
414.600;  -14.075; -126.000; -144.000
414.726;  -20.650;  -96.000;  -55.000
414.852;  -51.300; -365.000; -342.000
414.978;   31.900;  104.000;  -18.000
415.104;   42.100;   38.000;   80.000
415.230;   10.150; -329.000; -330.000
415.356;   52.125; -409.000; -514.000
415.482;  194.475;   13.000;  -35.000
415.608;  268.950; -247.000; -323.000
415.734;  964.775;   67.000;   38.000
415.860;19770.025; -875.000; -767.000
415.986;14666.975; -685.000; -607.000
416.111; 1258.825; -798.000; -652.000
416.237;  235.600; -424.000; -571.000
416.363; 1125.025; -765.000; -733.000
416.489; 4188.775; -324.000; -251.000
416.615;  441.050; -707.000; -742.000
416.741;  -23.075; -677.000; -784.000
416.866;  -90.350; -673.000; -736.000
416.992; -132.700; -801.000; -818.000
417.118;  -35.200;  -41.000;  -80.000
417.244;  -70.400; -798.000; -531.000
417.369;  -72.250; -801.000; -612.000
417.495;  -18.525; -325.000; -254.000
417.621;  -79.150;-1015.000; -803.000
417.746;    1.750; -579.000; -572.000
417.872;   46.650; -254.000; -144.000
417.998;   52.125; -515.000; -530.000
418.123; 1022.225;-1073.000; -845.000
418.249; 5351.000; -512.000; -601.000
418.374;  756.550; -916.000; -824.000
418.500;  103.125; -383.000; -482.000
418.626;  117.100;   70.000;  -59.000
418.751;  121.200; -549.000; -448.000
418.877;  199.350; -637.000; -643.000
419.002; 1764.750; -688.000; -560.000
419.128;12438.850; -930.000; -721.000
419.253; 3125.325; -967.000; -837.000
419.379;  415.500; -391.000; -338.000
419.504;  375.125;  325.000;  415.000
419.629;  519.325; -393.000; -212.000
419.755; 3472.825; -317.000; -254.000
419.880;20965.525;  -98.000;   67.000
420.006;11357.175; -280.000; -221.000
420.131;29395.250; -662.000; -775.000
420.256; 4338.250; -315.000; -316.000
420.382;  596.150; -665.000; -687.000
420.507;   66.325; -649.000; -778.000
420.632;  155.475; -337.000; -339.000
420.758;  263.250; -251.000; -425.000
420.883;  -71.075; -876.000; -672.000
421.008; -104.225; -775.000; -619.000
421.133;  -80.225; -509.000; -467.000
421.259;  -54.075; -325.000; -259.000
421.384; -120.700; -834.000; -693.000
421.509;  -48.125;-1052.000; -862.000
421.634; 1270.475; -936.000; -820.000
421.759;  556.275; -359.000; -327.000
421.885;  -47.550; -717.000; -656.000
422.010;  -90.650; -673.000; -542.000
422.135; -147.300; -695.000; -727.000
422.260;   32.550;  340.000;  280.000
422.385;  -28.250;   12.000;  -98.000
422.510;    7.000;  151.000;  -26.000
422.635;   20.500;  -87.000;  -43.000
422.760;  125.625; -766.000; -791.000
422.885;   54.675;  -57.000;  -80.000
423.010;  -39.050; -112.000; -169.000
423.135;  -85.575; -481.000; -561.000
423.260;  -21.900; -150.000; -245.000
423.385;   80.675;  476.000;  222.000
423.510;   26.075;   71.000;  -22.000
423.635;   87.550;  133.000;   45.000
423.760;   55.125;  383.000;  328.000
423.885;   56.375;  336.000;  391.000
424.010;    5.975;  -68.000;  -13.000
424.135;  -14.175;    5.000;  -33.000
424.259;  -96.675; -654.000; -457.000
424.384;  -71.150; -279.000; -272.000
424.509;  -29.300; -260.000; -186.000
424.634;  -86.975; -761.000; -623.000
424.759;  -35.800; -688.000; -544.000
424.883;   -3.275; -506.000; -527.000
425.008;  166.525; -502.000; -410.000
425.133; 1977.800; -679.000; -653.000
425.258;  959.475; -517.000; -381.000
425.382; 1112.450; -867.000; -774.000
425.507; 2850.750; -487.000; -543.000
425.632;  456.075; -802.000; -663.000
425.756;  449.125; -256.000; -146.000
425.881; 6369.900; -831.000; -857.000
426.006;17641.100; -604.000; -355.000
426.130; 2841.825; -696.000; -508.000
426.255;  351.975; -611.000; -491.000
426.379;  170.300; -189.000; -577.000
426.504;  358.325;  660.000;  544.000
426.629; 3981.800; -519.000; -466.000
426.753; 2817.250;   64.000;  -46.000
426.878;  326.350; -252.000; -288.000
427.002;  137.925; -651.000; -668.000
427.127; 1573.925;  -35.000; -158.000
427.251;11337.650;  372.000;  401.000
427.375; 3320.950; -191.000; -173.000
427.500; 2466.725; -616.000; -610.000
427.624;  871.425; -234.000; -400.000
427.749;   93.425; -216.000; -225.000
427.873;  -30.900; -499.000; -412.000
427.997;  -37.075; -222.000; -230.000
428.122;   88.625;  795.000;  703.000
428.246;   74.225;  433.000;  434.000
428.371; -127.350; -869.000; -773.000
428.495; -110.650; -624.000; -646.000
428.619;  -31.200; -186.000; -117.000
428.743;   19.050;   65.000;  132.000
428.868;   19.850; -732.000; -643.000
428.992; 1526.850; -219.000; -326.000
429.116;  619.300; -329.000; -357.000
429.240;  279.025;  419.000;  426.000
429.365;  -28.925; -454.000; -574.000
429.489;  -65.325; -638.000; -647.000
429.613;   27.275; -236.000; -177.000
429.737;   27.150; -563.000; -432.000
429.861;  274.825; -247.000; -133.000
429.985; 5481.675; -425.000; -305.000
430.109; 6195.675; -770.000; -908.000
430.234;  716.025;   76.000;  -50.000
430.358;   64.625; -250.000; -160.000
430.482;  -88.600; -672.000; -564.000
430.606;  -59.425; -655.000; -375.000
430.730;    5.275; -437.000; -388.000
430.854;  137.500; -909.000; -835.000
430.978;  -79.200; -795.000; -764.000
431.102;  -96.175; -499.000; -422.000
431.226; -137.500; -874.000; -815.000
431.350;   36.075;  345.000;  422.000
431.474;  -79.625; -661.000; -373.000
431.597; -147.900;-1060.000; -848.000
431.721;  -79.325; -276.000; -267.000
431.845; -108.950; -704.000; -472.000
431.969;  -93.800; -304.000; -349.000
432.093;  -91.475; -395.000; -317.000
432.217;  -23.250;   32.000;   82.000
432.341;  -98.900; -523.000; -518.000
432.464;    2.550;   96.000;   40.000
432.588;  219.900; -401.000; -329.000
432.712;   98.675;  -52.000;  -52.000
432.836;   45.425;  213.000;  263.000
432.959;  -26.975; -372.000; -311.000
433.083;   88.850;   11.000;    2.000
433.207;  363.450;  285.000;  930.000
433.330; 5008.900; -391.000; -200.000
433.454; 6299.775; -654.000; -638.000
433.578; 3580.950;  583.000;  278.000
433.701;  664.450; -623.000; -675.000
433.825;  145.950; -292.000; -299.000
433.949;  185.075;   28.000;  -72.000
434.072;   54.225; -410.000; -323.000
434.196;  -16.675; -309.000; -117.000
434.319; 3718.350;25482.000;25124.000
434.443;  708.975; -656.000; -603.000
434.566; 2666.325;  281.000;   62.000
434.690;  447.875; -637.000; -383.000
434.813;   47.600; -251.000; -173.000
434.937;  -90.725; -569.000; -696.000
435.060;  -34.600; -423.000; -332.000
435.184;  326.600; -492.000; -217.000
435.307;  179.050;  159.000;  102.000
435.431;  -15.400;  -40.000;   24.000
435.554;  -82.375; -399.000; -240.000
435.677;  -86.000; -350.000; -258.000
435.801;  -44.125;  -25.000;   49.000
435.924;  -17.250;    1.000;  -67.000
436.048; -105.125;-1019.000; -732.000
436.171;  -73.750; -240.000;  -66.000
436.294;  -30.400; -248.000; -229.000
436.417;   93.825; -963.000; -849.000
436.541;  -81.425; -814.000; -840.000
436.664;  -52.700; -242.000; -316.000
436.787;  -44.825;   13.000;  113.000
436.910; -117.050; -792.000; -422.000
437.034;   11.025;  142.000;  143.000
437.157;   46.325;  -11.000;    0.000
437.280;  -47.500; -392.000; -292.000
437.403;  -80.550; -982.000; -869.000
437.526;  668.425; -903.000; -865.000
437.649; 2435.325; -505.000; -332.000
437.772;  391.175; -692.000; -540.000
437.896;  107.675;  700.000;  544.000
438.019; -104.275; -758.000; -503.000
438.142;  -85.575; -596.000; -506.000
438.265;   -9.025; -639.000; -670.000
438.388;  590.725; -520.000; -410.000
438.511;  116.575; -597.000; -394.000
438.634;  -57.950; -247.000; -125.000
438.757; -125.225; -693.000; -619.000
438.880;  -23.150;  -34.000;  -57.000
439.003;  -67.950; -417.000; -437.000
439.126;  -67.525; -287.000; -167.000
439.248;  -67.875;  -98.000; -139.000
439.371;  -58.875;    9.000;  -53.000
439.494;   22.950;  510.000;  439.000
439.617;  -55.650;   65.000;  -88.000
439.740; -176.025; -968.000; -816.000
439.863; -144.025; -755.000; -595.000
439.986; -126.300; -476.000; -431.000
440.108;  -57.800; -161.000; -112.000
440.231; -165.350; -950.000; -836.000
440.354;  -52.900;  -64.000; -150.000
440.477;   37.425; -566.000; -542.000
440.599;   -2.225; -200.000; -225.000
440.722; -105.850; -709.000; -586.000
440.845;   52.825;  751.000;  928.000
440.968; -107.700; -415.000; -311.000
441.090;  -76.075; -199.000;  -33.000
441.213; -181.000;-1021.000; -825.000
441.336;  -49.500; -159.000;   -5.000
441.458;  -71.350; -549.000; -396.000
441.581;  -75.300; -628.000; -629.000
441.703;  -69.000; -152.000;   13.000
441.826; -115.925; -557.000; -400.000
441.948;  -53.125;   56.000;   51.000
442.071;   17.400;  555.000;  424.000
442.193; -109.675; -531.000; -485.000
442.316;   12.750;  152.000;   97.000
442.438;   57.300; -233.000;  -10.000
442.561;   71.800;  272.000;  262.000
442.683;  548.150; -809.000; -522.000
442.806; 1252.700;   -8.000;   74.000
442.928;   62.425; -859.000; -604.000
443.051;  -61.475; -577.000; -373.000
443.173;  -90.825; -341.000; -339.000
443.295;  -91.850; -263.000; -371.000
443.418;  -62.750; -321.000;  -29.000
443.540;  -19.575; -106.000;   -4.000
443.662; -110.625; -563.000; -465.000
443.785;  -18.850;  335.000;  199.000
443.907;  -94.325; -362.000; -208.000
444.029; -124.475; -767.000; -494.000
444.152; -137.625; -644.000; -554.000
444.274;  -35.375;  -18.000;  -24.000
444.396; -109.300; -461.000; -221.000
444.518; -141.750; -691.000; -454.000
444.640;  -98.125; -268.000; -111.000
444.763;  -29.525;  388.000;  249.000
444.885; -129.400; -432.000; -392.000
445.007;  -35.450;   35.000;   86.000
445.129; -111.550; -610.000; -515.000
445.251; -101.600; -372.000; -439.000
445.373; -123.700; -537.000; -386.000
445.495;  -14.625;  242.000;  350.000
445.617;   44.475;  853.000;  753.000
445.739;  -70.350; -215.000;  -97.000
445.861;  -40.825; -245.000; -112.000
445.984;  -40.600; -267.000; -101.000
446.105;  222.375; -418.000; -251.000
446.227;  657.775; -176.000;  -19.000
446.349;   18.775; -358.000; -249.000
446.471; -104.225; -615.000; -448.000
446.593;  -68.650; -316.000;   19.000
446.715;   -0.375;  -67.000;   41.000
446.837;   51.575;  697.000;  832.000
446.959;  -98.425; -457.000; -478.000
447.081; -137.525; -628.000; -518.000
447.203;   42.350;  862.000;  834.000
447.325;  -93.000; -270.000;   42.000
447.446;  -12.400;  286.000;  530.000
447.568; -156.500; -921.000; -803.000
447.690;  -83.250; -236.000; -245.000
447.812; -157.525; -798.000; -519.000
447.933;  -47.525;  155.000;  127.000
448.055;  -56.150; -306.000; -261.000
448.177;  134.650;   31.000;   79.000
448.299;  107.925; -935.000; -727.000
448.420;   11.775;  -25.000;  159.000
448.542;  -40.550;   -3.000;   33.000
448.664;  -20.900;  109.000;  322.000
448.785;  -36.575;  265.000;   83.000
448.907;  -89.125; -614.000; -353.000
449.028;  -27.675; -771.000; -471.000
449.150;   56.225;  492.000;  589.000
449.272; -172.325;-1044.000; -913.000
449.393;   23.675;  612.000;  694.000
449.515; -141.150; -634.000; -581.000
449.636;  -62.800; -264.000; -155.000
449.758;   81.900;  763.000;  622.000
449.879;  -94.250; -498.000; -396.000
450.001;  -66.125; -149.000;  -49.000
450.122;  -39.750;  -95.000;  162.000
450.244;  -16.350;   37.000;  364.000
450.365; -103.425; -495.000; -301.000
450.486;  -36.275;   80.000;  268.000
450.608;   14.950;  393.000;  326.000
450.729;   67.800;  578.000;  645.000
450.850;  -13.900; -574.000; -466.000
450.972;  731.850; -552.000; -389.000
451.093; 4839.300;  190.000;  588.000
451.214; 2147.550; -516.000; -337.000
451.336;  407.000;  773.000;  579.000
451.457;   59.100;  264.000;  393.000
451.578;  -51.050; -118.000;  -74.000
451.699; -128.475; -546.000; -540.000
451.821;  -83.325; -284.000;  -50.000
451.942;   -3.600;  278.000;  285.000
452.063;   26.725;  228.000;  419.000
452.184;  534.725;  -54.000;  -49.000
452.305; 1108.350;  103.000;  170.000
452.427;  135.925; -549.000; -301.000
452.548;  -20.425;   23.000;   79.000
452.669;  -59.425; -257.000;  -89.000
452.790;  -44.925;    3.000;  -18.000
452.911;   -5.150;  195.000;  259.000
453.032;  -72.875; -289.000;  -60.000
453.153;  -40.725;  -29.000;   81.000
453.274;   51.775;  737.000;  868.000
453.395;  -52.525;  -51.000;  175.000
453.516;  117.400; 1317.000; 1388.000
453.637;  -57.750; -205.000; -150.000
453.758;  -69.625;   15.000;   69.000
453.879; -120.500; -462.000; -250.000
454.000;   65.875; 1086.000;  948.000
454.121; -123.750; -554.000; -326.000
454.242; -123.825; -599.000; -383.000
454.362;  -62.775;  -99.000;  114.000
454.483;  -36.850; -309.000; -229.000
454.604;   47.450;  512.000;  580.000
454.725; -137.525; -627.000; -555.000
454.846; -138.900; -474.000; -406.000
454.967;  -29.525;  230.000;  539.000
455.087;  -52.300;  179.000;  153.000
455.208;    2.175;  554.000;  856.000
455.329;  -53.575;  -22.000;   82.000
455.450;   24.525;  473.000;  633.000
455.570;  -81.725; -234.000; -211.000
455.691;  -53.875;  201.000;  407.000
455.812; -110.050; -270.000;  -92.000
455.932;  -61.050;  107.000;  -97.000
456.053;  -81.250;   36.000;   24.000
456.173; -129.100; -433.000; -355.000
456.294; -135.375; -476.000; -303.000
456.415;  -82.375;  -73.000;   70.000
456.535;  -37.750;  297.000;  273.000
456.656;  -47.000;  132.000;  240.000
456.776;  -72.375;    3.000;  298.000
456.897;  -19.350;  308.000;  513.000
457.017;  -77.050; -153.000;   -3.000
457.138; -108.575; -402.000; -249.000
457.258;  -31.925;  263.000;  224.000
457.379;  -26.675;  509.000;  521.000
457.499;  -26.200;  443.000;  432.000
457.620; -132.700; -407.000; -231.000
457.740;  -96.575; -132.000;  -11.000
457.860;  -71.550;   87.000;   44.000
457.981;  -62.350;  132.000;  124.000
458.101;  -63.100;  -89.000;   40.000
458.221;  -17.700;  336.000;  402.000
458.342;  -70.175;   -4.000;  -37.000
458.462;   18.875;  617.000;  352.000
458.582;  -33.750; -302.000; -294.000
458.703;   23.025;  303.000;  154.000
458.823;  -24.875;   22.000;  163.000
458.943;   24.275;  341.000;  467.000
459.063;  -20.250; 1124.000;  192.000
459.183;  -21.250;  328.000;  313.000
459.304;   -3.100;  315.000;  517.000
459.424;  -64.600; -246.000;  -89.000
459.544;  312.025;  388.000;  764.000
459.664;  821.950;  499.000;  506.000
459.784;  296.025; 1004.000; 1175.000
459.904;   51.925;  867.000;  744.000
460.024;   55.200;  867.000;  684.000
460.144;   11.925;  449.000;  554.000
460.264;   -2.300;  515.000;  327.000
460.385; -102.000; -145.000; -119.000
460.505;   36.825;  905.000;  858.000
460.625;  -98.350;  -17.000;  -68.000
460.745;  -23.400;  396.000;  541.000
460.864;  -53.100;  153.000;  469.000
460.984;   15.050;  499.000;  573.000
461.104;  140.925; 1656.000; 1775.000
461.224;   19.225;  657.000;  650.000
461.344;  -24.500;  431.000;  360.000
461.464;  -39.025;  258.000;  513.000
461.584;  -14.425;  283.000;  466.000
461.704;  -54.850;   58.000;  108.000
461.824;  -60.975;  238.000;  259.000
461.943;  -49.050;  191.000;  130.000
462.063;  -65.300;    2.000;  324.000
462.183;   13.800;  639.000;  717.000
462.303;  112.700; 1678.000; 1230.000
462.422;   29.750;  781.000;  840.000
462.542;  -34.800;  271.000;  391.000
462.662;   22.675;  353.000;  380.000
462.782;  249.300;  833.000;  572.000
462.901;  481.850;  545.000;  717.000
463.021;  285.450; 1702.000; 1638.000
463.141;  -15.275;  337.000;  770.000
463.260;  -23.150;  614.000;  474.000
463.380;   15.075;  902.000;  884.000
463.499;  -44.875;  342.000;  332.000
463.619;  -35.725;  581.000;  559.000
463.738;  105.825; 1644.000;  903.000
463.858;    2.050;  657.000;  811.000
463.978;  -21.300;  542.000;  396.000
464.097;   33.675;  921.000; 1114.000
464.217;  109.800; 1196.000; 1143.000
464.336;   98.175; 1068.000; 1130.000
464.455;  -39.450;  328.000;  659.000
464.575;   44.950;  597.000;  602.000
464.694;  177.550; 1204.000; 1179.000
464.814;  123.000; 1190.000; 1138.000
464.933;   70.100; 1095.000; 1027.000
465.052;   99.275; 1412.000; 1054.000
465.172;   74.650;  922.000;  799.000
465.291;  135.150; 1376.000; 1320.000
465.410;   16.450;  462.000;  735.000
465.530;   80.425; 1355.000; 1310.000
465.649;   78.875; 1209.000; 1273.000
465.768;  144.500; 1673.000; 1508.000
465.888;   51.450;  941.000; 1174.000
466.007;   77.400; 1335.000; 1440.000
466.126;   -6.900;  721.000;  641.000
466.245;   32.750; 1176.000; 1187.000
466.364;   33.750;  950.000; 1060.000
466.484;   49.900; 1024.000; 1213.000
466.603;   60.325; 1101.000; 1222.000
466.722;  110.825; 1490.000; 1769.000
466.841;   74.400; 1151.000; 1401.000
466.960;   32.600; 1069.000;  972.000
467.079;  123.875; 1971.000; 1786.000
467.198;   41.325; 1238.000; 1181.000
467.317;   96.625; 1768.000; 1162.000
467.436;   71.075; 1709.000; 1261.000
467.555;  128.200; 1796.000; 1746.000
467.674;   55.950; 1227.000; 1329.000
467.793;   40.700; 1376.000; 1374.000
467.912;   83.275; 1658.000; 1539.000
468.031;  127.925; 2038.000; 1930.000
468.150;  140.800; 1842.000; 1837.000
468.269;  207.975; 2313.000; 2090.000
468.388;  178.775; 2168.000; 2339.000
468.507;  244.125; 2884.000; 2903.000
468.626;  226.650; 2555.000; 2541.000
468.744;  137.550; 2018.000; 2174.000
468.863;  188.475; 2312.000; 2523.000
468.982;   89.350; 1503.000; 1555.000
469.101;  223.625; 2788.000; 2692.000
469.220;  157.825; 2333.000; 2176.000
469.338;  233.050; 2935.000; 3051.000
469.457;  201.300; 2719.000; 2545.000
469.576;  331.300; 3953.000; 3784.000
469.695;  246.750; 2877.000; 3066.000
469.813;  428.600; 4148.000; 4192.000
469.932;  413.825; 4255.000; 4485.000
470.051;  417.725; 4075.000; 4161.000
470.169;  838.125; 4470.000; 4338.000
470.288; 1453.350; 4700.000; 4809.000
470.406;  892.525; 5059.000; 5194.000
470.525;  624.350; 6101.000; 5787.000
470.644;  650.325; 6847.000; 6794.000
470.762;  813.475; 8397.000; 7873.000
470.881;  900.750; 8651.000; 8464.000
470.999; 1034.175; 9685.000; 9151.000
471.118; 1099.625;11174.000;10711.000

