
Integration time [ms]: 200.000
Averaging Nr. [scans]: 10
Smoothing Nr. [pixels]: 0
Data measured with spectrometer [name]: 2101012U2
Wave   ;Sample   ;Dark     ;Reference
[nm]   ;[counts] ;[counts] ;[counts] 

197.733;   92.000;  516.000;  404.000
197.879; -175.100; -610.000; -634.000
198.025; -123.300; -475.000; -420.000
198.171; -160.000; -602.000; -612.000
198.317;  -82.700; -401.000; -316.000
198.463; -104.800; -655.000; -404.000
198.609;   43.500;  181.000; -137.000
198.755; -164.900; -644.000; -410.000
198.901; -151.600; -505.000; -424.000
199.047; -125.600; -615.000; -488.000
199.193;  -96.300; -230.000; -468.000
199.339;  -66.000; -222.000; -369.000
199.485;   72.900;  330.000;  271.000
199.631;   49.000;  227.000;  310.000
199.777; -131.000; -466.000; -398.000
199.923; -153.900; -610.000; -424.000
200.069;   -7.200; -141.000;  -58.000
200.215;  139.700;  128.000;  453.000
200.361;   91.100;  243.000;  477.000
200.507; -140.600; -600.000; -373.000
200.653;  -90.500; -371.000; -194.000
200.798;  -69.900; -215.000; -125.000
200.944;  -24.600; -146.000;  -41.000
201.090;   71.500;   61.000;  222.000
201.236;  -18.200; -116.000; -158.000
201.382;  240.100;  874.000;  903.000
201.528;   -9.100;  -58.000;  -48.000
201.674;  -69.600; -386.000; -293.000
201.819; -154.000; -540.000; -439.000
201.965; -180.100; -699.000; -447.000
202.111;  -55.500; -273.000; -226.000
202.257;  -67.200; -250.000; -238.000
202.402;   -1.700;   13.000;  -36.000
202.548;  -37.300; -169.000; -116.000
202.694;  181.200;  410.000; -183.000
202.840; -162.600; -603.000; -531.000
202.985; -147.300; -681.000; -639.000
203.131; -227.300; -832.000; -666.000
203.277;  -72.700; -199.000; -262.000
203.423; -106.400; -434.000; -520.000
203.568;  -80.100; -462.000; -237.000
203.714; -126.700; -535.000; -542.000
203.860; -177.500; -682.000; -641.000
204.005;    9.700;  112.000;  167.000
204.151;  161.300;  561.000;  556.000
204.296; -109.500; -354.000; -221.000
204.442; -142.800; -600.000; -547.000
204.588; -195.800; -592.000; -579.000
204.733;   11.100;  178.000;  168.000
204.879; -277.500;-1018.000; -822.000
205.025;   31.800;  -99.000;  126.000
205.170;   22.700;  -17.000;   94.000
205.316;  159.000;  438.000;  661.000
205.461; -158.500; -698.000; -554.000
205.607;  183.700;  609.000;  665.000
205.752; -181.700; -626.000; -551.000
205.898; -119.900; -501.000; -391.000
206.043; -133.600; -578.000; -506.000
206.189;  -87.100; -243.000; -285.000
206.334;  137.000;  554.000;  606.000
206.480;  152.600;  409.000;  239.000
206.625; -169.200; -529.000; -552.000
206.771; -110.500; -451.000; -373.000
206.916;  -70.500; -210.000; -537.000
207.062; -167.200; -545.000; -591.000
207.207; -137.500; -546.000; -443.000
207.353;  113.300;  185.000;  460.000
207.498;    9.500;  196.000;   85.000
207.643; -108.200; -501.000; -370.000
207.789; -228.200;-1069.000; -910.000
207.934; -221.100; -665.000; -713.000
208.080;  -56.600; -154.000;   66.000
208.225;  -32.500;  -22.000;  -57.000
208.370; -177.700; -727.000; -619.000
208.516; -155.200; -741.000; -487.000
208.661;  -34.800; -127.000;  -69.000
208.806;  -56.100; -165.000; -171.000
208.952; -297.400;-1044.000; -731.000
209.097;  169.900;  378.000;  349.000
209.242; -107.600; -307.000; -382.000
209.387;  111.900;  392.000;  350.000
209.533;  -99.800; -321.000; -350.000
209.678;  162.700;  472.000;  543.000
209.823; -112.400; -408.000; -310.000
209.969; -214.800; -860.000; -757.000
210.114; -236.400; -907.000; -719.000
210.259; -260.500; -939.000; -889.000
210.404;   -9.700; -171.000;  103.000
210.549;    2.700;  108.000;    3.000
210.695;  -23.400;   -3.000;  -95.000
210.840;   83.400;   94.000;   67.000
210.985; -138.800; -484.000; -303.000
211.130;  137.300;  268.000;  406.000
211.275;   19.300;  207.000;  199.000
211.420; -110.400; -300.000; -289.000
211.566; -147.500; -536.000; -489.000
211.711;   50.500;  218.000;  157.000
211.856; -150.200; -545.000; -519.000
212.001;   57.900;  151.000;   44.000
212.146;   32.900;  153.000;   49.000
212.291;  -48.000; -210.000; -186.000
212.436;  -46.000; -280.000;   -6.000
212.581; -186.600; -685.000; -653.000
212.726; -160.000; -487.000; -538.000
212.871; -129.200; -552.000; -217.000
213.016; -302.000;-1172.000;-1029.000
213.161;  117.500;  406.000;  291.000
213.306; -148.600; -435.000; -577.000
213.451; -200.400; -778.000; -689.000
213.596; -119.600; -455.000; -347.000
213.741; -133.400; -448.000; -538.000
213.886; -169.400; -498.000; -517.000
214.031;  -79.200; -294.000; -124.000
214.176;  -97.600; -408.000; -341.000
214.321;  -31.800; -296.000; -157.000
214.466;  -43.200; -163.000;  -43.000
214.611;   -1.300;  -61.000;  -10.000
214.756; -239.900; -948.000; -858.000
214.901;  -72.700; -388.000; -226.000
215.046; -266.500; -797.000; -825.000
215.191;    5.300;  128.000;   35.000
215.336;  -26.300; -157.000;  -19.000
215.480; -165.700; -684.000; -505.000
215.625;  -33.200; -175.000;  -19.000
215.770; -178.000; -757.000; -662.000
215.915;  -32.500;   -5.000;  -97.000
216.060;   -9.900; -113.000;  -21.000
216.205; -191.900; -731.000; -779.000
216.349; -161.200; -470.000; -533.000
216.494; -266.300; -939.000; -867.000
216.639; -254.700; -823.000; -888.000
216.784; -157.400; -577.000; -525.000
216.929;  111.100;  392.000;  281.000
217.073;  -26.500; -244.000;  -31.000
217.218;   23.700;   78.000;  -47.000
217.363; -191.100; -656.000; -618.000
217.507; -156.500; -623.000; -588.000
217.652; -274.900; -845.000; -874.000
217.797; -209.600; -708.000; -659.000
217.942; -233.800; -856.000; -720.000
218.086;  145.400;  608.000;  539.000
218.231;  -25.900; -174.000;  -26.000
218.376;  -88.500; -337.000; -229.000
218.520;   37.500;  -41.000;   96.000
218.665;  -94.700; -338.000; -204.000
218.810;  -69.800; -275.000; -233.000
218.954;   11.600;  201.000;   35.000
219.099; -243.100; -713.000; -963.000
219.243; -153.200; -589.000; -554.000
219.388;  -77.000; -264.000; -136.000
219.532;  -17.800; -116.000; -116.000
219.677; -159.900; -564.000; -521.000
219.822;   11.700;   33.000;   89.000
219.966;   27.100;   17.000;  -99.000
220.111;  -76.300; -328.000;  -40.000
220.255; -199.100; -797.000; -750.000
220.400;  -39.600; -180.000; -146.000
220.544; -144.300; -516.000; -450.000
220.689;  -92.300; -422.000; -451.000
220.833;  -55.500; -123.000;  -58.000
220.978;  -96.200; -393.000; -563.000
221.122;   46.000;  319.000;  307.000
221.267; -270.600; -906.000; -837.000
221.411; -121.800; -478.000; -394.000
221.555;  -19.200; -104.000;  -23.000
221.700;  -89.400; -329.000; -222.000
221.844;   65.300;  255.000;  272.000
221.989;  -92.600; -328.000; -311.000
222.133;  -62.600; -289.000; -307.000
222.277;    2.100;    5.000;   78.000
222.422;   34.100;  227.000;  113.000
222.566;  -99.700; -381.000; -214.000
222.711; -129.200; -414.000; -479.000
222.855; -172.600; -643.000; -586.000
222.999; -192.600; -642.000; -717.000
223.144;  -45.600; -195.000; -194.000
223.288;  105.300;  423.000;  251.000
223.432;   27.100;  184.000;  230.000
223.576;   13.000;  152.000;  -21.000
223.721;   61.700;  364.000;  273.000
223.865; -134.300; -472.000; -475.000
224.009;  543.200; 1673.000; 1631.000
224.153; -161.600; -660.000; -671.000
224.298; -171.800; -531.000; -489.000
224.442;  -33.400;  -74.000;  -33.000
224.586;   -6.300; -169.000; -106.000
224.730; -233.500; -858.000; -670.000
224.875; -215.500; -739.000; -688.000
225.019;   15.400;  102.000;  188.000
225.163;  117.700;  208.000;  341.000
225.307;   24.100;   97.000;  -91.000
225.451;  141.100;  360.000;  481.000
225.595;   69.600;  264.000;  176.000
225.739;   -8.000; -170.000;  -94.000
225.884;   11.000;   86.000;    5.000
226.028; -218.800; -760.000; -626.000
226.172; -100.200; -260.000; -273.000
226.316; -271.100; -941.000; -902.000
226.460; -152.600; -645.000; -493.000
226.604;  -66.800; -406.000; -400.000
226.748; -231.300; -836.000; -733.000
226.892;  -77.100; -227.000; -181.000
227.036; -103.900; -537.000; -447.000
227.180;  -75.900; -551.000; -375.000
227.324; -121.000; -561.000; -580.000
227.468; -193.000; -819.000; -717.000
227.612;   56.700;  242.000;  -28.000
227.756; -197.000; -845.000; -698.000
227.900;   88.200;  342.000;  441.000
228.044; -119.400; -509.000; -290.000
228.188;  116.200;  448.000;  568.000
228.332; -159.700; -546.000; -472.000
228.476;  -90.900; -223.000; -149.000
228.620;  -73.600; -210.000; -150.000
228.764;  117.600;  431.000;  349.000
228.908;  -30.000; -155.000;   30.000
229.052; -130.200; -615.000; -528.000
229.195;  -45.300; -172.000;   13.000
229.339;  -50.100; -235.000; -305.000
229.483;  -31.600;    5.000; -162.000
229.627;   18.700; -156.000;  139.000
229.771;  -86.500; -218.000; -294.000
229.915;   33.900;  230.000;   79.000
230.059; -196.600; -648.000; -663.000
230.202;  -88.400; -370.000; -317.000
230.346;  -32.300; -107.000;  107.000
230.490; -153.400; -489.000; -521.000
230.634; -227.800; -736.000; -553.000
230.777;  177.100;  478.000;  509.000
230.921; -114.500; -450.000; -359.000
231.065;  -97.500; -246.000; -286.000
231.209;   49.600;  261.000;  265.000
231.352;   46.700;   54.000;   40.000
231.496;   30.200;  568.000;  188.000
231.640; -185.000; -693.000; -621.000
231.783;  108.100;  546.000;  525.000
231.927;  -83.600; -294.000; -365.000
232.071; -241.400; -962.000; -736.000
232.214; -253.900; -980.000; -764.000
232.358; -181.600; -683.000; -599.000
232.502;   -9.600;  -19.000;    7.000
232.645; -279.300;-1090.000; -927.000
232.789;  -42.300; -257.000; -218.000
232.933;  -78.100; -407.000; -224.000
233.076; -275.000;-1038.000; -897.000
233.220; -216.200; -752.000; -777.000
233.363; -165.800; -669.000; -477.000
233.507;  165.100;  371.000;  129.000
233.650; -206.900; -764.000; -834.000
233.794;  109.100;  438.000;  461.000
233.938; -147.700; -530.000; -362.000
234.081;    2.000;  -93.000;   31.000
234.225; -143.400; -631.000; -539.000
234.368; -217.400; -773.000; -723.000
234.512; -105.500; -385.000; -299.000
234.655; -169.600; -582.000; -555.000
234.798; -175.300; -493.000; -466.000
234.942; -268.900; -884.000;-1002.000
235.085; -160.700; -651.000; -443.000
235.229; -165.900; -405.000; -410.000
235.372;  -82.900; -247.000; -191.000
235.516; -120.100; -397.000; -321.000
235.659;   20.100;   92.000;  121.000
235.802;   19.500;  -38.000;  -22.000
235.946;   61.800;  335.000;  215.000
236.089;   71.200;  126.000;  250.000
236.233;  100.400;  275.000;  298.000
236.376; -119.800; -235.000; -378.000
236.519; -107.800; -297.000; -319.000
236.663;  -17.000; -215.000; -117.000
236.806; -305.200;-1029.000; -999.000
236.949;  135.000;  543.000;  431.000
237.092;  150.500;  412.000;  391.000
237.236; -173.800; -589.000; -502.000
237.379;  139.800;  352.000;  428.000
237.522; -232.000; -879.000; -768.000
237.666;  -14.600; -271.000;   18.000
237.809; -223.300; -851.000; -823.000
237.952;   87.600;  469.000;  271.000
238.095; -140.700; -447.000; -442.000
238.238;  173.800;  688.000;  700.000
238.382;  -13.300;  166.000;  103.000
238.525; -127.100; -598.000; -511.000
238.668; -286.500;-1060.000; -985.000
238.811; -195.700; -638.000; -643.000
238.954; -132.700; -483.000; -334.000
239.097;  188.600;  617.000;  664.000
239.241;   49.400;  394.000;  326.000
239.384;  -38.200; -254.000; -214.000
239.527; -122.700; -424.000; -224.000
239.670; -307.900; -994.000;-1091.000
239.813; -222.300; -696.000; -658.000
239.956;  144.300;  579.000;  473.000
240.099; -238.300; -778.000; -725.000
240.242;  130.600;  428.000;  432.000
240.385;  107.300;  466.000;  450.000
240.528; -156.700; -706.000; -473.000
240.671;   62.000;  189.000;  134.000
240.814;  -92.300; -441.000; -158.000
240.957; -192.000; -767.000; -578.000
241.100; -212.500; -779.000; -755.000
241.243; -285.600;-1234.000; -893.000
241.386; -142.000; -508.000; -379.000
241.529; -178.200; -735.000; -547.000
241.672; -145.100; -566.000; -495.000
241.815; -273.200; -832.000; -808.000
241.958;  -45.500; -125.000; -182.000
242.101; -150.900; -545.000; -390.000
242.244;  -69.400; -270.000; -325.000
242.387;  -86.200; -304.000; -246.000
242.530;  138.600;  470.000;  134.000
242.673;  -78.600; -381.000; -309.000
242.815; -243.600; -925.000; -899.000
242.958; -122.800; -482.000; -381.000
243.101;   26.300;  132.000;  187.000
243.244; -163.900; -564.000; -521.000
243.387;  -98.800; -313.000; -316.000
243.530; -201.300; -657.000; -674.000
243.672;  -19.900;   43.000;  -92.000
243.815; -114.900; -355.000; -283.000
243.958;   20.900;   98.000;  -26.000
244.101;   23.400;   59.000;  -16.000
244.243;  -21.600;  -47.000;  101.000
244.386; -231.000; -761.000; -630.000
244.529;  -22.300; -132.000; -139.000
244.672; -322.000;-1154.000; -951.000
244.814; -224.400; -621.000; -794.000
244.957;  -85.700; -380.000; -304.000
245.100; -164.000; -489.000; -489.000
245.242; -131.300; -387.000; -374.000
245.385;  -12.100;  -59.000;  -39.000
245.528; -231.800; -871.000; -705.000
245.670;  217.800;  612.000;  634.000
245.813; -199.300; -599.000; -547.000
245.956;  -69.500; -324.000; -275.000
246.098; -143.300; -508.000; -650.000
246.241;    6.400;  194.000;   48.000
246.383;  -30.800; -119.000;  -73.000
246.526; -162.900; -454.000; -525.000
246.669; -236.100; -889.000; -780.000
246.811;   -2.700;  172.000;   -1.000
246.954; -125.400; -512.000; -426.000
247.096;  -47.100;  -84.000;   -6.000
247.239; -111.800; -482.000; -445.000
247.381; -195.600; -647.000; -488.000
247.524;  201.200;  645.000;  679.000
247.666;   18.400;   58.000;   11.000
247.809; -218.900; -887.000; -691.000
247.951;  -28.300;  -75.000;  138.000
248.094;   69.100;  432.000;  308.000
248.236; -351.700;-1262.000;-1238.000
248.378;  -84.400; -356.000;  -81.000
248.521; -115.500; -334.000; -337.000
248.663;  -82.300; -236.000; -267.000
248.806;  -68.800; -300.000; -266.000
248.948; -253.500; -886.000; -763.000
249.090; -146.400; -428.000; -398.000
249.233; -140.000; -344.000; -381.000
249.375; -165.000; -474.000; -451.000
249.518;  -43.600;  -83.000; -133.000
249.660;  -39.900; -103.000;    3.000
249.802; -388.000;-1303.000;-1189.000
249.945; -167.200; -612.000; -540.000
250.087; -244.800; -834.000; -768.000
250.229; -113.100; -362.000; -480.000
250.371; -148.600; -494.000; -439.000
250.514;  -98.900; -310.000; -244.000
250.656;   22.200;   69.000;  102.000
250.798; -249.700; -849.000; -800.000
250.940; -140.800; -322.000; -322.000
251.083;  -51.000; -335.000; -111.000
251.225;  129.600;  338.000;  310.000
251.367;  -78.900; -274.000; -373.000
251.509;  -78.600; -265.000; -210.000
251.651; -194.700; -731.000; -671.000
251.794;  123.700;  538.000;  632.000
251.936; -251.700; -821.000; -747.000
252.078; -170.700; -540.000; -461.000
252.220; -167.600; -645.000; -477.000
252.362;   61.900;  344.000;  462.000
252.504; -167.200; -677.000; -584.000
252.646; -242.300; -875.000; -722.000
252.788;  -55.600;   14.000; -128.000
252.931;  -99.900; -257.000; -253.000
253.073; -104.100; -376.000; -317.000
253.215;   14.200;  141.000;  122.000
253.357;  -35.200;   82.000; -153.000
253.499; -125.100; -374.000; -234.000
253.641; -186.800; -749.000; -594.000
253.783; -205.600; -609.000; -527.000
253.925; -178.200; -586.000; -591.000
254.067; -227.000; -744.000; -667.000
254.209;  -85.900; -391.000; -259.000
254.351; -293.600; -865.000; -883.000
254.493; -159.400; -441.000; -417.000
254.635; -239.500; -936.000; -818.000
254.777; -233.200; -752.000; -687.000
254.918; -145.300; -512.000; -430.000
255.060; -149.400; -551.000; -395.000
255.202; -114.900; -473.000; -261.000
255.344; -175.400; -658.000; -455.000
255.486; -150.700; -471.000; -406.000
255.628; -207.000; -780.000; -781.000
255.770; -182.800; -676.000; -536.000
255.912; -175.600; -559.000; -468.000
256.053; -187.600; -730.000; -508.000
256.195;  335.700; 1008.000;  903.000
256.337; -222.700; -861.000; -595.000
256.479;  146.200;  532.000;  416.000
256.621;  -79.700; -394.000; -212.000
256.762; -181.300; -789.000; -742.000
256.904;   99.100;  485.000;  487.000
257.046;  -93.800; -381.000; -271.000
257.188; -116.100; -351.000; -264.000
257.329; -153.400; -525.000; -464.000
257.471; -216.500; -939.000; -807.000
257.613; -143.700; -584.000; -498.000
257.755; -307.500;-1073.000; -982.000
257.896;   91.900;  286.000;  392.000
258.038; -147.800; -403.000; -352.000
258.180;  -98.600; -354.000; -279.000
258.321; -174.600; -581.000; -457.000
258.463;   -2.800;  -71.000;  133.000
258.605; -173.800; -562.000; -570.000
258.746; -224.600; -886.000; -772.000
258.888; -327.300;-1026.000;-1020.000
259.029;   49.600;  121.000;   -8.000
259.171; -163.900; -614.000; -550.000
259.313;  -39.400;  -49.000;  -47.000
259.454; -148.800; -536.000; -414.000
259.596; -123.900; -483.000; -390.000
259.737; -181.900; -590.000; -474.000
259.879;   84.100;  217.000;  311.000
260.020;  188.000;  901.000;  636.000
260.162;  -71.000; -146.000; -253.000
260.303; -229.300; -768.000; -687.000
260.445; -203.000; -609.000; -613.000
260.586;   56.600;  392.000;  157.000
260.728; -125.900; -360.000; -248.000
260.869; -135.800; -350.000; -343.000
261.011;  151.500;  706.000;  537.000
261.152; -147.200; -479.000; -319.000
261.293; -173.600; -576.000; -595.000
261.435;  -48.400; -219.000; -184.000
261.576; -101.100; -455.000; -325.000
261.718;  134.500;  420.000;  470.000
261.859; -266.300; -940.000; -949.000
262.000; -296.200; -951.000;-1016.000
262.142;  -73.100;  -52.000;  -60.000
262.283; -235.600; -808.000; -691.000
262.424; -195.600; -666.000; -625.000
262.566; -312.300;-1161.000; -983.000
262.707; -258.300; -840.000; -830.000
262.848; -261.800; -769.000; -726.000
262.990; -127.400; -362.000; -345.000
263.131;  184.200;  650.000;  681.000
263.272;   -9.600;  -61.000;  -41.000
263.413; -197.500; -589.000; -561.000
263.555; -145.900; -669.000; -143.000
263.696; -159.100; -550.000; -641.000
263.837; -121.500; -449.000; -551.000
263.978;   -0.300;   -5.000;  -77.000
264.119; -104.400; -283.000; -264.000
264.261; -209.400; -847.000; -630.000
264.402;   11.900;   33.000;   40.000
264.543; -135.400; -509.000; -524.000
264.684;  -35.600;   61.000;  -50.000
264.825; -142.000; -816.000; -538.000
264.966;  -10.800;  -84.000;  -67.000
265.107; -223.800; -646.000; -670.000
265.248; -235.300; -825.000; -812.000
265.390;   -5.600;  152.000;   -9.000
265.531;  -47.500; -238.000; -107.000
265.672; -163.900; -557.000; -630.000
265.813;  147.200;  563.000;  439.000
265.954; -290.100; -959.000; -940.000
266.095;  -31.400; -372.000; -322.000
266.236; -206.400; -686.000; -548.000
266.377;  -83.100; -243.000; -297.000
266.518; -130.200; -619.000; -547.000
266.659;  101.200;  170.000;  268.000
266.800;    5.000;   83.000;   85.000
266.941; -165.700; -487.000; -478.000
267.082;   36.300;  354.000;   99.000
267.223; -121.000; -344.000; -273.000
267.364; -251.000; -892.000; -686.000
267.504;  -11.900;    3.000;  135.000
267.645;   -0.500;  160.000;   67.000
267.786;  -91.300; -147.000;  -86.000
267.927; -147.400; -473.000; -379.000
268.068;  -45.500; -186.000;  -61.000
268.209;  -74.500; -175.000; -413.000
268.350; -138.000; -388.000; -532.000
268.490; -182.900; -648.000; -521.000
268.631;   78.600;  127.000;  225.000
268.772; -242.700; -874.000; -647.000
268.913;  -95.900; -328.000; -476.000
269.054;  -51.100; -117.000;   12.000
269.194; -110.400; -418.000; -402.000
269.335; -309.300;-1137.000;-1074.000
269.476;  -73.100;   33.000;  -35.000
269.617; -108.900; -347.000; -392.000
269.757; -222.700; -713.000; -646.000
269.898; -230.600; -856.000; -613.000
270.039; -159.200; -415.000; -405.000
270.180; -282.000; -952.000; -816.000
270.320;  -53.300; -190.000; -250.000
270.461;  -74.800; -277.000; -249.000
270.602;  -46.300; -186.000; -156.000
270.742; -261.000; -868.000; -943.000
270.883; -125.600; -442.000; -390.000
271.023; -116.800; -358.000; -357.000
271.164; -158.100; -607.000; -528.000
271.305; -206.300; -666.000; -654.000
271.445; -203.700; -722.000; -683.000
271.586; -141.100; -462.000; -283.000
271.726; -104.200; -397.000; -322.000
271.867; -182.000; -594.000; -534.000
272.008;  -74.900; -473.000; -285.000
272.148;  130.200;  462.000;  468.000
272.289;  -41.800; -113.000; -181.000
272.429;  -33.900;   19.000;  185.000
272.570; -233.100; -633.000; -737.000
272.710; -215.600; -825.000; -775.000
272.851;  -22.900;  113.000; -130.000
272.991; -338.000;-1173.000;-1077.000
273.131; -168.800; -419.000; -459.000
273.272; -188.400; -683.000; -723.000
273.412;    4.800; -143.000;  -31.000
273.553; -193.100; -488.000; -507.000
273.693;  238.000;  913.000;  858.000
273.834; -278.000; -894.000; -692.000
273.974; -192.100; -664.000; -615.000
274.114; -239.800; -772.000; -560.000
274.255;  127.200;  414.000;  373.000
274.395;  -78.400; -180.000; -125.000
274.535;   43.800;  199.000;  350.000
274.676;   59.100;  225.000;   94.000
274.816;  -15.600;  110.000;   34.000
274.956; -212.000; -624.000; -690.000
275.097; -264.300;-1014.000; -922.000
275.237; -276.700; -913.000; -803.000
275.377; -234.900; -778.000; -689.000
275.517; -312.300; -878.000; -937.000
275.658; -180.200; -590.000; -555.000
275.798; -197.300; -606.000; -413.000
275.938;   41.500;  215.000;  323.000
276.078; -163.400; -626.000; -395.000
276.218;  -17.300;   99.000;  104.000
276.359; -275.800;-1026.000;-1024.000
276.499; -166.100; -605.000; -446.000
276.639;  -63.000; -305.000; -151.000
276.779; -119.500; -475.000; -357.000
276.919; -226.500; -783.000; -624.000
277.059;  -45.300; -261.000; -212.000
277.199;  -99.900; -357.000; -259.000
277.340;   85.900;  287.000;  175.000
277.480; -213.400; -840.000; -693.000
277.620;   76.700;  192.000;   16.000
277.760; -416.600;-1533.000;-1294.000
277.900;    2.100;  113.000;   33.000
278.040;   14.900;  137.000;  159.000
278.180;   49.500;  270.000;  170.000
278.320;   15.400;   21.000;   56.000
278.460; -138.400; -443.000; -469.000
278.600; -198.500; -708.000; -598.000
278.740;   93.800;  448.000;  224.000
278.880; -276.100; -768.000; -791.000
279.020;  -57.300; -194.000; -144.000
279.160; -174.500; -672.000; -595.000
279.300; -248.700; -926.000; -873.000
279.440; -195.000; -709.000; -622.000
279.579; -279.800;-1014.000; -929.000
279.719; -135.800; -410.000; -394.000
279.859;   29.200;   -4.000;   41.000
279.999;  -75.100; -208.000;  101.000
280.139; -137.000; -435.000; -387.000
280.279; -223.900; -708.000; -745.000
280.419;  -38.500; -229.000; -147.000
280.559; -106.400; -259.000; -180.000
280.698; -206.500; -790.000; -639.000
280.838; -225.600; -778.000; -800.000
280.978; -238.400; -846.000; -790.000
281.118; -229.100; -811.000; -704.000
281.257;  -11.600;   24.000;    6.000
281.397; -311.600;-1094.000; -960.000
281.537; -193.400; -599.000; -712.000
281.677;  -73.100; -150.000; -101.000
281.816; -174.100; -700.000; -630.000
281.956;  -77.000; -193.000; -257.000
282.096; -129.700; -539.000; -396.000
282.235; -184.200; -672.000; -638.000
282.375;  -71.100; -243.000;  -98.000
282.515; -260.200; -715.000; -707.000
282.654;    3.400;   29.000;  106.000
282.794;   70.600;  388.000;  244.000
282.934; -123.700; -530.000; -491.000
283.073; -284.400;-1030.000; -857.000
283.213; -133.500; -460.000; -467.000
283.353; -136.000; -408.000; -349.000
283.492; -104.300; -264.000; -296.000
283.632;  -94.900; -254.000; -168.000
283.771; -212.500; -859.000; -730.000
283.911; -104.600; -369.000; -260.000
284.050; -239.300; -794.000; -748.000
284.190; -351.500;-1229.000;-1096.000
284.329; -319.900;-1055.000; -964.000
284.469; -201.100; -516.000; -591.000
284.608; -157.800; -559.000; -598.000
284.748; -156.200; -614.000; -570.000
284.887;  -14.000;  -87.000;  -20.000
285.027; -287.500; -844.000; -892.000
285.166;  -95.700; -192.000; -249.000
285.306;  -78.600; -116.000;  -33.000
285.445;  -62.400; -229.000; -343.000
285.584; -187.800; -630.000; -494.000
285.724; -114.300; -282.000; -322.000
285.863; -205.400; -857.000; -507.000
286.002; -133.600; -366.000; -276.000
286.142; -225.300; -715.000; -622.000
286.281; -166.600; -525.000; -493.000
286.420; -157.400; -554.000; -417.000
286.560;  205.000;  653.000;  623.000
286.699; -300.100; -958.000; -912.000
286.838; -202.800; -590.000; -591.000
286.978; -215.000; -533.000; -537.000
287.117; -309.500;-1085.000; -950.000
287.256;  -39.300; -228.000; -211.000
287.395; -123.000; -197.000; -378.000
287.535;  -99.700; -370.000; -298.000
287.674; -169.800; -509.000; -484.000
287.813;  124.400;  661.000;  533.000
287.952; -282.400;-1010.000; -871.000
288.091; -292.200;-1049.000; -915.000
288.231;  -34.000;   13.000;   15.000
288.370; -350.500;-1217.000;-1200.000
288.509; -213.400; -728.000; -645.000
288.648; -162.200; -770.000; -548.000
288.787;  -82.400; -243.000;  -87.000
288.926; -109.700; -454.000; -475.000
289.065;  199.900;  859.000;  672.000
289.204; -114.700; -377.000; -217.000
289.344; -249.700; -791.000; -690.000
289.483;   40.900;  416.000;  304.000
289.622;  -60.200; -291.000; -149.000
289.761;  -27.200; -309.000; -166.000
289.900; -247.100; -785.000; -626.000
290.039;   -7.700;  -12.000;  -95.000
290.178;  -93.500; -274.000; -180.000
290.317; -171.400; -618.000; -479.000
290.456; -124.300; -463.000; -451.000
290.595; -300.700; -961.000; -833.000
290.734; -285.400; -904.000; -891.000
290.873; -159.700; -456.000; -420.000
291.011; -239.200; -833.000; -843.000
291.150; -219.100; -770.000; -682.000
291.289;  -88.300; -343.000; -110.000
291.428; -208.600; -599.000; -480.000
291.567; -127.700; -370.000; -442.000
291.706;    9.700;  109.000;  154.000
291.845; -215.600; -597.000; -505.000
291.984; -346.200;-1234.000;-1061.000
292.122;  125.000;  602.000;  582.000
292.261;   96.000;  620.000;  463.000
292.400;    3.900; -144.000;  211.000
292.539; -261.500; -959.000; -813.000
292.678;  -96.800; -325.000; -300.000
292.816; -338.200;-1136.000; -965.000
292.955; -202.500; -844.000; -684.000
293.094;  -53.600; -173.000; -337.000
293.233; -139.000; -556.000; -400.000
293.371;  -66.600; -225.000;  -84.000
293.510; -263.100; -866.000; -780.000
293.649; -305.700; -959.000; -924.000
293.787; -331.500;-1083.000;-1012.000
293.926;  -71.500; -113.000;  -32.000
294.065; -107.600; -379.000; -290.000
294.203;   68.200;  298.000;  406.000
294.342;   14.500;   74.000;  156.000
294.481;12164.900;51180.000; -836.000
294.619;  -62.300; -425.000; -582.000
294.758; -327.100;-1230.000;-1137.000
294.896;  -23.900; -125.000;    5.000
295.035; -319.200;-1040.000;-1006.000
295.174; -298.800;-1082.000; -954.000
295.312;  -98.300; -323.000; -203.000
295.451; -125.400; -307.000; -428.000
295.589; -144.400; -389.000; -518.000
295.728;  -16.900; -292.000; -165.000
295.866;  -55.800;  -36.000;  -51.000
296.005; -193.100; -584.000; -341.000
296.143; -177.500; -558.000; -596.000
296.282; -268.700; -957.000; -881.000
296.420; -191.200; -657.000; -557.000
296.559; -222.800; -892.000; -633.000
296.697; -194.800; -847.000; -665.000
296.835; -338.600;-1141.000;-1002.000
296.974;   -8.900;  -23.000;   39.000
297.112; -150.400; -443.000; -504.000
297.251; -250.000; -815.000; -755.000
297.389; -163.700; -576.000; -438.000
297.527;  -32.600; -145.000;  -83.000
297.666; -176.800; -486.000; -438.000
297.804; -122.700; -404.000; -264.000
297.942;  -42.700; -136.000; -161.000
298.081;  -41.600; -183.000;   63.000
298.219;   -7.200;  -17.000;  -19.000
298.357;  -67.900; -144.000;  -71.000
298.495; -278.700; -810.000; -812.000
298.634;    6.500;  245.000;  219.000
298.772; -120.300; -220.000; -338.000
298.910; -138.700; -309.000; -182.000
299.048;  -30.600; -130.000; -153.000
299.187;  -63.700; -350.000; -250.000
299.325;  -37.600;   52.000;  122.000
299.463; -153.600; -389.000; -299.000
299.601; -118.400; -327.000; -271.000
299.739; -271.800; -908.000; -883.000
299.877; -210.700; -791.000; -703.000
300.016; -310.800;-1095.000; -935.000
300.154;  -11.300;  -19.000; -161.000
300.292; -142.700; -428.000; -348.000
300.430;  -83.700; -408.000; -291.000
300.568; -294.500; -940.000; -874.000
300.706; -156.700; -366.000; -469.000
300.844; -319.900;-1108.000; -979.000
300.982;   79.600;  246.000;  282.000
301.120; -261.700; -965.000; -866.000
301.258; -225.400; -812.000; -705.000
301.396;   14.300;  104.000;  -41.000
301.534;  -93.600; -218.000; -293.000
301.672; -188.000; -664.000; -521.000
301.810; -217.900; -613.000; -545.000
301.948;   26.300;   53.000;  149.000
302.086;  -69.400; -250.000;  -32.000
302.224; -178.100; -610.000; -585.000
302.362; -196.000; -558.000; -622.000
302.500; -292.700; -923.000; -893.000
302.638;   19.200;  128.000;  245.000
302.776; -105.500; -352.000; -408.000
302.913;   80.200;  447.000;  236.000
303.051;  -83.700;  -86.000;  -23.000
303.189;   18.200;   90.000;  118.000
303.327; -119.100; -341.000; -256.000
303.465; -206.000; -832.000; -588.000
303.603; -206.500; -805.000; -604.000
303.740;   85.500;  417.000;  241.000
303.878; -236.100; -800.000; -759.000
304.016; -228.200; -915.000; -790.000
304.154; -345.900;-1123.000;-1152.000
304.291; -170.000; -505.000; -554.000
304.429;   -4.800;  102.000;   74.000
304.567; -292.000; -908.000; -893.000
304.705; -152.500; -408.000; -515.000
304.842; -202.700; -616.000; -540.000
304.980;    8.000;  215.000;   35.000
305.118;  -83.300; -367.000; -365.000
305.255; -266.500; -945.000; -927.000
305.393;   66.800;  178.000;  239.000
305.531; -329.400;-1173.000; -956.000
305.668; -204.600; -663.000; -582.000
305.806; -141.200; -358.000; -439.000
305.943; -212.800; -629.000; -637.000
306.081; -123.200; -378.000; -267.000
306.219; -239.800; -863.000; -748.000
306.356;  -11.600;  158.000;   27.000
306.494;  211.800;  981.000;  761.000
306.631;  -19.000;  -11.000;  -55.000
306.769; -133.700; -613.000; -485.000
306.906; -120.200; -284.000; -258.000
307.044; -133.000; -473.000; -488.000
307.181; -110.900; -410.000; -332.000
307.319;   62.000;  112.000;   87.000
307.456; -369.300;-1191.000;-1153.000
307.594; -272.600; -980.000; -727.000
307.731;  -91.400; -371.000; -164.000
307.868;   -0.400;  -15.000;   20.000
308.006; -297.100; -961.000; -847.000
308.143; -166.900; -618.000; -330.000
308.281;  -41.500;  -37.000; -254.000
308.418; -176.500; -748.000; -640.000
308.555; -202.400; -400.000; -250.000
308.693; -159.600; -577.000; -573.000
308.830; -258.500; -712.000; -657.000
308.967;  -64.900; -215.000;  -95.000
309.105; -137.900; -507.000; -396.000
309.242; -147.500; -468.000; -367.000
309.379; -208.300; -577.000; -655.000
309.517; -293.900; -936.000; -948.000
309.654; -267.100; -910.000; -734.000
309.791; -185.400; -662.000; -580.000
309.928; -289.900; -977.000; -914.000
310.065;  175.500;  819.000;  697.000
310.203; -274.900; -825.000; -850.000
310.340; -171.700; -465.000; -321.000
310.477; -158.400; -412.000; -516.000
310.614; -146.600; -383.000; -473.000
310.751; -199.500; -427.000; -518.000
310.889;  -54.400;    1.000;   11.000
311.026; -341.800;-1161.000; -939.000
311.163; -151.800; -386.000; -380.000
311.300; -188.200; -512.000; -479.000
311.437; -171.700; -658.000; -619.000
311.574; -345.800;-1226.000; -985.000
311.711; -149.200; -595.000; -433.000
311.848; -110.700; -380.000; -388.000
311.985;  -12.000;  270.000;   93.000
312.122; -265.200; -932.000; -762.000
312.259; -276.300; -941.000; -994.000
312.396; -181.300; -508.000; -551.000
312.533; -215.900; -812.000; -790.000
312.670; -328.700;-1070.000; -898.000
312.807; -124.200; -352.000; -367.000
312.944; -209.700; -513.000; -611.000
313.081; -182.700; -150.000; -415.000
313.218; -286.400;-1111.000; -867.000
313.355; -145.300; -531.000; -449.000
313.492; -117.800; -455.000; -292.000
313.629;  187.400;  815.000;  735.000
313.766; -362.900;-1176.000;-1008.000
313.902;  -51.900; -186.000;   21.000
314.039; -116.700; -372.000; -289.000
314.176;   23.200;  286.000;  192.000
314.313; -177.900; -569.000; -473.000
314.450; -196.000; -788.000; -684.000
314.587; -179.700; -468.000; -480.000
314.723;  -18.100;  -78.000;  130.000
314.860;   35.700;  318.000;  332.000
314.997;   -3.100;  223.000;  142.000
315.134; -133.300; -385.000; -368.000
315.270; -153.500; -480.000; -496.000
315.407; -337.400;-1094.000; -967.000
315.544; -193.200; -657.000; -538.000
315.681; -205.500; -681.000; -565.000
315.817;  -66.800; -133.000; -176.000
315.954; -143.100; -613.000; -392.000
316.091; -336.900;-1045.000;-1023.000
316.227;  -57.100;  -71.000; -179.000
316.364;   22.300;   23.000;    6.000
316.500;  -76.400; -113.000; -300.000
316.637; -105.100; -181.000; -302.000
316.774; -209.300; -625.000; -358.000
316.910; -209.000; -598.000; -629.000
317.047; -167.400; -487.000; -351.000
317.183; -136.600; -435.000; -566.000
317.320; -115.300; -367.000; -321.000
317.456; -241.200; -733.000; -805.000
317.593; -216.800; -598.000; -641.000
317.729;   -1.500;  168.000;  -67.000
317.866; -443.400;-1434.000;-1285.000
318.002; -219.500; -708.000; -948.000
318.139; -263.300; -883.000; -867.000
318.275; -284.100;-1003.000; -738.000
318.412; -155.400; -517.000; -336.000
318.548; -204.800; -751.000; -720.000
318.685; -290.700; -985.000; -888.000
318.821; -243.900; -762.000; -735.000
318.957;  -50.800;   34.000;  -23.000
319.094;   57.900;  297.000;  154.000
319.230; -248.800; -756.000; -742.000
319.367; -149.300; -471.000; -520.000
319.503; -131.000; -538.000; -436.000
319.639; -265.300; -877.000; -793.000
319.775; -209.100; -750.000; -685.000
319.912; -150.500; -424.000; -519.000
320.048; -361.200;-1184.000;-1184.000
320.184;   14.200;   59.000;   70.000
320.321; -173.400; -497.000; -467.000
320.457;   98.900;  475.000;  662.000
320.593; -159.700; -375.000; -382.000
320.729; -238.700; -732.000; -734.000
320.866; -174.100; -577.000; -635.000
321.002; -242.000; -759.000; -809.000
321.138; -104.700; -135.000; -211.000
321.274;  -40.200; -148.000; -115.000
321.410; -185.000; -585.000; -353.000
321.546; -282.800;-1011.000; -911.000
321.683;   60.900;  400.000;  185.000
321.819;  -25.400;  -48.000; -117.000
321.955; -261.900; -743.000; -722.000
322.091; -182.300; -585.000; -540.000
322.227;  -99.800; -382.000; -202.000
322.363;  -99.800; -320.000; -215.000
322.499; -132.600; -343.000; -331.000
322.635;  135.000;  636.000;  443.000
322.771;  -37.700; -139.000;   12.000
322.907;   84.800;  129.000;  327.000
323.043; -105.000; -115.000; -206.000
323.179; -144.800; -394.000; -363.000
323.315; -174.600; -401.000; -371.000
323.451;  -90.400; -328.000; -236.000
323.587;  -60.000;  -60.000;  -77.000
323.723; -213.000; -682.000; -601.000
323.859;  -73.500; -258.000;  -76.000
323.995; -148.000; -467.000; -409.000
324.131; -299.100; -967.000; -892.000
324.267;  -77.600; -254.000; -276.000
324.402; -297.700; -960.000; -983.000
324.538;  -98.000; -279.000; -104.000
324.674;  -11.800;  164.000;   77.000
324.810;   22.900;  226.000;  308.000
324.946; -137.200; -810.000; -658.000
325.082; -168.900; -568.000; -475.000
325.217;  -44.100;  -62.000;   16.000
325.353; -247.800; -764.000; -659.000
325.489; -168.400; -540.000; -506.000
325.625; -170.500; -579.000; -525.000
325.760;   49.600;  517.000;  376.000
325.896; -192.900; -515.000; -702.000
326.032; -130.900; -403.000; -352.000
326.168; -131.400; -462.000; -369.000
326.303; -131.500; -352.000; -461.000
326.439;  -58.900; -336.000; -276.000
326.575;  -56.100; -190.000;  -29.000
326.710;  -34.100; -156.000;  -30.000
326.846;  -18.200;  146.000;  103.000
326.982; -196.300; -530.000; -548.000
327.117; -200.200; -481.000; -442.000
327.253; -232.000; -745.000; -742.000
327.388; -293.600;-1137.000;-1153.000
327.524; -238.600; -811.000; -578.000
327.659;  -50.500;  -58.000;  -22.000
327.795;  -53.700;   69.000;   45.000
327.931; -196.300; -723.000; -499.000
328.066;  -87.200; -417.000; -276.000
328.202;  -49.900;   12.000; -129.000
328.337;  212.100;  957.000;  713.000
328.473;  -45.600;  -12.000;  -74.000
328.608;  -95.300; -256.000; -267.000
328.743; -235.900; -799.000; -664.000
328.879;   12.200;  214.000;  114.000
329.014; -129.100; -102.000; -122.000
329.150; -192.100; -358.000; -483.000
329.285; -197.300; -465.000; -466.000
329.421; -131.100; -548.000; -246.000
329.556;  -41.400;  -36.000;   85.000
329.691; -220.700; -633.000; -615.000
329.827; -154.200; -626.000; -480.000
329.962; -103.300;  131.000; -301.000
330.097; -186.800; -673.000; -585.000
330.233; -112.500; -410.000; -223.000
330.368; -237.600; -839.000; -628.000
330.503;  -49.100;    3.000;   98.000
330.638;  -67.400;  -93.000; -125.000
330.774; -220.200; -609.000; -530.000
330.909; -124.600; -434.000; -244.000
331.044; -187.600; -714.000; -708.000
331.179; -378.500;-1217.000;-1109.000
331.315;   27.700;   77.000;   20.000
331.450;   25.900;  157.000;  285.000
331.585; -248.500; -805.000; -706.000
331.720; -190.500; -510.000; -460.000
331.855;  -53.300;  -35.000; -102.000
331.990;   -4.500;   62.000;  138.000
332.126;   -8.300; -110.000;   71.000
332.261; -154.000; -379.000; -265.000
332.396; -118.300; -135.000; -242.000
332.531; -326.600;-1074.000;-1031.000
332.666; -145.500; -519.000; -363.000
332.801; -224.000; -726.000; -807.000
332.936;  -69.200; -192.000; -122.000
333.071; -270.800; -870.000; -817.000
333.206;   29.800;  307.000;  379.000
333.341;  104.200;  344.000;  418.000
333.476; -187.800; -627.000; -623.000
333.611; -104.200; -251.000; -173.000
333.746; -101.300; -381.000; -464.000
333.881; -292.200; -973.000; -935.000
334.016; -313.300; -936.000; -917.000
334.151; -269.600; -746.000; -702.000
334.286;   17.000;  152.000;  186.000
334.421;  -14.000; -125.000; -178.000
334.556; -204.700; -611.000; -567.000
334.690; -193.500; -631.000; -577.000
334.825;   78.500;  381.000;   83.000
334.960; -132.300; -285.000; -413.000
335.095;  -26.500;  135.000;  -91.000
335.230; -231.400; -722.000; -738.000
335.365; -311.700;-1084.000; -990.000
335.499; -312.200;-1108.000;-1037.000
335.634;  -12.600;    9.000;  534.000
335.769; -242.200; -755.000; -720.000
335.904; -199.100; -603.000; -561.000
336.038; -236.200; -735.000; -657.000
336.173; -362.900;-1206.000;-1194.000
336.308; -132.700; -116.000; -189.000
336.443; -143.900; -544.000; -634.000
336.577; -280.300; -936.000; -787.000
336.712;  -15.000;   -4.000;  -12.000
336.847; -232.900; -724.000; -607.000
336.981; -119.000; -272.000; -208.000
337.116;   88.400;  615.000;  501.000
337.250; -159.500; -434.000; -421.000
337.385; -107.000; -297.000; -208.000
337.520; -195.800; -632.000; -603.000
337.654;  -99.400; -215.000; -126.000
337.789; -280.400; -989.000; -933.000
337.923;  -92.700; -104.000; -205.000
338.058; -267.900; -673.000; -738.000
338.192; -204.000; -611.000; -488.000
338.327;  -72.100;  -18.000; -155.000
338.461; -174.600; -299.000; -469.000
338.596; -217.500; -780.000; -638.000
338.730; -248.600; -767.000; -803.000
338.865;  -23.600;  -46.000; -140.000
338.999; -273.300; -846.000; -702.000
339.134; -215.600; -634.000; -536.000
339.268; -205.900; -741.000; -603.000
339.403; -227.400; -740.000; -775.000
339.537; -261.500; -894.000; -820.000
339.671; -274.600; -829.000; -813.000
339.806; -181.700; -556.000; -512.000
339.940;  -70.400; -261.000; -235.000
340.074; -199.500; -685.000; -510.000
340.209;  -84.900; -351.000; -230.000
340.343; -218.100; -517.000; -573.000
340.477;  303.700;  998.000; 1036.000
340.612; -266.800;-1033.000; -900.000
340.746; -126.100; -199.000; -243.000
340.880; -306.400; -924.000; -785.000
341.014;  -35.200;  -45.000; -154.000
341.149; -226.100; -756.000; -718.000
341.283; -259.700; -839.000; -754.000
341.417; -295.600;-1124.000; -938.000
341.551; -189.400; -768.000; -708.000
341.685; -188.000; -633.000; -611.000
341.820; -183.300; -562.000; -493.000
341.954; -134.300; -218.000; -349.000
342.088; -295.500;-1102.000;-1019.000
342.222;  109.800;  565.000;  618.000
342.356; -136.600; -395.000; -335.000
342.490; -265.400; -880.000; -841.000
342.624; -120.200; -339.000; -242.000
342.758; -144.400; -364.000; -312.000
342.892; -233.200; -710.000; -585.000
343.026;  -74.000;  -58.000; -116.000
343.160; -119.900; -426.000; -376.000
343.294; -140.200; -474.000; -337.000
343.428; -191.300; -488.000; -448.000
343.562;  -53.600; -172.000;  -23.000
343.696; -119.700; -385.000; -314.000
343.830;  -91.400; -362.000; -356.000
343.964;  -84.700; -231.000; -168.000
344.098;   -1.500;  199.000;   70.000
344.232;  -96.600; -266.000; -127.000
344.366; -207.300; -567.000; -453.000
344.500; -209.200; -665.000; -744.000
344.634; -130.800; -324.000; -164.000
344.768; -157.600; -531.000; -341.000
344.902;   21.200;  278.000;  256.000
345.035; -152.800; -556.000; -496.000
345.169; -277.400; -933.000; -656.000
345.303; -175.800; -308.000; -482.000
345.437; -258.000; -826.000; -717.000
345.571; -236.900; -675.000; -594.000
345.704; -151.100; -309.000; -532.000
345.838;  -99.700; -331.000; -284.000
345.972; -181.900; -543.000; -495.000
346.106;  -34.000; -179.000; -190.000
346.239; -114.900; -312.000; -243.000
346.373; -137.200; -343.000; -302.000
346.507; -340.400; -950.000; -962.000
346.640;  -71.000;  -30.000;   13.000
346.774; -227.600; -650.000; -797.000
346.908;  -25.200; -138.000;  -11.000
347.041; -194.100; -646.000; -593.000
347.175;  -10.300;  259.000;   27.000
347.309; -209.700; -698.000; -628.000
347.442; -256.200; -883.000; -732.000
347.576;  146.100;  670.000;  668.000
347.709;  -61.200; -123.000;  -52.000
347.843; -318.100; -933.000; -825.000
347.976;   77.300;  235.000;  294.000
348.110; -390.500;-1268.000;-1186.000
348.243; -218.500; -679.000; -772.000
348.377;    8.700;  -26.000;   60.000
348.510;   79.400;  403.000;  540.000
348.644; -105.400;  -37.000; -159.000
348.777;   -9.000;  180.000;  191.000
348.911; -108.900; -142.000; -112.000
349.044;  107.400;  471.000;  448.000
349.178; -342.100;-1069.000;-1006.000
349.311;   55.800;  141.000;  255.000
349.444; -277.300; -927.000; -813.000
349.578;  -75.000; -347.000; -200.000
349.711; -279.700; -959.000; -862.000
349.845; -237.300; -661.000; -591.000
349.978; -380.800;-1224.000;-1137.000
350.111; -198.400; -546.000; -612.000
350.244; -252.600; -596.000; -700.000
350.378; -158.200; -392.000; -393.000
350.511; -160.900; -393.000; -426.000
350.644; -267.800; -808.000; -806.000
350.778;  -65.200;  168.000;  104.000
350.911;  -16.700;  134.000;  140.000
351.044; -184.800; -685.000; -615.000
351.177;  -98.300; -321.000; -281.000
351.310;  -38.500;    3.000; -131.000
351.444; -265.200; -888.000; -788.000
351.577;  -24.000;  140.000;   90.000
351.710;  143.600;  593.000;  417.000
351.843;  -75.000; -165.000;  -77.000
351.976;  -46.500;  149.000;  -79.000
352.109; -245.000; -621.000; -612.000
352.242; -141.200; -464.000; -419.000
352.376; -175.600; -580.000; -636.000
352.509; -164.600; -437.000; -356.000
352.642; -342.800; -654.000; -604.000
352.775;  -66.500; -141.000;  -98.000
352.908; -306.500; -933.000; -904.000
353.041; -255.600; -814.000; -824.000
353.174; -139.600; -551.000; -424.000
353.307; -262.500; -753.000; -764.000
353.440;   77.200;  541.000;  453.000
353.573; -306.500; -957.000;-1008.000
353.706; -254.900; -384.000; -558.000
353.839; -129.100; -264.000; -220.000
353.971; -198.300; -657.000; -512.000
354.104; -279.400; -896.000; -835.000
354.237; -239.900; -627.000; -662.000
354.370; -243.900; -846.000; -879.000
354.503; -412.200;-1231.000;-1308.000
354.636; -155.000; -529.000; -348.000
354.769; -289.700; -937.000; -860.000
354.902;  -83.600; -230.000; -139.000
355.034; -123.500; -164.000; -220.000
355.167;  -59.100; -262.000; -162.000
355.300; -316.800;-1061.000; -880.000
355.433;  -31.500;  -71.000;  -14.000
355.565; -158.900; -402.000; -384.000
355.698; -150.400; -356.000; -296.000
355.831; -266.000; -882.000; -801.000
355.964;  -57.900; -285.000; -170.000
356.096; -306.800; -856.000; -843.000
356.229; -180.700; -523.000; -530.000
356.362; -143.100; -373.000; -266.000
356.494; -103.000; -229.000; -162.000
356.627;   81.700;  269.000;  377.000
356.760;  -21.800;  120.000;   53.000
356.892; -236.900; -286.000; -601.000
357.025;   90.000;  403.000;  389.000
357.157;  -78.700; -167.000; -179.000
357.290; -276.100; -856.000; -713.000
357.423; -214.100; -667.000; -556.000
357.555;  -70.200; -217.000; -228.000
357.688; -173.100; -483.000; -364.000
357.820; -284.300; -870.000; -877.000
357.953; -223.400; -563.000; -589.000
358.085; -226.900; -632.000; -612.000
358.218; -330.500;-1131.000; -932.000
358.350;  -27.700;  -58.000;  312.000
358.483; -406.700;-1300.000;-1187.000
358.615; -347.100;-1182.000;-1078.000
358.747; -382.000;-1187.000;-1058.000
358.880; -257.300; -810.000; -744.000
359.012; -111.300; -376.000; -202.000
359.145; -206.000; -480.000; -511.000
359.277; -315.500; -962.000; -913.000
359.409;   79.100;  536.000;  231.000
359.542; -239.300; -738.000; -688.000
359.674;  -36.800;   46.000;   13.000
359.806; -175.000; -565.000; -438.000
359.939; -181.800; -617.000; -516.000
360.071; -210.800; -583.000; -579.000
360.203; -147.500; -411.000; -364.000
360.335;  -44.200;  164.000;  -16.000
360.468;  -83.000; -249.000; -307.000
360.600; -166.700; -547.000; -454.000
360.732; -214.100; -546.000; -423.000
360.864; -364.900;-1216.000;-1044.000
360.996; -146.100; -516.000; -554.000
361.129; -206.900; -389.000; -598.000
361.261;  -52.000;  110.000; -113.000
361.393; -111.500; -252.000; -214.000
361.525;  -46.300;   94.000;  244.000
361.657; -248.800; -821.000; -703.000
361.789;  -59.700; -139.000; -155.000
361.921; -194.700; -642.000; -593.000
362.053;  114.500;  524.000;  541.000
362.185;   19.900;  288.000;   72.000
362.318; -272.300; -709.000; -705.000
362.450;   44.400;  294.000;  444.000
362.582; -285.200; -913.000; -870.000
362.714; -123.200; -353.000; -332.000
362.846; -191.400; -606.000; -490.000
362.978; -310.500; -941.000; -811.000
363.109; -109.800; -161.000; -260.000
363.241; -275.900; -739.000; -749.000
363.373; -199.900; -649.000; -564.000
363.505;  -95.500; -186.000;  -91.000
363.637; -216.400; -787.000; -601.000
363.769; -362.400;-1067.000;-1080.000
363.901; -194.100; -596.000; -654.000
364.033; -368.500;-1103.000;-1062.000
364.165; -106.400; -283.000; -283.000
364.296; -138.500; -316.000; -177.000
364.428; -406.700;-1344.000;-1220.000
364.560; -216.500; -679.000; -661.000
364.692; -218.500; -738.000; -835.000
364.824; -190.700; -588.000; -456.000
364.955; -123.600; -402.000; -564.000
365.087; -332.100;-1097.000; -852.000
365.219; -231.500; -686.000; -816.000
365.351; -203.000; -526.000; -572.000
365.482;   24.600;  300.000;  240.000
365.614; -111.000; -402.000; -314.000
365.746; -254.900; -729.000; -752.000
365.877; -238.800; -706.000; -672.000
366.009;  -27.300;  -35.000;  -62.000
366.141; -389.400;-1249.000;-1134.000
366.272; -257.500; -803.000; -719.000
366.404; -258.800;-1005.000; -874.000
366.535;  -39.000; -139.000;  -12.000
366.667; -243.000; -644.000; -649.000
366.799;   47.700;  353.000;  203.000
366.930; -316.200; -862.000; -996.000
367.062; -190.100; -639.000; -613.000
367.193; -291.300; -872.000; -842.000
367.325; -192.300; -580.000; -684.000
367.456; -114.000; -246.000;   31.000
367.588; -139.100; -371.000; -318.000
367.719;  -75.100;  -44.000;  -45.000
367.851; -110.400; -222.000; -241.000
367.982; -291.100; -875.000; -732.000
368.113; -147.100; -475.000; -358.000
368.245; -326.300; -960.000; -841.000
368.376; -105.400; -254.000; -302.000
368.508; -122.800; -188.000; -263.000
368.639; -349.800;-1166.000;-1034.000
368.770; -235.300; -670.000; -589.000
368.902; -307.800; -836.000; -926.000
369.033; -299.000; -906.000; -855.000
369.164; -220.200; -720.000; -653.000
369.296; -224.600; -452.000; -601.000
369.427; -123.500; -209.000; -144.000
369.558; -141.000; -593.000; -377.000
369.689; -220.600; -721.000; -569.000
369.821; -287.700; -951.000; -845.000
369.952;  -51.000;   42.000; -108.000
370.083; -134.300; -229.000; -108.000
370.214; -206.600; -735.000; -650.000
370.345;  -45.400;   65.000;   81.000
370.477; -255.700; -810.000; -790.000
370.608; -127.900; -328.000; -264.000
370.739; -380.900;-1233.000;-1292.000
370.870; -289.700;-1102.000; -923.000
371.001; -153.300; -378.000; -467.000
371.132; -257.800; -754.000; -735.000
371.263;  -43.000;  -42.000; -148.000
371.394; -281.400; -841.000; -748.000
371.525;   18.400;  345.000;  225.000
371.657; -269.800; -808.000; -670.000
371.788;   24.500;  103.000;  199.000
371.919; -171.100; -384.000; -304.000
372.050;  -66.200;  -91.000; -156.000
372.181;  -14.900; -188.000; -294.000
372.311;  -48.400;   42.000; -127.000
372.442; -170.100; -457.000; -451.000
372.573; -115.100; -444.000; -340.000
372.704; -315.100;-1008.000; -980.000
372.835; -138.900; -228.000; -289.000
372.966; -219.000; -646.000; -554.000
373.097; -262.600; -575.000; -711.000
373.228; -254.700; -717.000; -542.000
373.359; -219.300; -824.000; -536.000
373.490; -283.800; -881.000; -727.000
373.620; -297.200;-1001.000; -803.000
373.751; -181.300; -332.000; -396.000
373.882; -224.900; -663.000; -733.000
374.013; -127.400; -449.000; -262.000
374.143; -224.400; -581.000; -659.000
374.274; -304.600; -987.000; -908.000
374.405;  -94.100; -388.000; -276.000
374.536; -168.500; -526.000; -387.000
374.666; -267.800; -759.000; -807.000
374.797; -263.200; -817.000; -868.000
374.928; -185.900; -710.000; -560.000
375.058; -185.300; -535.000; -500.000
375.189;  -42.800;  -59.000;  -93.000
375.320; -338.600; -928.000;-1034.000
375.450; -200.100; -625.000; -616.000
375.581; -176.200; -526.000; -436.000
375.712; -129.900; -574.000; -250.000
375.842; -191.400; -438.000; -415.000
375.973; -201.400; -554.000; -513.000
376.103; -223.100; -665.000; -648.000
376.234; -215.400; -531.000; -552.000
376.364; -322.700; -944.000; -867.000
376.495;  188.800;  925.000;  529.000
376.625; -182.900; -472.000; -485.000
376.756; -231.400; -709.000; -678.000
376.886; -394.500;-1178.000;-1026.000
377.017; -329.800;-1048.000;-1061.000
377.147; -283.600; -786.000; -782.000
377.278;   31.600;  174.000;  228.000
377.408; -253.200; -801.000; -815.000
377.538; -257.500; -707.000; -693.000
377.669; -230.600; -537.000; -613.000
377.799; -243.300; -645.000; -635.000
377.929; -199.800; -610.000; -428.000
378.060; -287.100; -781.000; -847.000
378.190; -226.400; -726.000; -531.000
378.320; -154.100; -401.000; -406.000
378.451;  -44.100; -131.000;  -22.000
378.581;  -62.200;  -67.000; -110.000
378.711;  194.600; 1035.000;  866.000
378.841; -230.900; -533.000; -675.000
378.972; -325.300; -871.000; -751.000
379.102; -192.900; -652.000; -579.000
379.232; -104.600; -126.000;  -73.000
379.362; -328.400;-1001.000; -885.000
379.492; -184.400; -373.000; -424.000
379.623;    0.200;    0.000;  111.000
379.753; -329.400;-1107.000; -974.000
379.883;  -22.000;   59.000;  156.000
380.013; -359.100;-1081.000;-1017.000
380.143; -361.200;-1097.000;-1056.000
380.273; -286.700; -985.000; -861.000
380.403; -111.200; -344.000; -257.000
380.533; -289.900; -651.000; -664.000
380.663;  -21.200;  173.000;  128.000
380.793; -379.400;-1027.000;-1074.000
380.923;  -95.600; -103.000;  -34.000
381.053; -197.200; -613.000; -623.000
381.183;  -80.600; -106.000; -248.000
381.313; -221.500; -656.000; -470.000
381.443; -204.100; -692.000; -473.000
381.573; -200.200; -402.000; -409.000
381.703; -377.700;-1249.000;-1095.000
381.833; -432.600;-1454.000;-1336.000
381.963;  -36.200; -134.000;  -87.000
382.093; -317.400; -925.000; -909.000
382.223; -219.400; -713.000; -602.000
382.353; -278.400; -801.000; -608.000
382.482; -349.300;-1091.000; -964.000
382.612; -239.900; -872.000; -644.000
382.742; -217.100; -695.000; -622.000
382.872; -184.400; -565.000; -551.000
383.002;    1.900;  347.000; -132.000
383.131; -140.200; -226.000; -160.000
383.261; -242.000; -706.000; -768.000
383.391; -169.600; -552.000; -377.000
383.521;   33.400;  451.000;  263.000
383.650; -320.100; -947.000; -904.000
383.780; -248.000; -783.000; -656.000
383.910;  198.500;  880.000;  802.000
384.039; -284.900; -794.000; -656.000
384.169; -324.200;-1205.000;-1017.000
384.299; -216.800; -650.000; -662.000
384.428; -233.500; -764.000; -680.000
384.558; -129.700; -308.000; -275.000
384.687; -154.200; -414.000; -334.000
384.817;   -2.300;   75.000;   -2.000
384.947;  -83.400; -234.000; -141.000
385.076;  233.500;  982.000;  912.000
385.206;   79.500;  369.000;  480.000
385.335; -179.200; -549.000; -417.000
385.465; -247.800; -655.000; -663.000
385.594;  -38.400;  -53.000;  -44.000
385.724; -294.000; -868.000; -838.000
385.853; -136.900; -296.000; -270.000
385.982; -283.000; -743.000; -787.000
386.112; -317.100;-1052.000; -871.000
386.241; -152.400; -307.000; -312.000
386.371;  -80.500; -174.000;  -87.000
386.500; -291.200; -825.000; -789.000
386.629; -268.500; -874.000; -817.000
386.759;  -50.600;  -43.000;   68.000
386.888;  -83.100; -170.000; -250.000
387.017; -224.700; -648.000; -620.000
387.147; -238.800; -771.000; -798.000
387.276; -200.300; -410.000; -397.000
387.405; -161.000; -398.000; -342.000
387.535; -153.100; -452.000; -361.000
387.664; -228.300; -692.000; -620.000
387.793;  -99.800; -198.000; -113.000
387.922;   20.200;  255.000;  200.000
388.052; -203.700; -576.000; -423.000
388.181; -153.100; -342.000; -472.000
388.310; -280.600; -889.000; -710.000
388.439; -299.000; -749.000; -742.000
388.568;   43.900;  365.000;  244.000
388.697; -222.400; -756.000; -653.000
388.826; -223.300; -768.000; -666.000
388.956; -139.800; -285.000; -307.000
389.085; -108.400; -347.000; -287.000
389.214; -252.000; -842.000; -872.000
389.343; -217.600; -645.000; -413.000
389.472;   -0.400;  126.000;  149.000
389.601;  -28.200;   91.000;    0.000
389.730; -196.200; -568.000; -687.000
389.859;   23.700;  226.000;   46.000
389.988; -134.300; -423.000; -408.000
390.117; -120.100; -168.000; -146.000
390.246; -159.000; -331.000; -320.000
390.375; -242.200; -673.000; -626.000
390.504; -200.900; -703.000; -621.000
390.633; -302.300; -672.000; -726.000
390.761; -264.600; -732.000; -645.000
390.890;  -50.700;   -4.000; -130.000
391.019; -183.200; -421.000; -441.000
391.148; -277.500; -826.000; -855.000
391.277; -197.400; -576.000; -493.000
391.406; -297.900; -821.000; -805.000
391.534;    8.500;  574.000; -301.000
391.663; -205.000; -583.000; -645.000
391.792; -239.400; -673.000; -701.000
391.921;  -49.100;   -3.000;   15.000
392.050; -120.000; -287.000; -228.000
392.178; -401.300;-1206.000;-1061.000
392.307; -253.300; -758.000; -712.000
392.436; -248.500; -427.000; -641.000
392.564;   -9.900;  166.000;   -6.000
392.693; -257.000; -860.000; -682.000
392.822; -203.000; -529.000; -534.000
392.950; -259.400; -880.000; -714.000
393.079; -173.600; -188.000; -328.000
393.208; -192.200; -488.000; -511.000
393.336;  -93.300; -170.000; -145.000
393.465;  -96.800; -317.000; -199.000
393.593;  -39.500;   62.000;   79.000
393.722; -343.500;-1121.000; -916.000
393.850;  -73.800; -188.000;  -61.000
393.979; -353.400; -926.000; -805.000
394.107; -168.800; -517.000; -537.000
394.236; -214.600; -570.000; -507.000
394.364;   43.100;  383.000;  206.000
394.493; -265.100; -911.000; -767.000
394.621; -307.800; -955.000; -916.000
394.750; -322.900; -873.000; -923.000
394.878; -132.300; -247.000; -149.000
395.007; -261.400; -721.000; -807.000
395.135; -237.900; -790.000; -721.000
395.263; -346.000;-1038.000;-1040.000
395.392;  -51.100;  -25.000; -107.000
395.520; -261.000; -818.000; -679.000
395.648; -327.000; -865.000; -915.000
395.777; -150.800; -366.000; -405.000
395.905; -183.300; -449.000; -564.000
396.033;  -21.100;  217.000;  172.000
396.162; -159.600; -399.000; -453.000
396.290;  -57.700;  -17.000;   -2.000
396.418; -159.800; -555.000; -514.000
396.546; -279.300; -571.000; -466.000
396.674; -313.900; -850.000; -878.000
396.803;  -30.200;  -72.000;  -23.000
396.931; -122.200; -179.000; -199.000
397.059; -343.300;-1026.000; -989.000
397.187; -313.800;-1026.000; -975.000
397.315; -293.000; -884.000; -649.000
397.443; -193.300; -592.000; -443.000
397.572; -165.300; -578.000; -424.000
397.700; -246.700; -607.000; -614.000
397.828;  -71.100;  120.000;  -90.000
397.956; -210.500; -508.000; -478.000
398.084; -239.800; -767.000; -626.000
398.212;  -16.600;  137.000;  124.000
398.340;  -51.000;  -56.000;  159.000
398.468; -137.700; -390.000; -169.000
398.596; -311.800; -993.000; -953.000
398.724; -264.600; -762.000; -767.000
398.852; -324.800;-1024.000; -976.000
398.980; -193.300; -560.000; -560.000
399.108; -248.300; -982.000; -735.000
399.236;  -65.200;   13.000;    8.000
399.363;  -28.600;  222.000;  196.000
399.491; -168.900; -404.000; -398.000
399.619; -286.100; -829.000; -800.000
399.747; -280.200; -859.000; -771.000
399.875;   43.900;  220.000;  234.000
400.003; -120.700; -359.000; -284.000
400.130; -177.700; -421.000; -341.000
400.258;  -43.300;  -83.000;   38.000
400.386; -143.200; -352.000; -168.000
400.514; -221.200; -526.000; -587.000
400.641; -322.900; -928.000; -802.000
400.769; -335.900; -979.000; -888.000
400.897; -266.400; -838.000; -793.000
401.025;  -89.800; -166.000; -152.000
401.152;   12.400;  220.000;   38.000
401.280; -185.800; -430.000; -429.000
401.408; -241.100; -712.000; -576.000
401.535; -259.900; -735.000; -758.000
401.663; -385.600;-1134.000;-1054.000
401.790; -188.400; -514.000; -525.000
401.918;  101.000;  436.000;  405.000
402.046;   10.100;  134.000;  122.000
402.173;  -92.000;  -18.000;    7.000
402.301; -156.100; -519.000; -397.000
402.428;   79.800;  528.000;  383.000
402.556; -349.300;-1188.000; -913.000
402.683;  -79.700;  -20.000;   -1.000
402.811;  -79.500;  -37.000; -206.000
402.938;  -43.600;   20.000;   27.000
403.066; -209.700; -574.000; -558.000
403.193;   -3.200;  299.000;  239.000
403.321; -166.200; -396.000; -574.000
403.448;  -13.700;   83.000;   27.000
403.575;  -31.000;  -90.000;  -46.000
403.703; -244.300; -732.000; -557.000
403.830; -191.400; -531.000; -496.000
403.957; -343.600;-1117.000;-1023.000
404.085; -107.300;  -61.000; -172.000
404.212;  -37.400;  -50.000;   63.000
404.339; -167.600; -566.000; -306.000
404.467; -193.300; -612.000; -524.000
404.594;  -91.400; -287.000; -227.000
404.721; -264.200; -869.000; -764.000
404.848;  -77.800; -113.000; -202.000
404.976; -304.300; -856.000; -783.000
405.103;  -38.200;  -14.000;  -82.000
405.230;   -2.400;  190.000;  226.000
405.357;  -50.800;  117.000;   44.000
405.484;  -69.500;  -49.000;    5.000
405.612; -199.400; -548.000; -563.000
405.739; -156.000; -488.000; -243.000
405.866;  118.300;  669.000;  385.000
405.993; -119.000; -398.000; -102.000
406.120; -270.300; -801.000; -887.000
406.247; -181.900; -323.000; -342.000
406.374;  129.500;  540.000;  629.000
406.501; -235.800; -632.000; -702.000
406.628; -177.000; -621.000; -589.000
406.755; -244.500; -803.000; -620.000
406.882; -122.900; -228.000; -277.000
407.009; -234.500; -719.000; -628.000
407.136; -141.500; -480.000; -401.000
407.263; -316.500; -939.000; -829.000
407.390; -239.500; -692.000; -614.000
407.517; -409.500;-1139.000;-1187.000
407.644; -150.400; -332.000; -256.000
407.771; -130.600; -249.000; -287.000
407.898;   24.500;  168.000;  328.000
408.025; -176.700; -421.000; -313.000
408.151;   -8.200;   82.000;  153.000
408.278; -138.800; -267.000; -216.000
408.405; -298.100; -931.000; -899.000
408.532; -227.100; -549.000; -542.000
408.659; -262.900; -677.000; -648.000
408.785; -406.700;-1298.000;-1170.000
408.912; -109.600; -412.000; -296.000
409.039; -189.500; -610.000; -686.000
409.166; -257.200; -591.000; -555.000
409.292; -209.400; -571.000; -534.000
409.419; -237.000; -665.000; -649.000
409.546; -169.900; -431.000; -192.000
409.672; -208.200; -713.000; -545.000
409.799;  -43.400;  -36.000;   34.000
409.926;  -96.100; -180.000; -179.000
410.052; -383.500;-1127.000;-1091.000
410.179; -152.100; -368.000; -392.000
410.305; -174.500; -375.000; -493.000
410.432; -137.400; -220.000; -333.000
410.558; -168.800; -305.000; -380.000
410.685; -188.900; -688.000; -431.000
410.812; -199.800; -409.000; -588.000
410.938; -311.500; -964.000; -808.000
411.065; -231.200; -671.000; -645.000
411.191;  -80.100; -189.000; -174.000
411.317; -289.000; -823.000; -742.000
411.444; -151.400; -317.000; -246.000
411.570; -125.500; -339.000; -294.000
411.697; -246.600; -758.000; -752.000
411.823; -333.500; -989.000; -999.000
411.949;  -81.200;  -56.000;   17.000
412.076; -206.300; -539.000; -519.000
412.202; -284.400; -758.000; -757.000
412.329; -277.000; -798.000; -752.000
412.455; -245.900; -821.000; -657.000
412.581;  -57.700;  -15.000;  172.000
412.707; -191.300; -540.000; -457.000
412.834;   14.200;  156.000;  219.000
412.960; -299.600; -785.000; -784.000
413.086; -264.300; -743.000; -701.000
413.212;   97.000;  604.000;  578.000
413.339; -280.000; -685.000; -701.000
413.465; -155.700; -364.000; -310.000
413.591; -280.700; -757.000; -474.000
413.717; -145.200; -358.000; -366.000
413.843; -313.000; -839.000; -861.000
413.969; -148.000;  -47.000; -292.000
414.096; -241.600; -679.000; -679.000
414.222;  -30.900;  -33.000;   85.000
414.348; -225.900; -652.000; -385.000
414.474;  -93.700;   38.000;  -52.000
414.600;  -62.800; -126.000; -144.000
414.726;  -82.400;  -96.000;  -55.000
414.852; -174.600; -365.000; -342.000
414.978;  -27.000;  104.000;  -18.000
415.104;  -61.300;   38.000;   80.000
415.230; -171.700; -329.000; -330.000
415.356; -209.000; -409.000; -514.000
415.482; -108.800;   13.000;  -35.000
415.608; -104.600; -247.000; -323.000
415.734;  -27.800;   67.000;   38.000
415.860; -301.300; -875.000; -767.000
415.986; -255.900; -685.000; -607.000
416.111; -279.500; -798.000; -652.000
416.237; -192.300; -424.000; -571.000
416.363; -285.600; -765.000; -733.000
416.489; -142.100; -324.000; -251.000
416.615; -276.400; -707.000; -742.000
416.741; -256.000; -677.000; -784.000
416.866; -280.300; -673.000; -736.000
416.992; -321.400; -801.000; -818.000
417.118; -120.000;  -41.000;  -80.000
417.244; -277.200; -798.000; -531.000
417.369; -269.000; -801.000; -612.000
417.495; -156.200; -325.000; -254.000
417.621; -369.200;-1015.000; -803.000
417.746; -203.300; -579.000; -572.000
417.872;  -95.600; -254.000; -144.000
417.998; -191.800; -515.000; -530.000
418.123; -347.700;-1073.000; -845.000
418.249; -212.400; -512.000; -601.000
418.374; -324.200; -916.000; -824.000
418.500; -180.700; -383.000; -482.000
418.626;  -37.600;   70.000;  -59.000
418.751; -192.600; -549.000; -448.000
418.877; -270.800; -637.000; -643.000
419.002; -202.100; -688.000; -560.000
419.128; -302.000; -930.000; -721.000
419.253; -309.500; -967.000; -837.000
419.379; -225.200; -391.000; -338.000
419.504;   48.500;  325.000;  415.000
419.629; -115.100; -393.000; -212.000
419.755; -137.900; -317.000; -254.000
419.880; -167.500;  -98.000;   67.000
420.006; -130.000; -280.000; -221.000
420.131; -262.100; -662.000; -775.000
420.256; -166.300; -315.000; -316.000
420.382; -238.900; -665.000; -687.000
420.507; -264.200; -649.000; -778.000
420.632; -174.300; -337.000; -339.000
420.758; -131.100; -251.000; -425.000
420.883; -282.700; -876.000; -672.000
421.008; -262.900; -775.000; -619.000
421.133; -205.900; -509.000; -467.000
421.259; -120.900; -325.000; -259.000
421.384; -289.500; -834.000; -693.000
421.509; -281.700;-1052.000; -862.000
421.634; -301.600; -936.000; -820.000
421.759; -156.800; -359.000; -327.000
421.885; -238.700; -717.000; -656.000
422.010; -205.000; -673.000; -542.000
422.135; -300.400; -695.000; -727.000
422.260;   50.000;  340.000;  280.000
422.385;  -68.300;   12.000;  -98.000
422.510;  -34.000;  151.000;  -26.000
422.635;  -63.500;  -87.000;  -43.000
422.760; -223.200; -766.000; -791.000
422.885;  -65.700;  -57.000;  -80.000
423.010;  -83.700; -112.000; -169.000
423.135; -204.800; -481.000; -561.000
423.260; -120.600; -150.000; -245.000
423.385;   46.300;  476.000;  222.000
423.510;  -13.300;   71.000;  -22.000
423.635;  -47.600;  133.000;   45.000
423.760;   37.100;  383.000;  328.000
423.885;    4.700;  336.000;  391.000
424.010;  -77.500;  -68.000;  -13.000
424.135;  -83.900;    5.000;  -33.000
424.259; -213.100; -654.000; -457.000
424.384; -174.600; -279.000; -272.000
424.509; -114.400; -260.000; -186.000
424.634; -273.900; -761.000; -623.000
424.759; -216.500; -688.000; -544.000
424.883; -200.300; -506.000; -527.000
425.008; -211.200; -502.000; -410.000
425.133; -242.400; -679.000; -653.000
425.258; -228.700; -517.000; -381.000
425.382; -273.800; -867.000; -774.000
425.507; -201.600; -487.000; -543.000
425.632; -280.200; -802.000; -663.000
425.756; -134.300; -256.000; -146.000
425.881; -291.500; -831.000; -857.000
426.006; -193.000; -604.000; -355.000
426.130; -277.900; -696.000; -508.000
426.255; -233.400; -611.000; -491.000
426.379; -110.500; -189.000; -577.000
426.504;  120.100;  660.000;  544.000
426.629; -239.100; -519.000; -466.000
426.753;  -86.000;   64.000;  -46.000
426.878; -120.500; -252.000; -288.000
427.002; -194.700; -651.000; -668.000
427.127; -109.600;  -35.000; -158.000
427.251;   38.200;  372.000;  401.000
427.375; -152.100; -191.000; -173.000
427.500; -223.800; -616.000; -610.000
427.624; -150.000; -234.000; -400.000
427.749; -132.200; -216.000; -225.000
427.873; -211.600; -499.000; -412.000
427.997; -122.100; -222.000; -230.000
428.122;  145.300;  795.000;  703.000
428.246;   50.100;  433.000;  434.000
428.371; -336.200; -869.000; -773.000
428.495; -239.200; -624.000; -646.000
428.619; -112.800; -186.000; -117.000
428.743;  -27.100;   65.000;  132.000
428.868; -269.700; -732.000; -643.000
428.992; -169.600; -219.000; -326.000
429.116; -173.600; -329.000; -357.000
429.240;    6.300;  419.000;  426.000
429.365; -171.800; -454.000; -574.000
429.489; -220.400; -638.000; -647.000
429.613;  -98.900; -236.000; -177.000
429.737; -216.500; -563.000; -432.000
429.861; -138.100; -247.000; -133.000
429.985; -187.400; -425.000; -305.000
430.109; -320.300; -770.000; -908.000
430.234;  -34.900;   76.000;  -50.000
430.358; -168.300; -250.000; -160.000
430.482; -263.600; -672.000; -564.000
430.606; -214.300; -655.000; -375.000
430.730; -205.200; -437.000; -388.000
430.854; -324.200; -909.000; -835.000
430.978; -275.800; -795.000; -764.000
431.102; -213.400; -499.000; -422.000
431.226; -324.400; -874.000; -815.000
431.350;   14.400;  345.000;  422.000
431.474; -214.400; -661.000; -373.000
431.597; -352.800;-1060.000; -848.000
431.721; -143.300; -276.000; -267.000
431.845; -251.200; -704.000; -472.000
431.969; -157.100; -304.000; -349.000
432.093; -184.100; -395.000; -317.000
432.217;  -37.500;   32.000;   82.000
432.341; -221.900; -523.000; -518.000
432.464; -114.400;   96.000;   40.000
432.588; -200.400; -401.000; -329.000
432.712; -109.400;  -52.000;  -52.000
432.836;   11.300;  213.000;  263.000
432.959; -169.500; -372.000; -311.000
433.083;  -65.800;   11.000;    2.000
433.207;   91.200;  285.000;  930.000
433.330; -131.500; -391.000; -200.000
433.454; -270.000; -654.000; -638.000
433.578;   77.900;  583.000;  278.000
433.701; -272.400; -623.000; -675.000
433.825; -151.100; -292.000; -299.000
433.949;  -64.500;   28.000;  -72.000
434.072; -176.300; -410.000; -323.000
434.196;  -99.900; -309.000; -117.000
434.319; 7930.700;25482.000;25124.000
434.443; -253.200; -656.000; -603.000
434.566;  -24.900;  281.000;   62.000
434.690; -220.400; -637.000; -383.000
434.813; -124.300; -251.000; -173.000
434.937; -236.000; -569.000; -696.000
435.060; -177.100; -423.000; -332.000
435.184; -174.600; -492.000; -217.000
435.307;  -63.000;  159.000;  102.000
435.431;  -56.800;  -40.000;   24.000
435.554; -125.800; -399.000; -240.000
435.677; -198.200; -350.000; -258.000
435.801;  -17.700;  -25.000;   49.000
435.924;  -81.400;    1.000;  -67.000
436.048; -305.900;-1019.000; -732.000
436.171; -155.300; -240.000;  -66.000
436.294; -143.400; -248.000; -229.000
436.417; -328.200; -963.000; -849.000
436.541; -309.800; -814.000; -840.000
436.664; -100.100; -242.000; -316.000
436.787;  -36.200;   13.000;  113.000
436.910; -285.500; -792.000; -422.000
437.034;  -29.900;  142.000;  143.000
437.157;  -71.800;  -11.000;    0.000
437.280; -193.700; -392.000; -292.000
437.403; -323.200; -982.000; -869.000
437.526; -307.200; -903.000; -865.000
437.649; -175.600; -505.000; -332.000
437.772; -265.400; -692.000; -540.000
437.896;  137.000;  700.000;  544.000
438.019; -256.300; -758.000; -503.000
438.142; -234.200; -596.000; -506.000
438.265; -270.300; -639.000; -670.000
438.388; -195.500; -520.000; -410.000
438.511; -227.400; -597.000; -394.000
438.634; -126.900; -247.000; -125.000
438.757; -254.800; -693.000; -619.000
438.880;  -71.100;  -34.000;  -57.000
439.003; -174.500; -417.000; -437.000
439.126; -154.600; -287.000; -167.000
439.248; -104.000;  -98.000; -139.000
439.371;  -79.000;    9.000;  -53.000
439.494;  132.300;  510.000;  439.000
439.617;  -64.600;   65.000;  -88.000
439.740; -326.700; -968.000; -816.000
439.863; -287.300; -755.000; -595.000
439.986; -225.100; -476.000; -431.000
440.108; -111.400; -161.000; -112.000
440.231; -322.500; -950.000; -836.000
440.354; -114.200;  -64.000; -150.000
440.477; -257.500; -566.000; -542.000
440.599; -209.900; -200.000; -225.000
440.722; -221.400; -709.000; -586.000
440.845;  210.300;  751.000;  928.000
440.968; -198.400; -415.000; -311.000
441.090; -118.100; -199.000;  -33.000
441.213; -337.700;-1021.000; -825.000
441.336;  -69.100; -159.000;   -5.000
441.458; -191.000; -549.000; -396.000
441.581; -280.400; -628.000; -629.000
441.703; -127.900; -152.000;   13.000
441.826; -170.300; -557.000; -400.000
441.948;  -64.600;   56.000;   51.000
442.071;  120.600;  555.000;  424.000
442.193; -209.600; -531.000; -485.000
442.316;  -37.700;  152.000;   97.000
442.438; -126.200; -233.000;  -10.000
442.561;   -5.500;  272.000;  262.000
442.683; -268.200; -809.000; -522.000
442.806;  -76.600;   -8.000;   74.000
442.928; -285.300; -859.000; -604.000
443.051; -206.400; -577.000; -373.000
443.173; -200.800; -341.000; -339.000
443.295; -226.300; -263.000; -371.000
443.418; -119.900; -321.000;  -29.000
443.540; -100.300; -106.000;   -4.000
443.662; -247.400; -563.000; -465.000
443.785;    6.000;  335.000;  199.000
443.907; -200.300; -362.000; -208.000
444.029; -260.000; -767.000; -494.000
444.152; -264.800; -644.000; -554.000
444.274;  -65.600;  -18.000;  -24.000
444.396; -224.300; -461.000; -221.000
444.518; -265.800; -691.000; -454.000
444.640; -192.300; -268.000; -111.000
444.763;   13.000;  388.000;  249.000
444.885; -210.400; -432.000; -392.000
445.007;  -32.000;   35.000;   86.000
445.129; -213.100; -610.000; -515.000
445.251; -218.400; -372.000; -439.000
445.373; -252.000; -537.000; -386.000
445.495;  -16.900;  242.000;  350.000
445.617;  117.500;  853.000;  753.000
445.739; -150.300; -215.000;  -97.000
445.861; -137.500; -245.000; -112.000
445.984; -168.100; -267.000; -101.000
446.105; -143.400; -418.000; -251.000
446.227; -126.000; -176.000;  -19.000
446.349; -224.400; -358.000; -249.000
446.471; -239.800; -615.000; -448.000
446.593; -145.900; -316.000;   19.000
446.715; -108.900;  -67.000;   41.000
446.837;  148.100;  697.000;  832.000
446.959; -209.800; -457.000; -478.000
447.081; -269.800; -628.000; -518.000
447.203;  148.900;  862.000;  834.000
447.325; -136.600; -270.000;   42.000
447.446;   -6.400;  286.000;  530.000
447.568; -328.900; -921.000; -803.000
447.690; -185.000; -236.000; -245.000
447.812; -271.800; -798.000; -519.000
447.933;  -54.500;  155.000;  127.000
448.055; -146.100; -306.000; -261.000
448.177;  -52.100;   31.000;   79.000
448.299; -347.000; -935.000; -727.000
448.420;  -28.400;  -25.000;  159.000
448.542;  -44.700;   -3.000;   33.000
448.664;  -18.300;  109.000;  322.000
448.785;  -37.800;  265.000;   83.000
448.907; -216.000; -614.000; -353.000
449.028; -272.600; -771.000; -471.000
449.150;   80.500;  492.000;  589.000
449.272; -367.600;-1044.000; -913.000
449.393;   66.200;  612.000;  694.000
449.515; -296.200; -634.000; -581.000
449.636; -145.800; -264.000; -155.000
449.758;  141.200;  763.000;  622.000
449.879; -200.500; -498.000; -396.000
450.001; -176.700; -149.000;  -49.000
450.122;  -63.300;  -95.000;  162.000
450.244;  -42.500;   37.000;  364.000
450.365; -217.100; -495.000; -301.000
450.486;  -99.700;   80.000;  268.000
450.608;   -2.900;  393.000;  326.000
450.729;   87.800;  578.000;  645.000
450.850; -211.400; -574.000; -466.000
450.972; -289.000; -552.000; -389.000
451.093;   18.600;  190.000;  588.000
451.214; -199.300; -516.000; -337.000
451.336;  135.400;  773.000;  579.000
451.457;   18.100;  264.000;  393.000
451.578; -106.200; -118.000;  -74.000
451.699; -234.000; -546.000; -540.000
451.821; -144.000; -284.000;  -50.000
451.942;  -20.100;  278.000;  285.000
452.063;   -4.900;  228.000;  419.000
452.184; -134.600;  -54.000;  -49.000
452.305;  -64.100;  103.000;  170.000
452.427; -223.100; -549.000; -301.000
452.548; -107.800;   23.000;   79.000
452.669; -161.800; -257.000;  -89.000
452.790; -120.400;    3.000;  -18.000
452.911;  -60.100;  195.000;  259.000
453.032; -152.500; -289.000;  -60.000
453.153; -107.900;  -29.000;   81.000
453.274;  159.500;  737.000;  868.000
453.395; -107.000;  -51.000;  175.000
453.516;  230.000; 1317.000; 1388.000
453.637; -139.400; -205.000; -150.000
453.758;  -77.500;   15.000;   69.000
453.879; -211.000; -462.000; -250.000
454.000;  177.300; 1086.000;  948.000
454.121; -249.200; -554.000; -326.000
454.242; -268.200; -599.000; -383.000
454.362;  -59.500;  -99.000;  114.000
454.483; -155.000; -309.000; -229.000
454.604;   20.800;  512.000;  580.000
454.725; -280.400; -627.000; -555.000
454.846; -233.900; -474.000; -406.000
454.967;   -1.700;  230.000;  539.000
455.087;  -16.700;  179.000;  153.000
455.208;   75.100;  554.000;  856.000
455.329;  -89.000;  -22.000;   82.000
455.450;   12.400;  473.000;  633.000
455.570; -208.400; -234.000; -211.000
455.691;  -44.000;  201.000;  407.000
455.812; -162.600; -270.000;  -92.000
455.932;  -63.500;  107.000;  -97.000
456.053; -122.400;   36.000;   24.000
456.173; -211.200; -433.000; -355.000
456.294; -232.400; -476.000; -303.000
456.415; -121.800;  -73.000;   70.000
456.535;  -29.300;  297.000;  273.000
456.656;  -66.800;  132.000;  240.000
456.776; -107.200;    3.000;  298.000
456.897;    6.900;  308.000;  513.000
457.017; -136.700; -153.000;   -3.000
457.138; -234.100; -402.000; -249.000
457.258;  -32.700;  263.000;  224.000
457.379;  -29.000;  509.000;  521.000
457.499;  -22.000;  443.000;  432.000
457.620; -233.800; -407.000; -231.000
457.740; -142.400; -132.000;  -11.000
457.860;  -80.500;   87.000;   44.000
457.981; -107.400;  132.000;  124.000
458.101; -118.200;  -89.000;   40.000
458.221;    5.400;  336.000;  402.000
458.342; -115.300;   -4.000;  -37.000
458.462;    3.100;  617.000;  352.000
458.582; -171.600; -302.000; -294.000
458.703; -112.300;  303.000;  154.000
458.823;  -92.100;   22.000;  163.000
458.943;  -23.600;  341.000;  467.000
459.063;  -99.100; 1124.000;  192.000
459.183;  -25.800;  328.000;  313.000
459.304;   32.300;  315.000;  517.000
459.424; -180.300; -246.000;  -89.000
459.544;   17.100;  388.000;  764.000
459.664;   28.800;  499.000;  506.000
459.784;  144.000; 1004.000; 1175.000
459.904;   81.100;  867.000;  744.000
460.024;   94.200;  867.000;  684.000
460.144;   -1.400;  449.000;  554.000
460.264;    8.000;  515.000;  327.000
460.385; -174.900; -145.000; -119.000
460.505;  117.000;  905.000;  858.000
460.625; -153.700;  -17.000;  -68.000
460.745;  -16.300;  396.000;  541.000
460.864;  -98.800;  153.000;  469.000
460.984;  -10.200;  499.000;  573.000
461.104;  291.200; 1656.000; 1775.000
461.224;   71.300;  657.000;  650.000
461.344;  -30.700;  431.000;  360.000
461.464;  -73.300;  258.000;  513.000
461.584;  -32.700;  283.000;  466.000
461.704; -115.500;   58.000;  108.000
461.824;  -81.000;  238.000;  259.000
461.943;  -45.000;  191.000;  130.000
462.063; -149.500;    2.000;  324.000
462.183;  102.400;  639.000;  717.000
462.303;  211.600; 1678.000; 1230.000
462.422;   97.000;  781.000;  840.000
462.542; -106.500;  271.000;  391.000
462.662;  -10.700;  353.000;  380.000
462.782;   65.300;  833.000;  572.000
462.901;   18.000;  545.000;  717.000
463.021;  276.000; 1702.000; 1638.000
463.141;  -36.100;  337.000;  770.000
463.260;   21.600;  614.000;  474.000
463.380;   65.500;  902.000;  884.000
463.499;  -31.500;  342.000;  332.000
463.619;  -55.600;  581.000;  559.000
463.738;  270.600; 1644.000;  903.000
463.858;   57.800;  657.000;  811.000
463.978;  -14.200;  542.000;  396.000
464.097;  126.000;  921.000; 1114.000
464.217;  166.100; 1196.000; 1143.000
464.336;  167.500; 1068.000; 1130.000
464.455;  -60.800;  328.000;  659.000
464.575;   33.600;  597.000;  602.000
464.694;  162.300; 1204.000; 1179.000
464.814;  111.900; 1190.000; 1138.000
464.933;  183.900; 1095.000; 1027.000
465.052;  197.600; 1412.000; 1054.000
465.172;   69.200;  922.000;  799.000
465.291;  222.000; 1376.000; 1320.000
465.410;   20.400;  462.000;  735.000
465.530;  224.400; 1355.000; 1310.000
465.649;  174.600; 1209.000; 1273.000
465.768;  273.700; 1673.000; 1508.000
465.888;  131.300;  941.000; 1174.000
466.007;  223.800; 1335.000; 1440.000
466.126;   55.900;  721.000;  641.000
466.245;  111.100; 1176.000; 1187.000
466.364;   53.800;  950.000; 1060.000
466.484;  111.800; 1024.000; 1213.000
466.603;  108.700; 1101.000; 1222.000
466.722;  268.500; 1490.000; 1769.000
466.841;  173.600; 1151.000; 1401.000
466.960;  113.800; 1069.000;  972.000
467.079;  330.100; 1971.000; 1786.000
467.198;  150.200; 1238.000; 1181.000
467.317;  188.300; 1768.000; 1162.000
467.436;  184.600; 1709.000; 1261.000
467.555;  311.400; 1796.000; 1746.000
467.674;  179.400; 1227.000; 1329.000
467.793;  127.200; 1376.000; 1374.000
467.912;  221.200; 1658.000; 1539.000
468.031;  297.700; 2038.000; 1930.000
468.150;  252.900; 1842.000; 1837.000
468.269;  399.300; 2313.000; 2090.000
468.388;  389.400; 2168.000; 2339.000
468.507;  605.800; 2884.000; 2903.000
468.626;  585.700; 2555.000; 2541.000
468.744;  363.100; 2018.000; 2174.000
468.863;  463.100; 2312.000; 2523.000
468.982;  202.100; 1503.000; 1555.000
469.101;  460.600; 2788.000; 2692.000
469.220;  356.700; 2333.000; 2176.000
469.338;  538.400; 2935.000; 3051.000
469.457;  423.900; 2719.000; 2545.000
469.576;  743.200; 3953.000; 3784.000
469.695;  497.900; 2877.000; 3066.000
469.813;  865.700; 4148.000; 4192.000
469.932;  813.200; 4255.000; 4485.000
470.051;  772.000; 4075.000; 4161.000
470.169;  881.300; 4470.000; 4338.000
470.288;  935.000; 4700.000; 4809.000
470.406; 1060.900; 5059.000; 5194.000
470.525; 1202.500; 6101.000; 5787.000
470.644; 1383.800; 6847.000; 6794.000
470.762; 1687.800; 8397.000; 7873.000
470.881; 1805.400; 8651.000; 8464.000
470.999; 2058.200; 9685.000; 9151.000
471.118; 2243.000;11174.000;10711.000

