
Integration time [ms]: 100.000
Averaging Nr. [scans]: 40
Smoothing Nr. [pixels]: 0
Data measured with spectrometer [name]: 2101012U2
Wave   ;Sample   ;Dark     ;Reference
[nm]   ;[counts] ;[counts] ;[counts] 

197.733;   75.300;  516.000;  404.000
197.879;  -92.000; -610.000; -634.000
198.025;  -39.150; -475.000; -420.000
198.171;  -87.050; -602.000; -612.000
198.317;  -15.300; -401.000; -316.000
198.463;  -67.925; -655.000; -404.000
198.609;   36.900;  181.000; -137.000
198.755;  -80.925; -644.000; -410.000
198.901;  -52.850; -505.000; -424.000
199.047;  -70.100; -615.000; -488.000
199.193;  -30.450; -230.000; -468.000
199.339;  -58.475; -222.000; -369.000
199.485;   40.800;  330.000;  271.000
199.631;   23.825;  227.000;  310.000
199.777;  -52.400; -466.000; -398.000
199.923;  -71.150; -610.000; -424.000
200.069;   10.900; -141.000;  -58.000
200.215;   46.300;  128.000;  453.000
200.361;   50.650;  243.000;  477.000
200.507;  -67.900; -600.000; -373.000
200.653;  -18.325; -371.000; -194.000
200.798;  -37.125; -215.000; -125.000
200.944;   -1.475; -146.000;  -41.000
201.090;   30.350;   61.000;  222.000
201.236;    4.250; -116.000; -158.000
201.382;  126.375;  874.000;  903.000
201.528;    6.825;  -58.000;  -48.000
201.674;  -45.100; -386.000; -293.000
201.819;  -60.875; -540.000; -439.000
201.965;  -84.650; -699.000; -447.000
202.111;  -17.000; -273.000; -226.000
202.257;  -37.675; -250.000; -238.000
202.402;   23.550;   13.000;  -36.000
202.548;  -47.700; -169.000; -116.000
202.694;   94.875;  410.000; -183.000
202.840;  -84.250; -603.000; -531.000
202.985;  -61.950; -681.000; -639.000
203.131; -103.325; -832.000; -666.000
203.277;  -18.400; -199.000; -262.000
203.423;  -68.175; -434.000; -520.000
203.568;  -38.675; -462.000; -237.000
203.714;  -65.075; -535.000; -542.000
203.860;  -79.500; -682.000; -641.000
204.005;   23.550;  112.000;  167.000
204.151;   78.550;  561.000;  556.000
204.296;  -54.900; -354.000; -221.000
204.442;  -74.300; -600.000; -547.000
204.588;  -73.675; -592.000; -579.000
204.733;   25.200;  178.000;  168.000
204.879; -142.425;-1018.000; -822.000
205.025;   21.725;  -99.000;  126.000
205.170;  -18.600;  -17.000;   94.000
205.316;   68.825;  438.000;  661.000
205.461;  -89.975; -698.000; -554.000
205.607;  103.475;  609.000;  665.000
205.752;  -98.025; -626.000; -551.000
205.898;  -47.975; -501.000; -391.000
206.043;  -73.525; -578.000; -506.000
206.189;  -38.075; -243.000; -285.000
206.334;   88.025;  554.000;  606.000
206.480;   86.925;  409.000;  239.000
206.625;  -89.400; -529.000; -552.000
206.771;  -36.575; -451.000; -373.000
206.916;  -44.950; -210.000; -537.000
207.062;  -72.800; -545.000; -591.000
207.207;  -65.750; -546.000; -443.000
207.353;   55.050;  185.000;  460.000
207.498;    2.725;  196.000;   85.000
207.643;  -56.775; -501.000; -370.000
207.789; -122.150;-1069.000; -910.000
207.934;  -94.225; -665.000; -713.000
208.080;  -38.050; -154.000;   66.000
208.225;   -1.425;  -22.000;  -57.000
208.370;  -84.425; -727.000; -619.000
208.516;  -63.125; -741.000; -487.000
208.661;  -46.025; -127.000;  -69.000
208.806;  -15.050; -165.000; -171.000
208.952; -135.925;-1044.000; -731.000
209.097;   83.425;  378.000;  349.000
209.242;  -29.175; -307.000; -382.000
209.387;   66.675;  392.000;  350.000
209.533;  -67.075; -321.000; -350.000
209.678;   81.075;  472.000;  543.000
209.823;  -57.900; -408.000; -310.000
209.969; -100.525; -860.000; -757.000
210.114; -113.000; -907.000; -719.000
210.259; -102.325; -939.000; -889.000
210.404;  -11.050; -171.000;  103.000
210.549;   21.175;  108.000;    3.000
210.695;  -32.700;   -3.000;  -95.000
210.840;   47.300;   94.000;   67.000
210.985;  -70.725; -484.000; -303.000
211.130;   86.625;  268.000;  406.000
211.275;    8.750;  207.000;  199.000
211.420;  -41.550; -300.000; -289.000
211.566;  -77.525; -536.000; -489.000
211.711;   20.400;  218.000;  157.000
211.856;  -63.675; -545.000; -519.000
212.001;    5.300;  151.000;   44.000
212.146;   30.125;  153.000;   49.000
212.291;  -11.675; -210.000; -186.000
212.436;  -33.100; -280.000;   -6.000
212.581;  -74.175; -685.000; -653.000
212.726;  -82.675; -487.000; -538.000
212.871;  -34.625; -552.000; -217.000
213.016; -153.650;-1172.000;-1029.000
213.161;   63.275;  406.000;  291.000
213.306;  -81.200; -435.000; -577.000
213.451;  -86.550; -778.000; -689.000
213.596;  -43.350; -455.000; -347.000
213.741;  -46.150; -448.000; -538.000
213.886;  -78.200; -498.000; -517.000
214.031;  -20.425; -294.000; -124.000
214.176;  -47.775; -408.000; -341.000
214.321;  -21.350; -296.000; -157.000
214.466;  -17.325; -163.000;  -43.000
214.611;    2.000;  -61.000;  -10.000
214.756; -130.525; -948.000; -858.000
214.901;  -16.075; -388.000; -226.000
215.046; -131.350; -797.000; -825.000
215.191;   12.400;  128.000;   35.000
215.336;  -29.350; -157.000;  -19.000
215.480;  -57.825; -684.000; -505.000
215.625;  -16.625; -175.000;  -19.000
215.770;  -74.025; -757.000; -662.000
215.915;  -24.125;   -5.000;  -97.000
216.060;   14.300; -113.000;  -21.000
216.205; -121.150; -731.000; -779.000
216.349;  -61.925; -470.000; -533.000
216.494; -137.600; -939.000; -867.000
216.639; -104.525; -823.000; -888.000
216.784;  -83.100; -577.000; -525.000
216.929;   52.175;  392.000;  281.000
217.073;  -22.625; -244.000;  -31.000
217.218;   21.300;   78.000;  -47.000
217.363;  -99.000; -656.000; -618.000
217.507;  -77.825; -623.000; -588.000
217.652; -130.375; -845.000; -874.000
217.797; -100.850; -708.000; -659.000
217.942; -124.150; -856.000; -720.000
218.086;   89.775;  608.000;  539.000
218.231;  -31.375; -174.000;  -26.000
218.376;  -21.400; -337.000; -229.000
218.520;   -5.050;  -41.000;   96.000
218.665;  -25.900; -338.000; -204.000
218.810;  -47.800; -275.000; -233.000
218.954;   19.400;  201.000;   35.000
219.099; -116.375; -713.000; -963.000
219.243;  -68.750; -589.000; -554.000
219.388;  -46.000; -264.000; -136.000
219.532;  -14.925; -116.000; -116.000
219.677;  -87.525; -564.000; -521.000
219.822;    9.050;   33.000;   89.000
219.966;    5.550;   17.000;  -99.000
220.111;  -18.750; -328.000;  -40.000
220.255; -102.275; -797.000; -750.000
220.400;   -6.025; -180.000; -146.000
220.544;  -72.550; -516.000; -450.000
220.689;  -49.225; -422.000; -451.000
220.833;  -27.800; -123.000;  -58.000
220.978;  -48.025; -393.000; -563.000
221.122;    8.350;  319.000;  307.000
221.267; -106.025; -906.000; -837.000
221.411;  -79.050; -478.000; -394.000
221.555;   -9.425; -104.000;  -23.000
221.700;  -49.800; -329.000; -222.000
221.844;   47.200;  255.000;  272.000
221.989;  -40.625; -328.000; -311.000
222.133;  -20.825; -289.000; -307.000
222.277;  -19.100;    5.000;   78.000
222.422;   12.625;  227.000;  113.000
222.566;  -44.375; -381.000; -214.000
222.711;  -43.225; -414.000; -479.000
222.855;  -76.500; -643.000; -586.000
222.999;  -71.275; -642.000; -717.000
223.144;  -30.100; -195.000; -194.000
223.288;   51.000;  423.000;  251.000
223.432;   19.000;  184.000;  230.000
223.576;   14.850;  152.000;  -21.000
223.721;   32.675;  364.000;  273.000
223.865;  -38.875; -472.000; -475.000
224.009;  241.650; 1673.000; 1631.000
224.153;  -59.100; -660.000; -671.000
224.298;  -58.750; -531.000; -489.000
224.442;    6.200;  -74.000;  -33.000
224.586;  -22.300; -169.000; -106.000
224.730;  -90.950; -858.000; -670.000
224.875; -123.600; -739.000; -688.000
225.019;   22.925;  102.000;  188.000
225.163;   46.325;  208.000;  341.000
225.307;   21.250;   97.000;  -91.000
225.451;   47.525;  360.000;  481.000
225.595;   35.325;  264.000;  176.000
225.739;  -16.175; -170.000;  -94.000
225.884;    9.100;   86.000;    5.000
226.028;  -98.350; -760.000; -626.000
226.172;  -30.825; -260.000; -273.000
226.316; -131.000; -941.000; -902.000
226.460;  -69.625; -645.000; -493.000
226.604;  -60.850; -406.000; -400.000
226.748;  -90.175; -836.000; -733.000
226.892;  -50.350; -227.000; -181.000
227.036;  -40.700; -537.000; -447.000
227.180;  -61.375; -551.000; -375.000
227.324;  -62.450; -561.000; -580.000
227.468; -119.300; -819.000; -717.000
227.612;   19.925;  242.000;  -28.000
227.756;  -97.775; -845.000; -698.000
227.900;   51.875;  342.000;  441.000
228.044;  -58.725; -509.000; -290.000
228.188;   69.350;  448.000;  568.000
228.332;  -98.900; -546.000; -472.000
228.476;  -31.225; -223.000; -149.000
228.620;  -34.275; -210.000; -150.000
228.764;   75.725;  431.000;  349.000
228.908;  -34.550; -155.000;   30.000
229.052;  -56.300; -615.000; -528.000
229.195;   -6.750; -172.000;   13.000
229.339;  -13.625; -235.000; -305.000
229.483;  -20.525;    5.000; -162.000
229.627;   13.450; -156.000;  139.000
229.771;  -62.450; -218.000; -294.000
229.915;   10.600;  230.000;   79.000
230.059;  -87.250; -648.000; -663.000
230.202;  -53.275; -370.000; -317.000
230.346;  -27.825; -107.000;  107.000
230.490;  -62.225; -489.000; -521.000
230.634; -119.225; -736.000; -553.000
230.777;   78.875;  478.000;  509.000
230.921;  -63.250; -450.000; -359.000
231.065;  -36.300; -246.000; -286.000
231.209;   29.725;  261.000;  265.000
231.352;   22.350;   54.000;   40.000
231.496;   11.550;  568.000;  188.000
231.640;  -78.725; -693.000; -621.000
231.783;   45.650;  546.000;  525.000
231.927;  -39.200; -294.000; -365.000
232.071; -129.800; -962.000; -736.000
232.214;  -96.600; -980.000; -764.000
232.358;  -96.900; -683.000; -599.000
232.502;    3.900;  -19.000;    7.000
232.645; -138.450;-1090.000; -927.000
232.789;  -16.625; -257.000; -218.000
232.933;  -42.700; -407.000; -224.000
233.076; -125.150;-1038.000; -897.000
233.220; -108.175; -752.000; -777.000
233.363;  -72.000; -669.000; -477.000
233.507;   53.150;  371.000;  129.000
233.650;  -97.000; -764.000; -834.000
233.794;   30.925;  438.000;  461.000
233.938;  -52.175; -530.000; -362.000
234.081;  -33.900;  -93.000;   31.000
234.225;  -61.300; -631.000; -539.000
234.368; -110.775; -773.000; -723.000
234.512;  -34.125; -385.000; -299.000
234.655;  -97.975; -582.000; -555.000
234.798;  -54.475; -493.000; -466.000
234.942; -146.275; -884.000;-1002.000
235.085;  -66.375; -651.000; -443.000
235.229;  -66.400; -405.000; -410.000
235.372;  -43.325; -247.000; -191.000
235.516;  -69.975; -397.000; -321.000
235.659;   26.025;   92.000;  121.000
235.802;  -23.675;  -38.000;  -22.000
235.946;   32.250;  335.000;  215.000
236.089;   27.525;  126.000;  250.000
236.233;   63.275;  275.000;  298.000
236.376;  -60.575; -235.000; -378.000
236.519;  -48.175; -297.000; -319.000
236.663;  -26.225; -215.000; -117.000
236.806; -135.500;-1029.000; -999.000
236.949;   48.500;  543.000;  431.000
237.092;   63.450;  412.000;  391.000
237.236;  -90.775; -589.000; -502.000
237.379;   76.750;  352.000;  428.000
237.522; -111.625; -879.000; -768.000
237.666;  -13.200; -271.000;   18.000
237.809; -121.600; -851.000; -823.000
237.952;   46.975;  469.000;  271.000
238.095;  -81.125; -447.000; -442.000
238.238;   93.475;  688.000;  700.000
238.382;    0.450;  166.000;  103.000
238.525;  -69.125; -598.000; -511.000
238.668; -140.875;-1060.000; -985.000
238.811;  -80.250; -638.000; -643.000
238.954;  -71.175; -483.000; -334.000
239.097;   90.150;  617.000;  664.000
239.241;   15.475;  394.000;  326.000
239.384;  -25.775; -254.000; -214.000
239.527;  -60.200; -424.000; -224.000
239.670; -131.475; -994.000;-1091.000
239.813; -123.175; -696.000; -658.000
239.956;   80.900;  579.000;  473.000
240.099; -109.350; -778.000; -725.000
240.242;   62.800;  428.000;  432.000
240.385;   59.650;  466.000;  450.000
240.528;  -55.725; -706.000; -473.000
240.671;   12.950;  189.000;  134.000
240.814;  -32.350; -441.000; -158.000
240.957; -106.975; -767.000; -578.000
241.100;  -80.775; -779.000; -755.000
241.243; -153.850;-1234.000; -893.000
241.386;  -55.200; -508.000; -379.000
241.529;  -92.450; -735.000; -547.000
241.672;  -55.675; -566.000; -495.000
241.815; -130.325; -832.000; -808.000
241.958;  -12.975; -125.000; -182.000
242.101;  -85.475; -545.000; -390.000
242.244;  -30.800; -270.000; -325.000
242.387;  -56.400; -304.000; -246.000
242.530;   70.125;  470.000;  134.000
242.673;  -43.675; -381.000; -309.000
242.815; -115.175; -925.000; -899.000
242.958;  -69.425; -482.000; -381.000
243.101;   10.375;  132.000;  187.000
243.244;  -97.550; -564.000; -521.000
243.387;  -32.550; -313.000; -316.000
243.530; -110.675; -657.000; -674.000
243.672;   11.050;   43.000;  -92.000
243.815;  -67.425; -355.000; -283.000
243.958;   -8.025;   98.000;  -26.000
244.101;   -7.975;   59.000;  -16.000
244.243;  -16.150;  -47.000;  101.000
244.386; -122.825; -761.000; -630.000
244.529;  -13.700; -132.000; -139.000
244.672; -170.500;-1154.000; -951.000
244.814; -104.250; -621.000; -794.000
244.957;  -69.400; -380.000; -304.000
245.100;  -64.950; -489.000; -489.000
245.242;  -70.425; -387.000; -374.000
245.385;  -14.600;  -59.000;  -39.000
245.528; -132.400; -871.000; -705.000
245.670;  103.775;  612.000;  634.000
245.813;  -88.550; -599.000; -547.000
245.956;  -20.250; -324.000; -275.000
246.098;  -93.975; -508.000; -650.000
246.241;    8.025;  194.000;   48.000
246.383;  -26.850; -119.000;  -73.000
246.526;  -80.250; -454.000; -525.000
246.669; -127.825; -889.000; -780.000
246.811;   25.375;  172.000;   -1.000
246.954;  -71.850; -512.000; -426.000
247.096;   -8.025;  -84.000;   -6.000
247.239;  -76.850; -482.000; -445.000
247.381;  -66.450; -647.000; -488.000
247.524;   89.825;  645.000;  679.000
247.666;  -19.650;   58.000;   11.000
247.809; -131.025; -887.000; -691.000
247.951;   -4.850;  -75.000;  138.000
248.094;   31.275;  432.000;  308.000
248.236; -166.075;-1262.000;-1238.000
248.378;    3.500; -356.000;  -81.000
248.521;   -8.975; -334.000; -337.000
248.663;  -50.125; -236.000; -267.000
248.806;  -17.525; -300.000; -266.000
248.948; -102.525; -886.000; -763.000
249.090;  -40.675; -428.000; -398.000
249.233;  -47.675; -344.000; -381.000
249.375;  -55.350; -474.000; -451.000
249.518;  -26.325;  -83.000; -133.000
249.660;   -2.800; -103.000;    3.000
249.802; -180.425;-1303.000;-1189.000
249.945;  -67.950; -612.000; -540.000
250.087; -119.075; -834.000; -768.000
250.229;  -40.325; -362.000; -480.000
250.371;  -79.400; -494.000; -439.000
250.514;  -45.175; -310.000; -244.000
250.656;  -79.925;   69.000;  102.000
250.798; -117.475; -849.000; -800.000
250.940;  -63.150; -322.000; -322.000
251.083;  -26.300; -335.000; -111.000
251.225;   61.450;  338.000;  310.000
251.367;  -47.325; -274.000; -373.000
251.509;  -38.175; -265.000; -210.000
251.651;  -94.075; -731.000; -671.000
251.794;   48.125;  538.000;  632.000
251.936; -117.450; -821.000; -747.000
252.078;  -83.675; -540.000; -461.000
252.220;  -70.475; -645.000; -477.000
252.362;   67.425;  344.000;  462.000
252.504;  -66.950; -677.000; -584.000
252.646; -120.325; -875.000; -722.000
252.788;    8.850;   14.000; -128.000
252.931;  -28.150; -257.000; -253.000
253.073;  -22.550; -376.000; -317.000
253.215;  -11.800;  141.000;  122.000
253.357;  -19.825;   82.000; -153.000
253.499;  -63.575; -374.000; -234.000
253.641;  -89.475; -749.000; -594.000
253.783;  -99.475; -609.000; -527.000
253.925;  -81.750; -586.000; -591.000
254.067; -120.100; -744.000; -667.000
254.209;  -17.000; -391.000; -259.000
254.351; -158.400; -865.000; -883.000
254.493;  -54.450; -441.000; -417.000
254.635; -132.350; -936.000; -818.000
254.777;  -80.650; -752.000; -687.000
254.918;  -66.175; -512.000; -430.000
255.060;  -51.050; -551.000; -395.000
255.202;  -74.075; -473.000; -261.000
255.344;  -70.925; -658.000; -455.000
255.486;  -85.950; -471.000; -406.000
255.628;  -97.000; -780.000; -781.000
255.770;  -93.375; -676.000; -536.000
255.912;  -55.900; -559.000; -468.000
256.053; -103.775; -730.000; -508.000
256.195;  164.100; 1008.000;  903.000
256.337; -106.975; -861.000; -595.000
256.479;   64.700;  532.000;  416.000
256.621;  -55.950; -394.000; -212.000
256.762;  -95.750; -789.000; -742.000
256.904;   46.225;  485.000;  487.000
257.046;  -38.950; -381.000; -271.000
257.188;  -41.400; -351.000; -264.000
257.329;  -69.500; -525.000; -464.000
257.471; -107.525; -939.000; -807.000
257.613;  -62.375; -584.000; -498.000
257.755; -164.775;-1073.000; -982.000
257.896;   34.275;  286.000;  392.000
258.038;  -70.800; -403.000; -352.000
258.180;  -26.625; -354.000; -279.000
258.321;  -96.900; -581.000; -457.000
258.463;   12.025;  -71.000;  133.000
258.605;  -92.775; -562.000; -570.000
258.746;  -96.500; -886.000; -772.000
258.888; -165.325;-1026.000;-1020.000
259.029;   43.025;  121.000;   -8.000
259.171; -102.550; -614.000; -550.000
259.313;    6.600;  -49.000;  -47.000
259.454;  -87.300; -536.000; -414.000
259.596;  -49.800; -483.000; -390.000
259.737;  -75.325; -590.000; -474.000
259.879;   33.300;  217.000;  311.000
260.020;   90.150;  901.000;  636.000
260.162;  -16.075; -146.000; -253.000
260.303; -130.975; -768.000; -687.000
260.445;  -77.250; -609.000; -613.000
260.586;   12.750;  392.000;  157.000
260.728;  -27.650; -360.000; -248.000
260.869;  -86.250; -350.000; -343.000
261.011;   84.225;  706.000;  537.000
261.152;  -69.400; -479.000; -319.000
261.293;  -76.525; -576.000; -595.000
261.435;  -42.350; -219.000; -184.000
261.576;  -42.050; -455.000; -325.000
261.718;   51.775;  420.000;  470.000
261.859; -119.375; -940.000; -949.000
262.000; -133.075; -951.000;-1016.000
262.142;  -15.825;  -52.000;  -60.000
262.283; -118.375; -808.000; -691.000
262.424;  -74.000; -666.000; -625.000
262.566; -162.950;-1161.000; -983.000
262.707; -115.175; -840.000; -830.000
262.848; -115.700; -769.000; -726.000
262.990;  -41.225; -362.000; -345.000
263.131;   71.225;  650.000;  681.000
263.272;   -5.825;  -61.000;  -41.000
263.413;  -95.500; -589.000; -561.000
263.555;  -66.175; -669.000; -143.000
263.696;  -86.350; -550.000; -641.000
263.837;  -48.150; -449.000; -551.000
263.978;   -9.675;   -5.000;  -77.000
264.119;  -56.250; -283.000; -264.000
264.261; -117.725; -847.000; -630.000
264.402;   -4.650;   33.000;   40.000
264.543;  -78.600; -509.000; -524.000
264.684;   -0.025;   61.000;  -50.000
264.825;  -76.875; -816.000; -538.000
264.966;    2.350;  -84.000;  -67.000
265.107; -112.250; -646.000; -670.000
265.248; -118.275; -825.000; -812.000
265.390;   -1.375;  152.000;   -9.000
265.531;   -9.100; -238.000; -107.000
265.672;  -93.500; -557.000; -630.000
265.813;   62.575;  563.000;  439.000
265.954; -153.025; -959.000; -940.000
266.095;   -9.600; -372.000; -322.000
266.236; -100.125; -686.000; -548.000
266.377;  -41.300; -243.000; -297.000
266.518;  -70.600; -619.000; -547.000
266.659;   21.175;  170.000;  268.000
266.800;   -3.750;   83.000;   85.000
266.941;  -72.525; -487.000; -478.000
267.082;   21.875;  354.000;   99.000
267.223;  -49.325; -344.000; -273.000
267.364; -122.900; -892.000; -686.000
267.504;   -2.250;    3.000;  135.000
267.645;   -5.925;  160.000;   67.000
267.786;  -24.775; -147.000;  -86.000
267.927;  -72.450; -473.000; -379.000
268.068;   -5.625; -186.000;  -61.000
268.209;  -58.950; -175.000; -413.000
268.350;  -49.775; -388.000; -532.000
268.490;  -92.500; -648.000; -521.000
268.631;   42.975;  127.000;  225.000
268.772; -123.050; -874.000; -647.000
268.913;  -53.725; -328.000; -476.000
269.054;  -12.500; -117.000;   12.000
269.194;  -48.525; -418.000; -402.000
269.335; -152.625;-1137.000;-1074.000
269.476;  -18.600;   33.000;  -35.000
269.617;  -56.075; -347.000; -392.000
269.757;  -90.025; -713.000; -646.000
269.898; -118.175; -856.000; -613.000
270.039;  -60.200; -415.000; -405.000
270.180; -139.425; -952.000; -816.000
270.320;  -18.850; -190.000; -250.000
270.461;  -47.350; -277.000; -249.000
270.602;  -14.250; -186.000; -156.000
270.742; -113.325; -868.000; -943.000
270.883;  -41.500; -442.000; -390.000
271.023;  -70.475; -358.000; -357.000
271.164;  -70.725; -607.000; -528.000
271.305; -111.800; -666.000; -654.000
271.445;  -88.500; -722.000; -683.000
271.586;  -66.950; -462.000; -283.000
271.726;  -32.800; -397.000; -322.000
271.867;  -71.600; -594.000; -534.000
272.008;  191.000; -473.000; -285.000
272.148;  135.750;  462.000;  468.000
272.289;   17.300; -113.000; -181.000
272.429;    7.125;   19.000;  185.000
272.570;  -84.825; -633.000; -737.000
272.710; -113.125; -825.000; -775.000
272.851;  -22.075;  113.000; -130.000
272.991; -166.100;-1173.000;-1077.000
273.131;  -55.150; -419.000; -459.000
273.272;  -94.225; -683.000; -723.000
273.412;   10.800; -143.000;  -31.000
273.553;  -63.225; -488.000; -507.000
273.693;  143.550;  913.000;  858.000
273.834; -101.650; -894.000; -692.000
273.974;  -62.675; -664.000; -615.000
274.114; -105.800; -772.000; -560.000
274.255;   75.825;  414.000;  373.000
274.395;    8.975; -180.000; -125.000
274.535;   42.500;  199.000;  350.000
274.676;   10.550;  225.000;   94.000
274.816;    8.025;  110.000;   34.000
274.956;  -86.175; -624.000; -690.000
275.097;  -50.925;-1014.000; -922.000
275.237; -102.475; -913.000; -803.000
275.377;  -92.725; -778.000; -689.000
275.517; -141.900; -878.000; -937.000
275.658;  -58.200; -590.000; -555.000
275.798;  -66.150; -606.000; -413.000
275.938;   24.275;  215.000;  323.000
276.078;  -91.900; -626.000; -395.000
276.218;   13.300;   99.000;  104.000
276.359; -130.175;-1026.000;-1024.000
276.499;  -60.625; -605.000; -446.000
276.639;  -27.850; -305.000; -151.000
276.779;  -42.350; -475.000; -357.000
276.919; -108.525; -783.000; -624.000
277.059;  -15.575; -261.000; -212.000
277.199;  -59.075; -357.000; -259.000
277.340;   54.000;  287.000;  175.000
277.480; -116.575; -840.000; -693.000
277.620;   21.175;  192.000;   16.000
277.760; -197.600;-1533.000;-1294.000
277.900;   37.925;  113.000;   33.000
278.040;   10.850;  137.000;  159.000
278.180;   45.800;  270.000;  170.000
278.320;  -17.025;   21.000;   56.000
278.460;  -58.525; -443.000; -469.000
278.600; -105.250; -708.000; -598.000
278.740;   73.450;  448.000;  224.000
278.880;  -47.100; -768.000; -791.000
279.020;    1.600; -194.000; -144.000
279.160;  -95.225; -672.000; -595.000
279.300; -106.225; -926.000; -873.000
279.440;  -91.075; -709.000; -622.000
279.579;   -7.650;-1014.000; -929.000
279.719;  -50.775; -410.000; -394.000
279.859;   88.300;   -4.000;   41.000
279.999;   18.925; -208.000;  101.000
280.139;   -5.850; -435.000; -387.000
280.279;  -89.850; -708.000; -745.000
280.419;  -20.550; -229.000; -147.000
280.559;  -25.775; -259.000; -180.000
280.698;  -78.125; -790.000; -639.000
280.838;  -94.825; -778.000; -800.000
280.978;  -84.425; -846.000; -790.000
281.118; -115.800; -811.000; -704.000
281.257;   16.875;   24.000;    6.000
281.397; -104.075;-1094.000; -960.000
281.537;  -75.300; -599.000; -712.000
281.677;  -26.275; -150.000; -101.000
281.816;  -85.400; -700.000; -630.000
281.956;  -37.100; -193.000; -257.000
282.096;  -54.925; -539.000; -396.000
282.235; -111.950; -672.000; -638.000
282.375;   -8.700; -243.000;  -98.000
282.515; -111.200; -715.000; -707.000
282.654;   40.350;   29.000;  106.000
282.794;   26.575;  388.000;  244.000
282.934;  -48.650; -530.000; -491.000
283.073; -144.500;-1030.000; -857.000
283.213;  -57.300; -460.000; -467.000
283.353;  -39.725; -408.000; -349.000
283.492;  -32.950; -264.000; -296.000
283.632;  -54.150; -254.000; -168.000
283.771;  -85.500; -859.000; -730.000
283.911;  -47.950; -369.000; -260.000
284.050; -100.875; -794.000; -748.000
284.190; -171.100;-1229.000;-1096.000
284.329; -132.625;-1055.000; -964.000
284.469;  -62.175; -516.000; -591.000
284.608;  -52.425; -559.000; -598.000
284.748;  -80.425; -614.000; -570.000
284.887;    3.000;  -87.000;  -20.000
285.027; -137.975; -844.000; -892.000
285.166;  -32.675; -192.000; -249.000
285.306;   -3.825; -116.000;  -33.000
285.445;  -16.525; -229.000; -343.000
285.584;  -96.850; -630.000; -494.000
285.724;  -38.075; -282.000; -322.000
285.863; -116.150; -857.000; -507.000
286.002;  -43.175; -366.000; -276.000
286.142; -117.325; -715.000; -622.000
286.281;  -66.850; -525.000; -493.000
286.420;  -80.350; -554.000; -417.000
286.560;   98.275;  653.000;  623.000
286.699; -145.525; -958.000; -912.000
286.838;  -67.000; -590.000; -591.000
286.978;  -93.975; -533.000; -537.000
287.117; -133.350;-1085.000; -950.000
287.256;  -37.875; -228.000; -211.000
287.395;  -30.600; -197.000; -378.000
287.535;  -39.825; -370.000; -298.000
287.674;  -67.550; -509.000; -484.000
287.813;   44.775;  661.000;  533.000
287.952; -116.400;-1010.000; -871.000
288.091; -147.725;-1049.000; -915.000
288.231;   17.025;   13.000;   15.000
288.370; -177.050;-1217.000;-1200.000
288.509;  -90.925; -728.000; -645.000
288.648;  -91.600; -770.000; -548.000
288.787;  -30.325; -243.000;  -87.000
288.926;  -66.550; -454.000; -475.000
289.065;  125.450;  859.000;  672.000
289.204;  -50.075; -377.000; -217.000
289.344;  -82.375; -791.000; -690.000
289.483;   19.100;  416.000;  304.000
289.622;  -20.325; -291.000; -149.000
289.761;  -22.100; -309.000; -166.000
289.900; -110.775; -785.000; -626.000
290.039;  -22.525;  -12.000;  -95.000
290.178;  -26.750; -274.000; -180.000
290.317;  -86.500; -618.000; -479.000
290.456;  -61.650; -463.000; -451.000
290.595; -148.950; -961.000; -833.000
290.734; -132.600; -904.000; -891.000
290.873;  -76.950; -456.000; -420.000
291.011;  -90.150; -833.000; -843.000
291.150; -105.550; -770.000; -682.000
291.289;   -5.375; -343.000; -110.000
291.428;  -98.125; -599.000; -480.000
291.567;  -44.125; -370.000; -442.000
291.706;   -2.100;  109.000;  154.000
291.845;  -84.950; -597.000; -505.000
291.984; -178.350;-1234.000;-1061.000
292.122;   85.525;  602.000;  582.000
292.261;   44.875;  620.000;  463.000
292.400;   12.150; -144.000;  211.000
292.539; -118.275; -959.000; -813.000
292.678;  -11.625; -325.000; -300.000
292.816; -154.950;-1136.000; -965.000
292.955;  -79.300; -844.000; -684.000
293.094;  -26.275; -173.000; -337.000
293.233;  -46.275; -556.000; -400.000
293.371;  -50.150; -225.000;  -84.000
293.510; -106.350; -866.000; -780.000
293.649; -137.775; -959.000; -924.000
293.787;  -42.475;-1083.000;-1012.000
293.926;   -8.725; -113.000;  -32.000
294.065;  -35.875; -379.000; -290.000
294.203;   53.625;  298.000;  406.000
294.342;   29.200;   74.000;  156.000
294.481; 5542.650;51180.000; -836.000
294.619;  -14.350; -425.000; -582.000
294.758; -155.000;-1230.000;-1137.000
294.896;  115.800; -125.000;    5.000
295.035; -137.800;-1040.000;-1006.000
295.174; -112.650;-1082.000; -954.000
295.312;  -41.600; -323.000; -203.000
295.451;    7.075; -307.000; -428.000
295.589;  -47.925; -389.000; -518.000
295.728;   40.375; -292.000; -165.000
295.866;    5.775;  -36.000;  -51.000
296.005;  -53.000; -584.000; -341.000
296.143;  -81.775; -558.000; -596.000
296.282;  -89.750; -957.000; -881.000
296.420;  -80.925; -657.000; -557.000
296.559;  -71.900; -892.000; -633.000
296.697;   37.525; -847.000; -665.000
296.835;  107.500;-1141.000;-1002.000
296.974;   54.650;  -23.000;   39.000
297.112;   28.725; -443.000; -504.000
297.251;  -82.175; -815.000; -755.000
297.389;  119.250; -576.000; -438.000
297.527;   37.500; -145.000;  -83.000
297.666;  -29.850; -486.000; -438.000
297.804;  -59.275; -404.000; -264.000
297.942;   -4.975; -136.000; -161.000
298.081;    2.075; -183.000;   63.000
298.219;   96.175;  -17.000;  -19.000
298.357;   54.275; -144.000;  -71.000
298.495;   73.800; -810.000; -812.000
298.634;   99.850;  245.000;  219.000
298.772;   85.850; -220.000; -338.000
298.910;  -53.475; -309.000; -182.000
299.048;    2.050; -130.000; -153.000
299.187;  -30.325; -350.000; -250.000
299.325;   29.350;   52.000;  122.000
299.463;   67.850; -389.000; -299.000
299.601;  151.100; -327.000; -271.000
299.739;  -95.100; -908.000; -883.000
299.877;  -63.850; -791.000; -703.000
300.016;  -48.425;-1095.000; -935.000
300.154;  193.875;  -19.000; -161.000
300.292;   72.700; -428.000; -348.000
300.430;   60.475; -408.000; -291.000
300.568;  -97.950; -940.000; -874.000
300.706;  -35.250; -366.000; -469.000
300.844;  -74.950;-1108.000; -979.000
300.982;  132.950;  246.000;  282.000
301.120; -106.300; -965.000; -866.000
301.258;  -41.775; -812.000; -705.000
301.396;   42.725;  104.000;  -41.000
301.534;  121.350; -218.000; -293.000
301.672;   15.150; -664.000; -521.000
301.810;   67.250; -613.000; -545.000
301.948;  143.600;   53.000;  149.000
302.086;  721.675; -250.000;  -32.000
302.224; 1141.500; -610.000; -585.000
302.362;   77.900; -558.000; -622.000
302.500;   -2.925; -923.000; -893.000
302.638;  138.350;  128.000;  245.000
302.776;   -1.175; -352.000; -408.000
302.913;   40.175;  447.000;  236.000
303.051;    5.450;  -86.000;  -23.000
303.189;   70.050;   90.000;  118.000
303.327;  -35.875; -341.000; -256.000
303.465;  -70.925; -832.000; -588.000
303.603;  -87.050; -805.000; -604.000
303.740;  124.625;  417.000;  241.000
303.878;   38.700; -800.000; -759.000
304.016;  -78.625; -915.000; -790.000
304.154; -125.325;-1123.000;-1152.000
304.291;  -21.400; -505.000; -554.000
304.429;    9.850;  102.000;   74.000
304.567; -117.975; -908.000; -893.000
304.705;  -49.950; -408.000; -515.000
304.842;  131.750; -616.000; -540.000
304.980;   55.125;  215.000;   35.000
305.118;   62.500; -367.000; -365.000
305.255;  -60.775; -945.000; -927.000
305.393;   71.075;  178.000;  239.000
305.531;  -84.525;-1173.000; -956.000
305.668;  -65.925; -663.000; -582.000
305.806;  113.600; -358.000; -439.000
305.943;  135.075; -629.000; -637.000
306.081;   52.525; -378.000; -267.000
306.219;  -97.750; -863.000; -748.000
306.356;  -10.875;  158.000;   27.000
306.494;  121.300;  981.000;  761.000
306.631;   -3.875;  -11.000;  -55.000
306.769;   14.275; -613.000; -485.000
306.906;  -10.000; -284.000; -258.000
307.044;  -55.650; -473.000; -488.000
307.181;  -66.425; -410.000; -332.000
307.319;   14.425;  112.000;   87.000
307.456; -182.350;-1191.000;-1153.000
307.594;  -98.575; -980.000; -727.000
307.731;  -10.325; -371.000; -164.000
307.868;   13.875;  -15.000;   20.000
308.006; -129.475; -961.000; -847.000
308.143;  -62.275; -618.000; -330.000
308.281;  158.000;  -37.000; -254.000
308.418;   -6.425; -748.000; -640.000
308.555;  -69.200; -400.000; -250.000
308.693;  -75.675; -577.000; -573.000
308.830; -121.000; -712.000; -657.000
308.967;   -3.675; -215.000;  -95.000
309.105;  -58.375; -507.000; -396.000
309.242;   46.375; -468.000; -367.000
309.379;  329.425; -577.000; -655.000
309.517;  -61.050; -936.000; -948.000
309.654; -120.150; -910.000; -734.000
309.791;  -67.475; -662.000; -580.000
309.928; -116.875; -977.000; -914.000
310.065;  204.800;  819.000;  697.000
310.203;   10.075; -825.000; -850.000
310.340;    8.100; -465.000; -321.000
310.477;  -77.825; -412.000; -516.000
310.614;  -51.125; -383.000; -473.000
310.751;  -95.375; -427.000; -518.000
310.889;  -23.100;    1.000;   11.000
311.026; -162.925;-1161.000; -939.000
311.163;  -42.375; -386.000; -380.000
311.300;  -71.300; -512.000; -479.000
311.437;  -74.475; -658.000; -619.000
311.574; -161.800;-1226.000; -985.000
311.711;  -61.100; -595.000; -433.000
311.848;  -34.700; -380.000; -388.000
311.985;   31.500;  270.000;   93.000
312.122; -116.575; -932.000; -762.000
312.259; -111.450; -941.000; -994.000
312.396;  -93.125; -508.000; -551.000
312.533;  -89.200; -812.000; -790.000
312.670; -139.300;-1070.000; -898.000
312.807;  -32.875; -352.000; -367.000
312.944;  -77.900; -513.000; -611.000
313.081;  -26.025; -150.000; -415.000
313.218; -107.575;-1111.000; -867.000
313.355;   20.300; -531.000; -449.000
313.492;   10.850; -455.000; -292.000
313.629;  140.625;  815.000;  735.000
313.766; -157.150;-1176.000;-1008.000
313.902;    0.900; -186.000;   21.000
314.039;  -50.725; -372.000; -289.000
314.176;   31.025;  286.000;  192.000
314.313;  -85.325; -569.000; -473.000
314.450;  -64.325; -788.000; -684.000
314.587;  -66.100; -468.000; -480.000
314.723;   12.525;  -78.000;  130.000
314.860;   31.200;  318.000;  332.000
314.997;   42.525;  223.000;  142.000
315.134;  -57.600; -385.000; -368.000
315.270;  -17.025; -480.000; -496.000
315.407; -124.300;-1094.000; -967.000
315.544;  -37.350; -657.000; -538.000
315.681;  -65.175; -681.000; -565.000
315.817;   46.325; -133.000; -176.000
315.954;   28.375; -613.000; -392.000
316.091; -117.050;-1045.000;-1023.000
316.227;  -26.825;  -71.000; -179.000
316.364;   13.375;   23.000;    6.000
316.500;  -46.000; -113.000; -300.000
316.637;  -39.175; -181.000; -302.000
316.774;  -93.175; -625.000; -358.000
316.910;  -88.525; -598.000; -629.000
317.047;  -62.175; -487.000; -351.000
317.183;  -40.150; -435.000; -566.000
317.320;  -18.050; -367.000; -321.000
317.456;  -70.575; -733.000; -805.000
317.593; -114.250; -598.000; -641.000
317.729;    7.425;  168.000;  -67.000
317.866; -210.100;-1434.000;-1285.000
318.002;  -83.000; -708.000; -948.000
318.139;  -87.850; -883.000; -867.000
318.275;  -80.300;-1003.000; -738.000
318.412;  -72.900; -517.000; -336.000
318.548;  -19.625; -751.000; -720.000
318.685; -103.925; -985.000; -888.000
318.821;  -87.250; -762.000; -735.000
318.957;  -26.750;   34.000;  -23.000
319.094;   51.900;  297.000;  154.000
319.230;  -64.475; -756.000; -742.000
319.367;  158.075; -471.000; -520.000
319.503;   61.625; -538.000; -436.000
319.639;  -89.625; -877.000; -793.000
319.775;  -60.125; -750.000; -685.000
319.912;  -36.150; -424.000; -519.000
320.048;  -75.575;-1184.000;-1184.000
320.184;   84.400;   59.000;   70.000
320.321;  -72.200; -497.000; -467.000
320.457;   57.475;  475.000;  662.000
320.593;  -69.675; -375.000; -382.000
320.729;  -92.150; -732.000; -734.000
320.866;  -82.600; -577.000; -635.000
321.002;  -68.425; -759.000; -809.000
321.138;  -13.000; -135.000; -211.000
321.274;   92.975; -148.000; -115.000
321.410;  -16.875; -585.000; -353.000
321.546;   -8.000;-1011.000; -911.000
321.683;   66.450;  400.000;  185.000
321.819;   17.675;  -48.000; -117.000
321.955; -114.700; -743.000; -722.000
322.091;  -38.350; -585.000; -540.000
322.227;  -10.700; -382.000; -202.000
322.363;   -1.400; -320.000; -215.000
322.499;  -48.500; -343.000; -331.000
322.635;  195.175;  636.000;  443.000
322.771;   40.725; -139.000;   12.000
322.907;   98.050;  129.000;  327.000
323.043;  -11.575; -115.000; -206.000
323.179;  -26.000; -394.000; -363.000
323.315;   49.625; -401.000; -371.000
323.451;  150.775; -328.000; -236.000
323.587;   60.400;  -60.000;  -77.000
323.723;   33.525; -682.000; -601.000
323.859;  -14.300; -258.000;  -76.000
323.995;  -22.475; -467.000; -409.000
324.131; -119.375; -967.000; -892.000
324.267;  -27.700; -254.000; -276.000
324.402; -126.775; -960.000; -983.000
324.538;   -1.175; -279.000; -104.000
324.674;   21.700;  164.000;   77.000
324.810;  152.675;  226.000;  308.000
324.946;    9.675; -810.000; -658.000
325.082;  -68.525; -568.000; -475.000
325.217;  -10.950;  -62.000;   16.000
325.353; -100.325; -764.000; -659.000
325.489;  -88.475; -540.000; -506.000
325.625;  -55.950; -579.000; -525.000
325.760;   50.500;  517.000;  376.000
325.896;  -26.575; -515.000; -702.000
326.032;  -61.525; -403.000; -352.000
326.168;  -58.600; -462.000; -369.000
326.303;  -62.300; -352.000; -461.000
326.439;   -7.325; -336.000; -276.000
326.575;    2.325; -190.000;  -29.000
326.710;   -6.425; -156.000;  -30.000
326.846;  -18.850;  146.000;  103.000
326.982;  -87.350; -530.000; -548.000
327.117;  -78.925; -481.000; -442.000
327.253;  -87.425; -745.000; -742.000
327.388; -139.775;-1137.000;-1153.000
327.524;  -44.375; -811.000; -578.000
327.659;  -26.075;  -58.000;  -22.000
327.795;   -7.925;   69.000;   45.000
327.931;  -92.975; -723.000; -499.000
328.066;  -22.050; -417.000; -276.000
328.202;  -24.100;   12.000; -129.000
328.337;  100.125;  957.000;  713.000
328.473;   21.925;  -12.000;  -74.000
328.608;  -15.775; -256.000; -267.000
328.743;  -74.250; -799.000; -664.000
328.879;   15.525;  214.000;  114.000
329.014;  -43.900; -102.000; -122.000
329.150;  -72.625; -358.000; -483.000
329.285;  -80.100; -465.000; -466.000
329.421;  -57.425; -548.000; -246.000
329.556;  -38.000;  -36.000;   85.000
329.691;  -90.750; -633.000; -615.000
329.827;  -92.900; -626.000; -480.000
329.962;  -31.400;  131.000; -301.000
330.097; -100.425; -673.000; -585.000
330.233;  -31.350; -410.000; -223.000
330.368; -123.300; -839.000; -628.000
330.503;  -15.225;    3.000;   98.000
330.638;   11.925;  -93.000; -125.000
330.774;  -35.925; -609.000; -530.000
330.909;  -64.475; -434.000; -244.000
331.044; -103.700; -714.000; -708.000
331.179; -184.150;-1217.000;-1109.000
331.315;   28.875;   77.000;   20.000
331.450;    2.500;  157.000;  285.000
331.585;  -91.300; -805.000; -706.000
331.720;  -84.850; -510.000; -460.000
331.855;    7.525;  -35.000; -102.000
331.990;  221.650;   62.000;  138.000
332.126;  110.400; -110.000;   71.000
332.261;  -36.400; -379.000; -265.000
332.396;   -2.250; -135.000; -242.000
332.531; -118.600;-1074.000;-1031.000
332.666;   25.725; -519.000; -363.000
332.801; -106.650; -726.000; -807.000
332.936;  -16.075; -192.000; -122.000
333.071; -146.750; -870.000; -817.000
333.206;   28.725;  307.000;  379.000
333.341;   27.275;  344.000;  418.000
333.476;  -79.575; -627.000; -623.000
333.611;  -45.250; -251.000; -173.000
333.746;  -44.550; -381.000; -464.000
333.881; -110.725; -973.000; -935.000
334.016; -107.750; -936.000; -917.000
334.151; -126.300; -746.000; -702.000
334.286;   33.675;  152.000;  186.000
334.421;  -20.325; -125.000; -178.000
334.556;  -74.875; -611.000; -567.000
334.690;  -83.550; -631.000; -577.000
334.825;   63.750;  381.000;   83.000
334.960;  -55.925; -285.000; -413.000
335.095;   20.625;  135.000;  -91.000
335.230; -105.800; -722.000; -738.000
335.365; -123.075;-1084.000; -990.000
335.499; -131.475;-1108.000;-1037.000
335.634;   36.350;    9.000;  534.000
335.769; -100.325; -755.000; -720.000
335.904;  -43.250; -603.000; -561.000
336.038;  -58.450; -735.000; -657.000
336.173;  -97.500;-1206.000;-1194.000
336.308;    5.325; -116.000; -189.000
336.443;    8.400; -544.000; -634.000
336.577;  -65.500; -936.000; -787.000
336.712;   99.450;   -4.000;  -12.000
336.847;  -19.075; -724.000; -607.000
336.981;  104.875; -272.000; -208.000
337.116;  344.125;  615.000;  501.000
337.250;  200.525; -434.000; -421.000
337.385;  223.150; -297.000; -208.000
337.520;   65.250; -632.000; -603.000
337.654;  -43.350; -215.000; -126.000
337.789; -114.750; -989.000; -933.000
337.923;  -44.775; -104.000; -205.000
338.058;  -75.000; -673.000; -738.000
338.192;  -27.625; -611.000; -488.000
338.327;    6.775;  -18.000; -155.000
338.461;  -71.175; -299.000; -469.000
338.596;  -89.125; -780.000; -638.000
338.730; -107.725; -767.000; -803.000
338.865;   75.600;  -46.000; -140.000
338.999;  -73.925; -846.000; -702.000
339.134;  -38.550; -634.000; -536.000
339.268;   16.400; -741.000; -603.000
339.403;  336.525; -740.000; -775.000
339.537;   81.825; -894.000; -820.000
339.671; -104.600; -829.000; -813.000
339.806;  -64.200; -556.000; -512.000
339.940;   24.200; -261.000; -235.000
340.074; -100.150; -685.000; -510.000
340.209;  -41.575; -351.000; -230.000
340.343;  -92.000; -517.000; -573.000
340.477;  157.550;  998.000; 1036.000
340.612;  -77.750;-1033.000; -900.000
340.746;  121.675; -199.000; -243.000
340.880;  -62.300; -924.000; -785.000
341.014;  -10.575;  -45.000; -154.000
341.149; -125.950; -756.000; -718.000
341.283;  -98.425; -839.000; -754.000
341.417;  -79.000;-1124.000; -938.000
341.551;  203.375; -768.000; -708.000
341.685;  -35.225; -633.000; -611.000
341.820;  -45.600; -562.000; -493.000
341.954;  -46.125; -218.000; -349.000
342.088; -149.050;-1102.000;-1019.000
342.222;   46.875;  565.000;  618.000
342.356;  -40.775; -395.000; -335.000
342.490;  -86.300; -880.000; -841.000
342.624;  -36.625; -339.000; -242.000
342.758;   -1.300; -364.000; -312.000
342.892;  -53.300; -710.000; -585.000
343.026;  -37.975;  -58.000; -116.000
343.160;  -68.350; -426.000; -376.000
343.294;  -84.775; -474.000; -337.000
343.428;    0.425; -488.000; -448.000
343.562;  -23.300; -172.000;  -23.000
343.696;   -2.900; -385.000; -314.000
343.830;  -12.025; -362.000; -356.000
343.964;   24.950; -231.000; -168.000
344.098; 1086.200;  199.000;   70.000
344.232;  931.000; -266.000; -127.000
344.366;   99.850; -567.000; -453.000
344.500;   99.350; -665.000; -744.000
344.634;   35.575; -324.000; -164.000
344.768;   13.425; -531.000; -341.000
344.902;   18.425;  278.000;  256.000
345.035;  -65.900; -556.000; -496.000
345.169; -129.150; -933.000; -656.000
345.303;  -41.125; -308.000; -482.000
345.437;  -67.175; -826.000; -717.000
345.571;  -70.975; -675.000; -594.000
345.704;  -82.800; -309.000; -532.000
345.838;   -6.375; -331.000; -284.000
345.972;  -27.275; -543.000; -495.000
346.106;  156.425; -179.000; -190.000
346.239;  454.500; -312.000; -243.000
346.373;    6.325; -343.000; -302.000
346.507; -158.075; -950.000; -962.000
346.640;  186.500;  -30.000;   13.000
346.774;  -16.875; -650.000; -797.000
346.908;  -12.625; -138.000;  -11.000
347.041; -111.225; -646.000; -593.000
347.175;    2.150;  259.000;   27.000
347.309;  -69.525; -698.000; -628.000
347.442;  -83.675; -883.000; -732.000
347.576;  305.250;  670.000;  668.000
347.709;  244.850; -123.000;  -52.000
347.843;  -87.950; -933.000; -825.000
347.976;   43.400;  235.000;  294.000
348.110; -180.500;-1268.000;-1186.000
348.243;  -94.875; -679.000; -772.000
348.377;   -4.600;  -26.000;   60.000
348.510;   64.050;  403.000;  540.000
348.644;  -33.100;  -37.000; -159.000
348.777;    6.575;  180.000;  191.000
348.911;  -51.375; -142.000; -112.000
349.044;  188.850;  471.000;  448.000
349.178;  213.950;-1069.000;-1006.000
349.311;  117.875;  141.000;  255.000
349.444;  -22.075; -927.000; -813.000
349.578;  -18.125; -347.000; -200.000
349.711;  -87.625; -959.000; -862.000
349.845;   16.275; -661.000; -591.000
349.978; -146.750;-1224.000;-1137.000
350.111;  -74.600; -546.000; -612.000
350.244;  -72.925; -596.000; -700.000
350.378;   24.025; -392.000; -393.000
350.511;  -54.725; -393.000; -426.000
350.644; -100.850; -808.000; -806.000
350.778;   -0.350;  168.000;  104.000
350.911;    8.475;  134.000;  140.000
351.044;  -99.875; -685.000; -615.000
351.177;   -5.400; -321.000; -281.000
351.310;  -36.525;    3.000; -131.000
351.444;  -50.375; -888.000; -788.000
351.577;  137.450;  140.000;   90.000
351.710;  108.600;  593.000;  417.000
351.843;  -35.050; -165.000;  -77.000
351.976;   -6.225;  149.000;  -79.000
352.109;  -92.800; -621.000; -612.000
352.242;   -9.775; -464.000; -419.000
352.376;  -49.950; -580.000; -636.000
352.509;  242.250; -437.000; -356.000
352.642;   40.925; -654.000; -604.000
352.775;   92.875; -141.000;  -98.000
352.908; -117.300; -933.000; -904.000
353.041;  -82.100; -814.000; -824.000
353.174;  -58.875; -551.000; -424.000
353.307;  -72.250; -753.000; -764.000
353.440;   62.900;  541.000;  453.000
353.573; -102.600; -957.000;-1008.000
353.706;  -29.700; -384.000; -558.000
353.839;   -1.975; -264.000; -220.000
353.971;  -89.450; -657.000; -512.000
354.104;  -64.075; -896.000; -835.000
354.237;  -18.125; -627.000; -662.000
354.370;  -70.975; -846.000; -879.000
354.503; -187.375;-1231.000;-1308.000
354.636;  -29.450; -529.000; -348.000
354.769; -125.300; -937.000; -860.000
354.902;    6.350; -230.000; -139.000
355.034;   -6.325; -164.000; -220.000
355.167;  -14.000; -262.000; -162.000
355.300;  -93.200;-1061.000; -880.000
355.433;  911.875;  -71.000;  -14.000
355.565; 1404.625; -402.000; -384.000
355.698;  366.700; -356.000; -296.000
355.831;    2.725; -882.000; -801.000
355.964;  115.600; -285.000; -170.000
356.096;  -89.825; -856.000; -843.000
356.229;   24.075; -523.000; -530.000
356.362;  282.875; -373.000; -266.000
356.494;  588.050; -229.000; -162.000
356.627;  554.775;  269.000;  377.000
356.760;  642.500;  120.000;   53.000
356.892;  852.175; -286.000; -601.000
357.025;  776.350;  403.000;  389.000
357.157;  734.625; -167.000; -179.000
357.290;  578.850; -856.000; -713.000
357.423;  191.425; -667.000; -556.000
357.555;  147.750; -217.000; -228.000
357.688;  161.000; -483.000; -364.000
357.820;  541.350; -870.000; -877.000
357.953; 4201.400; -563.000; -589.000
358.085;  943.125; -632.000; -612.000
358.218; 1488.625;-1131.000; -932.000
358.350;  288.725;  -58.000;  312.000
358.483; -106.550;-1300.000;-1187.000
358.615;   15.425;-1182.000;-1078.000
358.747;  -35.575;-1187.000;-1058.000
358.880;   59.750; -810.000; -744.000
359.012;   -0.800; -376.000; -202.000
359.145;  -28.275; -480.000; -511.000
359.277;   81.350; -962.000; -913.000
359.409; 3510.400;  536.000;  231.000
359.542;  928.175; -738.000; -688.000
359.674;   77.400;   46.000;   13.000
359.806;  -78.400; -565.000; -438.000
359.939;  -37.250; -617.000; -516.000
360.071;  -33.900; -583.000; -579.000
360.203;  -13.300; -411.000; -364.000
360.335;   48.450;  164.000;  -16.000
360.468;  222.250; -249.000; -307.000
360.600; 2771.025; -547.000; -454.000
360.732; 2597.000; -546.000; -423.000
360.864;  357.775;-1216.000;-1044.000
360.996;  370.550; -516.000; -554.000
361.129;   54.450; -389.000; -598.000
361.261;   17.300;  110.000; -113.000
361.393;  -36.300; -252.000; -214.000
361.525;   33.325;   94.000;  244.000
361.657;  -30.925; -821.000; -703.000
361.789;   25.525; -139.000; -155.000
361.921;  317.950; -642.000; -593.000
362.053;  327.275;  524.000;  541.000
362.185;   47.575;  288.000;   72.000
362.318;  -49.825; -709.000; -705.000
362.450;  153.275;  294.000;  444.000
362.582;  196.475; -913.000; -870.000
362.714;  -25.975; -353.000; -332.000
362.846;  -80.150; -606.000; -490.000
362.978; -149.375; -941.000; -811.000
363.109;   85.975; -161.000; -260.000
363.241;  530.675; -739.000; -749.000
363.373;  419.675; -649.000; -564.000
363.505;  598.100; -186.000;  -91.000
363.637;  155.475; -787.000; -601.000
363.769; -126.300;-1067.000;-1080.000
363.901;  -69.400; -596.000; -654.000
364.033; -123.725;-1103.000;-1062.000
364.165;   17.250; -283.000; -283.000
364.296;   59.825; -316.000; -177.000
364.428;   47.300;-1344.000;-1220.000
364.560;  -86.400; -679.000; -661.000
364.692;  -63.750; -738.000; -835.000
364.824;  330.100; -588.000; -456.000
364.955;  470.875; -402.000; -564.000
365.087;  785.575;-1097.000; -852.000
365.219;   18.000; -686.000; -816.000
365.351;  -71.725; -526.000; -572.000
365.482;   46.425;  300.000;  240.000
365.614;  -60.575; -402.000; -314.000
365.746;  -85.850; -729.000; -752.000
365.877; -100.175; -706.000; -672.000
366.009;  244.425;  -35.000;  -62.000
366.141; -102.200;-1249.000;-1134.000
366.272; -110.775; -803.000; -719.000
366.404; -119.000;-1005.000; -874.000
366.535;   -6.125; -139.000;  -12.000
366.667; -104.450; -644.000; -649.000
366.799;   33.425;  353.000;  203.000
366.930; -113.925; -862.000; -996.000
367.062;  118.475; -639.000; -613.000
367.193;  115.400; -872.000; -842.000
367.325;  -45.750; -580.000; -684.000
367.456;   83.125; -246.000;   31.000
367.588;  157.050; -371.000; -318.000
367.719;   11.075;  -44.000;  -45.000
367.851;  -10.600; -222.000; -241.000
367.982;  -30.100; -875.000; -732.000
368.113;  148.625; -475.000; -358.000
368.245; -110.375; -960.000; -841.000
368.376;  -14.975; -254.000; -302.000
368.508;  -26.600; -188.000; -263.000
368.639; -135.950;-1166.000;-1034.000
368.770;  -18.575; -670.000; -589.000
368.902;  -30.625; -836.000; -926.000
369.033; -101.325; -906.000; -855.000
369.164;  -52.175; -720.000; -653.000
369.296; -116.100; -452.000; -601.000
369.427;   17.950; -209.000; -144.000
369.558;  -45.400; -593.000; -377.000
369.689;  -68.400; -721.000; -569.000
369.821; -138.825; -951.000; -845.000
369.952;   -8.500;   42.000; -108.000
370.083;  -56.300; -229.000; -108.000
370.214;  -78.300; -735.000; -650.000
370.345;   -6.825;   65.000;   81.000
370.477;  -68.625; -810.000; -790.000
370.608;  313.550; -328.000; -264.000
370.739;  -26.600;-1233.000;-1292.000
370.870;  -14.725;-1102.000; -923.000
371.001;  136.625; -378.000; -467.000
371.132;  -70.800; -754.000; -735.000
371.263;  -10.250;  -42.000; -148.000
371.394; -125.150; -841.000; -748.000
371.525;   38.500;  345.000;  225.000
371.657;  -92.725; -808.000; -670.000
371.788;   84.300;  103.000;  199.000
371.919;  205.800; -384.000; -304.000
372.050; 4317.125;  -91.000; -156.000
372.181; 1275.650; -188.000; -294.000
372.311;  460.350;   42.000; -127.000
372.442;   58.600; -457.000; -451.000
372.573;   -4.175; -444.000; -340.000
372.704; -120.700;-1008.000; -980.000
372.835;  123.675; -228.000; -289.000
372.966;  -55.625; -646.000; -554.000
373.097;  -42.100; -575.000; -711.000
373.228;  -12.150; -717.000; -542.000
373.359;  198.150; -824.000; -536.000
373.490; 1158.275; -881.000; -727.000
373.620; 1459.700;-1001.000; -803.000
373.751; 2192.275; -332.000; -396.000
373.882;  977.100; -663.000; -733.000
374.013;   91.475; -449.000; -262.000
374.143;  -22.750; -581.000; -659.000
374.274;  -99.650; -987.000; -908.000
374.405;  227.325; -388.000; -276.000
374.536;  554.350; -526.000; -387.000
374.666; 1413.825; -759.000; -807.000
374.797;  298.825; -817.000; -868.000
374.928; 1116.375; -710.000; -560.000
375.058; 1072.075; -535.000; -500.000
375.189;  104.525;  -59.000;  -93.000
375.320;  -89.850; -928.000;-1034.000
375.450;  -36.000; -625.000; -616.000
375.581;  -43.725; -526.000; -436.000
375.712;  -20.150; -574.000; -250.000
375.842;  374.975; -438.000; -415.000
375.973;  299.675; -554.000; -513.000
376.103;  -31.200; -665.000; -648.000
376.234;  -63.250; -531.000; -552.000
376.364;  -14.000; -944.000; -867.000
376.495;  374.025;  925.000;  529.000
376.625;   15.850; -472.000; -485.000
376.756;  100.750; -709.000; -678.000
376.886;  -51.500;-1178.000;-1026.000
377.017;   44.800;-1048.000;-1061.000
377.147;  289.125; -786.000; -782.000
377.278;   56.625;  174.000;  228.000
377.408; -137.825; -801.000; -815.000
377.538; -101.900; -707.000; -693.000
377.669;  -77.625; -537.000; -613.000
377.799;  -78.050; -645.000; -635.000
377.929;  -45.375; -610.000; -428.000
378.060; -127.225; -781.000; -847.000
378.190;  -56.250; -726.000; -531.000
378.320;  -41.250; -401.000; -406.000
378.451;   -0.525; -131.000;  -22.000
378.581;   -2.475;  -67.000; -110.000
378.711;  170.400; 1035.000;  866.000
378.841;    6.325; -533.000; -675.000
378.972;  -62.275; -871.000; -751.000
379.102;   16.050; -652.000; -579.000
379.232;  -15.250; -126.000;  -73.000
379.362;  -83.850;-1001.000; -885.000
379.492;   40.725; -373.000; -424.000
379.623;  127.475;    0.000;  111.000
379.753;  -91.200;-1107.000; -974.000
379.883;  249.075;   59.000;  156.000
380.013;   29.350;-1081.000;-1017.000
380.143;  -83.300;-1097.000;-1056.000
380.273; -103.850; -985.000; -861.000
380.403;   15.750; -344.000; -257.000
380.533;   -7.525; -651.000; -664.000
380.663;   88.950;  173.000;  128.000
380.793;  -68.450;-1027.000;-1074.000
380.923;   -7.875; -103.000;  -34.000
381.053;  -93.825; -613.000; -623.000
381.183;  -27.650; -106.000; -248.000
381.313;   66.825; -656.000; -470.000
381.443;   89.750; -692.000; -473.000
381.573;  257.125; -402.000; -409.000
381.703;  400.925;-1249.000;-1095.000
381.833; -115.525;-1454.000;-1336.000
381.963;  147.075; -134.000;  -87.000
382.093; 1653.000; -925.000; -909.000
382.223;  535.600; -713.000; -602.000
382.353;    2.100; -801.000; -608.000
382.482;  494.300;-1091.000; -964.000
382.612;  927.475; -872.000; -644.000
382.742;  536.575; -695.000; -622.000
382.872;  337.300; -565.000; -551.000
383.002;   89.725;  347.000; -132.000
383.131;  -19.400; -226.000; -160.000
383.261;  -33.575; -706.000; -768.000
383.391;  288.350; -552.000; -377.000
383.521; 2864.825;  451.000;  263.000
383.650;  635.125; -947.000; -904.000
383.780;   -9.525; -783.000; -656.000
383.910;  117.450;  880.000;  802.000
384.039;   51.175; -794.000; -656.000
384.169;  281.825;-1205.000;-1017.000
384.299;    0.700; -650.000; -662.000
384.428;  -90.350; -764.000; -680.000
384.558;  -38.475; -308.000; -275.000
384.687;  -39.450; -414.000; -334.000
384.817;   20.375;   75.000;   -2.000
384.947;   22.450; -234.000; -141.000
385.076;  329.750;  982.000;  912.000
385.206;  100.350;  369.000;  480.000
385.335;  -20.825; -549.000; -417.000
385.465;  -78.550; -655.000; -663.000
385.594;  167.700;  -53.000;  -44.000
385.724;  558.725; -868.000; -838.000
385.853;  169.875; -296.000; -270.000
385.982; 1675.150; -743.000; -787.000
386.112; 2631.650;-1052.000; -871.000
386.241;  184.600; -307.000; -312.000
386.371;   48.000; -174.000;  -87.000
386.500;    9.125; -825.000; -789.000
386.629;   37.250; -874.000; -817.000
386.759;   63.350;  -43.000;   68.000
386.888;   -4.425; -170.000; -250.000
387.017;  -57.925; -648.000; -620.000
387.147;  -68.275; -771.000; -798.000
387.276;   -4.000; -410.000; -397.000
387.405;   31.825; -398.000; -342.000
387.535;  -34.375; -452.000; -361.000
387.664;  -53.350; -692.000; -620.000
387.793;   71.250; -198.000; -113.000
387.922;  631.775;  255.000;  200.000
388.052;   28.800; -576.000; -423.000
388.181;   57.300; -342.000; -472.000
388.310;   43.875; -889.000; -710.000
388.439;  -13.475; -749.000; -742.000
388.568;  239.175;  365.000;  244.000
388.697; 1302.700; -756.000; -653.000
388.826;  268.475; -768.000; -666.000
388.956;  100.250; -285.000; -307.000
389.085;  -27.100; -347.000; -287.000
389.214;  -97.025; -842.000; -872.000
389.343;  -56.050; -645.000; -413.000
389.472;  387.675;  126.000;  149.000
389.601;  512.825;   91.000;    0.000
389.730;   56.925; -568.000; -687.000
389.859;   71.700;  226.000;   46.000
389.988;  232.350; -423.000; -408.000
390.117;  176.350; -168.000; -146.000
390.246;    6.125; -331.000; -320.000
390.375;  150.125; -673.000; -626.000
390.504;  -43.825; -703.000; -621.000
390.633;  -86.600; -672.000; -726.000
390.761;  -35.725; -732.000; -645.000
390.890;   37.025;   -4.000; -130.000
391.019;  -11.725; -421.000; -441.000
391.148; -140.325; -826.000; -855.000
391.277;  -47.500; -576.000; -493.000
391.406;  -83.900; -821.000; -805.000
391.534;   37.450;  574.000; -301.000
391.663;  -51.825; -583.000; -645.000
391.792;  -65.050; -673.000; -701.000
391.921;  127.825;   -3.000;   15.000
392.050;  279.575; -287.000; -228.000
392.178;  -14.825;-1206.000;-1061.000
392.307;  206.150; -758.000; -712.000
392.436;  106.675; -427.000; -641.000
392.564;   26.550;  166.000;   -6.000
392.693;  -99.900; -860.000; -682.000
392.822;  278.750; -529.000; -534.000
392.950;  139.200; -880.000; -714.000
393.079;  426.700; -188.000; -328.000
393.208;   48.900; -488.000; -511.000
393.336;   -7.500; -170.000; -145.000
393.465;  -58.400; -317.000; -199.000
393.593;   16.775;   62.000;   79.000
393.722; -148.425;-1121.000; -916.000
393.850;  -32.700; -188.000;  -61.000
393.979; -153.875; -926.000; -805.000
394.107;  -54.100; -517.000; -537.000
394.236;  -16.000; -570.000; -507.000
394.364;  225.400;  383.000;  206.000
394.493;  338.150; -911.000; -767.000
394.621;  -17.925; -955.000; -916.000
394.750;  633.350; -873.000; -923.000
394.878; 2720.175; -247.000; -149.000
395.007; 3666.000; -721.000; -807.000
395.135;  271.850; -790.000; -721.000
395.263;  -85.925;-1038.000;-1040.000
395.392;   13.250;  -25.000; -107.000
395.520; -134.025; -818.000; -679.000
395.648;  -71.200; -865.000; -915.000
395.777;   -3.775; -366.000; -405.000
395.905;  -34.675; -449.000; -564.000
396.033;   15.975;  217.000;  172.000
396.162;  565.575; -399.000; -453.000
396.290;  519.425;  -17.000;   -2.000
396.418;  140.450; -555.000; -514.000
396.546;  -67.350; -571.000; -466.000
396.674;  -71.275; -850.000; -878.000
396.803;   -2.275;  -72.000;  -23.000
396.931;  128.150; -179.000; -199.000
397.059;  104.525;-1026.000; -989.000
397.187;  -94.700;-1026.000; -975.000
397.315; -132.475; -884.000; -649.000
397.443;  -90.800; -592.000; -443.000
397.572;  -97.525; -578.000; -424.000
397.700;   26.150; -607.000; -614.000
397.828;   15.600;  120.000;  -90.000
397.956;  -41.625; -508.000; -478.000
398.084;  -70.725; -767.000; -626.000
398.212;   41.825;  137.000;  124.000
398.340;   12.900;  -56.000;  159.000
398.468;   70.350; -390.000; -169.000
398.596; -139.300; -993.000; -953.000
398.724; -121.875; -762.000; -767.000
398.852; -168.550;-1024.000; -976.000
398.980;  -49.525; -560.000; -560.000
399.108;  -47.575; -982.000; -735.000
399.236;   59.000;   13.000;    8.000
399.363;    5.650;  222.000;  196.000
399.491;  -68.475; -404.000; -398.000
399.619; -129.300; -829.000; -800.000
399.747;  -93.075; -859.000; -771.000
399.875;   78.225;  220.000;  234.000
400.003;  -38.450; -359.000; -284.000
400.130;  -94.500; -421.000; -341.000
400.258;  -16.500;  -83.000;   38.000
400.386;  -63.550; -352.000; -168.000
400.514;  -28.500; -526.000; -587.000
400.641;  -82.175; -928.000; -802.000
400.769; -136.825; -979.000; -888.000
400.897; -117.400; -838.000; -793.000
401.025;   -2.050; -166.000; -152.000
401.152;   -7.550;  220.000;   38.000
401.280;  -64.600; -430.000; -429.000
401.408; -124.950; -712.000; -576.000
401.535;  -90.900; -735.000; -758.000
401.663; -191.275;-1134.000;-1054.000
401.790;  -72.200; -514.000; -525.000
401.918;   39.525;  436.000;  405.000
402.046;  -12.475;  134.000;  122.000
402.173;  -38.700;  -18.000;    7.000
402.301;  -68.175; -519.000; -397.000
402.428;   40.525;  528.000;  383.000
402.556; -139.100;-1188.000; -913.000
402.683;  -32.175;  -20.000;   -1.000
402.811;  -12.575;  -37.000; -206.000
402.938;   -2.500;   20.000;   27.000
403.066;  264.400; -574.000; -558.000
403.193;  401.675;  299.000;  239.000
403.321;  324.525; -396.000; -574.000
403.448;  380.600;   83.000;   27.000
403.575;  202.400;  -90.000;  -46.000
403.703;  -94.175; -732.000; -557.000
403.830;  -73.450; -531.000; -496.000
403.957; -151.450;-1117.000;-1023.000
404.085;   12.825;  -61.000; -172.000
404.212;  104.525;  -50.000;   63.000
404.339;  257.925; -566.000; -306.000
404.467; 5309.400; -612.000; -524.000
404.594; 3723.725; -287.000; -227.000
404.721;  968.900; -869.000; -764.000
404.848;   87.875; -113.000; -202.000
404.976; -106.675; -856.000; -783.000
405.103;  -10.875;  -14.000;  -82.000
405.230;   -4.925;  190.000;  226.000
405.357;   27.075;  117.000;   44.000
405.484;  240.225;  -49.000;    5.000
405.612;   49.525; -548.000; -563.000
405.739;  -65.525; -488.000; -243.000
405.866;   95.350;  669.000;  385.000
405.993;  -53.825; -398.000; -102.000
406.120; -121.650; -801.000; -887.000
406.247;  -52.275; -323.000; -342.000
406.374;  545.550;  540.000;  629.000
406.501;  164.125; -632.000; -702.000
406.628;  -56.375; -621.000; -589.000
406.755;  -97.025; -803.000; -620.000
406.882;  -24.625; -228.000; -277.000
407.009; -114.400; -719.000; -628.000
407.136;   77.000; -480.000; -401.000
407.263;  205.500; -939.000; -829.000
407.390;  -76.375; -692.000; -614.000
407.517; -177.200;-1139.000;-1187.000
407.644;  -51.000; -332.000; -256.000
407.771; -144.275; -249.000; -287.000
407.898;   13.450;  168.000;  328.000
408.025;  -73.425; -421.000; -313.000
408.151;    0.275;   82.000;  153.000
408.278;  -62.625; -267.000; -216.000
408.405;  -93.675; -931.000; -899.000
408.532;  -74.475; -549.000; -542.000
408.659; -110.550; -677.000; -648.000
408.785; -199.875;-1298.000;-1170.000
408.912;  -49.750; -412.000; -296.000
409.039; -122.100; -610.000; -686.000
409.166; -104.300; -591.000; -555.000
409.292; -114.700; -571.000; -534.000
409.419; -111.275; -665.000; -649.000
409.546;  -93.700; -431.000; -192.000
409.672;  -97.425; -713.000; -545.000
409.799;  -17.700;  -36.000;   34.000
409.926;  -31.900; -180.000; -179.000
410.052; -175.300;-1127.000;-1091.000
410.179;  -53.050; -368.000; -392.000
410.305;  -91.525; -375.000; -493.000
410.432;  -34.525; -220.000; -333.000
410.558; -103.625; -305.000; -380.000
410.685; -112.025; -688.000; -431.000
410.812; -112.450; -409.000; -588.000
410.938; -130.675; -964.000; -808.000
411.065; -100.200; -671.000; -645.000
411.191;   -5.275; -189.000; -174.000
411.317; -116.975; -823.000; -742.000
411.444;  -59.400; -317.000; -246.000
411.570;  -96.275; -339.000; -294.000
411.697; -119.600; -758.000; -752.000
411.823; -185.375; -989.000; -999.000
411.949;  -13.800;  -56.000;   17.000
412.076; -112.775; -539.000; -519.000
412.202; -106.150; -758.000; -757.000
412.329; -140.875; -798.000; -752.000
412.455; -100.800; -821.000; -657.000
412.581;  -15.450;  -15.000;  172.000
412.707;  -54.275; -540.000; -457.000
412.834;    9.250;  156.000;  219.000
412.960;  -73.375; -785.000; -784.000
413.086; -121.050; -743.000; -701.000
413.212;  184.700;  604.000;  578.000
413.339;  -57.750; -685.000; -701.000
413.465;   30.225; -364.000; -310.000
413.591;  -94.800; -757.000; -474.000
413.717;  -37.325; -358.000; -366.000
413.843; -149.450; -839.000; -861.000
413.969;  -55.600;  -47.000; -292.000
414.096; -110.475; -679.000; -679.000
414.222;   -2.925;  -33.000;   85.000
414.348;   -9.525; -652.000; -385.000
414.474;  127.850;   38.000;  -52.000
414.600;  -14.500; -126.000; -144.000
414.726;    5.750;  -96.000;  -55.000
414.852;  -69.000; -365.000; -342.000
414.978;   37.750;  104.000;  -18.000
415.104;   34.600;   38.000;   80.000
415.230;   23.350; -329.000; -330.000
415.356;   12.975; -409.000; -514.000
415.482;  197.475;   13.000;  -35.000
415.608;  238.075; -247.000; -323.000
415.734;  953.350;   67.000;   38.000
415.860;19040.450; -875.000; -767.000
415.986;13694.925; -685.000; -607.000
416.111; 1149.000; -798.000; -652.000
416.237;  233.950; -424.000; -571.000
416.363; 1033.075; -765.000; -733.000
416.489; 3847.100; -324.000; -251.000
416.615;  384.750; -707.000; -742.000
416.741;  -20.475; -677.000; -784.000
416.866; -100.875; -673.000; -736.000
416.992; -131.100; -801.000; -818.000
417.118;  -31.850;  -41.000;  -80.000
417.244;  -56.000; -798.000; -531.000
417.369;  -78.700; -801.000; -612.000
417.495;    3.800; -325.000; -254.000
417.621;  -84.125;-1015.000; -803.000
417.746;   13.125; -579.000; -572.000
417.872;   39.975; -254.000; -144.000
417.998;   44.825; -515.000; -530.000
418.123;  948.200;-1073.000; -845.000
418.249; 4931.800; -512.000; -601.000
418.374;  670.000; -916.000; -824.000
418.500;  111.300; -383.000; -482.000
418.626;  115.000;   70.000;  -59.000
418.751;  118.525; -549.000; -448.000
418.877;  203.525; -637.000; -643.000
419.002; 1676.925; -688.000; -560.000
419.128;11633.375; -930.000; -721.000
419.253; 2832.275; -967.000; -837.000
419.379;  359.925; -391.000; -338.000
419.504;  373.675;  325.000;  415.000
419.629;  468.950; -393.000; -212.000
419.755; 3238.675; -317.000; -254.000
419.880;19035.950;  -98.000;   67.000
420.006;10627.950; -280.000; -221.000
420.131;27551.725; -662.000; -775.000
420.256; 3954.975; -315.000; -316.000
420.382;  525.850; -665.000; -687.000
420.507;   62.450; -649.000; -778.000
420.632;  186.550; -337.000; -339.000
420.758;  345.175; -251.000; -425.000
420.883;  -67.400; -876.000; -672.000
421.008;  -92.200; -775.000; -619.000
421.133;  -75.050; -509.000; -467.000
421.259;  -42.675; -325.000; -259.000
421.384; -119.375; -834.000; -693.000
421.509;   -9.200;-1052.000; -862.000
421.634; 1529.600; -936.000; -820.000
421.759;  683.100; -359.000; -327.000
421.885;  -54.025; -717.000; -656.000
422.010;  -63.175; -673.000; -542.000
422.135; -159.775; -695.000; -727.000
422.260;   36.625;  340.000;  280.000
422.385;  -45.300;   12.000;  -98.000
422.510;   16.375;  151.000;  -26.000
422.635;   14.650;  -87.000;  -43.000
422.760;  124.625; -766.000; -791.000
422.885;   53.175;  -57.000;  -80.000
423.010;  -25.750; -112.000; -169.000
423.135; -118.525; -481.000; -561.000
423.260;  -10.300; -150.000; -245.000
423.385;   78.950;  476.000;  222.000
423.510;   35.800;   71.000;  -22.000
423.635;   84.225;  133.000;   45.000
423.760;   66.125;  383.000;  328.000
423.885;   49.350;  336.000;  391.000
424.010;   12.950;  -68.000;  -13.000
424.135;  -30.000;    5.000;  -33.000
424.259;  -78.625; -654.000; -457.000
424.384;  -65.500; -279.000; -272.000
424.509;  -30.900; -260.000; -186.000
424.634;  -96.650; -761.000; -623.000
424.759;   -0.950; -688.000; -544.000
424.883;  -10.950; -506.000; -527.000
425.008;  174.275; -502.000; -410.000
425.133; 1874.650; -679.000; -653.000
425.258;  881.825; -517.000; -381.000
425.382; 1226.700; -867.000; -774.000
425.507; 3118.800; -487.000; -543.000
425.632;  475.375; -802.000; -663.000
425.756;  426.975; -256.000; -146.000
425.881; 5810.125; -831.000; -857.000
426.006;15524.500; -604.000; -355.000
426.130; 2458.875; -696.000; -508.000
426.255;  307.750; -611.000; -491.000
426.379;  132.350; -189.000; -577.000
426.504;  354.600;  660.000;  544.000
426.629; 3847.125; -519.000; -466.000
426.753; 2638.650;   64.000;  -46.000
426.878;  318.800; -252.000; -288.000
427.002;  150.000; -651.000; -668.000
427.127; 1534.125;  -35.000; -158.000
427.251;10597.075;  372.000;  401.000
427.375; 3013.600; -191.000; -173.000
427.500; 2681.475; -616.000; -610.000
427.624;  904.975; -234.000; -400.000
427.749;  113.400; -216.000; -225.000
427.873;  -48.325; -499.000; -412.000
427.997;  -35.250; -222.000; -230.000
428.122;   74.500;  795.000;  703.000
428.246;   90.725;  433.000;  434.000
428.371; -123.625; -869.000; -773.000
428.495; -100.700; -624.000; -646.000
428.619;  -26.200; -186.000; -117.000
428.743;   30.350;   65.000;  132.000
428.868;   39.675; -732.000; -643.000
428.992; 1700.650; -219.000; -326.000
429.116;  699.175; -329.000; -357.000
429.240;  345.150;  419.000;  426.000
429.365;  -21.850; -454.000; -574.000
429.489;  -27.675; -638.000; -647.000
429.613;   16.125; -236.000; -177.000
429.737;   33.100; -563.000; -432.000
429.861;  252.800; -247.000; -133.000
429.985; 5248.800; -425.000; -305.000
430.109; 5678.475; -770.000; -908.000
430.234;  666.475;   76.000;  -50.000
430.358;   45.425; -250.000; -160.000
430.482;  -72.225; -672.000; -564.000
430.606;  -66.275; -655.000; -375.000
430.730;   37.900; -437.000; -388.000
430.854;  183.225; -909.000; -835.000
430.978;  -40.425; -795.000; -764.000
431.102;  -91.400; -499.000; -422.000
431.226; -107.525; -874.000; -815.000
431.350;   11.350;  345.000;  422.000
431.474;  -63.300; -661.000; -373.000
431.597; -146.800;-1060.000; -848.000
431.721;  -69.875; -276.000; -267.000
431.845; -144.850; -704.000; -472.000
431.969;  -86.700; -304.000; -349.000
432.093;  -93.825; -395.000; -317.000
432.217;   -7.775;   32.000;   82.000
432.341; -100.050; -523.000; -518.000
432.464;   15.525;   96.000;   40.000
432.588;  261.250; -401.000; -329.000
432.712;  123.450;  -52.000;  -52.000
432.836;   41.250;  213.000;  263.000
432.959;  -19.050; -372.000; -311.000
433.083;   78.900;   11.000;    2.000
433.207;  359.775;  285.000;  930.000
433.330; 4704.175; -391.000; -200.000
433.454; 5740.400; -654.000; -638.000
433.578; 3325.275;  583.000;  278.000
433.701;  603.075; -623.000; -675.000
433.825;  182.725; -292.000; -299.000
433.949;  252.575;   28.000;  -72.000
434.072;   83.850; -410.000; -323.000
434.196;   -8.575; -309.000; -117.000
434.319; 3742.350;25482.000;25124.000
434.443;  750.300; -656.000; -603.000
434.566; 2508.125;  281.000;   62.000
434.690;  401.975; -637.000; -383.000
434.813;   41.625; -251.000; -173.000
434.937;  -78.950; -569.000; -696.000
435.060;  -33.375; -423.000; -332.000
435.184;  457.225; -492.000; -217.000
435.307;  239.300;  159.000;  102.000
435.431;   19.525;  -40.000;   24.000
435.554;  -88.100; -399.000; -240.000
435.677;  -79.125; -350.000; -258.000
435.801;  -59.025;  -25.000;   49.000
435.924;   10.850;    1.000;  -67.000
436.048; -100.750;-1019.000; -732.000
436.171;  -67.525; -240.000;  -66.000
436.294;  -35.075; -248.000; -229.000
436.417;   78.525; -963.000; -849.000
436.541;  -94.800; -814.000; -840.000
436.664;  -53.525; -242.000; -316.000
436.787;  -29.050;   13.000;  113.000
436.910; -105.975; -792.000; -422.000
437.034;   16.750;  142.000;  143.000
437.157;   89.525;  -11.000;    0.000
437.280;  -30.775; -392.000; -292.000
437.403;  -70.750; -982.000; -869.000
437.526;  847.050; -903.000; -865.000
437.649; 3051.300; -505.000; -332.000
437.772;  467.875; -692.000; -540.000
437.896;  160.075;  700.000;  544.000
438.019; -102.825; -758.000; -503.000
438.142;  -79.525; -596.000; -506.000
438.265;   14.350; -639.000; -670.000
438.388;  741.800; -520.000; -410.000
438.511;  128.575; -597.000; -394.000
438.634;  -41.275; -247.000; -125.000
438.757; -140.650; -693.000; -619.000
438.880;  -22.175;  -34.000;  -57.000
439.003;  -78.950; -417.000; -437.000
439.126;  -64.100; -287.000; -167.000
439.248;  -75.500;  -98.000; -139.000
439.371;  -46.525;    9.000;  -53.000
439.494;   30.600;  510.000;  439.000
439.617;  -57.450;   65.000;  -88.000
439.740; -188.800; -968.000; -816.000
439.863; -136.050; -755.000; -595.000
439.986; -123.925; -476.000; -431.000
440.108;  -36.825; -161.000; -112.000
440.231; -162.850; -950.000; -836.000
440.354;  -44.450;  -64.000; -150.000
440.477;   61.800; -566.000; -542.000
440.599;   29.750; -200.000; -225.000
440.722; -129.100; -709.000; -586.000
440.845;   64.125;  751.000;  928.000
440.968; -112.950; -415.000; -311.000
441.090;  -52.350; -199.000;  -33.000
441.213; -178.025;-1021.000; -825.000
441.336;  -49.650; -159.000;   -5.000
441.458;  -75.325; -549.000; -396.000
441.581;  -77.175; -628.000; -629.000
441.703;  -81.350; -152.000;   13.000
441.826; -105.925; -557.000; -400.000
441.948;  -63.050;   56.000;   51.000
442.071;   35.300;  555.000;  424.000
442.193; -113.825; -531.000; -485.000
442.316;   25.175;  152.000;   97.000
442.438;   42.450; -233.000;  -10.000
442.561;   81.475;  272.000;  262.000
442.683;  726.600; -809.000; -522.000
442.806; 1532.850;   -8.000;   74.000
442.928;   77.875; -859.000; -604.000
443.051;  -53.900; -577.000; -373.000
443.173;  -99.050; -341.000; -339.000
443.295;  -79.775; -263.000; -371.000
443.418;  -76.075; -321.000;  -29.000
443.540;    5.900; -106.000;   -4.000
443.662; -120.875; -563.000; -465.000
443.785;   -3.225;  335.000;  199.000
443.907; -109.875; -362.000; -208.000
444.029; -129.425; -767.000; -494.000
444.152; -161.700; -644.000; -554.000
444.274;  -25.175;  -18.000;  -24.000
444.396; -113.325; -461.000; -221.000
444.518; -136.875; -691.000; -454.000
444.640; -112.100; -268.000; -111.000
444.763;  -15.925;  388.000;  249.000
444.885; -127.375; -432.000; -392.000
445.007;  -26.650;   35.000;   86.000
445.129; -143.025; -610.000; -515.000
445.251;  -97.775; -372.000; -439.000
445.373; -150.450; -537.000; -386.000
445.495;    6.825;  242.000;  350.000
445.617;   45.275;  853.000;  753.000
445.739;  -56.075; -215.000;  -97.000
445.861;  -27.175; -245.000; -112.000
445.984;  -24.325; -267.000; -101.000
446.105;  271.350; -418.000; -251.000
446.227;  779.675; -176.000;  -19.000
446.349;   31.725; -358.000; -249.000
446.471;  -90.975; -615.000; -448.000
446.593;  -64.550; -316.000;   19.000
446.715;   15.625;  -67.000;   41.000
446.837;   53.950;  697.000;  832.000
446.959; -103.625; -457.000; -478.000
447.081; -141.125; -628.000; -518.000
447.203;   65.000;  862.000;  834.000
447.325;  -96.050; -270.000;   42.000
447.446;   -2.475;  286.000;  530.000
447.568; -158.975; -921.000; -803.000
447.690;  -63.475; -236.000; -245.000
447.812; -160.575; -798.000; -519.000
447.933;  -21.525;  155.000;  127.000
448.055;  -63.225; -306.000; -261.000
448.177;  204.225;   31.000;   79.000
448.299;  126.075; -935.000; -727.000
448.420;   35.250;  -25.000;  159.000
448.542;  -54.525;   -3.000;   33.000
448.664;  -21.275;  109.000;  322.000
448.785;  -43.900;  265.000;   83.000
448.907;  -48.625; -614.000; -353.000
449.028;   -9.625; -771.000; -471.000
449.150;   72.400;  492.000;  589.000
449.272; -175.950;-1044.000; -913.000
449.393;   31.925;  612.000;  694.000
449.515; -156.850; -634.000; -581.000
449.636;  -50.300; -264.000; -155.000
449.758;   61.475;  763.000;  622.000
449.879;  -97.475; -498.000; -396.000
450.001;  -99.250; -149.000;  -49.000
450.122;  -26.625;  -95.000;  162.000
450.244;  -41.500;   37.000;  364.000
450.365;  -88.550; -495.000; -301.000
450.486;  -33.975;   80.000;  268.000
450.608;   30.975;  393.000;  326.000
450.729;   63.075;  578.000;  645.000
450.850;   -0.675; -574.000; -466.000
450.972;  659.775; -552.000; -389.000
451.093; 4444.050;  190.000;  588.000
451.214; 1907.875; -516.000; -337.000
451.336;  371.725;  773.000;  579.000
451.457;   47.775;  264.000;  393.000
451.578;  -48.025; -118.000;  -74.000
451.699; -132.825; -546.000; -540.000
451.821;  -70.075; -284.000;  -50.000
451.942;  -17.750;  278.000;  285.000
452.063;   30.125;  228.000;  419.000
452.184;  503.525;  -54.000;  -49.000
452.305; 1026.175;  103.000;  170.000
452.427;   97.275; -549.000; -301.000
452.548;  -10.600;   23.000;   79.000
452.669;  -42.025; -257.000;  -89.000
452.790;  -26.275;    3.000;  -18.000
452.911;   -4.600;  195.000;  259.000
453.032;  -50.125; -289.000;  -60.000
453.153;  -58.325;  -29.000;   81.000
453.274;   63.550;  737.000;  868.000
453.395;  -45.300;  -51.000;  175.000
453.516;  125.125; 1317.000; 1388.000
453.637;  -61.475; -205.000; -150.000
453.758;  -32.150;   15.000;   69.000
453.879; -126.475; -462.000; -250.000
454.000;   96.925; 1086.000;  948.000
454.121; -123.350; -554.000; -326.000
454.242; -109.625; -599.000; -383.000
454.362;  -72.025;  -99.000;  114.000
454.483;  -44.375; -309.000; -229.000
454.604;   65.000;  512.000;  580.000
454.725; -122.375; -627.000; -555.000
454.846; -140.675; -474.000; -406.000
454.967;  -16.300;  230.000;  539.000
455.087;  -52.825;  179.000;  153.000
455.208;   16.350;  554.000;  856.000
455.329;  -66.775;  -22.000;   82.000
455.450;   27.675;  473.000;  633.000
455.570; -100.825; -234.000; -211.000
455.691;  -37.175;  201.000;  407.000
455.812; -112.275; -270.000;  -92.000
455.932;  -65.925;  107.000;  -97.000
456.053;  -97.900;   36.000;   24.000
456.173; -117.625; -433.000; -355.000
456.294; -136.500; -476.000; -303.000
456.415;  -54.025;  -73.000;   70.000
456.535;  -41.175;  297.000;  273.000
456.656;  -46.625;  132.000;  240.000
456.776;  -85.975;    3.000;  298.000
456.897;   -4.775;  308.000;  513.000
457.017;  -92.125; -153.000;   -3.000
457.138;  -94.000; -402.000; -249.000
457.258;  -37.600;  263.000;  224.000
457.379;   -0.925;  509.000;  521.000
457.499;  -42.975;  443.000;  432.000
457.620; -116.175; -407.000; -231.000
457.740; -109.525; -132.000;  -11.000
457.860;  -54.350;   87.000;   44.000
457.981;  -52.450;  132.000;  124.000
458.101;  -64.225;  -89.000;   40.000
458.221;  -23.200;  336.000;  402.000
458.342;  -60.925;   -4.000;  -37.000
458.462;    9.775;  617.000;  352.000
458.582;  -39.125; -302.000; -294.000
458.703;  -14.150;  303.000;  154.000
458.823;  -33.375;   22.000;  163.000
458.943;   18.400;  341.000;  467.000
459.063;  -18.200; 1124.000;  192.000
459.183;  -20.925;  328.000;  313.000
459.304;   -2.500;  315.000;  517.000
459.424;  -66.275; -246.000;  -89.000
459.544;  306.825;  388.000;  764.000
459.664;  769.075;  499.000;  506.000
459.784;  290.250; 1004.000; 1175.000
459.904;   57.700;  867.000;  744.000
460.024;   85.625;  867.000;  684.000
460.144;   12.450;  449.000;  554.000
460.264;    1.650;  515.000;  327.000
460.385; -100.075; -145.000; -119.000
460.505;   30.500;  905.000;  858.000
460.625;  -84.850;  -17.000;  -68.000
460.745;  -18.425;  396.000;  541.000
460.864;  -64.925;  153.000;  469.000
460.984;    5.850;  499.000;  573.000
461.104;  132.525; 1656.000; 1775.000
461.224;   27.150;  657.000;  650.000
461.344;  -35.300;  431.000;  360.000
461.464;  -27.975;  258.000;  513.000
461.584;  -19.850;  283.000;  466.000
461.704;  -49.025;   58.000;  108.000
461.824;  -79.675;  238.000;  259.000
461.943;  -39.775;  191.000;  130.000
462.063;  -94.900;    2.000;  324.000
462.183;   44.125;  639.000;  717.000
462.303;  103.300; 1678.000; 1230.000
462.422;   26.250;  781.000;  840.000
462.542;  -44.550;  271.000;  391.000
462.662;   46.325;  353.000;  380.000
462.782;  226.525;  833.000;  572.000
462.901;  451.125;  545.000;  717.000
463.021;  262.525; 1702.000; 1638.000
463.141;  -16.275;  337.000;  770.000
463.260;  -21.925;  614.000;  474.000
463.380;   35.025;  902.000;  884.000
463.499;  -47.850;  342.000;  332.000
463.619;  -29.275;  581.000;  559.000
463.738;  111.575; 1644.000;  903.000
463.858;   31.400;  657.000;  811.000
463.978;  -37.575;  542.000;  396.000
464.097;   51.475;  921.000; 1114.000
464.217;   85.625; 1196.000; 1143.000
464.336;  113.450; 1068.000; 1130.000
464.455;  -49.025;  328.000;  659.000
464.575;   38.100;  597.000;  602.000
464.694;  174.250; 1204.000; 1179.000
464.814;  128.125; 1190.000; 1138.000
464.933;   58.750; 1095.000; 1027.000
465.052;   91.075; 1412.000; 1054.000
465.172;   82.800;  922.000;  799.000
465.291;  148.350; 1376.000; 1320.000
465.410;   17.200;  462.000;  735.000
465.530;   93.750; 1355.000; 1310.000
465.649;   52.825; 1209.000; 1273.000
465.768;  145.925; 1673.000; 1508.000
465.888;   35.625;  941.000; 1174.000
466.007;  105.525; 1335.000; 1440.000
466.126;  -17.350;  721.000;  641.000
466.245;   60.275; 1176.000; 1187.000
466.364;   16.625;  950.000; 1060.000
466.484;   73.175; 1024.000; 1213.000
466.603;   41.675; 1101.000; 1222.000
466.722;  117.775; 1490.000; 1769.000
466.841;   77.300; 1151.000; 1401.000
466.960;   48.100; 1069.000;  972.000
467.079;  117.775; 1971.000; 1786.000
467.198;   51.900; 1238.000; 1181.000
467.317;   70.575; 1768.000; 1162.000
467.436;   76.725; 1709.000; 1261.000
467.555;  150.025; 1796.000; 1746.000
467.674;   85.750; 1227.000; 1329.000
467.793;   48.800; 1376.000; 1374.000
467.912;  101.475; 1658.000; 1539.000
468.031;  126.950; 2038.000; 1930.000
468.150;  139.475; 1842.000; 1837.000
468.269;  205.900; 2313.000; 2090.000
468.388;  193.950; 2168.000; 2339.000
468.507;  245.550; 2884.000; 2903.000
468.626;  231.975; 2555.000; 2541.000
468.744;  121.700; 2018.000; 2174.000
468.863;  222.975; 2312.000; 2523.000
468.982;   94.275; 1503.000; 1555.000
469.101;  239.650; 2788.000; 2692.000
469.220;  136.775; 2333.000; 2176.000
469.338;  244.475; 2935.000; 3051.000
469.457;  179.900; 2719.000; 2545.000
469.576;  345.550; 3953.000; 3784.000
469.695;  222.375; 2877.000; 3066.000
469.813;  430.025; 4148.000; 4192.000
469.932;  411.200; 4255.000; 4485.000
470.051;  429.625; 4075.000; 4161.000
470.169;  810.000; 4470.000; 4338.000
470.288; 1410.100; 4700.000; 4809.000
470.406;  830.200; 5059.000; 5194.000
470.525;  624.775; 6101.000; 5787.000
470.644;  657.225; 6847.000; 6794.000
470.762;  827.700; 8397.000; 7873.000
470.881;  897.250; 8651.000; 8464.000
470.999; 1017.175; 9685.000; 9151.000
471.118; 1105.900;11174.000;10711.000

