
Integration time [ms]: 200.000
Averaging Nr. [scans]: 10
Smoothing Nr. [pixels]: 0
Data measured with spectrometer [name]: 2101012U2
Wave   ;Sample   ;Dark     ;Reference
[nm]   ;[counts] ;[counts] ;[counts] 

197.733;  120.000;  516.000;  404.000
197.879; -170.800; -610.000; -634.000
198.025; -117.100; -475.000; -420.000
198.171; -175.700; -602.000; -612.000
198.317;  -63.100; -401.000; -316.000
198.463; -147.100; -655.000; -404.000
198.609;   55.000;  181.000; -137.000
198.755; -183.700; -644.000; -410.000
198.901; -117.200; -505.000; -424.000
199.047; -147.100; -615.000; -488.000
199.193;  -64.400; -230.000; -468.000
199.339;  -76.800; -222.000; -369.000
199.485;   96.600;  330.000;  271.000
199.631;    5.500;  227.000;  310.000
199.777; -100.200; -466.000; -398.000
199.923; -130.300; -610.000; -424.000
200.069;   12.400; -141.000;  -58.000
200.215;  101.600;  128.000;  453.000
200.361;   90.700;  243.000;  477.000
200.507; -173.000; -600.000; -373.000
200.653;  -64.300; -371.000; -194.000
200.798;  -70.700; -215.000; -125.000
200.944;  -27.700; -146.000;  -41.000
201.090;   83.000;   61.000;  222.000
201.236;   -4.500; -116.000; -158.000
201.382;  265.200;  874.000;  903.000
201.528;   19.800;  -58.000;  -48.000
201.674;  -92.700; -386.000; -293.000
201.819; -145.600; -540.000; -439.000
201.965; -165.700; -699.000; -447.000
202.111;  -45.600; -273.000; -226.000
202.257;  -92.000; -250.000; -238.000
202.402;   30.400;   13.000;  -36.000
202.548;  -72.500; -169.000; -116.000
202.694;  169.600;  410.000; -183.000
202.840; -160.600; -603.000; -531.000
202.985; -146.700; -681.000; -639.000
203.131; -208.600; -832.000; -666.000
203.277;  -16.200; -199.000; -262.000
203.423; -105.300; -434.000; -520.000
203.568;  -85.100; -462.000; -237.000
203.714; -136.300; -535.000; -542.000
203.860; -162.600; -682.000; -641.000
204.005;   39.100;  112.000;  167.000
204.151;  168.000;  561.000;  556.000
204.296;  -89.200; -354.000; -221.000
204.442; -132.900; -600.000; -547.000
204.588; -142.400; -592.000; -579.000
204.733;   30.900;  178.000;  168.000
204.879; -283.500;-1018.000; -822.000
205.025;   42.100;  -99.000;  126.000
205.170;    3.000;  -17.000;   94.000
205.316;  194.000;  438.000;  661.000
205.461; -174.900; -698.000; -554.000
205.607;  173.600;  609.000;  665.000
205.752; -147.600; -626.000; -551.000
205.898; -113.700; -501.000; -391.000
206.043; -106.500; -578.000; -506.000
206.189; -124.700; -243.000; -285.000
206.334;  192.700;  554.000;  606.000
206.480;  164.500;  409.000;  239.000
206.625; -194.500; -529.000; -552.000
206.771;  -96.200; -451.000; -373.000
206.916;  -56.400; -210.000; -537.000
207.062; -140.800; -545.000; -591.000
207.207; -117.300; -546.000; -443.000
207.353;  129.400;  185.000;  460.000
207.498;   22.700;  196.000;   85.000
207.643;  -96.100; -501.000; -370.000
207.789; -284.100;-1069.000; -910.000
207.934; -176.600; -665.000; -713.000
208.080;  -54.900; -154.000;   66.000
208.225;  -59.800;  -22.000;  -57.000
208.370; -197.000; -727.000; -619.000
208.516; -163.000; -741.000; -487.000
208.661;  -54.700; -127.000;  -69.000
208.806;  -65.100; -165.000; -171.000
208.952; -245.700;-1044.000; -731.000
209.097;  178.300;  378.000;  349.000
209.242;  -94.600; -307.000; -382.000
209.387;  106.000;  392.000;  350.000
209.533; -112.700; -321.000; -350.000
209.678;  166.500;  472.000;  543.000
209.823; -115.100; -408.000; -310.000
209.969; -189.000; -860.000; -757.000
210.114; -231.000; -907.000; -719.000
210.259; -222.200; -939.000; -889.000
210.404;   -1.200; -171.000;  103.000
210.549;   28.100;  108.000;    3.000
210.695;  -64.800;   -3.000;  -95.000
210.840;   84.700;   94.000;   67.000
210.985; -133.400; -484.000; -303.000
211.130;  140.000;  268.000;  406.000
211.275;   48.500;  207.000;  199.000
211.420;  -97.200; -300.000; -289.000
211.566; -147.900; -536.000; -489.000
211.711;   53.800;  218.000;  157.000
211.856; -104.600; -545.000; -519.000
212.001;   41.400;  151.000;   44.000
212.146;    3.800;  153.000;   49.000
212.291;  -47.500; -210.000; -186.000
212.436;  -60.400; -280.000;   -6.000
212.581; -167.800; -685.000; -653.000
212.726; -143.500; -487.000; -538.000
212.871;  -97.600; -552.000; -217.000
213.016; -320.400;-1172.000;-1029.000
213.161;  157.600;  406.000;  291.000
213.306; -162.800; -435.000; -577.000
213.451; -184.400; -778.000; -689.000
213.596; -106.300; -455.000; -347.000
213.741; -138.600; -448.000; -538.000
213.886; -190.100; -498.000; -517.000
214.031;    1.000; -294.000; -124.000
214.176; -130.400; -408.000; -341.000
214.321;  -17.500; -296.000; -157.000
214.466;  -42.100; -163.000;  -43.000
214.611;   -0.500;  -61.000;  -10.000
214.756; -257.600; -948.000; -858.000
214.901;  -46.600; -388.000; -226.000
215.046; -247.100; -797.000; -825.000
215.191;   39.200;  128.000;   35.000
215.336;  -27.100; -157.000;  -19.000
215.480; -139.400; -684.000; -505.000
215.625;  -31.900; -175.000;  -19.000
215.770; -151.700; -757.000; -662.000
215.915;  -15.700;   -5.000;  -97.000
216.060;    3.300; -113.000;  -21.000
216.205; -220.100; -731.000; -779.000
216.349; -148.600; -470.000; -533.000
216.494; -280.500; -939.000; -867.000
216.639; -221.100; -823.000; -888.000
216.784; -198.600; -577.000; -525.000
216.929;  118.300;  392.000;  281.000
217.073;  -28.400; -244.000;  -31.000
217.218;   27.000;   78.000;  -47.000
217.363; -193.900; -656.000; -618.000
217.507; -136.300; -623.000; -588.000
217.652; -262.600; -845.000; -874.000
217.797; -173.400; -708.000; -659.000
217.942; -204.800; -856.000; -720.000
218.086;  205.000;  608.000;  539.000
218.231;  -74.900; -174.000;  -26.000
218.376;  -76.300; -337.000; -229.000
218.520;   22.600;  -41.000;   96.000
218.665;  -63.800; -338.000; -204.000
218.810;  -76.000; -275.000; -233.000
218.954;   36.700;  201.000;   35.000
219.099; -259.600; -713.000; -963.000
219.243; -141.900; -589.000; -554.000
219.388;  -71.500; -264.000; -136.000
219.532;   -9.200; -116.000; -116.000
219.677; -145.500; -564.000; -521.000
219.822;   38.300;   33.000;   89.000
219.966;   15.900;   17.000;  -99.000
220.111;  -50.700; -328.000;  -40.000
220.255; -192.000; -797.000; -750.000
220.400;   -8.900; -180.000; -146.000
220.544; -153.100; -516.000; -450.000
220.689;  -78.800; -422.000; -451.000
220.833;  -44.700; -123.000;  -58.000
220.978;  -89.400; -393.000; -563.000
221.122;   36.200;  319.000;  307.000
221.267; -249.300; -906.000; -837.000
221.411; -123.400; -478.000; -394.000
221.555;    2.000; -104.000;  -23.000
221.700; -102.700; -329.000; -222.000
221.844;   83.600;  255.000;  272.000
221.989;  -80.400; -328.000; -311.000
222.133;  -45.400; -289.000; -307.000
222.277;  -29.900;    5.000;   78.000
222.422;   59.600;  227.000;  113.000
222.566;  -90.900; -381.000; -214.000
222.711;  -82.700; -414.000; -479.000
222.855; -153.300; -643.000; -586.000
222.999; -114.900; -642.000; -717.000
223.144;  -46.400; -195.000; -194.000
223.288;  110.300;  423.000;  251.000
223.432;    4.200;  184.000;  230.000
223.576;   58.100;  152.000;  -21.000
223.721;   78.900;  364.000;  273.000
223.865;  -90.900; -472.000; -475.000
224.009;  540.100; 1673.000; 1631.000
224.153; -160.800; -660.000; -671.000
224.298; -163.900; -531.000; -489.000
224.442;   -4.900;  -74.000;  -33.000
224.586;    6.300; -169.000; -106.000
224.730; -195.500; -858.000; -670.000
224.875; -210.700; -739.000; -688.000
225.019;   37.900;  102.000;  188.000
225.163;   98.500;  208.000;  341.000
225.307;   40.600;   97.000;  -91.000
225.451;   80.400;  360.000;  481.000
225.595;   61.100;  264.000;  176.000
225.739;  -57.200; -170.000;  -94.000
225.884;   36.700;   86.000;    5.000
226.028; -185.800; -760.000; -626.000
226.172;  -35.500; -260.000; -273.000
226.316; -231.600; -941.000; -902.000
226.460;  -93.900; -645.000; -493.000
226.604; -125.400; -406.000; -400.000
226.748; -180.400; -836.000; -733.000
226.892;  -64.700; -227.000; -181.000
227.036;  -49.600; -537.000; -447.000
227.180; -142.900; -551.000; -375.000
227.324; -124.800; -561.000; -580.000
227.468; -254.300; -819.000; -717.000
227.612;   31.900;  242.000;  -28.000
227.756; -236.600; -845.000; -698.000
227.900;  124.900;  342.000;  441.000
228.044; -108.700; -509.000; -290.000
228.188;  137.500;  448.000;  568.000
228.332; -177.300; -546.000; -472.000
228.476;  -17.200; -223.000; -149.000
228.620;  -36.800; -210.000; -150.000
228.764;  144.700;  431.000;  349.000
228.908;  -39.100; -155.000;   30.000
229.052; -118.400; -615.000; -528.000
229.195;  -47.800; -172.000;   13.000
229.339;  -37.800; -235.000; -305.000
229.483;  -33.800;    5.000; -162.000
229.627;    7.000; -156.000;  139.000
229.771;  -84.400; -218.000; -294.000
229.915;   89.500;  230.000;   79.000
230.059; -147.500; -648.000; -663.000
230.202;  -77.500; -370.000; -317.000
230.346;  -16.400; -107.000;  107.000
230.490; -134.800; -489.000; -521.000
230.634; -227.600; -736.000; -553.000
230.777;  171.300;  478.000;  509.000
230.921;  -92.900; -450.000; -359.000
231.065;  -78.100; -246.000; -286.000
231.209;   69.100;  261.000;  265.000
231.352;   72.400;   54.000;   40.000
231.496;   41.900;  568.000;  188.000
231.640; -144.200; -693.000; -621.000
231.783;  170.000;  546.000;  525.000
231.927;  -40.300; -294.000; -365.000
232.071; -259.000; -962.000; -736.000
232.214; -193.700; -980.000; -764.000
232.358; -224.200; -683.000; -599.000
232.502;   12.400;  -19.000;    7.000
232.645; -276.500;-1090.000; -927.000
232.789;  -32.300; -257.000; -218.000
232.933; -108.500; -407.000; -224.000
233.076; -260.800;-1038.000; -897.000
233.220; -241.800; -752.000; -777.000
233.363; -118.400; -669.000; -477.000
233.507;  118.800;  371.000;  129.000
233.650; -222.000; -764.000; -834.000
233.794;   97.400;  438.000;  461.000
233.938;  -95.800; -530.000; -362.000
234.081;  -30.400;  -93.000;   31.000
234.225; -104.400; -631.000; -539.000
234.368; -217.500; -773.000; -723.000
234.512;  -58.000; -385.000; -299.000
234.655; -191.100; -582.000; -555.000
234.798; -100.600; -493.000; -466.000
234.942; -248.300; -884.000;-1002.000
235.085; -137.900; -651.000; -443.000
235.229; -154.700; -405.000; -410.000
235.372;  -62.800; -247.000; -191.000
235.516; -139.400; -397.000; -321.000
235.659;   31.900;   92.000;  121.000
235.802;  -44.100;  -38.000;  -22.000
235.946;   77.400;  335.000;  215.000
236.089;   59.400;  126.000;  250.000
236.233;  129.200;  275.000;  298.000
236.376;  -84.000; -235.000; -378.000
236.519;  -86.000; -297.000; -319.000
236.663;  -23.500; -215.000; -117.000
236.806; -244.300;-1029.000; -999.000
236.949;  131.700;  543.000;  431.000
237.092;  150.300;  412.000;  391.000
237.236; -187.300; -589.000; -502.000
237.379;  172.700;  352.000;  428.000
237.522; -247.800; -879.000; -768.000
237.666;  -12.700; -271.000;   18.000
237.809; -247.600; -851.000; -823.000
237.952;  112.600;  469.000;  271.000
238.095; -100.200; -447.000; -442.000
238.238;  203.700;  688.000;  700.000
238.382;   -8.000;  166.000;  103.000
238.525; -141.400; -598.000; -511.000
238.668; -275.600;-1060.000; -985.000
238.811; -150.700; -638.000; -643.000
238.954; -131.000; -483.000; -334.000
239.097;  199.500;  617.000;  664.000
239.241;   60.600;  394.000;  326.000
239.384;  -36.200; -254.000; -214.000
239.527; -111.900; -424.000; -224.000
239.670; -281.500; -994.000;-1091.000
239.813; -232.000; -696.000; -658.000
239.956;  190.000;  579.000;  473.000
240.099; -213.400; -778.000; -725.000
240.242;  179.300;  428.000;  432.000
240.385;   96.300;  466.000;  450.000
240.528; -123.900; -706.000; -473.000
240.671;   37.000;  189.000;  134.000
240.814;  -95.900; -441.000; -158.000
240.957; -207.000; -767.000; -578.000
241.100; -167.700; -779.000; -755.000
241.243; -297.000;-1234.000; -893.000
241.386; -109.400; -508.000; -379.000
241.529; -209.900; -735.000; -547.000
241.672; -107.700; -566.000; -495.000
241.815; -250.600; -832.000; -808.000
241.958;  -36.200; -125.000; -182.000
242.101; -149.100; -545.000; -390.000
242.244;  -71.600; -270.000; -325.000
242.387;  -55.400; -304.000; -246.000
242.530;  150.100;  470.000;  134.000
242.673; -101.300; -381.000; -309.000
242.815; -247.000; -925.000; -899.000
242.958; -130.100; -482.000; -381.000
243.101;   46.400;  132.000;  187.000
243.244; -144.600; -564.000; -521.000
243.387; -102.800; -313.000; -316.000
243.530; -180.600; -657.000; -674.000
243.672;    5.600;   43.000;  -92.000
243.815;  -86.600; -355.000; -283.000
243.958;   38.100;   98.000;  -26.000
244.101;   22.600;   59.000;  -16.000
244.243;    7.600;  -47.000;  101.000
244.386; -197.200; -761.000; -630.000
244.529;  -25.500; -132.000; -139.000
244.672; -300.300;-1154.000; -951.000
244.814; -201.400; -621.000; -794.000
244.957; -127.500; -380.000; -304.000
245.100; -126.600; -489.000; -489.000
245.242; -110.900; -387.000; -374.000
245.385;   31.500;  -59.000;  -39.000
245.528; -266.500; -871.000; -705.000
245.670;  219.900;  612.000;  634.000
245.813; -152.000; -599.000; -547.000
245.956;  -56.300; -324.000; -275.000
246.098; -145.500; -508.000; -650.000
246.241;   39.400;  194.000;   48.000
246.383;  -17.900; -119.000;  -73.000
246.526; -148.400; -454.000; -525.000
246.669; -226.300; -889.000; -780.000
246.811;   35.100;  172.000;   -1.000
246.954; -129.700; -512.000; -426.000
247.096;    4.200;  -84.000;   -6.000
247.239; -129.300; -482.000; -445.000
247.381; -137.900; -647.000; -488.000
247.524;  170.600;  645.000;  679.000
247.666;   30.000;   58.000;   11.000
247.809; -252.400; -887.000; -691.000
247.951;  -15.700;  -75.000;  138.000
248.094;   72.100;  432.000;  308.000
248.236; -301.600;-1262.000;-1238.000
248.378;    5.600; -356.000;  -81.000
248.521;  -26.700; -334.000; -337.000
248.663;  -75.400; -236.000; -267.000
248.806;  -68.500; -300.000; -266.000
248.948; -211.200; -886.000; -763.000
249.090;  -94.700; -428.000; -398.000
249.233; -125.700; -344.000; -381.000
249.375; -121.100; -474.000; -451.000
249.518;  -68.900;  -83.000; -133.000
249.660;    3.800; -103.000;    3.000
249.802; -363.200;-1303.000;-1189.000
249.945; -124.900; -612.000; -540.000
250.087; -225.200; -834.000; -768.000
250.229;  -93.600; -362.000; -480.000
250.371; -170.100; -494.000; -439.000
250.514;  -87.300; -310.000; -244.000
250.656;   21.900;   69.000;  102.000
250.798; -240.000; -849.000; -800.000
250.940; -107.400; -322.000; -322.000
251.083;   -7.800; -335.000; -111.000
251.225;  112.600;  338.000;  310.000
251.367;  -55.700; -274.000; -373.000
251.509;  -93.000; -265.000; -210.000
251.651; -172.500; -731.000; -671.000
251.794;  124.100;  538.000;  632.000
251.936; -177.400; -821.000; -747.000
252.078; -141.200; -540.000; -461.000
252.220; -133.600; -645.000; -477.000
252.362;  159.100;  344.000;  462.000
252.504; -125.800; -677.000; -584.000
252.646; -182.300; -875.000; -722.000
252.788;   16.200;   14.000; -128.000
252.931;  -80.000; -257.000; -253.000
253.073;  -79.900; -376.000; -317.000
253.215;  -14.900;  141.000;  122.000
253.357;    7.900;   82.000; -153.000
253.499; -109.900; -374.000; -234.000
253.641; -126.200; -749.000; -594.000
253.783; -196.000; -609.000; -527.000
253.925; -156.800; -586.000; -591.000
254.067; -233.200; -744.000; -667.000
254.209;  -49.000; -391.000; -259.000
254.351; -285.100; -865.000; -883.000
254.493;  -97.200; -441.000; -417.000
254.635; -250.500; -936.000; -818.000
254.777; -159.800; -752.000; -687.000
254.918; -169.700; -512.000; -430.000
255.060; -139.500; -551.000; -395.000
255.202; -111.200; -473.000; -261.000
255.344; -163.400; -658.000; -455.000
255.486; -173.000; -471.000; -406.000
255.628; -177.900; -780.000; -781.000
255.770; -175.800; -676.000; -536.000
255.912; -113.200; -559.000; -468.000
256.053; -175.300; -730.000; -508.000
256.195;  381.100; 1008.000;  903.000
256.337; -201.200; -861.000; -595.000
256.479;  147.000;  532.000;  416.000
256.621; -104.100; -394.000; -212.000
256.762; -186.600; -789.000; -742.000
256.904;  109.000;  485.000;  487.000
257.046;  -81.400; -381.000; -271.000
257.188;  -70.100; -351.000; -264.000
257.329; -113.900; -525.000; -464.000
257.471; -215.800; -939.000; -807.000
257.613; -104.100; -584.000; -498.000
257.755; -294.600;-1073.000; -982.000
257.896;   86.800;  286.000;  392.000
258.038; -114.400; -403.000; -352.000
258.180;  -49.300; -354.000; -279.000
258.321; -143.300; -581.000; -457.000
258.463;    8.800;  -71.000;  133.000
258.605; -176.800; -562.000; -570.000
258.746; -186.000; -886.000; -772.000
258.888; -310.900;-1026.000;-1020.000
259.029;   51.700;  121.000;   -8.000
259.171; -201.500; -614.000; -550.000
259.313;    2.000;  -49.000;  -47.000
259.454; -135.300; -536.000; -414.000
259.596;  -92.000; -483.000; -390.000
259.737; -143.900; -590.000; -474.000
259.879;  102.100;  217.000;  311.000
260.020;  183.300;  901.000;  636.000
260.162;  -42.400; -146.000; -253.000
260.303; -231.600; -768.000; -687.000
260.445; -135.600; -609.000; -613.000
260.586;   62.500;  392.000;  157.000
260.728;  -67.500; -360.000; -248.000
260.869; -129.600; -350.000; -343.000
261.011;  189.700;  706.000;  537.000
261.152; -116.000; -479.000; -319.000
261.293; -112.600; -576.000; -595.000
261.435;  -45.200; -219.000; -184.000
261.576;  -76.500; -455.000; -325.000
261.718;  112.800;  420.000;  470.000
261.859; -223.200; -940.000; -949.000
262.000; -268.800; -951.000;-1016.000
262.142;  -22.200;  -52.000;  -60.000
262.283; -231.800; -808.000; -691.000
262.424; -159.600; -666.000; -625.000
262.566; -308.700;-1161.000; -983.000
262.707; -210.200; -840.000; -830.000
262.848; -243.000; -769.000; -726.000
262.990;  -79.700; -362.000; -345.000
263.131;  152.200;  650.000;  681.000
263.272;  -14.200;  -61.000;  -41.000
263.413; -173.000; -589.000; -561.000
263.555;  -92.800; -669.000; -143.000
263.696; -177.800; -550.000; -641.000
263.837;  -96.800; -449.000; -551.000
263.978;    9.100;   -5.000;  -77.000
264.119;  -80.300; -283.000; -264.000
264.261; -226.400; -847.000; -630.000
264.402;   24.100;   33.000;   40.000
264.543; -160.200; -509.000; -524.000
264.684;   28.000;   61.000;  -50.000
264.825; -122.500; -816.000; -538.000
264.966;   24.700;  -84.000;  -67.000
265.107; -238.600; -646.000; -670.000
265.248; -199.700; -825.000; -812.000
265.390;   -5.300;  152.000;   -9.000
265.531;   -5.500; -238.000; -107.000
265.672; -183.800; -557.000; -630.000
265.813;  138.300;  563.000;  439.000
265.954; -265.500; -959.000; -940.000
266.095;  -12.500; -372.000; -322.000
266.236; -217.100; -686.000; -548.000
266.377;  -81.500; -243.000; -297.000
266.518; -161.000; -619.000; -547.000
266.659;   97.100;  170.000;  268.000
266.800;   32.100;   83.000;   85.000
266.941; -146.300; -487.000; -478.000
267.082;   79.600;  354.000;   99.000
267.223; -112.000; -344.000; -273.000
267.364; -244.700; -892.000; -686.000
267.504;    4.300;    3.000;  135.000
267.645;   11.600;  160.000;   67.000
267.786;  -77.300; -147.000;  -86.000
267.927; -144.500; -473.000; -379.000
268.068;  -14.000; -186.000;  -61.000
268.209;  -50.500; -175.000; -413.000
268.350; -105.500; -388.000; -532.000
268.490; -163.300; -648.000; -521.000
268.631;   69.800;  127.000;  225.000
268.772; -181.400; -874.000; -647.000
268.913;  -78.100; -328.000; -476.000
269.054;  -14.300; -117.000;   12.000
269.194;  -56.200; -418.000; -402.000
269.335; -318.700;-1137.000;-1074.000
269.476;   -8.300;   33.000;  -35.000
269.617;  -77.600; -347.000; -392.000
269.757; -175.500; -713.000; -646.000
269.898; -219.500; -856.000; -613.000
270.039; -110.400; -415.000; -405.000
270.180; -264.800; -952.000; -816.000
270.320;  -41.800; -190.000; -250.000
270.461;  -82.900; -277.000; -249.000
270.602;  -23.000; -186.000; -156.000
270.742; -260.100; -868.000; -943.000
270.883;  -93.900; -442.000; -390.000
271.023; -119.100; -358.000; -357.000
271.164; -124.900; -607.000; -528.000
271.305; -214.300; -666.000; -654.000
271.445; -189.100; -722.000; -683.000
271.586; -147.400; -462.000; -283.000
271.726;  -84.600; -397.000; -322.000
271.867; -165.600; -594.000; -534.000
272.008;  249.300; -473.000; -285.000
272.148;  221.200;  462.000;  468.000
272.289;   33.300; -113.000; -181.000
272.429;   -2.900;   19.000;  185.000
272.570; -163.700; -633.000; -737.000
272.710; -194.500; -825.000; -775.000
272.851;  -16.700;  113.000; -130.000
272.991; -314.900;-1173.000;-1077.000
273.131; -120.100; -419.000; -459.000
273.272; -208.200; -683.000; -723.000
273.412;   14.200; -143.000;  -31.000
273.553;  -90.800; -488.000; -507.000
273.693;  270.300;  913.000;  858.000
273.834; -202.800; -894.000; -692.000
273.974; -134.900; -664.000; -615.000
274.114; -187.400; -772.000; -560.000
274.255;  165.700;  414.000;  373.000
274.395;  -48.300; -180.000; -125.000
274.535;   97.700;  199.000;  350.000
274.676;   73.600;  225.000;   94.000
274.816;   40.800;  110.000;   34.000
274.956; -146.800; -624.000; -690.000
275.097; -172.400;-1014.000; -922.000
275.237; -239.900; -913.000; -803.000
275.377; -168.800; -778.000; -689.000
275.517; -312.500; -878.000; -937.000
275.658; -137.000; -590.000; -555.000
275.798; -142.700; -606.000; -413.000
275.938;   67.500;  215.000;  323.000
276.078; -210.100; -626.000; -395.000
276.218;   56.100;   99.000;  104.000
276.359; -257.800;-1026.000;-1024.000
276.499; -124.200; -605.000; -446.000
276.639;  -50.600; -305.000; -151.000
276.779;  -93.000; -475.000; -357.000
276.919; -203.100; -783.000; -624.000
277.059;  -39.200; -261.000; -212.000
277.199;  -77.400; -357.000; -259.000
277.340;  117.000;  287.000;  175.000
277.480; -226.900; -840.000; -693.000
277.620;   69.400;  192.000;   16.000
277.760; -375.400;-1533.000;-1294.000
277.900;   47.800;  113.000;   33.000
278.040;   48.400;  137.000;  159.000
278.180;   96.700;  270.000;  170.000
278.320;   15.800;   21.000;   56.000
278.460; -115.500; -443.000; -469.000
278.600; -180.600; -708.000; -598.000
278.740;  109.800;  448.000;  224.000
278.880; -164.800; -768.000; -791.000
279.020;   37.100; -194.000; -144.000
279.160; -159.000; -672.000; -595.000
279.300; -226.300; -926.000; -873.000
279.440; -195.800; -709.000; -622.000
279.579; -115.600;-1014.000; -929.000
279.719; -115.600; -410.000; -394.000
279.859;  116.300;   -4.000;   41.000
279.999;   62.000; -208.000;  101.000
280.139;  -44.900; -435.000; -387.000
280.279; -179.300; -708.000; -745.000
280.419;  -19.800; -229.000; -147.000
280.559;  -44.800; -259.000; -180.000
280.698; -121.900; -790.000; -639.000
280.838; -190.300; -778.000; -800.000
280.978; -184.600; -846.000; -790.000
281.118; -214.700; -811.000; -704.000
281.257;   12.600;   24.000;    6.000
281.397; -247.100;-1094.000; -960.000
281.537; -160.800; -599.000; -712.000
281.677;  -25.600; -150.000; -101.000
281.816; -157.100; -700.000; -630.000
281.956;  -74.400; -193.000; -257.000
282.096;  -79.400; -539.000; -396.000
282.235; -190.500; -672.000; -638.000
282.375;  -16.400; -243.000;  -98.000
282.515; -209.600; -715.000; -707.000
282.654;   85.100;   29.000;  106.000
282.794;   94.000;  388.000;  244.000
282.934;  -91.600; -530.000; -491.000
283.073; -270.300;-1030.000; -857.000
283.213; -106.400; -460.000; -467.000
283.353;  -80.300; -408.000; -349.000
283.492;  -68.300; -264.000; -296.000
283.632; -109.800; -254.000; -168.000
283.771; -180.900; -859.000; -730.000
283.911;  -98.400; -369.000; -260.000
284.050; -176.300; -794.000; -748.000
284.190; -278.300;-1229.000;-1096.000
284.329; -313.600;-1055.000; -964.000
284.469; -146.400; -516.000; -591.000
284.608;  -84.200; -559.000; -598.000
284.748; -163.300; -614.000; -570.000
284.887;   22.300;  -87.000;  -20.000
285.027; -243.300; -844.000; -892.000
285.166;  -50.300; -192.000; -249.000
285.306;   12.300; -116.000;  -33.000
285.445;  -52.300; -229.000; -343.000
285.584; -198.900; -630.000; -494.000
285.724;  -57.500; -282.000; -322.000
285.863; -208.900; -857.000; -507.000
286.002; -111.300; -366.000; -276.000
286.142; -244.500; -715.000; -622.000
286.281; -119.100; -525.000; -493.000
286.420; -147.400; -554.000; -417.000
286.560;  189.300;  653.000;  623.000
286.699; -262.900; -958.000; -912.000
286.838; -155.900; -590.000; -591.000
286.978; -165.600; -533.000; -537.000
287.117; -249.400;-1085.000; -950.000
287.256;  -51.700; -228.000; -211.000
287.395;  -67.900; -197.000; -378.000
287.535; -103.400; -370.000; -298.000
287.674; -142.800; -509.000; -484.000
287.813;  160.800;  661.000;  533.000
287.952; -245.400;-1010.000; -871.000
288.091; -320.200;-1049.000; -915.000
288.231;   35.100;   13.000;   15.000
288.370; -332.300;-1217.000;-1200.000
288.509; -140.700; -728.000; -645.000
288.648; -166.500; -770.000; -548.000
288.787;  -66.300; -243.000;  -87.000
288.926; -138.300; -454.000; -475.000
289.065;  261.700;  859.000;  672.000
289.204;  -99.100; -377.000; -217.000
289.344; -173.500; -791.000; -690.000
289.483;   61.600;  416.000;  304.000
289.622;  -38.300; -291.000; -149.000
289.761;  -22.500; -309.000; -166.000
289.900; -162.200; -785.000; -626.000
290.039;   -0.400;  -12.000;  -95.000
290.178;  -55.400; -274.000; -180.000
290.317; -160.900; -618.000; -479.000
290.456; -106.800; -463.000; -451.000
290.595; -290.700; -961.000; -833.000
290.734; -226.000; -904.000; -891.000
290.873; -113.600; -456.000; -420.000
291.011; -205.700; -833.000; -843.000
291.150; -214.700; -770.000; -682.000
291.289;  -13.200; -343.000; -110.000
291.428; -203.200; -599.000; -480.000
291.567;  -94.800; -370.000; -442.000
291.706;   -3.100;  109.000;  154.000
291.845; -165.100; -597.000; -505.000
291.984; -318.900;-1234.000;-1061.000
292.122;  154.900;  602.000;  582.000
292.261;  101.300;  620.000;  463.000
292.400;   36.700; -144.000;  211.000
292.539; -236.800; -959.000; -813.000
292.678;  -53.100; -325.000; -300.000
292.816; -308.500;-1136.000; -965.000
292.955; -185.100; -844.000; -684.000
293.094;  -42.800; -173.000; -337.000
293.233;  -96.600; -556.000; -400.000
293.371;  -43.400; -225.000;  -84.000
293.510; -222.700; -866.000; -780.000
293.649; -258.200; -959.000; -924.000
293.787; -147.200;-1083.000;-1012.000
293.926;    8.100; -113.000;  -32.000
294.065;  -88.700; -379.000; -290.000
294.203;  142.200;  298.000;  406.000
294.342;   64.900;   74.000;  156.000
294.481;12478.000;51180.000; -836.000
294.619;  -23.600; -425.000; -582.000
294.758; -310.800;-1230.000;-1137.000
294.896;  146.000; -125.000;    5.000
295.035; -244.200;-1040.000;-1006.000
295.174; -231.900;-1082.000; -954.000
295.312;  -73.700; -323.000; -203.000
295.451;  -12.300; -307.000; -428.000
295.589; -109.600; -389.000; -518.000
295.728;   94.300; -292.000; -165.000
295.866;   21.500;  -36.000;  -51.000
296.005; -100.800; -584.000; -341.000
296.143; -146.200; -558.000; -596.000
296.282; -206.400; -957.000; -881.000
296.420; -158.400; -657.000; -557.000
296.559; -164.600; -892.000; -633.000
296.697;  -38.900; -847.000; -665.000
296.835;   14.300;-1141.000;-1002.000
296.974;   88.300;  -23.000;   39.000
297.112;   -6.600; -443.000; -504.000
297.251; -182.300; -815.000; -755.000
297.389;   78.900; -576.000; -438.000
297.527;   54.400; -145.000;  -83.000
297.666;  -97.300; -486.000; -438.000
297.804;  -91.600; -404.000; -264.000
297.942;   18.300; -136.000; -161.000
298.081;   -6.500; -183.000;   63.000
298.219;   93.200;  -17.000;  -19.000
298.357;   47.000; -144.000;  -71.000
298.495;  -10.400; -810.000; -812.000
298.634;  101.200;  245.000;  219.000
298.772;   71.300; -220.000; -338.000
298.910;  -84.500; -309.000; -182.000
299.048;   21.900; -130.000; -153.000
299.187;  -77.200; -350.000; -250.000
299.325;   49.000;   52.000;  122.000
299.463;   33.300; -389.000; -299.000
299.601;  147.500; -327.000; -271.000
299.739; -227.800; -908.000; -883.000
299.877; -147.000; -791.000; -703.000
300.016; -153.800;-1095.000; -935.000
300.154;  218.200;  -19.000; -161.000
300.292;   44.100; -428.000; -348.000
300.430;   34.500; -408.000; -291.000
300.568; -195.500; -940.000; -874.000
300.706;  -47.100; -366.000; -469.000
300.844; -177.200;-1108.000; -979.000
300.982;  240.000;  246.000;  282.000
301.120; -236.700; -965.000; -866.000
301.258; -131.300; -812.000; -705.000
301.396;   41.000;  104.000;  -41.000
301.534;   75.400; -218.000; -293.000
301.672;  -63.300; -664.000; -521.000
301.810;  -10.200; -613.000; -545.000
301.948;  212.600;   53.000;  149.000
302.086;  810.600; -250.000;  -32.000
302.224; 1206.800; -610.000; -585.000
302.362;   13.800; -558.000; -622.000
302.500; -103.300; -923.000; -893.000
302.638;  163.600;  128.000;  245.000
302.776;    1.500; -352.000; -408.000
302.913;  141.600;  447.000;  236.000
303.051;    1.600;  -86.000;  -23.000
303.189;  115.300;   90.000;  118.000
303.327;  -70.800; -341.000; -256.000
303.465; -140.000; -832.000; -588.000
303.603; -185.800; -805.000; -604.000
303.740;  184.900;  417.000;  241.000
303.878;  -25.000; -800.000; -759.000
304.016; -162.000; -915.000; -790.000
304.154; -256.300;-1123.000;-1152.000
304.291;  -83.800; -505.000; -554.000
304.429;   41.100;  102.000;   74.000
304.567; -246.600; -908.000; -893.000
304.705;  -82.500; -408.000; -515.000
304.842;   94.300; -616.000; -540.000
304.980;  123.500;  215.000;   35.000
305.118;   34.400; -367.000; -365.000
305.255; -184.900; -945.000; -927.000
305.393;  133.700;  178.000;  239.000
305.531; -210.800;-1173.000; -956.000
305.668; -132.700; -663.000; -582.000
305.806;   84.800; -358.000; -439.000
305.943;  117.600; -629.000; -637.000
306.081;   42.300; -378.000; -267.000
306.219; -208.100; -863.000; -748.000
306.356;   -3.900;  158.000;   27.000
306.494;  271.900;  981.000;  761.000
306.631;   -7.800;  -11.000;  -55.000
306.769;  -14.000; -613.000; -485.000
306.906;  -32.700; -284.000; -258.000
307.044;  -85.100; -473.000; -488.000
307.181; -108.900; -410.000; -332.000
307.319;   68.100;  112.000;   87.000
307.456; -305.200;-1191.000;-1153.000
307.594; -181.800; -980.000; -727.000
307.731;  -16.000; -371.000; -164.000
307.868;   45.900;  -15.000;   20.000
308.006; -263.200; -961.000; -847.000
308.143; -106.800; -618.000; -330.000
308.281;  305.500;  -37.000; -254.000
308.418;    6.900; -748.000; -640.000
308.555; -122.700; -400.000; -250.000
308.693; -107.300; -577.000; -573.000
308.830; -197.600; -712.000; -657.000
308.967;   26.500; -215.000;  -95.000
309.105;  -30.700; -507.000; -396.000
309.242;   86.000; -468.000; -367.000
309.379;  560.600; -577.000; -655.000
309.517;  -66.500; -936.000; -948.000
309.654; -206.000; -910.000; -734.000
309.791; -107.400; -662.000; -580.000
309.928; -211.700; -977.000; -914.000
310.065;  326.200;  819.000;  697.000
310.203;  -70.200; -825.000; -850.000
310.340;   -3.700; -465.000; -321.000
310.477; -153.200; -412.000; -516.000
310.614;  -90.000; -383.000; -473.000
310.751; -142.200; -427.000; -518.000
310.889;  -51.000;    1.000;   11.000
311.026; -281.900;-1161.000; -939.000
311.163;  -63.100; -386.000; -380.000
311.300; -138.700; -512.000; -479.000
311.437; -113.000; -658.000; -619.000
311.574; -314.400;-1226.000; -985.000
311.711; -111.700; -595.000; -433.000
311.848;  -48.400; -380.000; -388.000
311.985;   55.900;  270.000;   93.000
312.122; -227.900; -932.000; -762.000
312.259; -216.900; -941.000; -994.000
312.396; -118.600; -508.000; -551.000
312.533; -143.500; -812.000; -790.000
312.670; -243.300;-1070.000; -898.000
312.807;  -51.500; -352.000; -367.000
312.944; -116.500; -513.000; -611.000
313.081;  -19.700; -150.000; -415.000
313.218; -205.100;-1111.000; -867.000
313.355;    0.700; -531.000; -449.000
313.492;   -3.100; -455.000; -292.000
313.629;  257.300;  815.000;  735.000
313.766; -302.400;-1176.000;-1008.000
313.902;   17.700; -186.000;   21.000
314.039;  -65.800; -372.000; -289.000
314.176;   63.400;  286.000;  192.000
314.313; -127.000; -569.000; -473.000
314.450; -120.400; -788.000; -684.000
314.587;  -94.600; -468.000; -480.000
314.723;   46.500;  -78.000;  130.000
314.860;   96.700;  318.000;  332.000
314.997;   75.200;  223.000;  142.000
315.134;  -95.700; -385.000; -368.000
315.270;  -77.800; -480.000; -496.000
315.407; -255.800;-1094.000; -967.000
315.544; -127.900; -657.000; -538.000
315.681; -136.500; -681.000; -565.000
315.817;   28.800; -133.000; -176.000
315.954;  -30.300; -613.000; -392.000
316.091; -246.500;-1045.000;-1023.000
316.227;  -24.300;  -71.000; -179.000
316.364;   59.900;   23.000;    6.000
316.500;  -74.300; -113.000; -300.000
316.637;  -38.300; -181.000; -302.000
316.774; -122.200; -625.000; -358.000
316.910; -132.900; -598.000; -629.000
317.047; -109.400; -487.000; -351.000
317.183;  -75.300; -435.000; -566.000
317.320;  -39.400; -367.000; -321.000
317.456; -162.500; -733.000; -805.000
317.593; -160.100; -598.000; -641.000
317.729;   55.200;  168.000;  -67.000
317.866; -397.400;-1434.000;-1285.000
318.002; -159.700; -708.000; -948.000
318.139; -154.300; -883.000; -867.000
318.275; -172.000;-1003.000; -738.000
318.412; -104.700; -517.000; -336.000
318.548;  -75.500; -751.000; -720.000
318.685; -217.600; -985.000; -888.000
318.821; -169.300; -762.000; -735.000
318.957;   -8.900;   34.000;  -23.000
319.094;  123.900;  297.000;  154.000
319.230; -129.200; -756.000; -742.000
319.367;  184.900; -471.000; -520.000
319.503;  105.900; -538.000; -436.000
319.639; -158.500; -877.000; -793.000
319.775; -127.800; -750.000; -685.000
319.912;  -71.500; -424.000; -519.000
320.048; -214.400;-1184.000;-1184.000
320.184;  120.000;   59.000;   70.000
320.321; -116.400; -497.000; -467.000
320.457;  139.800;  475.000;  662.000
320.593;  -91.900; -375.000; -382.000
320.729; -152.300; -732.000; -734.000
320.866; -147.200; -577.000; -635.000
321.002; -160.700; -759.000; -809.000
321.138;  -36.200; -135.000; -211.000
321.274;   83.700; -148.000; -115.000
321.410;  -48.500; -585.000; -353.000
321.546;  -93.900;-1011.000; -911.000
321.683;  115.500;  400.000;  185.000
321.819;   46.500;  -48.000; -117.000
321.955; -178.100; -743.000; -722.000
322.091;  -98.400; -585.000; -540.000
322.227;  -44.400; -382.000; -202.000
322.363;  -15.700; -320.000; -215.000
322.499;  -59.300; -343.000; -331.000
322.635;  291.600;  636.000;  443.000
322.771;   20.400; -139.000;   12.000
322.907;  182.900;  129.000;  327.000
323.043;  -39.000; -115.000; -206.000
323.179;  -47.900; -394.000; -363.000
323.315;   -7.400; -401.000; -371.000
323.451;  129.300; -328.000; -236.000
323.587;   53.800;  -60.000;  -77.000
323.723;   27.200; -682.000; -601.000
323.859;   -9.500; -258.000;  -76.000
323.995;  -43.900; -467.000; -409.000
324.131; -228.000; -967.000; -892.000
324.267;  -63.800; -254.000; -276.000
324.402; -248.100; -960.000; -983.000
324.538;  -16.800; -279.000; -104.000
324.674;   38.500;  164.000;   77.000
324.810;  284.900;  226.000;  308.000
324.946;   -0.500; -810.000; -658.000
325.082; -131.400; -568.000; -475.000
325.217;   -0.600;  -62.000;   16.000
325.353; -181.500; -764.000; -659.000
325.489; -141.400; -540.000; -506.000
325.625; -110.300; -579.000; -525.000
325.760;  103.200;  517.000;  376.000
325.896;  -70.500; -515.000; -702.000
326.032;  -94.500; -403.000; -352.000
326.168; -106.200; -462.000; -369.000
326.303;  -94.000; -352.000; -461.000
326.439;  -16.800; -336.000; -276.000
326.575;    1.800; -190.000;  -29.000
326.710;   13.500; -156.000;  -30.000
326.846;  -12.500;  146.000;  103.000
326.982; -153.200; -530.000; -548.000
327.117; -131.100; -481.000; -442.000
327.253; -165.400; -745.000; -742.000
327.388; -261.500;-1137.000;-1153.000
327.524;  -61.500; -811.000; -578.000
327.659;  -16.600;  -58.000;  -22.000
327.795;   11.300;   69.000;   45.000
327.931; -157.600; -723.000; -499.000
328.066;  -14.600; -417.000; -276.000
328.202;  -20.200;   12.000; -129.000
328.337;  252.300;  957.000;  713.000
328.473;    5.300;  -12.000;  -74.000
328.608;    1.000; -256.000; -267.000
328.743; -182.800; -799.000; -664.000
328.879;   67.400;  214.000;  114.000
329.014; -141.500; -102.000; -122.000
329.150; -125.100; -358.000; -483.000
329.285; -122.200; -465.000; -466.000
329.421;  -62.800; -548.000; -246.000
329.556;    7.300;  -36.000;   85.000
329.691; -153.400; -633.000; -615.000
329.827; -152.000; -626.000; -480.000
329.962;  -46.700;  131.000; -301.000
330.097; -142.100; -673.000; -585.000
330.233;  -86.400; -410.000; -223.000
330.368; -241.400; -839.000; -628.000
330.503;   23.300;    3.000;   98.000
330.638;   39.700;  -93.000; -125.000
330.774; -101.700; -609.000; -530.000
330.909;  -62.400; -434.000; -244.000
331.044; -164.300; -714.000; -708.000
331.179; -322.000;-1217.000;-1109.000
331.315;   74.400;   77.000;   20.000
331.450;   44.000;  157.000;  285.000
331.585; -170.300; -805.000; -706.000
331.720; -154.800; -510.000; -460.000
331.855;   27.200;  -35.000; -102.000
331.990;  262.800;   62.000;  138.000
332.126;  134.800; -110.000;   71.000
332.261;  -54.500; -379.000; -265.000
332.396;  -32.400; -135.000; -242.000
332.531; -214.100;-1074.000;-1031.000
332.666;   25.300; -519.000; -363.000
332.801; -213.500; -726.000; -807.000
332.936;  -15.700; -192.000; -122.000
333.071; -311.600; -870.000; -817.000
333.206;   82.900;  307.000;  379.000
333.341;   57.200;  344.000;  418.000
333.476; -162.300; -627.000; -623.000
333.611;  -65.800; -251.000; -173.000
333.746;  -55.400; -381.000; -464.000
333.881; -220.800; -973.000; -935.000
334.016; -237.100; -936.000; -917.000
334.151; -236.200; -746.000; -702.000
334.286;   36.700;  152.000;  186.000
334.421;  -35.200; -125.000; -178.000
334.556; -147.200; -611.000; -567.000
334.690; -165.900; -631.000; -577.000
334.825;  131.100;  381.000;   83.000
334.960; -109.800; -285.000; -413.000
335.095;   47.300;  135.000;  -91.000
335.230; -171.400; -722.000; -738.000
335.365; -267.700;-1084.000; -990.000
335.499; -273.800;-1108.000;-1037.000
335.634;   54.700;    9.000;  534.000
335.769; -209.200; -755.000; -720.000
335.904; -108.700; -603.000; -561.000
336.038; -138.200; -735.000; -657.000
336.173; -249.500;-1206.000;-1194.000
336.308;   -5.800; -116.000; -189.000
336.443;   28.400; -544.000; -634.000
336.577; -187.600; -936.000; -787.000
336.712;   77.500;   -4.000;  -12.000
336.847;  -95.200; -724.000; -607.000
336.981;   71.800; -272.000; -208.000
337.116;  373.500;  615.000;  501.000
337.250;  129.200; -434.000; -421.000
337.385;  241.400; -297.000; -208.000
337.520;   18.900; -632.000; -603.000
337.654;  -87.100; -215.000; -126.000
337.789; -216.200; -989.000; -933.000
337.923;  -47.700; -104.000; -205.000
338.058; -143.700; -673.000; -738.000
338.192; -111.000; -611.000; -488.000
338.327;  -10.400;  -18.000; -155.000
338.461;  -99.600; -299.000; -469.000
338.596; -184.400; -780.000; -638.000
338.730; -192.600; -767.000; -803.000
338.865;  110.200;  -46.000; -140.000
338.999; -183.800; -846.000; -702.000
339.134;  -74.800; -634.000; -536.000
339.268;  -77.200; -741.000; -603.000
339.403;  260.300; -740.000; -775.000
339.537;   -2.800; -894.000; -820.000
339.671; -216.600; -829.000; -813.000
339.806; -152.900; -556.000; -512.000
339.940;   10.100; -261.000; -235.000
340.074; -176.300; -685.000; -510.000
340.209;  -62.900; -351.000; -230.000
340.343; -149.500; -517.000; -573.000
340.477;  367.100;  998.000; 1036.000
340.612; -160.000;-1033.000; -900.000
340.746;  133.700; -199.000; -243.000
340.880; -187.500; -924.000; -785.000
341.014;    4.700;  -45.000; -154.000
341.149; -219.100; -756.000; -718.000
341.283; -185.600; -839.000; -754.000
341.417; -203.800;-1124.000; -938.000
341.551;  141.700; -768.000; -708.000
341.685; -100.700; -633.000; -611.000
341.820;  -93.300; -562.000; -493.000
341.954;  -97.900; -218.000; -349.000
342.088; -280.900;-1102.000;-1019.000
342.222;   79.900;  565.000;  618.000
342.356;  -76.400; -395.000; -335.000
342.490; -187.700; -880.000; -841.000
342.624;  -63.100; -339.000; -242.000
342.758;    3.300; -364.000; -312.000
342.892; -137.600; -710.000; -585.000
343.026;  -51.400;  -58.000; -116.000
343.160;  -75.900; -426.000; -376.000
343.294; -119.900; -474.000; -337.000
343.428;  -64.100; -488.000; -448.000
343.562;  -19.200; -172.000;  -23.000
343.696;  -42.500; -385.000; -314.000
343.830;  -43.500; -362.000; -356.000
343.964;   36.800; -231.000; -168.000
344.098; 1249.700;  199.000;   70.000
344.232; 1112.800; -266.000; -127.000
344.366;   92.200; -567.000; -453.000
344.500;   52.900; -665.000; -744.000
344.634;   40.000; -324.000; -164.000
344.768;  -25.000; -531.000; -341.000
344.902;   63.700;  278.000;  256.000
345.035; -145.100; -556.000; -496.000
345.169; -235.700; -933.000; -656.000
345.303;  -29.200; -308.000; -482.000
345.437; -151.700; -826.000; -717.000
345.571; -144.100; -675.000; -594.000
345.704; -132.600; -309.000; -532.000
345.838;  -51.800; -331.000; -284.000
345.972;  -46.200; -543.000; -495.000
346.106;  186.500; -179.000; -190.000
346.239;  447.200; -312.000; -243.000
346.373;   39.800; -343.000; -302.000
346.507; -278.000; -950.000; -962.000
346.640;  178.500;  -30.000;   13.000
346.774;  -92.900; -650.000; -797.000
346.908;    1.500; -138.000;  -11.000
347.041; -168.100; -646.000; -593.000
347.175;   38.400;  259.000;   27.000
347.309; -129.500; -698.000; -628.000
347.442; -177.700; -883.000; -732.000
347.576;  475.900;  670.000;  668.000
347.709;  282.500; -123.000;  -52.000
347.843; -211.300; -933.000; -825.000
347.976;  133.200;  235.000;  294.000
348.110; -346.800;-1268.000;-1186.000
348.243; -185.200; -679.000; -772.000
348.377;   21.500;  -26.000;   60.000
348.510;  152.700;  403.000;  540.000
348.644;   -8.500;  -37.000; -159.000
348.777;   27.000;  180.000;  191.000
348.911;  -67.600; -142.000; -112.000
349.044;  299.200;  471.000;  448.000
349.178;  137.300;-1069.000;-1006.000
349.311;  219.100;  141.000;  255.000
349.444; -105.600; -927.000; -813.000
349.578;  -26.400; -347.000; -200.000
349.711; -240.200; -959.000; -862.000
349.845;  -64.000; -661.000; -591.000
349.978; -310.300;-1224.000;-1137.000
350.111; -143.000; -546.000; -612.000
350.244; -169.900; -596.000; -700.000
350.378;   10.900; -392.000; -393.000
350.511;  -91.600; -393.000; -426.000
350.644; -174.100; -808.000; -806.000
350.778;   35.500;  168.000;  104.000
350.911;   46.000;  134.000;  140.000
351.044; -159.800; -685.000; -615.000
351.177;  -36.400; -321.000; -281.000
351.310;   -6.000;    3.000; -131.000
351.444; -167.600; -888.000; -788.000
351.577;  133.000;  140.000;   90.000
351.710;  235.600;  593.000;  417.000
351.843;  -26.600; -165.000;  -77.000
351.976;   51.400;  149.000;  -79.000
352.109; -156.800; -621.000; -612.000
352.242;  -55.200; -464.000; -419.000
352.376; -154.900; -580.000; -636.000
352.509;  203.800; -437.000; -356.000
352.642;  -77.000; -654.000; -604.000
352.775;   94.500; -141.000;  -98.000
352.908; -232.400; -933.000; -904.000
353.041; -195.100; -814.000; -824.000
353.174;  -80.200; -551.000; -424.000
353.307; -193.500; -753.000; -764.000
353.440;  162.500;  541.000;  453.000
353.573; -213.300; -957.000;-1008.000
353.706;  -66.900; -384.000; -558.000
353.839;  -45.300; -264.000; -220.000
353.971; -141.000; -657.000; -512.000
354.104; -175.400; -896.000; -835.000
354.237;  -68.700; -627.000; -662.000
354.370; -161.300; -846.000; -879.000
354.503; -379.900;-1231.000;-1308.000
354.636;  -33.500; -529.000; -348.000
354.769; -268.900; -937.000; -860.000
354.902;  -27.100; -230.000; -139.000
355.034;  -23.300; -164.000; -220.000
355.167;  -13.500; -262.000; -162.000
355.300; -223.600;-1061.000; -880.000
355.433; 1042.900;  -71.000;  -14.000
355.565; 1478.500; -402.000; -384.000
355.698;  392.300; -356.000; -296.000
355.831; -113.900; -882.000; -801.000
355.964;  141.600; -285.000; -170.000
356.096; -192.600; -856.000; -843.000
356.229;  -42.000; -523.000; -530.000
356.362;  324.300; -373.000; -266.000
356.494;  623.000; -229.000; -162.000
356.627;  608.700;  269.000;  377.000
356.760;  749.900;  120.000;   53.000
356.892;  900.200; -286.000; -601.000
357.025;  838.800;  403.000;  389.000
357.157;  755.700; -167.000; -179.000
357.290;  634.800; -856.000; -713.000
357.423;  147.000; -667.000; -556.000
357.555;  141.700; -217.000; -228.000
357.688;   75.100; -483.000; -364.000
357.820;  545.900; -870.000; -877.000
357.953; 4835.700; -563.000; -589.000
358.085; 1021.700; -632.000; -612.000
358.218; 1369.400;-1131.000; -932.000
358.350;  321.900;  -58.000;  312.000
358.483; -275.100;-1300.000;-1187.000
358.615;  -89.800;-1182.000;-1078.000
358.747; -181.100;-1187.000;-1058.000
358.880;  -13.400; -810.000; -744.000
359.012;  -15.200; -376.000; -202.000
359.145;  -72.400; -480.000; -511.000
359.277;   43.600; -962.000; -913.000
359.409; 4154.700;  536.000;  231.000
359.542;  972.000; -738.000; -688.000
359.674;  156.300;   46.000;   13.000
359.806; -142.100; -565.000; -438.000
359.939;  -84.400; -617.000; -516.000
360.071;  -93.300; -583.000; -579.000
360.203;  -12.300; -411.000; -364.000
360.335;   82.500;  164.000;  -16.000
360.468;  250.300; -249.000; -307.000
360.600; 3122.000; -547.000; -454.000
360.732; 2808.800; -546.000; -423.000
360.864;  247.100;-1216.000;-1044.000
360.996;  344.500; -516.000; -554.000
361.129;   34.200; -389.000; -598.000
361.261;   77.500;  110.000; -113.000
361.393;  -21.100; -252.000; -214.000
361.525;   84.300;   94.000;  244.000
361.657; -105.900; -821.000; -703.000
361.789;   -4.000; -139.000; -155.000
361.921;  221.300; -642.000; -593.000
362.053;  413.600;  524.000;  541.000
362.185;   98.500;  288.000;   72.000
362.318; -127.200; -709.000; -705.000
362.450;  203.700;  294.000;  444.000
362.582;   94.400; -913.000; -870.000
362.714;  -39.900; -353.000; -332.000
362.846; -129.500; -606.000; -490.000
362.978; -284.700; -941.000; -811.000
363.109;   84.500; -161.000; -260.000
363.241;  477.000; -739.000; -749.000
363.373;  428.100; -649.000; -564.000
363.505;  668.200; -186.000;  -91.000
363.637;  132.200; -787.000; -601.000
363.769; -290.700;-1067.000;-1080.000
363.901; -107.200; -596.000; -654.000
364.033; -257.100;-1103.000;-1062.000
364.165;    1.500; -283.000; -283.000
364.296;   68.300; -316.000; -177.000
364.428;  -36.400;-1344.000;-1220.000
364.560; -114.700; -679.000; -661.000
364.692; -115.800; -738.000; -835.000
364.824;  306.500; -588.000; -456.000
364.955;  474.600; -402.000; -564.000
365.087;  729.000;-1097.000; -852.000
365.219;  -87.200; -686.000; -816.000
365.351; -141.400; -526.000; -572.000
365.482;  149.400;  300.000;  240.000
365.614;  -67.200; -402.000; -314.000
365.746; -164.300; -729.000; -752.000
365.877; -183.600; -706.000; -672.000
366.009;  274.500;  -35.000;  -62.000
366.141; -250.600;-1249.000;-1134.000
366.272; -168.100; -803.000; -719.000
366.404; -238.400;-1005.000; -874.000
366.535;   37.500; -139.000;  -12.000
366.667; -181.300; -644.000; -649.000
366.799;  140.700;  353.000;  203.000
366.930; -224.400; -862.000; -996.000
367.062;   51.500; -639.000; -613.000
367.193;   31.200; -872.000; -842.000
367.325; -116.000; -580.000; -684.000
367.456;   67.700; -246.000;   31.000
367.588;  158.600; -371.000; -318.000
367.719;   20.200;  -44.000;  -45.000
367.851;  -17.800; -222.000; -241.000
367.982; -126.900; -875.000; -732.000
368.113;  109.400; -475.000; -358.000
368.245; -249.100; -960.000; -841.000
368.376;  -28.300; -254.000; -302.000
368.508;  -27.900; -188.000; -263.000
368.639; -282.600;-1166.000;-1034.000
368.770;  -92.500; -670.000; -589.000
368.902; -113.200; -836.000; -926.000
369.033; -201.600; -906.000; -855.000
369.164; -118.400; -720.000; -653.000
369.296; -188.600; -452.000; -601.000
369.427;    1.600; -209.000; -144.000
369.558; -100.900; -593.000; -377.000
369.689; -141.400; -721.000; -569.000
369.821; -241.600; -951.000; -845.000
369.952;   26.700;   42.000; -108.000
370.083;  -62.000; -229.000; -108.000
370.214; -151.500; -735.000; -650.000
370.345;   -0.300;   65.000;   81.000
370.477; -146.100; -810.000; -790.000
370.608;  324.100; -328.000; -264.000
370.739; -121.200;-1233.000;-1292.000
370.870; -107.600;-1102.000; -923.000
371.001;  134.100; -378.000; -467.000
371.132; -149.600; -754.000; -735.000
371.263;   -0.900;  -42.000; -148.000
371.394; -245.400; -841.000; -748.000
371.525;  115.600;  345.000;  225.000
371.657; -168.300; -808.000; -670.000
371.788;  172.600;  103.000;  199.000
371.919;  226.500; -384.000; -304.000
372.050; 5220.200;  -91.000; -156.000
372.181; 1450.100; -188.000; -294.000
372.311;  556.100;   42.000; -127.000
372.442;   40.400; -457.000; -451.000
372.573;  -25.100; -444.000; -340.000
372.704; -263.100;-1008.000; -980.000
372.835;  121.100; -228.000; -289.000
372.966; -118.300; -646.000; -554.000
373.097; -105.000; -575.000; -711.000
373.228;  -71.700; -717.000; -542.000
373.359;  142.200; -824.000; -536.000
373.490; 1162.300; -881.000; -727.000
373.620; 1408.200;-1001.000; -803.000
373.751; 2560.400; -332.000; -396.000
373.882; 1052.100; -663.000; -733.000
374.013;   87.500; -449.000; -262.000
374.143;  -68.400; -581.000; -659.000
374.274; -188.800; -987.000; -908.000
374.405;  228.900; -388.000; -276.000
374.536;  600.300; -526.000; -387.000
374.666; 1518.100; -759.000; -807.000
374.797;  246.200; -817.000; -868.000
374.928; 1169.800; -710.000; -560.000
375.058; 1107.000; -535.000; -500.000
375.189;  119.100;  -59.000;  -93.000
375.320; -208.700; -928.000;-1034.000
375.450;  -90.700; -625.000; -616.000
375.581;  -93.500; -526.000; -436.000
375.712;  -15.000; -574.000; -250.000
375.842;  371.300; -438.000; -415.000
375.973;  270.200; -554.000; -513.000
376.103;  -97.300; -665.000; -648.000
376.234; -120.400; -531.000; -552.000
376.364; -128.000; -944.000; -867.000
376.495;  516.800;  925.000;  529.000
376.625;  -45.100; -472.000; -485.000
376.756;   55.100; -709.000; -678.000
376.886; -179.000;-1178.000;-1026.000
377.017;  -38.500;-1048.000;-1061.000
377.147;  259.000; -786.000; -782.000
377.278;  112.900;  174.000;  228.000
377.408; -238.000; -801.000; -815.000
377.538; -165.600; -707.000; -693.000
377.669; -164.600; -537.000; -613.000
377.799; -155.600; -645.000; -635.000
377.929;  -98.800; -610.000; -428.000
378.060; -239.200; -781.000; -847.000
378.190; -144.000; -726.000; -531.000
378.320;  -72.200; -401.000; -406.000
378.451;   11.500; -131.000;  -22.000
378.581;   13.200;  -67.000; -110.000
378.711;  302.100; 1035.000;  866.000
378.841;  -73.000; -533.000; -675.000
378.972; -166.600; -871.000; -751.000
379.102;  -36.200; -652.000; -579.000
379.232;  -52.500; -126.000;  -73.000
379.362; -198.400;-1001.000; -885.000
379.492;  -36.800; -373.000; -424.000
379.623;  194.200;    0.000;  111.000
379.753; -224.500;-1107.000; -974.000
379.883;  369.700;   59.000;  156.000
380.013;  -60.400;-1081.000;-1017.000
380.143; -223.400;-1097.000;-1056.000
380.273; -198.200; -985.000; -861.000
380.403;   12.300; -344.000; -257.000
380.533; -110.200; -651.000; -664.000
380.663;  143.300;  173.000;  128.000
380.793; -217.900;-1027.000;-1074.000
380.923;    7.500; -103.000;  -34.000
381.053; -167.500; -613.000; -623.000
381.183;  -22.700; -106.000; -248.000
381.313;   13.600; -656.000; -470.000
381.443;   31.900; -692.000; -473.000
381.573;  238.400; -402.000; -409.000
381.703;  243.400;-1249.000;-1095.000
381.833; -296.100;-1454.000;-1336.000
381.963;  192.400; -134.000;  -87.000
382.093; 1738.800; -925.000; -909.000
382.223;  496.300; -713.000; -602.000
382.353;  -84.100; -801.000; -608.000
382.482;  457.800;-1091.000; -964.000
382.612; 1011.600; -872.000; -644.000
382.742;  518.000; -695.000; -622.000
382.872;  311.300; -565.000; -551.000
383.002;  117.200;  347.000; -132.000
383.131;   -9.000; -226.000; -160.000
383.261; -123.200; -706.000; -768.000
383.391;  272.700; -552.000; -377.000
383.521; 3251.200;  451.000;  263.000
383.650;  554.300; -947.000; -904.000
383.780;  -56.600; -783.000; -656.000
383.910;  236.900;  880.000;  802.000
384.039;  -54.500; -794.000; -656.000
384.169;  163.200;-1205.000;-1017.000
384.299;  -66.900; -650.000; -662.000
384.428; -172.600; -764.000; -680.000
384.558;  -61.900; -308.000; -275.000
384.687;  -91.100; -414.000; -334.000
384.817;   71.100;   75.000;   -2.000
384.947;   28.300; -234.000; -141.000
385.076;  530.500;  982.000;  912.000
385.206;  201.000;  369.000;  480.000
385.335;  -19.300; -549.000; -417.000
385.465; -149.000; -655.000; -663.000
385.594;  260.800;  -53.000;  -44.000
385.724;  533.800; -868.000; -838.000
385.853;  187.300; -296.000; -270.000
385.982; 1967.700; -743.000; -787.000
386.112; 2967.000;-1052.000; -871.000
386.241;  166.000; -307.000; -312.000
386.371;   65.100; -174.000;  -87.000
386.500;  -14.600; -825.000; -789.000
386.629;  -12.600; -874.000; -817.000
386.759;   69.800;  -43.000;   68.000
386.888;  -10.300; -170.000; -250.000
387.017; -139.300; -648.000; -620.000
387.147; -192.900; -771.000; -798.000
387.276;  -43.600; -410.000; -397.000
387.405;   33.600; -398.000; -342.000
387.535; -101.900; -452.000; -361.000
387.664; -127.800; -692.000; -620.000
387.793;   74.900; -198.000; -113.000
387.922;  795.100;  255.000;  200.000
388.052;   29.600; -576.000; -423.000
388.181;   20.500; -342.000; -472.000
388.310; -103.400; -889.000; -710.000
388.439; -116.100; -749.000; -742.000
388.568;  329.800;  365.000;  244.000
388.697; 1465.600; -756.000; -653.000
388.826;  208.400; -768.000; -666.000
388.956;  145.900; -285.000; -307.000
389.085;  -76.800; -347.000; -287.000
389.214; -200.300; -842.000; -872.000
389.343; -129.500; -645.000; -413.000
389.472;  478.300;  126.000;  149.000
389.601;  597.200;   91.000;    0.000
389.730;   15.000; -568.000; -687.000
389.859;  129.200;  226.000;   46.000
389.988;  275.400; -423.000; -408.000
390.117;  219.000; -168.000; -146.000
390.246;   27.200; -331.000; -320.000
390.375;  115.700; -673.000; -626.000
390.504; -121.700; -703.000; -621.000
390.633; -182.000; -672.000; -726.000
390.761;  -85.900; -732.000; -645.000
390.890;   41.700;   -4.000; -130.000
391.019;  -32.100; -421.000; -441.000
391.148; -224.200; -826.000; -855.000
391.277; -135.200; -576.000; -493.000
391.406; -144.200; -821.000; -805.000
391.534;   80.100;  574.000; -301.000
391.663; -129.200; -583.000; -645.000
391.792; -133.800; -673.000; -701.000
391.921;  184.700;   -3.000;   15.000
392.050;  282.400; -287.000; -228.000
392.178; -145.700;-1206.000;-1061.000
392.307;  177.600; -758.000; -712.000
392.436;   81.800; -427.000; -641.000
392.564;   71.200;  166.000;   -6.000
392.693; -189.600; -860.000; -682.000
392.822;  257.900; -529.000; -534.000
392.950;   77.100; -880.000; -714.000
393.079;  504.700; -188.000; -328.000
393.208;  -17.400; -488.000; -511.000
393.336;   -3.000; -170.000; -145.000
393.465;  -61.900; -317.000; -199.000
393.593;   50.700;   62.000;   79.000
393.722; -280.300;-1121.000; -916.000
393.850;   -5.800; -188.000;  -61.000
393.979; -269.600; -926.000; -805.000
394.107;  -82.400; -517.000; -537.000
394.236;  -69.400; -570.000; -507.000
394.364;  453.200;  383.000;  206.000
394.493;  607.300; -911.000; -767.000
394.621;  -59.900; -955.000; -916.000
394.750;  590.900; -873.000; -923.000
394.878; 2879.700; -247.000; -149.000
395.007; 3640.800; -721.000; -807.000
395.135;  197.200; -790.000; -721.000
395.263; -184.500;-1038.000;-1040.000
395.392;   44.000;  -25.000; -107.000
395.520; -188.500; -818.000; -679.000
395.648; -195.800; -865.000; -915.000
395.777;  -53.400; -366.000; -405.000
395.905;  -31.600; -449.000; -564.000
396.033;   50.600;  217.000;  172.000
396.162; 1113.200; -399.000; -453.000
396.290;  969.700;  -17.000;   -2.000
396.418;  164.200; -555.000; -514.000
396.546; -176.800; -571.000; -466.000
396.674; -168.000; -850.000; -878.000
396.803;   30.200;  -72.000;  -23.000
396.931;  138.400; -179.000; -199.000
397.059;   -6.500;-1026.000; -989.000
397.187; -223.700;-1026.000; -975.000
397.315; -245.200; -884.000; -649.000
397.443; -131.200; -592.000; -443.000
397.572; -157.800; -578.000; -424.000
397.700;  -40.900; -607.000; -614.000
397.828;   59.800;  120.000;  -90.000
397.956;  -52.200; -508.000; -478.000
398.084; -152.500; -767.000; -626.000
398.212;   98.900;  137.000;  124.000
398.340;   48.600;  -56.000;  159.000
398.468;   52.000; -390.000; -169.000
398.596; -237.100; -993.000; -953.000
398.724; -200.000; -762.000; -767.000
398.852; -311.300;-1024.000; -976.000
398.980;  -60.300; -560.000; -560.000
399.108; -137.200; -982.000; -735.000
399.236;   98.100;   13.000;    8.000
399.363;   48.500;  222.000;  196.000
399.491;  -76.400; -404.000; -398.000
399.619; -225.700; -829.000; -800.000
399.747; -190.700; -859.000; -771.000
399.875;  162.000;  220.000;  234.000
400.003;  -84.600; -359.000; -284.000
400.130; -157.100; -421.000; -341.000
400.258;   -0.200;  -83.000;   38.000
400.386;  -77.400; -352.000; -168.000
400.514;  -75.200; -526.000; -587.000
400.641; -191.500; -928.000; -802.000
400.769; -224.700; -979.000; -888.000
400.897; -168.700; -838.000; -793.000
401.025;   -8.800; -166.000; -152.000
401.152;   57.900;  220.000;   38.000
401.280;  -85.200; -430.000; -429.000
401.408; -192.100; -712.000; -576.000
401.535; -153.700; -735.000; -758.000
401.663; -348.600;-1134.000;-1054.000
401.790; -131.300; -514.000; -525.000
401.918;   76.100;  436.000;  405.000
402.046;   -2.900;  134.000;  122.000
402.173;  -43.300;  -18.000;    7.000
402.301;  -93.900; -519.000; -397.000
402.428;  111.700;  528.000;  383.000
402.556; -268.100;-1188.000; -913.000
402.683;  -23.900;  -20.000;   -1.000
402.811;   11.000;  -37.000; -206.000
402.938;  -21.500;   20.000;   27.000
403.066;  262.700; -574.000; -558.000
403.193;  447.700;  299.000;  239.000
403.321;  311.400; -396.000; -574.000
403.448;  469.600;   83.000;   27.000
403.575;  217.400;  -90.000;  -46.000
403.703; -179.000; -732.000; -557.000
403.830;  -98.400; -531.000; -496.000
403.957; -293.500;-1117.000;-1023.000
404.085;   22.200;  -61.000; -172.000
404.212;  134.200;  -50.000;   63.000
404.339;  258.500; -566.000; -306.000
404.467; 5592.300; -612.000; -524.000
404.594; 3772.700; -287.000; -227.000
404.721;  835.300; -869.000; -764.000
404.848;   88.400; -113.000; -202.000
404.976; -209.500; -856.000; -783.000
405.103;   10.300;  -14.000;  -82.000
405.230;   35.100;  190.000;  226.000
405.357;   71.900;  117.000;   44.000
405.484;  289.900;  -49.000;    5.000
405.612;    1.000; -548.000; -563.000
405.739; -120.900; -488.000; -243.000
405.866;  220.300;  669.000;  385.000
405.993;  -79.000; -398.000; -102.000
406.120; -246.000; -801.000; -887.000
406.247;  -58.800; -323.000; -342.000
406.374;  687.400;  540.000;  629.000
406.501;   83.100; -632.000; -702.000
406.628; -109.700; -621.000; -589.000
406.755; -180.200; -803.000; -620.000
406.882;  -49.700; -228.000; -277.000
407.009; -177.900; -719.000; -628.000
407.136;   67.500; -480.000; -401.000
407.263;   87.400; -939.000; -829.000
407.390;  -92.000; -692.000; -614.000
407.517; -347.500;-1139.000;-1187.000
407.644;  -73.400; -332.000; -256.000
407.771; -112.900; -249.000; -287.000
407.898;   76.700;  168.000;  328.000
408.025;  -87.800; -421.000; -313.000
408.151;   28.300;   82.000;  153.000
408.278;  -85.900; -267.000; -216.000
408.405; -185.600; -931.000; -899.000
408.532; -130.700; -549.000; -542.000
408.659; -212.700; -677.000; -648.000
408.785; -364.700;-1298.000;-1170.000
408.912;  -53.200; -412.000; -296.000
409.039; -185.600; -610.000; -686.000
409.166; -164.300; -591.000; -555.000
409.292; -185.000; -571.000; -534.000
409.419; -209.600; -665.000; -649.000
409.546; -112.700; -431.000; -192.000
409.672; -169.900; -713.000; -545.000
409.799;  -27.700;  -36.000;   34.000
409.926;   -9.600; -180.000; -179.000
410.052; -329.800;-1127.000;-1091.000
410.179;  -68.000; -368.000; -392.000
410.305; -119.100; -375.000; -493.000
410.432;  -28.700; -220.000; -333.000
410.558; -176.200; -305.000; -380.000
410.685; -154.100; -688.000; -431.000
410.812; -141.500; -409.000; -588.000
410.938; -228.700; -964.000; -808.000
411.065; -152.500; -671.000; -645.000
411.191;    0.900; -189.000; -174.000
411.317; -202.500; -823.000; -742.000
411.444; -118.100; -317.000; -246.000
411.570;  -91.200; -339.000; -294.000
411.697; -214.400; -758.000; -752.000
411.823; -306.400; -989.000; -999.000
411.949;  -31.100;  -56.000;   17.000
412.076; -178.700; -539.000; -519.000
412.202; -165.300; -758.000; -757.000
412.329; -213.900; -798.000; -752.000
412.455; -180.000; -821.000; -657.000
412.581;   10.800;  -15.000;  172.000
412.707; -102.000; -540.000; -457.000
412.834;   88.400;  156.000;  219.000
412.960; -142.800; -785.000; -784.000
413.086; -194.400; -743.000; -701.000
413.212;  279.400;  604.000;  578.000
413.339; -132.900; -685.000; -701.000
413.465;    3.500; -364.000; -310.000
413.591; -178.300; -757.000; -474.000
413.717;  -70.800; -358.000; -366.000
413.843; -241.300; -839.000; -861.000
413.969;  -45.300;  -47.000; -292.000
414.096; -206.700; -679.000; -679.000
414.222;   22.700;  -33.000;   85.000
414.348;  -63.400; -652.000; -385.000
414.474;  145.600;   38.000;  -52.000
414.600;   38.400; -126.000; -144.000
414.726;    3.000;  -96.000;  -55.000
414.852; -113.400; -365.000; -342.000
414.978;   84.200;  104.000;  -18.000
415.104;   64.900;   38.000;   80.000
415.230;   -9.400; -329.000; -330.000
415.356;   10.200; -409.000; -514.000
415.482;  223.800;   13.000;  -35.000
415.608;  228.900; -247.000; -323.000
415.734; 1049.900;   67.000;   38.000
415.860;20760.100; -875.000; -767.000
415.986;13767.500; -685.000; -607.000
416.111; 1072.600; -798.000; -652.000
416.237;  235.200; -424.000; -571.000
416.363; 1143.600; -765.000; -733.000
416.489; 4059.800; -324.000; -251.000
416.615;  310.300; -707.000; -742.000
416.741; -113.900; -677.000; -784.000
416.866; -194.600; -673.000; -736.000
416.992; -182.500; -801.000; -818.000
417.118;  -39.800;  -41.000;  -80.000
417.244;  -89.600; -798.000; -531.000
417.369; -144.200; -801.000; -612.000
417.495;   18.500; -325.000; -254.000
417.621; -189.700;-1015.000; -803.000
417.746;   -6.700; -579.000; -572.000
417.872;   65.800; -254.000; -144.000
417.998;    3.900; -515.000; -530.000
418.123; 1004.900;-1073.000; -845.000
418.249; 5118.000; -512.000; -601.000
418.374;  514.200; -916.000; -824.000
418.500;  105.200; -383.000; -482.000
418.626;  124.600;   70.000;  -59.000
418.751;   84.700; -549.000; -448.000
418.877;  135.600; -637.000; -643.000
419.002; 1907.800; -688.000; -560.000
419.128;12159.400; -930.000; -721.000
419.253; 2553.700; -967.000; -837.000
419.379;  305.600; -391.000; -338.000
419.504;  492.800;  325.000;  415.000
419.629;  488.100; -393.000; -212.000
419.755; 3639.700; -317.000; -254.000
419.880;19888.000;  -98.000;   67.000
420.006;11510.100; -280.000; -221.000
420.131;28961.200; -662.000; -775.000
420.256; 3808.000; -315.000; -316.000
420.382;  480.000; -665.000; -687.000
420.507;    3.400; -649.000; -778.000
420.632;  157.000; -337.000; -339.000
420.758;  405.300; -251.000; -425.000
420.883; -160.500; -876.000; -672.000
421.008; -160.500; -775.000; -619.000
421.133; -112.000; -509.000; -467.000
421.259;  -54.200; -325.000; -259.000
421.384; -202.100; -834.000; -693.000
421.509;  -81.800;-1052.000; -862.000
421.634; 1785.500; -936.000; -820.000
421.759;  693.700; -359.000; -327.000
421.885;  -94.200; -717.000; -656.000
422.010; -128.400; -673.000; -542.000
422.135; -270.100; -695.000; -727.000
422.260;  156.300;  340.000;  280.000
422.385;  -30.100;   12.000;  -98.000
422.510;   90.800;  151.000;  -26.000
422.635;   76.300;  -87.000;  -43.000
422.760;  138.100; -766.000; -791.000
422.885;   75.600;  -57.000;  -80.000
423.010;   -8.500; -112.000; -169.000
423.135; -123.200; -481.000; -561.000
423.260;  -11.300; -150.000; -245.000
423.385;  135.100;  476.000;  222.000
423.510;  109.600;   71.000;  -22.000
423.635;  119.000;  133.000;   45.000
423.760;  177.400;  383.000;  328.000
423.885;   98.800;  336.000;  391.000
424.010;   41.000;  -68.000;  -13.000
424.135;    1.700;    5.000;  -33.000
424.259; -118.900; -654.000; -457.000
424.384; -127.000; -279.000; -272.000
424.509;  -14.900; -260.000; -186.000
424.634; -179.100; -761.000; -623.000
424.759;  -76.200; -688.000; -544.000
424.883;  -69.900; -506.000; -527.000
425.008;  182.000; -502.000; -410.000
425.133; 1970.000; -679.000; -653.000
425.258;  840.800; -517.000; -381.000
425.382; 1392.300; -867.000; -774.000
425.507; 3449.300; -487.000; -543.000
425.632;  445.500; -802.000; -663.000
425.756;  461.100; -256.000; -146.000
425.881; 6527.600; -831.000; -857.000
426.006;16070.800; -604.000; -355.000
426.130; 2370.500; -696.000; -508.000
426.255;  267.500; -611.000; -491.000
426.379;  142.200; -189.000; -577.000
426.504;  528.200;  660.000;  544.000
426.629; 4143.500; -519.000; -466.000
426.753; 2643.900;   64.000;  -46.000
426.878;  272.800; -252.000; -288.000
427.002;   86.800; -651.000; -668.000
427.127; 1769.500;  -35.000; -158.000
427.251;11572.900;  372.000;  401.000
427.375; 3003.700; -191.000; -173.000
427.500; 3043.300; -616.000; -610.000
427.624;  918.900; -234.000; -400.000
427.749;  158.400; -216.000; -225.000
427.873;  -85.900; -499.000; -412.000
427.997;  -19.600; -222.000; -230.000
428.122;  172.400;  795.000;  703.000
428.246;  165.400;  433.000;  434.000
428.371; -224.200; -869.000; -773.000
428.495; -154.500; -624.000; -646.000
428.619;  -21.000; -186.000; -117.000
428.743;   84.600;   65.000;  132.000
428.868;   23.700; -732.000; -643.000
428.992; 2022.200; -219.000; -326.000
429.116;  725.100; -329.000; -357.000
429.240;  474.600;  419.000;  426.000
429.365;  -21.300; -454.000; -574.000
429.489;  -67.600; -638.000; -647.000
429.613;   57.700; -236.000; -177.000
429.737;   18.400; -563.000; -432.000
429.861;  268.700; -247.000; -133.000
429.985; 5812.600; -425.000; -305.000
430.109; 5622.800; -770.000; -908.000
430.234;  737.300;   76.000;  -50.000
430.358;   67.100; -250.000; -160.000
430.482;  -94.800; -672.000; -564.000
430.606;  -78.700; -655.000; -375.000
430.730;   56.400; -437.000; -388.000
430.854;   85.500; -909.000; -835.000
430.978; -116.400; -795.000; -764.000
431.102; -128.900; -499.000; -422.000
431.226; -182.800; -874.000; -815.000
431.350;  122.700;  345.000;  422.000
431.474; -120.300; -661.000; -373.000
431.597; -267.900;-1060.000; -848.000
431.721;  -81.900; -276.000; -267.000
431.845; -245.400; -704.000; -472.000
431.969; -106.200; -304.000; -349.000
432.093; -138.200; -395.000; -317.000
432.217;   55.200;   32.000;   82.000
432.341; -132.600; -523.000; -518.000
432.464;   33.400;   96.000;   40.000
432.588;  265.600; -401.000; -329.000
432.712;  141.200;  -52.000;  -52.000
432.836;   82.700;  213.000;  263.000
432.959;  -42.100; -372.000; -311.000
433.083;   85.400;   11.000;    2.000
433.207;  471.300;  285.000;  930.000
433.330; 5059.700; -391.000; -200.000
433.454; 5707.800; -654.000; -638.000
433.578; 3491.800;  583.000;  278.000
433.701;  516.000; -623.000; -675.000
433.825;  126.600; -292.000; -299.000
433.949;  243.200;   28.000;  -72.000
434.072;   74.000; -410.000; -323.000
434.196;  -18.900; -309.000; -117.000
434.319; 7717.000;25482.000;25124.000
434.443;  798.500; -656.000; -603.000
434.566; 2596.600;  281.000;   62.000
434.690;  311.400; -637.000; -383.000
434.813;   24.400; -251.000; -173.000
434.937; -129.300; -569.000; -696.000
435.060;  -91.300; -423.000; -332.000
435.184;  483.700; -492.000; -217.000
435.307;  202.100;  159.000;  102.000
435.431;   -0.500;  -40.000;   24.000
435.554; -103.000; -399.000; -240.000
435.677; -111.200; -350.000; -258.000
435.801;  -45.300;  -25.000;   49.000
435.924;   47.500;    1.000;  -67.000
436.048; -195.700;-1019.000; -732.000
436.171; -105.900; -240.000;  -66.000
436.294;  -46.600; -248.000; -229.000
436.417;  -23.600; -963.000; -849.000
436.541; -189.300; -814.000; -840.000
436.664;  -27.700; -242.000; -316.000
436.787;    9.900;   13.000;  113.000
436.910; -201.600; -792.000; -422.000
437.034;   47.700;  142.000;  143.000
437.157;  163.800;  -11.000;    0.000
437.280;  -94.400; -392.000; -292.000
437.403; -142.100; -982.000; -869.000
437.526;  988.000; -903.000; -865.000
437.649; 3375.400; -505.000; -332.000
437.772;  441.200; -692.000; -540.000
437.896;  258.600;  700.000;  544.000
438.019; -128.700; -758.000; -503.000
438.142; -119.500; -596.000; -506.000
438.265;  -79.400; -639.000; -670.000
438.388;  746.000; -520.000; -410.000
438.511;   51.500; -597.000; -394.000
438.634;  -54.000; -247.000; -125.000
438.757; -195.400; -693.000; -619.000
438.880;   35.100;  -34.000;  -57.000
439.003; -124.000; -417.000; -437.000
439.126;  -74.200; -287.000; -167.000
439.248;  -90.500;  -98.000; -139.000
439.371;  -25.000;    9.000;  -53.000
439.494;  109.400;  510.000;  439.000
439.617;  -32.400;   65.000;  -88.000
439.740; -310.100; -968.000; -816.000
439.863; -235.600; -755.000; -595.000
439.986; -187.300; -476.000; -431.000
440.108;  -53.700; -161.000; -112.000
440.231; -289.500; -950.000; -836.000
440.354;   -3.100;  -64.000; -150.000
440.477;   21.400; -566.000; -542.000
440.599;   36.900; -200.000; -225.000
440.722; -199.000; -709.000; -586.000
440.845;  199.200;  751.000;  928.000
440.968; -173.900; -415.000; -311.000
441.090;  -43.200; -199.000;  -33.000
441.213; -283.900;-1021.000; -825.000
441.336;  -22.700; -159.000;   -5.000
441.458;  -93.300; -549.000; -396.000
441.581; -164.900; -628.000; -629.000
441.703;  -72.900; -152.000;   13.000
441.826; -167.500; -557.000; -400.000
441.948;  -27.300;   56.000;   51.000
442.071;  148.900;  555.000;  424.000
442.193; -206.900; -531.000; -485.000
442.316;   92.800;  152.000;   97.000
442.438;   21.600; -233.000;  -10.000
442.561;  178.900;  272.000;  262.000
442.683;  853.400; -809.000; -522.000
442.806; 1696.700;   -8.000;   74.000
442.928;  -37.600; -859.000; -604.000
443.051;  -87.500; -577.000; -373.000
443.173; -173.000; -341.000; -339.000
443.295; -103.700; -263.000; -371.000
443.418; -111.000; -321.000;  -29.000
443.540;   56.300; -106.000;   -4.000
443.662; -200.300; -563.000; -465.000
443.785;   54.100;  335.000;  199.000
443.907; -191.000; -362.000; -208.000
444.029; -199.300; -767.000; -494.000
444.152; -238.800; -644.000; -554.000
444.274;   -4.500;  -18.000;  -24.000
444.396; -167.300; -461.000; -221.000
444.518; -222.500; -691.000; -454.000
444.640; -147.100; -268.000; -111.000
444.763;   48.100;  388.000;  249.000
444.885; -191.300; -432.000; -392.000
445.007;   -0.600;   35.000;   86.000
445.129; -190.600; -610.000; -515.000
445.251; -165.700; -372.000; -439.000
445.373; -243.900; -537.000; -386.000
445.495;   69.800;  242.000;  350.000
445.617;  148.600;  853.000;  753.000
445.739;  -66.000; -215.000;  -97.000
445.861;  -67.200; -245.000; -112.000
445.984;  -53.800; -267.000; -101.000
446.105;  333.400; -418.000; -251.000
446.227;  949.000; -176.000;  -19.000
446.349;  -24.300; -358.000; -249.000
446.471; -148.200; -615.000; -448.000
446.593; -105.800; -316.000;   19.000
446.715;   28.700;  -67.000;   41.000
446.837;  186.200;  697.000;  832.000
446.959; -138.200; -457.000; -478.000
447.081; -205.500; -628.000; -518.000
447.203;  201.600;  862.000;  834.000
447.325; -133.100; -270.000;   42.000
447.446;   27.900;  286.000;  530.000
447.568; -285.500; -921.000; -803.000
447.690; -138.400; -236.000; -245.000
447.812; -266.800; -798.000; -519.000
447.933;   38.100;  155.000;  127.000
448.055;  -86.600; -306.000; -261.000
448.177;  290.500;   31.000;   79.000
448.299;   54.200; -935.000; -727.000
448.420;   71.000;  -25.000;  159.000
448.542;  -47.700;   -3.000;   33.000
448.664;   25.300;  109.000;  322.000
448.785;  -19.500;  265.000;   83.000
448.907;  -99.100; -614.000; -353.000
449.028;  -56.400; -771.000; -471.000
449.150;  185.500;  492.000;  589.000
449.272; -310.100;-1044.000; -913.000
449.393;  148.500;  612.000;  694.000
449.515; -246.100; -634.000; -581.000
449.636;  -46.500; -264.000; -155.000
449.758;  163.700;  763.000;  622.000
449.879; -122.900; -498.000; -396.000
450.001; -123.400; -149.000;  -49.000
450.122;   -8.900;  -95.000;  162.000
450.244;   10.600;   37.000;  364.000
450.365; -147.000; -495.000; -301.000
450.486;  -13.600;   80.000;  268.000
450.608;   92.700;  393.000;  326.000
450.729;  135.100;  578.000;  645.000
450.850;  -59.000; -574.000; -466.000
450.972;  681.800; -552.000; -389.000
451.093; 4859.900;  190.000;  588.000
451.214; 1732.900; -516.000; -337.000
451.336;  472.400;  773.000;  579.000
451.457;  122.400;  264.000;  393.000
451.578;  -43.700; -118.000;  -74.000
451.699; -205.200; -546.000; -540.000
451.821;  -76.300; -284.000;  -50.000
451.942;  -10.100;  278.000;  285.000
452.063;  118.600;  228.000;  419.000
452.184;  549.900;  -54.000;  -49.000
452.305; 1127.300;  103.000;  170.000
452.427;   32.100; -549.000; -301.000
452.548;   13.100;   23.000;   79.000
452.669;  -68.400; -257.000;  -89.000
452.790;  -43.700;    3.000;  -18.000
452.911;   25.600;  195.000;  259.000
453.032;  -96.300; -289.000;  -60.000
453.153;   -6.000;  -29.000;   81.000
453.274;  193.600;  737.000;  868.000
453.395;  -63.600;  -51.000;  175.000
453.516;  287.700; 1317.000; 1388.000
453.637;  -90.200; -205.000; -150.000
453.758;  -64.100;   15.000;   69.000
453.879; -185.600; -462.000; -250.000
454.000;  264.900; 1086.000;  948.000
454.121; -189.800; -554.000; -326.000
454.242; -167.700; -599.000; -383.000
454.362;  -60.700;  -99.000;  114.000
454.483;  -34.400; -309.000; -229.000
454.604;  138.100;  512.000;  580.000
454.725; -217.700; -627.000; -555.000
454.846; -215.500; -474.000; -406.000
454.967;   29.500;  230.000;  539.000
455.087;    3.600;  179.000;  153.000
455.208;  115.500;  554.000;  856.000
455.329;  -62.000;  -22.000;   82.000
455.450;  116.500;  473.000;  633.000
455.570; -130.400; -234.000; -211.000
455.691;  -15.400;  201.000;  407.000
455.812; -164.400; -270.000;  -92.000
455.932;  -43.900;  107.000;  -97.000
456.053; -108.800;   36.000;   24.000
456.173; -156.400; -433.000; -355.000
456.294; -219.900; -476.000; -303.000
456.415;  -40.000;  -73.000;   70.000
456.535;  -15.400;  297.000;  273.000
456.656;  -39.000;  132.000;  240.000
456.776; -100.000;    3.000;  298.000
456.897;   70.600;  308.000;  513.000
457.017; -101.100; -153.000;   -3.000
457.138; -149.700; -402.000; -249.000
457.258;  -21.900;  263.000;  224.000
457.379;   45.100;  509.000;  521.000
457.499;   18.800;  443.000;  432.000
457.620; -158.900; -407.000; -231.000
457.740; -149.800; -132.000;  -11.000
457.860;  -48.100;   87.000;   44.000
457.981;  -66.200;  132.000;  124.000
458.101;  -82.800;  -89.000;   40.000
458.221;   49.000;  336.000;  402.000
458.342;  -55.700;   -4.000;  -37.000
458.462;   92.800;  617.000;  352.000
458.582;  -50.600; -302.000; -294.000
458.703;    2.100;  303.000;  154.000
458.823;  -13.300;   22.000;  163.000
458.943;   32.700;  341.000;  467.000
459.063;   13.500; 1124.000;  192.000
459.183;   -1.500;  328.000;  313.000
459.304;   60.000;  315.000;  517.000
459.424; -107.700; -246.000;  -89.000
459.544;  446.100;  388.000;  764.000
459.664;  901.600;  499.000;  506.000
459.784;  417.400; 1004.000; 1175.000
459.904;  124.000;  867.000;  744.000
460.024;  191.500;  867.000;  684.000
460.144;   42.800;  449.000;  554.000
460.264;   18.500;  515.000;  327.000
460.385; -105.400; -145.000; -119.000
460.505;  153.600;  905.000;  858.000
460.625; -124.600;  -17.000;  -68.000
460.745;   25.100;  396.000;  541.000
460.864;  -41.800;  153.000;  469.000
460.984;   60.000;  499.000;  573.000
461.104;  335.300; 1656.000; 1775.000
461.224;  129.100;  657.000;  650.000
461.344;   14.300;  431.000;  360.000
461.464;   -4.400;  258.000;  513.000
461.584;   13.000;  283.000;  466.000
461.704;  -19.100;   58.000;  108.000
461.824;  -65.700;  238.000;  259.000
461.943;  -75.000;  191.000;  130.000
462.063;  -92.700;    2.000;  324.000
462.183;  113.700;  639.000;  717.000
462.303;  261.700; 1678.000; 1230.000
462.422;  116.000;  781.000;  840.000
462.542;   -4.800;  271.000;  391.000
462.662;  122.400;  353.000;  380.000
462.782;  365.500;  833.000;  572.000
462.901;  540.800;  545.000;  717.000
463.021;  504.200; 1702.000; 1638.000
463.141;   42.300;  337.000;  770.000
463.260;    1.600;  614.000;  474.000
463.380;  101.000;  902.000;  884.000
463.499;  -30.500;  342.000;  332.000
463.619;    9.100;  581.000;  559.000
463.738;  276.300; 1644.000;  903.000
463.858;  114.600;  657.000;  811.000
463.978;   11.200;  542.000;  396.000
464.097;  183.000;  921.000; 1114.000
464.217;  276.400; 1196.000; 1143.000
464.336;  294.700; 1068.000; 1130.000
464.455;  -34.000;  328.000;  659.000
464.575;  147.100;  597.000;  602.000
464.694;  315.700; 1204.000; 1179.000
464.814;  261.700; 1190.000; 1138.000
464.933;  173.200; 1095.000; 1027.000
465.052;  256.600; 1412.000; 1054.000
465.172;  203.200;  922.000;  799.000
465.291;  321.800; 1376.000; 1320.000
465.410;   72.400;  462.000;  735.000
465.530;  226.500; 1355.000; 1310.000
465.649;  186.700; 1209.000; 1273.000
465.768;  332.500; 1673.000; 1508.000
465.888;  140.300;  941.000; 1174.000
466.007;  259.700; 1335.000; 1440.000
466.126;   38.700;  721.000;  641.000
466.245;  188.200; 1176.000; 1187.000
466.364;  107.600;  950.000; 1060.000
466.484;  157.200; 1024.000; 1213.000
466.603;  148.000; 1101.000; 1222.000
466.722;  339.800; 1490.000; 1769.000
466.841;  215.700; 1151.000; 1401.000
466.960;  206.400; 1069.000;  972.000
467.079;  333.700; 1971.000; 1786.000
467.198;  214.800; 1238.000; 1181.000
467.317;  250.500; 1768.000; 1162.000
467.436;  174.800; 1709.000; 1261.000
467.555;  344.000; 1796.000; 1746.000
467.674;  195.800; 1227.000; 1329.000
467.793;  157.800; 1376.000; 1374.000
467.912;  263.300; 1658.000; 1539.000
468.031;  377.900; 2038.000; 1930.000
468.150;  376.800; 1842.000; 1837.000
468.269;  451.600; 2313.000; 2090.000
468.388;  434.200; 2168.000; 2339.000
468.507;  621.900; 2884.000; 2903.000
468.626;  651.100; 2555.000; 2541.000
468.744;  369.100; 2018.000; 2174.000
468.863;  486.400; 2312.000; 2523.000
468.982;  264.600; 1503.000; 1555.000
469.101;  521.800; 2788.000; 2692.000
469.220;  363.700; 2333.000; 2176.000
469.338;  605.300; 2935.000; 3051.000
469.457;  449.000; 2719.000; 2545.000
469.576;  777.700; 3953.000; 3784.000
469.695;  585.200; 2877.000; 3066.000
469.813;  906.400; 4148.000; 4192.000
469.932;  852.400; 4255.000; 4485.000
470.051;  901.600; 4075.000; 4161.000
470.169; 1340.500; 4470.000; 4338.000
470.288; 1999.200; 4700.000; 4809.000
470.406; 1351.300; 5059.000; 5194.000
470.525; 1302.200; 6101.000; 5787.000
470.644; 1375.600; 6847.000; 6794.000
470.762; 1667.700; 8397.000; 7873.000
470.881; 1876.800; 8651.000; 8464.000
470.999; 2092.200; 9685.000; 9151.000
471.118; 2234.800;11174.000;10711.000

