
Integration time [ms]: 100.000
Averaging Nr. [scans]: 40
Smoothing Nr. [pixels]: 0
Data measured with spectrometer [name]: 2101012U2
Wave   ;Sample   ;Dark     ;Reference
[nm]   ;[counts] ;[counts] ;[counts] 

197.733;   52.775;  516.000;  404.000
197.879;  -80.400; -610.000; -634.000
198.025;  -51.000; -475.000; -420.000
198.171;  -72.025; -602.000; -612.000
198.317;  -34.475; -401.000; -316.000
198.463;  -57.700; -655.000; -404.000
198.609;   25.925;  181.000; -137.000
198.755;  -71.650; -644.000; -410.000
198.901;  -65.450; -505.000; -424.000
199.047;  -55.100; -615.000; -488.000
199.193;  -43.700; -230.000; -468.000
199.339;  -37.350; -222.000; -369.000
199.485;   40.350;  330.000;  271.000
199.631;   17.325;  227.000;  310.000
199.777;  -60.700; -466.000; -398.000
199.923;  -65.875; -610.000; -424.000
200.069;   -2.825; -141.000;  -58.000
200.215;   61.700;  128.000;  453.000
200.361;   48.300;  243.000;  477.000
200.507;  -44.850; -600.000; -373.000
200.653;  -26.775; -371.000; -194.000
200.798;  -26.225; -215.000; -125.000
200.944;   -2.525; -146.000;  -41.000
201.090;   40.050;   61.000;  222.000
201.236;    1.625; -116.000; -158.000
201.382;  139.225;  874.000;  903.000
201.528;   -3.150;  -58.000;  -48.000
201.674;  -12.025; -386.000; -293.000
201.819;  -60.525; -540.000; -439.000
201.965;  -64.700; -699.000; -447.000
202.111;  -36.825; -273.000; -226.000
202.257;  -28.850; -250.000; -238.000
202.402;   11.175;   13.000;  -36.000
202.548;  -22.425; -169.000; -116.000
202.694;   92.075;  410.000; -183.000
202.840;  -68.100; -603.000; -531.000
202.985;  -69.025; -681.000; -639.000
203.131;  -95.000; -832.000; -666.000
203.277;  -17.025; -199.000; -262.000
203.423;  -60.675; -434.000; -520.000
203.568;  -49.250; -462.000; -237.000
203.714;  -53.000; -535.000; -542.000
203.860;  -77.700; -682.000; -641.000
204.005;   27.500;  112.000;  167.000
204.151;   76.400;  561.000;  556.000
204.296;  -37.850; -354.000; -221.000
204.442;  -82.175; -600.000; -547.000
204.588;  -71.725; -592.000; -579.000
204.733;   15.975;  178.000;  168.000
204.879; -123.575;-1018.000; -822.000
205.025;   16.325;  -99.000;  126.000
205.170;    2.925;  -17.000;   94.000
205.316;   84.375;  438.000;  661.000
205.461;  -81.650; -698.000; -554.000
205.607;   85.250;  609.000;  665.000
205.752;  -66.675; -626.000; -551.000
205.898;  -49.000; -501.000; -391.000
206.043;  -55.250; -578.000; -506.000
206.189;  -46.675; -243.000; -285.000
206.334;   77.550;  554.000;  606.000
206.480;   85.700;  409.000;  239.000
206.625;  -78.725; -529.000; -552.000
206.771;  -45.575; -451.000; -373.000
206.916;  -20.750; -210.000; -537.000
207.062;  -73.950; -545.000; -591.000
207.207;  -51.525; -546.000; -443.000
207.353;   46.775;  185.000;  460.000
207.498;   30.075;  196.000;   85.000
207.643;  -46.550; -501.000; -370.000
207.789; -128.350;-1069.000; -910.000
207.934;  -97.450; -665.000; -713.000
208.080;  -15.675; -154.000;   66.000
208.225;   -5.075;  -22.000;  -57.000
208.370;  -86.625; -727.000; -619.000
208.516;  -73.225; -741.000; -487.000
208.661;  -21.100; -127.000;  -69.000
208.806;  -16.550; -165.000; -171.000
208.952; -120.725;-1044.000; -731.000
209.097;   75.975;  378.000;  349.000
209.242;  -35.875; -307.000; -382.000
209.387;   59.475;  392.000;  350.000
209.533;  -51.275; -321.000; -350.000
209.678;   72.925;  472.000;  543.000
209.823;  -55.225; -408.000; -310.000
209.969; -110.650; -860.000; -757.000
210.114;  -91.175; -907.000; -719.000
210.259; -113.400; -939.000; -889.000
210.404;    0.975; -171.000;  103.000
210.549;   -5.550;  108.000;    3.000
210.695;  -12.050;   -3.000;  -95.000
210.840;   19.900;   94.000;   67.000
210.985;  -68.800; -484.000; -303.000
211.130;   74.100;  268.000;  406.000
211.275;   14.200;  207.000;  199.000
211.420;  -44.100; -300.000; -289.000
211.566;  -75.150; -536.000; -489.000
211.711;   30.075;  218.000;  157.000
211.856;  -66.400; -545.000; -519.000
212.001;    5.150;  151.000;   44.000
212.146;   21.075;  153.000;   49.000
212.291;  -14.050; -210.000; -186.000
212.436;   -9.600; -280.000;   -6.000
212.581;  -88.975; -685.000; -653.000
212.726;  -69.425; -487.000; -538.000
212.871;  -49.725; -552.000; -217.000
213.016; -136.325;-1172.000;-1029.000
213.161;   73.600;  406.000;  291.000
213.306;  -70.875; -435.000; -577.000
213.451;  -94.150; -778.000; -689.000
213.596;  -50.250; -455.000; -347.000
213.741;  -61.400; -448.000; -538.000
213.886;  -67.175; -498.000; -517.000
214.031;  -17.150; -294.000; -124.000
214.176;  -44.575; -408.000; -341.000
214.321;  -33.125; -296.000; -157.000
214.466;  -21.675; -163.000;  -43.000
214.611;  -10.575;  -61.000;  -10.000
214.756; -117.425; -948.000; -858.000
214.901;  -15.450; -388.000; -226.000
215.046; -111.375; -797.000; -825.000
215.191;   17.225;  128.000;   35.000
215.336;  -11.975; -157.000;  -19.000
215.480;  -67.475; -684.000; -505.000
215.625;   -7.325; -175.000;  -19.000
215.770;  -95.675; -757.000; -662.000
215.915;   -3.400;   -5.000;  -97.000
216.060;  -20.750; -113.000;  -21.000
216.205; -113.425; -731.000; -779.000
216.349;  -76.500; -470.000; -533.000
216.494; -129.525; -939.000; -867.000
216.639; -118.900; -823.000; -888.000
216.784;  -93.375; -577.000; -525.000
216.929;   44.650;  392.000;  281.000
217.073;  -12.150; -244.000;  -31.000
217.218;   14.075;   78.000;  -47.000
217.363;  -96.850; -656.000; -618.000
217.507;  -81.425; -623.000; -588.000
217.652; -118.300; -845.000; -874.000
217.797;  -96.575; -708.000; -659.000
217.942; -106.425; -856.000; -720.000
218.086;   67.550;  608.000;  539.000
218.231;  -14.775; -174.000;  -26.000
218.376;  -41.875; -337.000; -229.000
218.520;    2.600;  -41.000;   96.000
218.665;  -26.925; -338.000; -204.000
218.810;  -29.925; -275.000; -233.000
218.954;    8.675;  201.000;   35.000
219.099; -114.350; -713.000; -963.000
219.243;  -83.900; -589.000; -554.000
219.388;  -30.975; -264.000; -136.000
219.532;    0.475; -116.000; -116.000
219.677;  -74.250; -564.000; -521.000
219.822;    7.200;   33.000;   89.000
219.966;   24.850;   17.000;  -99.000
220.111;  -42.400; -328.000;  -40.000
220.255;  -86.725; -797.000; -750.000
220.400;  -20.575; -180.000; -146.000
220.544;  -61.475; -516.000; -450.000
220.689;  -54.400; -422.000; -451.000
220.833;  -28.300; -123.000;  -58.000
220.978;  -35.500; -393.000; -563.000
221.122;   19.475;  319.000;  307.000
221.267; -110.225; -906.000; -837.000
221.411;  -60.425; -478.000; -394.000
221.555;    5.025; -104.000;  -23.000
221.700;  -36.725; -329.000; -222.000
221.844;   41.725;  255.000;  272.000
221.989;  -47.475; -328.000; -311.000
222.133;  -35.800; -289.000; -307.000
222.277;   -8.550;    5.000;   78.000
222.422;   26.800;  227.000;  113.000
222.566;  -34.475; -381.000; -214.000
222.711;  -51.200; -414.000; -479.000
222.855;  -80.125; -643.000; -586.000
222.999;  -91.000; -642.000; -717.000
223.144;  -23.350; -195.000; -194.000
223.288;   60.975;  423.000;  251.000
223.432;   39.050;  184.000;  230.000
223.576;    5.250;  152.000;  -21.000
223.721;   48.450;  364.000;  273.000
223.865;  -55.800; -472.000; -475.000
224.009;  244.900; 1673.000; 1631.000
224.153;  -77.150; -660.000; -671.000
224.298;  -72.950; -531.000; -489.000
224.442;  -12.750;  -74.000;  -33.000
224.586;  -15.200; -169.000; -106.000
224.730; -101.775; -858.000; -670.000
224.875; -110.675; -739.000; -688.000
225.019;   10.825;  102.000;  188.000
225.163;   55.325;  208.000;  341.000
225.307;    8.850;   97.000;  -91.000
225.451;   55.200;  360.000;  481.000
225.595;   34.000;  264.000;  176.000
225.739;  -13.050; -170.000;  -94.000
225.884;    1.825;   86.000;    5.000
226.028; -104.600; -760.000; -626.000
226.172;  -46.500; -260.000; -273.000
226.316; -113.375; -941.000; -902.000
226.460;  -67.025; -645.000; -493.000
226.604;  -51.275; -406.000; -400.000
226.748;  -95.075; -836.000; -733.000
226.892;  -27.600; -227.000; -181.000
227.036;  -46.375; -537.000; -447.000
227.180;  -68.325; -551.000; -375.000
227.324;  -80.625; -561.000; -580.000
227.468; -120.525; -819.000; -717.000
227.612;    3.925;  242.000;  -28.000
227.756; -102.625; -845.000; -698.000
227.900;   40.900;  342.000;  441.000
228.044;  -57.400; -509.000; -290.000
228.188;   57.950;  448.000;  568.000
228.332;  -90.275; -546.000; -472.000
228.476;  -34.850; -223.000; -149.000
228.620;  -21.650; -210.000; -150.000
228.764;   66.200;  431.000;  349.000
228.908;  -12.525; -155.000;   30.000
229.052;  -65.900; -615.000; -528.000
229.195;   -6.375; -172.000;   13.000
229.339;  -34.375; -235.000; -305.000
229.483;  -26.575;    5.000; -162.000
229.627;    1.850; -156.000;  139.000
229.771;  -44.250; -218.000; -294.000
229.915;    1.625;  230.000;   79.000
230.059;  -97.200; -648.000; -663.000
230.202;  -44.275; -370.000; -317.000
230.346;  -15.675; -107.000;  107.000
230.490;  -61.550; -489.000; -521.000
230.634;  -86.375; -736.000; -553.000
230.777;   59.775;  478.000;  509.000
230.921;  -46.475; -450.000; -359.000
231.065;  -46.700; -246.000; -286.000
231.209;   31.850;  261.000;  265.000
231.352;   28.000;   54.000;   40.000
231.496;    9.000;  568.000;  188.000
231.640;  -82.625; -693.000; -621.000
231.783;   54.725;  546.000;  525.000
231.927;  -47.050; -294.000; -365.000
232.071; -124.500; -962.000; -736.000
232.214; -118.225; -980.000; -764.000
232.358;  -97.700; -683.000; -599.000
232.502;   -2.075;  -19.000;    7.000
232.645; -132.250;-1090.000; -927.000
232.789;  -20.950; -257.000; -218.000
232.933;  -36.450; -407.000; -224.000
233.076; -118.325;-1038.000; -897.000
233.220; -100.325; -752.000; -777.000
233.363;  -73.250; -669.000; -477.000
233.507;   53.375;  371.000;  129.000
233.650;  -91.975; -764.000; -834.000
233.794;   43.625;  438.000;  461.000
233.938;  -60.275; -530.000; -362.000
234.081;  -18.900;  -93.000;   31.000
234.225;  -73.250; -631.000; -539.000
234.368; -110.150; -773.000; -723.000
234.512;  -46.450; -385.000; -299.000
234.655;  -86.175; -582.000; -555.000
234.798;  -71.900; -493.000; -466.000
234.942; -126.700; -884.000;-1002.000
235.085;  -72.675; -651.000; -443.000
235.229;  -56.750; -405.000; -410.000
235.372;  -51.425; -247.000; -191.000
235.516;  -47.775; -397.000; -321.000
235.659;   13.750;   92.000;  121.000
235.802;  -14.600;  -38.000;  -22.000
235.946;   22.125;  335.000;  215.000
236.089;   37.100;  126.000;  250.000
236.233;   50.750;  275.000;  298.000
236.376;  -50.600; -235.000; -378.000
236.519;  -48.425; -297.000; -319.000
236.663;  -16.825; -215.000; -117.000
236.806; -135.075;-1029.000; -999.000
236.949;   61.350;  543.000;  431.000
237.092;   57.725;  412.000;  391.000
237.236;  -74.550; -589.000; -502.000
237.379;   58.850;  352.000;  428.000
237.522; -116.900; -879.000; -768.000
237.666;  -16.375; -271.000;   18.000
237.809; -111.550; -851.000; -823.000
237.952;   37.325;  469.000;  271.000
238.095;  -68.825; -447.000; -442.000
238.238;   84.875;  688.000;  700.000
238.382;    3.375;  166.000;  103.000
238.525;  -71.600; -598.000; -511.000
238.668; -139.125;-1060.000; -985.000
238.811;  -84.575; -638.000; -643.000
238.954;  -58.800; -483.000; -334.000
239.097;   85.375;  617.000;  664.000
239.241;   22.525;  394.000;  326.000
239.384;  -38.675; -254.000; -214.000
239.527;  -54.950; -424.000; -224.000
239.670; -145.550; -994.000;-1091.000
239.813; -106.400; -696.000; -658.000
239.956;   85.300;  579.000;  473.000
240.099; -113.600; -778.000; -725.000
240.242;   61.375;  428.000;  432.000
240.385;   43.250;  466.000;  450.000
240.528;  -73.275; -706.000; -473.000
240.671;   18.200;  189.000;  134.000
240.814;  -38.200; -441.000; -158.000
240.957;  -98.225; -767.000; -578.000
241.100;  -94.150; -779.000; -755.000
241.243; -131.725;-1234.000; -893.000
241.386;  -59.400; -508.000; -379.000
241.529;  -78.925; -735.000; -547.000
241.672;  -65.850; -566.000; -495.000
241.815; -116.175; -832.000; -808.000
241.958;  -26.975; -125.000; -182.000
242.101;  -70.375; -545.000; -390.000
242.244;  -35.275; -270.000; -325.000
242.387;  -37.575; -304.000; -246.000
242.530;   50.750;  470.000;  134.000
242.673;  -39.950; -381.000; -309.000
242.815; -126.150; -925.000; -899.000
242.958;  -55.350; -482.000; -381.000
243.101;    1.575;  132.000;  187.000
243.244;  -82.175; -564.000; -521.000
243.387;  -53.850; -313.000; -316.000
243.530;  -87.475; -657.000; -674.000
243.672;    2.850;   43.000;  -92.000
243.815;  -62.450; -355.000; -283.000
243.958;    1.425;   98.000;  -26.000
244.101;  -10.925;   59.000;  -16.000
244.243;  -12.625;  -47.000;  101.000
244.386; -101.300; -761.000; -630.000
244.529;  -24.950; -132.000; -139.000
244.672; -153.300;-1154.000; -951.000
244.814; -104.000; -621.000; -794.000
244.957;  -30.250; -380.000; -304.000
245.100;  -86.175; -489.000; -489.000
245.242;  -63.600; -387.000; -374.000
245.385;   -8.275;  -59.000;  -39.000
245.528; -122.725; -871.000; -705.000
245.670;   87.500;  612.000;  634.000
245.813;  -78.450; -599.000; -547.000
245.956;  -45.400; -324.000; -275.000
246.098;  -72.125; -508.000; -650.000
246.241;    6.950;  194.000;   48.000
246.383;  -15.450; -119.000;  -73.000
246.526;  -78.925; -454.000; -525.000
246.669; -112.925; -889.000; -780.000
246.811;   17.650;  172.000;   -1.000
246.954;  -63.925; -512.000; -426.000
247.096;  -16.675;  -84.000;   -6.000
247.239;  -69.850; -482.000; -445.000
247.381;  -83.000; -647.000; -488.000
247.524;   84.650;  645.000;  679.000
247.666;   -3.250;   58.000;   11.000
247.809; -105.100; -887.000; -691.000
247.951;  -16.725;  -75.000;  138.000
248.094;   35.525;  432.000;  308.000
248.236; -164.300;-1262.000;-1238.000
248.378;    3.225; -356.000;  -81.000
248.521;  -38.700; -334.000; -337.000
248.663;  -39.825; -236.000; -267.000
248.806;  -16.225; -300.000; -266.000
248.948;  -95.000; -886.000; -763.000
249.090;  -53.400; -428.000; -398.000
249.233;  -49.400; -344.000; -381.000
249.375;  -68.025; -474.000; -451.000
249.518;  -26.275;  -83.000; -133.000
249.660;   -7.075; -103.000;    3.000
249.802; -173.450;-1303.000;-1189.000
249.945;  -74.875; -612.000; -540.000
250.087; -111.825; -834.000; -768.000
250.229;  -68.125; -362.000; -480.000
250.371;  -70.425; -494.000; -439.000
250.514;  -56.550; -310.000; -244.000
250.656;  -56.700;   69.000;  102.000
250.798; -123.675; -849.000; -800.000
250.940;  -59.075; -322.000; -322.000
251.083;  -22.600; -335.000; -111.000
251.225;   53.350;  338.000;  310.000
251.367;  -39.625; -274.000; -373.000
251.509;  -35.825; -265.000; -210.000
251.651;  -93.600; -731.000; -671.000
251.794;   82.100;  538.000;  632.000
251.936; -111.075; -821.000; -747.000
252.078;  -75.675; -540.000; -461.000
252.220;  -80.650; -645.000; -477.000
252.362;   86.800;  344.000;  462.000
252.504;  -70.450; -677.000; -584.000
252.646; -113.250; -875.000; -722.000
252.788;    4.550;   14.000; -128.000
252.931;  -30.500; -257.000; -253.000
253.073;  -39.025; -376.000; -317.000
253.215;   -1.825;  141.000;  122.000
253.357;   -5.450;   82.000; -153.000
253.499;  -55.075; -374.000; -234.000
253.641;  -90.850; -749.000; -594.000
253.783;  -82.700; -609.000; -527.000
253.925;  -87.225; -586.000; -591.000
254.067; -111.750; -744.000; -667.000
254.209;  -46.725; -391.000; -259.000
254.351; -147.850; -865.000; -883.000
254.493;  -57.475; -441.000; -417.000
254.635; -140.250; -936.000; -818.000
254.777;  -84.625; -752.000; -687.000
254.918;  -56.200; -512.000; -430.000
255.060;  -63.125; -551.000; -395.000
255.202;  -59.550; -473.000; -261.000
255.344;  -81.275; -658.000; -455.000
255.486;  -75.700; -471.000; -406.000
255.628; -110.250; -780.000; -781.000
255.770; -101.275; -676.000; -536.000
255.912;  -71.225; -559.000; -468.000
256.053; -100.625; -730.000; -508.000
256.195;  155.650; 1008.000;  903.000
256.337;  -93.200; -861.000; -595.000
256.479;   58.525;  532.000;  416.000
256.621;  -40.575; -394.000; -212.000
256.762;  -96.550; -789.000; -742.000
256.904;   54.025;  485.000;  487.000
257.046;  -39.625; -381.000; -271.000
257.188;  -47.675; -351.000; -264.000
257.329;  -75.500; -525.000; -464.000
257.471; -127.550; -939.000; -807.000
257.613;  -67.450; -584.000; -498.000
257.755; -146.850;-1073.000; -982.000
257.896;   32.700;  286.000;  392.000
258.038;  -59.050; -403.000; -352.000
258.180;  -52.450; -354.000; -279.000
258.321;  -78.350; -581.000; -457.000
258.463;   -8.850;  -71.000;  133.000
258.605;  -98.800; -562.000; -570.000
258.746; -104.625; -886.000; -772.000
258.888; -143.525;-1026.000;-1020.000
259.029;   19.000;  121.000;   -8.000
259.171;  -87.950; -614.000; -550.000
259.313;   -1.350;  -49.000;  -47.000
259.454;  -67.800; -536.000; -414.000
259.596;  -60.025; -483.000; -390.000
259.737;  -65.950; -590.000; -474.000
259.879;   33.625;  217.000;  311.000
260.020;  101.675;  901.000;  636.000
260.162;  -38.875; -146.000; -253.000
260.303; -120.850; -768.000; -687.000
260.445;  -85.250; -609.000; -613.000
260.586;   21.600;  392.000;  157.000
260.728;  -55.400; -360.000; -248.000
260.869; -107.075; -350.000; -343.000
261.011;   71.325;  706.000;  537.000
261.152;  -69.425; -479.000; -319.000
261.293;  -90.125; -576.000; -595.000
261.435;  -30.625; -219.000; -184.000
261.576;  -60.725; -455.000; -325.000
261.718;   56.925;  420.000;  470.000
261.859; -127.800; -940.000; -949.000
262.000; -128.700; -951.000;-1016.000
262.142;  -33.825;  -52.000;  -60.000
262.283; -118.100; -808.000; -691.000
262.424;  -88.350; -666.000; -625.000
262.566; -153.725;-1161.000; -983.000
262.707; -121.150; -840.000; -830.000
262.848; -121.825; -769.000; -726.000
262.990;  -48.650; -362.000; -345.000
263.131;   73.525;  650.000;  681.000
263.272;   -8.400;  -61.000;  -41.000
263.413;  -93.800; -589.000; -561.000
263.555;  -68.650; -669.000; -143.000
263.696;  -82.250; -550.000; -641.000
263.837;  -57.175; -449.000; -551.000
263.978;   -3.850;   -5.000;  -77.000
264.119;  -50.250; -283.000; -264.000
264.261; -116.300; -847.000; -630.000
264.402;   -9.525;   33.000;   40.000
264.543;  -86.775; -509.000; -524.000
264.684;  -17.975;   61.000;  -50.000
264.825;  -63.475; -816.000; -538.000
264.966;   -3.900;  -84.000;  -67.000
265.107; -101.650; -646.000; -670.000
265.248; -122.125; -825.000; -812.000
265.390;   -0.925;  152.000;   -9.000
265.531;  -35.275; -238.000; -107.000
265.672;  -78.725; -557.000; -630.000
265.813;   53.725;  563.000;  439.000
265.954; -147.800; -959.000; -940.000
266.095;  -18.750; -372.000; -322.000
266.236; -101.600; -686.000; -548.000
266.377;  -48.550; -243.000; -297.000
266.518;  -64.625; -619.000; -547.000
266.659;   26.150;  170.000;  268.000
266.800;    0.775;   83.000;   85.000
266.941;  -88.250; -487.000; -478.000
267.082;   15.775;  354.000;   99.000
267.223;  -58.525; -344.000; -273.000
267.364; -123.550; -892.000; -686.000
267.504;  -15.150;    3.000;  135.000
267.645;    7.800;  160.000;   67.000
267.786;  -37.150; -147.000;  -86.000
267.927;  -75.125; -473.000; -379.000
268.068;  -26.650; -186.000;  -61.000
268.209;  -41.950; -175.000; -413.000
268.350;  -60.225; -388.000; -532.000
268.490;  -77.250; -648.000; -521.000
268.631;   18.750;  127.000;  225.000
268.772; -104.075; -874.000; -647.000
268.913;  -62.825; -328.000; -476.000
269.054;  -17.400; -117.000;   12.000
269.194;  -51.150; -418.000; -402.000
269.335; -160.600;-1137.000;-1074.000
269.476;  -36.725;   33.000;  -35.000
269.617;  -69.100; -347.000; -392.000
269.757;  -99.225; -713.000; -646.000
269.898; -103.000; -856.000; -613.000
270.039;  -68.800; -415.000; -405.000
270.180; -126.500; -952.000; -816.000
270.320;  -36.775; -190.000; -250.000
270.461;  -43.925; -277.000; -249.000
270.602;  -15.500; -186.000; -156.000
270.742; -109.650; -868.000; -943.000
270.883;  -59.925; -442.000; -390.000
271.023;  -50.200; -358.000; -357.000
271.164;  -74.475; -607.000; -528.000
271.305;  -92.775; -666.000; -654.000
271.445;  -97.875; -722.000; -683.000
271.586;  -61.275; -462.000; -283.000
271.726;  -54.725; -397.000; -322.000
271.867;  -62.725; -594.000; -534.000
272.008;  165.750; -473.000; -285.000
272.148;  126.075;  462.000;  468.000
272.289;   -2.400; -113.000; -181.000
272.429;   11.250;   19.000;  185.000
272.570;  -97.900; -633.000; -737.000
272.710; -100.525; -825.000; -775.000
272.851;  -30.900;  113.000; -130.000
272.991; -159.550;-1173.000;-1077.000
273.131;  -64.675; -419.000; -459.000
273.272;  -94.450; -683.000; -723.000
273.412;    5.050; -143.000;  -31.000
273.553;  -59.050; -488.000; -507.000
273.693;  133.125;  913.000;  858.000
273.834;  -89.000; -894.000; -692.000
273.974;  -77.425; -664.000; -615.000
274.114; -102.825; -772.000; -560.000
274.255;   65.150;  414.000;  373.000
274.395;    1.175; -180.000; -125.000
274.535;   33.950;  199.000;  350.000
274.676;   30.125;  225.000;   94.000
274.816;    3.725;  110.000;   34.000
274.956;  -71.425; -624.000; -690.000
275.097;  -81.700;-1014.000; -922.000
275.237; -108.875; -913.000; -803.000
275.377; -109.550; -778.000; -689.000
275.517; -144.625; -878.000; -937.000
275.658;  -74.500; -590.000; -555.000
275.798;  -69.450; -606.000; -413.000
275.938;    9.025;  215.000;  323.000
276.078; -106.125; -626.000; -395.000
276.218;    0.875;   99.000;  104.000
276.359; -132.525;-1026.000;-1024.000
276.499;  -77.675; -605.000; -446.000
276.639;  -26.550; -305.000; -151.000
276.779;  -63.850; -475.000; -357.000
276.919; -104.925; -783.000; -624.000
277.059;  -25.500; -261.000; -212.000
277.199;  -53.425; -357.000; -259.000
277.340;   35.475;  287.000;  175.000
277.480; -103.725; -840.000; -693.000
277.620;   11.400;  192.000;   16.000
277.760; -199.700;-1533.000;-1294.000
277.900;    8.125;  113.000;   33.000
278.040;   18.750;  137.000;  159.000
278.180;   31.050;  270.000;  170.000
278.320;    4.975;   21.000;   56.000
278.460;  -66.900; -443.000; -469.000
278.600;  -90.450; -708.000; -598.000
278.740;   47.400;  448.000;  224.000
278.880;  -64.225; -768.000; -791.000
279.020;  -13.775; -194.000; -144.000
279.160;  -89.200; -672.000; -595.000
279.300; -122.450; -926.000; -873.000
279.440;  -95.275; -709.000; -622.000
279.579;  -43.725;-1014.000; -929.000
279.719;  -59.950; -410.000; -394.000
279.859;   63.600;   -4.000;   41.000
279.999;   25.125; -208.000;  101.000
280.139;  -25.925; -435.000; -387.000
280.279;  -65.300; -708.000; -745.000
280.419;  -26.025; -229.000; -147.000
280.559;  -31.600; -259.000; -180.000
280.698;  -96.100; -790.000; -639.000
280.838;  -82.300; -778.000; -800.000
280.978; -104.525; -846.000; -790.000
281.118; -105.575; -811.000; -704.000
281.257;   11.875;   24.000;    6.000
281.397; -120.225;-1094.000; -960.000
281.537;  -85.275; -599.000; -712.000
281.677;  -28.075; -150.000; -101.000
281.816;  -90.150; -700.000; -630.000
281.956;  -39.650; -193.000; -257.000
282.096;  -63.850; -539.000; -396.000
282.235; -104.175; -672.000; -638.000
282.375;  -23.050; -243.000;  -98.000
282.515; -108.225; -715.000; -707.000
282.654;   23.000;   29.000;  106.000
282.794;   27.825;  388.000;  244.000
282.934;  -74.600; -530.000; -491.000
283.073; -145.175;-1030.000; -857.000
283.213;  -57.750; -460.000; -467.000
283.353;  -40.425; -408.000; -349.000
283.492;  -32.225; -264.000; -296.000
283.632;  -52.800; -254.000; -168.000
283.771;  -95.075; -859.000; -730.000
283.911;  -58.800; -369.000; -260.000
284.050; -115.150; -794.000; -748.000
284.190; -147.150;-1229.000;-1096.000
284.329; -148.800;-1055.000; -964.000
284.469;  -62.675; -516.000; -591.000
284.608;  -69.375; -559.000; -598.000
284.748;  -92.475; -614.000; -570.000
284.887;   -8.600;  -87.000;  -20.000
285.027; -118.300; -844.000; -892.000
285.166;  -46.950; -192.000; -249.000
285.306;    6.300; -116.000;  -33.000
285.445;  -63.425; -229.000; -343.000
285.584;  -90.700; -630.000; -494.000
285.724;  -43.400; -282.000; -322.000
285.863; -102.350; -857.000; -507.000
286.002;  -60.300; -366.000; -276.000
286.142; -114.450; -715.000; -622.000
286.281;  -75.350; -525.000; -493.000
286.420;  -89.300; -554.000; -417.000
286.560;   80.375;  653.000;  623.000
286.699; -131.575; -958.000; -912.000
286.838;  -92.325; -590.000; -591.000
286.978;  -83.150; -533.000; -537.000
287.117; -146.175;-1085.000; -950.000
287.256;  -34.600; -228.000; -211.000
287.395;  -52.725; -197.000; -378.000
287.535;  -54.150; -370.000; -298.000
287.674;  -74.500; -509.000; -484.000
287.813;   53.100;  661.000;  533.000
287.952; -132.150;-1010.000; -871.000
288.091; -154.250;-1049.000; -915.000
288.231;    4.000;   13.000;   15.000
288.370; -177.575;-1217.000;-1200.000
288.509;  -97.400; -728.000; -645.000
288.648;  -88.125; -770.000; -548.000
288.787;  -30.275; -243.000;  -87.000
288.926;  -61.500; -454.000; -475.000
289.065;  101.875;  859.000;  672.000
289.204;  -54.675; -377.000; -217.000
289.344; -105.325; -791.000; -690.000
289.483;   24.725;  416.000;  304.000
289.622;  -41.400; -291.000; -149.000
289.761;  -19.450; -309.000; -166.000
289.900; -110.750; -785.000; -626.000
290.039;  -10.550;  -12.000;  -95.000
290.178;  -34.875; -274.000; -180.000
290.317;  -77.000; -618.000; -479.000
290.456;  -67.550; -463.000; -451.000
290.595; -135.050; -961.000; -833.000
290.734; -142.775; -904.000; -891.000
290.873;  -73.700; -456.000; -420.000
291.011; -121.425; -833.000; -843.000
291.150;  -95.075; -770.000; -682.000
291.289;  -39.275; -343.000; -110.000
291.428;  -91.300; -599.000; -480.000
291.567;  -66.025; -370.000; -442.000
291.706;  -13.000;  109.000;  154.000
291.845; -102.575; -597.000; -505.000
291.984; -165.725;-1234.000;-1061.000
292.122;   65.925;  602.000;  582.000
292.261;   36.125;  620.000;  463.000
292.400;    0.250; -144.000;  211.000
292.539; -126.675; -959.000; -813.000
292.678;  -47.150; -325.000; -300.000
292.816; -160.000;-1136.000; -965.000
292.955;  -94.450; -844.000; -684.000
293.094;  -27.425; -173.000; -337.000
293.233;  -57.700; -556.000; -400.000
293.371;  -32.925; -225.000;  -84.000
293.510; -109.675; -866.000; -780.000
293.649; -109.400; -959.000; -924.000
293.787;  -73.300;-1083.000;-1012.000
293.926;   -5.125; -113.000;  -32.000
294.065;  -43.350; -379.000; -290.000
294.203;   48.525;  298.000;  406.000
294.342;    8.600;   74.000;  156.000
294.481; 5699.250;51180.000; -836.000
294.619;  -23.175; -425.000; -582.000
294.758; -139.100;-1230.000;-1137.000
294.896;   46.500; -125.000;    5.000
295.035; -131.425;-1040.000;-1006.000
295.174; -121.900;-1082.000; -954.000
295.312;  -35.175; -323.000; -203.000
295.451;  -19.400; -307.000; -428.000
295.589;  -59.775; -389.000; -518.000
295.728;   12.950; -292.000; -165.000
295.866;    7.375;  -36.000;  -51.000
296.005;  -60.850; -584.000; -341.000
296.143;  -64.650; -558.000; -596.000
296.282; -114.025; -957.000; -881.000
296.420;  -73.800; -657.000; -557.000
296.559;  -84.275; -892.000; -633.000
296.697;   21.025; -847.000; -665.000
296.835;   48.100;-1141.000;-1002.000
296.974;   48.425;  -23.000;   39.000
297.112;    5.225; -443.000; -504.000
297.251;  -80.950; -815.000; -755.000
297.389;   74.800; -576.000; -438.000
297.527;   16.975; -145.000;  -83.000
297.666;  -59.125; -486.000; -438.000
297.804;  -50.475; -404.000; -264.000
297.942;  -18.225; -136.000; -161.000
298.081;   -3.425; -183.000;   63.000
298.219;   43.675;  -17.000;  -19.000
298.357;   52.450; -144.000;  -71.000
298.495;   30.600; -810.000; -812.000
298.634;   67.400;  245.000;  219.000
298.772;   37.750; -220.000; -338.000
298.910;  -41.850; -309.000; -182.000
299.048;  -25.000; -130.000; -153.000
299.187;  -31.675; -350.000; -250.000
299.325;   11.375;   52.000;  122.000
299.463;   50.525; -389.000; -299.000
299.601;   81.800; -327.000; -271.000
299.739; -102.225; -908.000; -883.000
299.877;  -94.475; -791.000; -703.000
300.016;  -58.025;-1095.000; -935.000
300.154;  150.025;  -19.000; -161.000
300.292;   45.975; -428.000; -348.000
300.430;   29.000; -408.000; -291.000
300.568;  -95.275; -940.000; -874.000
300.706;  -61.200; -366.000; -469.000
300.844;  -74.550;-1108.000; -979.000
300.982;  105.625;  246.000;  282.000
301.120;  -94.675; -965.000; -866.000
301.258;  -76.175; -812.000; -705.000
301.396;   27.250;  104.000;  -41.000
301.534;   63.700; -218.000; -293.000
301.672;  -21.300; -664.000; -521.000
301.810;   19.275; -613.000; -545.000
301.948;  101.825;   53.000;  149.000
302.086;  594.475; -250.000;  -32.000
302.224;  894.450; -610.000; -585.000
302.362;   28.100; -558.000; -622.000
302.500;  -31.100; -923.000; -893.000
302.638;   83.150;  128.000;  245.000
302.776;   -5.375; -352.000; -408.000
302.913;   34.225;  447.000;  236.000
303.051;   -9.400;  -86.000;  -23.000
303.189;   46.475;   90.000;  118.000
303.327;  -29.175; -341.000; -256.000
303.465;  -92.200; -832.000; -588.000
303.603;  -80.825; -805.000; -604.000
303.740;   88.600;  417.000;  241.000
303.878;   12.925; -800.000; -759.000
304.016; -106.575; -915.000; -790.000
304.154; -123.850;-1123.000;-1152.000
304.291;  -38.500; -505.000; -554.000
304.429;    3.750;  102.000;   74.000
304.567; -137.300; -908.000; -893.000
304.705;  -46.250; -408.000; -515.000
304.842;   84.450; -616.000; -540.000
304.980;   51.350;  215.000;   35.000
305.118;   26.750; -367.000; -365.000
305.255;  -67.500; -945.000; -927.000
305.393;   60.050;  178.000;  239.000
305.531; -110.650;-1173.000; -956.000
305.668;  -66.025; -663.000; -582.000
305.806;   82.600; -358.000; -439.000
305.943;   98.050; -629.000; -637.000
306.081;   57.175; -378.000; -267.000
306.219;  -93.475; -863.000; -748.000
306.356;    4.775;  158.000;   27.000
306.494;   94.025;  981.000;  761.000
306.631;  -12.525;  -11.000;  -55.000
306.769;  -14.600; -613.000; -485.000
306.906;  -12.400; -284.000; -258.000
307.044;  -73.725; -473.000; -488.000
307.181;  -74.675; -410.000; -332.000
307.319;    1.000;  112.000;   87.000
307.456; -174.800;-1191.000;-1153.000
307.594; -100.225; -980.000; -727.000
307.731;   -6.425; -371.000; -164.000
307.868;   -2.575;  -15.000;   20.000
308.006; -138.725; -961.000; -847.000
308.143;  -60.225; -618.000; -330.000
308.281;  161.475;  -37.000; -254.000
308.418;  -31.175; -748.000; -640.000
308.555;  -84.525; -400.000; -250.000
308.693;  -72.600; -577.000; -573.000
308.830; -105.425; -712.000; -657.000
308.967;  -22.575; -215.000;  -95.000
309.105;  -39.225; -507.000; -396.000
309.242;   31.500; -468.000; -367.000
309.379;  286.450; -577.000; -655.000
309.517;  -73.425; -936.000; -948.000
309.654; -102.475; -910.000; -734.000
309.791;  -76.450; -662.000; -580.000
309.928; -112.850; -977.000; -914.000
310.065;  166.375;  819.000;  697.000
310.203;   -6.350; -825.000; -850.000
310.340;  -22.925; -465.000; -321.000
310.477;  -83.900; -412.000; -516.000
310.614;  -66.675; -383.000; -473.000
310.751;  -85.250; -427.000; -518.000
310.889;  -27.600;    1.000;   11.000
311.026; -157.475;-1161.000; -939.000
311.163;  -50.025; -386.000; -380.000
311.300;  -71.375; -512.000; -479.000
311.437;  -86.225; -658.000; -619.000
311.574; -155.025;-1226.000; -985.000
311.711;  -72.050; -595.000; -433.000
311.848;  -47.975; -380.000; -388.000
311.985;    7.975;  270.000;   93.000
312.122; -107.700; -932.000; -762.000
312.259; -118.550; -941.000; -994.000
312.396;  -91.550; -508.000; -551.000
312.533;  -86.525; -812.000; -790.000
312.670; -138.650;-1070.000; -898.000
312.807;  -44.075; -352.000; -367.000
312.944;  -91.350; -513.000; -611.000
313.081;  -33.825; -150.000; -415.000
313.218; -114.875;-1111.000; -867.000
313.355;   12.050; -531.000; -449.000
313.492;   -2.550; -455.000; -292.000
313.629;  114.350;  815.000;  735.000
313.766; -138.850;-1176.000;-1008.000
313.902;  -17.075; -186.000;   21.000
314.039;  -58.925; -372.000; -289.000
314.176;   17.100;  286.000;  192.000
314.313;  -77.900; -569.000; -473.000
314.450;  -84.775; -788.000; -684.000
314.587;  -64.325; -468.000; -480.000
314.723;    2.300;  -78.000;  130.000
314.860;   27.175;  318.000;  332.000
314.997;   18.725;  223.000;  142.000
315.134;  -39.025; -385.000; -368.000
315.270;  -40.850; -480.000; -496.000
315.407; -125.600;-1094.000; -967.000
315.544;  -69.850; -657.000; -538.000
315.681;  -57.675; -681.000; -565.000
315.817;    8.550; -133.000; -176.000
315.954;   20.350; -613.000; -392.000
316.091; -132.200;-1045.000;-1023.000
316.227;  -29.025;  -71.000; -179.000
316.364;    4.125;   23.000;    6.000
316.500;  -40.500; -113.000; -300.000
316.637;  -59.050; -181.000; -302.000
316.774;  -89.075; -625.000; -358.000
316.910;  -88.200; -598.000; -629.000
317.047;  -76.850; -487.000; -351.000
317.183;  -47.425; -435.000; -566.000
317.320;  -13.150; -367.000; -321.000
317.456;  -74.575; -733.000; -805.000
317.593;  -95.700; -598.000; -641.000
317.729;   -1.325;  168.000;  -67.000
317.866; -185.875;-1434.000;-1285.000
318.002;  -89.325; -708.000; -948.000
318.139; -104.850; -883.000; -867.000
318.275; -113.250;-1003.000; -738.000
318.412;  -63.400; -517.000; -336.000
318.548;  -38.250; -751.000; -720.000
318.685;  -99.250; -985.000; -888.000
318.821; -101.125; -762.000; -735.000
318.957;  -11.125;   34.000;  -23.000
319.094;   35.650;  297.000;  154.000
319.230;  -52.900; -756.000; -742.000
319.367;  119.050; -471.000; -520.000
319.503;   62.175; -538.000; -436.000
319.639;  -88.100; -877.000; -793.000
319.775;  -61.775; -750.000; -685.000
319.912;  -50.875; -424.000; -519.000
320.048;  -91.175;-1184.000;-1184.000
320.184;   78.025;   59.000;   70.000
320.321;  -58.275; -497.000; -467.000
320.457;   63.650;  475.000;  662.000
320.593;  -74.750; -375.000; -382.000
320.729; -107.350; -732.000; -734.000
320.866;  -71.725; -577.000; -635.000
321.002;  -93.000; -759.000; -809.000
321.138;  -10.400; -135.000; -211.000
321.274;   73.850; -148.000; -115.000
321.410;  -29.500; -585.000; -353.000
321.546;  -38.325;-1011.000; -911.000
321.683;   57.625;  400.000;  185.000
321.819;   -6.700;  -48.000; -117.000
321.955; -118.300; -743.000; -722.000
322.091;  -52.275; -585.000; -540.000
322.227;  -18.750; -382.000; -202.000
322.363;  -20.050; -320.000; -215.000
322.499;  -41.750; -343.000; -331.000
322.635;  151.625;  636.000;  443.000
322.771;   18.500; -139.000;   12.000
322.907;   84.175;  129.000;  327.000
323.043;   -8.100; -115.000; -206.000
323.179;  -41.525; -394.000; -363.000
323.315;   -1.025; -401.000; -371.000
323.451;   84.350; -328.000; -236.000
323.587;   74.850;  -60.000;  -77.000
323.723;    7.050; -682.000; -601.000
323.859;   -4.150; -258.000;  -76.000
323.995;  -41.025; -467.000; -409.000
324.131; -118.575; -967.000; -892.000
324.267;  -34.550; -254.000; -276.000
324.402; -129.625; -960.000; -983.000
324.538;  -28.650; -279.000; -104.000
324.674;   12.950;  164.000;   77.000
324.810;  109.275;  226.000;  308.000
324.946;    3.950; -810.000; -658.000
325.082;  -77.625; -568.000; -475.000
325.217;   -2.325;  -62.000;   16.000
325.353;  -93.775; -764.000; -659.000
325.489;  -87.850; -540.000; -506.000
325.625;  -83.850; -579.000; -525.000
325.760;   63.575;  517.000;  376.000
325.896;  -29.300; -515.000; -702.000
326.032;  -53.350; -403.000; -352.000
326.168;  -69.100; -462.000; -369.000
326.303;  -57.175; -352.000; -461.000
326.439;  -24.475; -336.000; -276.000
326.575;    5.950; -190.000;  -29.000
326.710;  -12.900; -156.000;  -30.000
326.846;   -5.925;  146.000;  103.000
326.982;  -88.700; -530.000; -548.000
327.117;  -73.400; -481.000; -442.000
327.253; -104.975; -745.000; -742.000
327.388; -143.625;-1137.000;-1153.000
327.524;  -66.600; -811.000; -578.000
327.659;  -19.475;  -58.000;  -22.000
327.795;  -13.525;   69.000;   45.000
327.931;  -80.125; -723.000; -499.000
328.066;  -29.900; -417.000; -276.000
328.202;  -18.475;   12.000; -129.000
328.337;   93.400;  957.000;  713.000
328.473;   45.450;  -12.000;  -74.000
328.608;  -29.400; -256.000; -267.000
328.743;  -84.825; -799.000; -664.000
328.879;   14.675;  214.000;  114.000
329.014;  -39.975; -102.000; -122.000
329.150;  -92.150; -358.000; -483.000
329.285;  -77.050; -465.000; -466.000
329.421;  -57.350; -548.000; -246.000
329.556;  -28.225;  -36.000;   85.000
329.691;  -93.400; -633.000; -615.000
329.827;  -83.225; -626.000; -480.000
329.962;  -40.275;  131.000; -301.000
330.097;  -89.775; -673.000; -585.000
330.233;  -65.225; -410.000; -223.000
330.368; -119.300; -839.000; -628.000
330.503;  -15.875;    3.000;   98.000
330.638;    6.375;  -93.000; -125.000
330.774;  -69.575; -609.000; -530.000
330.909;  -48.150; -434.000; -244.000
331.044; -102.750; -714.000; -708.000
331.179; -179.425;-1217.000;-1109.000
331.315;    7.050;   77.000;   20.000
331.450;   12.925;  157.000;  285.000
331.585;  -88.550; -805.000; -706.000
331.720;  -85.200; -510.000; -460.000
331.855;  -17.600;  -35.000; -102.000
331.990;  260.200;   62.000;  138.000
332.126;  134.600; -110.000;   71.000
332.261;  -17.850; -379.000; -265.000
332.396;   -7.800; -135.000; -242.000
332.531; -100.450;-1074.000;-1031.000
332.666;   22.825; -519.000; -363.000
332.801;  -98.850; -726.000; -807.000
332.936;  -29.525; -192.000; -122.000
333.071; -146.400; -870.000; -817.000
333.206;   13.375;  307.000;  379.000
333.341;   16.800;  344.000;  418.000
333.476;  -91.175; -627.000; -623.000
333.611;  -51.525; -251.000; -173.000
333.746;  -39.400; -381.000; -464.000
333.881; -123.000; -973.000; -935.000
334.016; -115.800; -936.000; -917.000
334.151; -127.825; -746.000; -702.000
334.286;   19.625;  152.000;  186.000
334.421;  -26.400; -125.000; -178.000
334.556;  -86.250; -611.000; -567.000
334.690;  -83.025; -631.000; -577.000
334.825;   43.300;  381.000;   83.000
334.960;  -53.425; -285.000; -413.000
335.095;    3.625;  135.000;  -91.000
335.230; -107.225; -722.000; -738.000
335.365; -144.425;-1084.000; -990.000
335.499; -139.025;-1108.000;-1037.000
335.634;    5.800;    9.000;  534.000
335.769;  -96.125; -755.000; -720.000
335.904;  -63.600; -603.000; -561.000
336.038;  -59.100; -735.000; -657.000
336.173; -127.900;-1206.000;-1194.000
336.308;    3.500; -116.000; -189.000
336.443;   10.700; -544.000; -634.000
336.577;  -93.275; -936.000; -787.000
336.712;   60.825;   -4.000;  -12.000
336.847;  -43.500; -724.000; -607.000
336.981;   56.350; -272.000; -208.000
337.116;  274.650;  615.000;  501.000
337.250;  117.550; -434.000; -421.000
337.385;  266.425; -297.000; -208.000
337.520;   84.350; -632.000; -603.000
337.654;  -30.525; -215.000; -126.000
337.789; -138.025; -989.000; -933.000
337.923;  -47.950; -104.000; -205.000
338.058;  -98.875; -673.000; -738.000
338.192;  -48.950; -611.000; -488.000
338.327;  -12.425;  -18.000; -155.000
338.461;  -69.025; -299.000; -469.000
338.596;  -93.750; -780.000; -638.000
338.730;  -98.975; -767.000; -803.000
338.865;   84.800;  -46.000; -140.000
338.999;  -39.825; -846.000; -702.000
339.134;  -27.750; -634.000; -536.000
339.268;    9.825; -741.000; -603.000
339.403;  376.325; -740.000; -775.000
339.537;  114.150; -894.000; -820.000
339.671; -121.500; -829.000; -813.000
339.806;  -67.275; -556.000; -512.000
339.940;    6.600; -261.000; -235.000
340.074;  -98.100; -685.000; -510.000
340.209;  -47.925; -351.000; -230.000
340.343;  -80.450; -517.000; -573.000
340.477;  129.125;  998.000; 1036.000
340.612;  -50.200;-1033.000; -900.000
340.746;  134.125; -199.000; -243.000
340.880;  -60.125; -924.000; -785.000
341.014;  -35.725;  -45.000; -154.000
341.149; -124.000; -756.000; -718.000
341.283; -115.350; -839.000; -754.000
341.417;  -84.875;-1124.000; -938.000
341.551;  105.325; -768.000; -708.000
341.685;  -39.025; -633.000; -611.000
341.820;  -47.800; -562.000; -493.000
341.954;  -47.650; -218.000; -349.000
342.088; -153.050;-1102.000;-1019.000
342.222;   58.150;  565.000;  618.000
342.356;  -68.625; -395.000; -335.000
342.490;  -96.475; -880.000; -841.000
342.624;  -62.900; -339.000; -242.000
342.758;   -6.625; -364.000; -312.000
342.892;  -75.375; -710.000; -585.000
343.026;  -36.875;  -58.000; -116.000
343.160;  -59.675; -426.000; -376.000
343.294;  -84.325; -474.000; -337.000
343.428;  -29.750; -488.000; -448.000
343.562;  -20.900; -172.000;  -23.000
343.696;  -21.850; -385.000; -314.000
343.830;  -30.675; -362.000; -356.000
343.964;   14.900; -231.000; -168.000
344.098;  869.400;  199.000;   70.000
344.232;  697.850; -266.000; -127.000
344.366;   83.225; -567.000; -453.000
344.500;   45.250; -665.000; -744.000
344.634;   22.150; -324.000; -164.000
344.768;  -12.500; -531.000; -341.000
344.902;   10.100;  278.000;  256.000
345.035;  -85.050; -556.000; -496.000
345.169; -133.075; -933.000; -656.000
345.303;  -34.450; -308.000; -482.000
345.437;  -81.300; -826.000; -717.000
345.571;  -75.975; -675.000; -594.000
345.704;  -66.075; -309.000; -532.000
345.838;  -18.075; -331.000; -284.000
345.972;  -33.350; -543.000; -495.000
346.106;  166.325; -179.000; -190.000
346.239;  404.125; -312.000; -243.000
346.373;   -4.650; -343.000; -302.000
346.507; -141.400; -950.000; -962.000
346.640;  124.450;  -30.000;   13.000
346.774;  -44.800; -650.000; -797.000
346.908;  -16.575; -138.000;  -11.000
347.041;  -98.675; -646.000; -593.000
347.175;   -8.300;  259.000;   27.000
347.309;  -70.100; -698.000; -628.000
347.442; -105.575; -883.000; -732.000
347.576;  261.425;  670.000;  668.000
347.709;  179.800; -123.000;  -52.000
347.843;  -88.575; -933.000; -825.000
347.976;   45.025;  235.000;  294.000
348.110; -180.850;-1268.000;-1186.000
348.243; -107.725; -679.000; -772.000
348.377;   -2.025;  -26.000;   60.000
348.510;   45.225;  403.000;  540.000
348.644;  -44.550;  -37.000; -159.000
348.777;   -7.700;  180.000;  191.000
348.911;  -49.700; -142.000; -112.000
349.044;  151.575;  471.000;  448.000
349.178;  133.425;-1069.000;-1006.000
349.311;  104.425;  141.000;  255.000
349.444;   -1.700; -927.000; -813.000
349.578;  -18.300; -347.000; -200.000
349.711; -104.725; -959.000; -862.000
349.845;  -17.550; -661.000; -591.000
349.978; -151.250;-1224.000;-1137.000
350.111;  -87.175; -546.000; -612.000
350.244;  -95.700; -596.000; -700.000
350.378;  -10.325; -392.000; -393.000
350.511;  -65.800; -393.000; -426.000
350.644; -121.675; -808.000; -806.000
350.778;    0.425;  168.000;  104.000
350.911;   -7.375;  134.000;  140.000
351.044;  -93.575; -685.000; -615.000
351.177;  -46.825; -321.000; -281.000
351.310;  -16.175;    3.000; -131.000
351.444;  -97.750; -888.000; -788.000
351.577;  103.900;  140.000;   90.000
351.710;   80.850;  593.000;  417.000
351.843;  -23.400; -165.000;  -77.000
351.976;  -10.800;  149.000;  -79.000
352.109;  -91.150; -621.000; -612.000
352.242;  -32.450; -464.000; -419.000
352.376;  -66.950; -580.000; -636.000
352.509;  156.900; -437.000; -356.000
352.642;    5.625; -654.000; -604.000
352.775;   52.825; -141.000;  -98.000
352.908; -111.975; -933.000; -904.000
353.041; -106.125; -814.000; -824.000
353.174;  -58.925; -551.000; -424.000
353.307;  -88.700; -753.000; -764.000
353.440;   67.750;  541.000;  453.000
353.573; -121.000; -957.000;-1008.000
353.706;  -58.675; -384.000; -558.000
353.839;  -13.650; -264.000; -220.000
353.971;  -90.475; -657.000; -512.000
354.104;  -90.375; -896.000; -835.000
354.237;  -40.125; -627.000; -662.000
354.370;  -98.600; -846.000; -879.000
354.503; -186.300;-1231.000;-1308.000
354.636;  -46.600; -529.000; -348.000
354.769; -116.425; -937.000; -860.000
354.902;   -7.675; -230.000; -139.000
355.034;  -13.725; -164.000; -220.000
355.167;  -27.425; -262.000; -162.000
355.300;  -92.475;-1061.000; -880.000
355.433;  974.875;  -71.000;  -14.000
355.565; 1524.600; -402.000; -384.000
355.698;  386.000; -356.000; -296.000
355.831;   -1.900; -882.000; -801.000
355.964;   71.425; -285.000; -170.000
356.096;  -79.775; -856.000; -843.000
356.229;  -12.550; -523.000; -530.000
356.362;  319.150; -373.000; -266.000
356.494;  610.000; -229.000; -162.000
356.627;  460.200;  269.000;  377.000
356.760;  666.925;  120.000;   53.000
356.892;  990.000; -286.000; -601.000
357.025;  603.775;  403.000;  389.000
357.157;  574.150; -167.000; -179.000
357.290;  702.200; -856.000; -713.000
357.423;  212.050; -667.000; -556.000
357.555;  120.200; -217.000; -228.000
357.688;  106.950; -483.000; -364.000
357.820;  445.400; -870.000; -877.000
357.953; 3600.650; -563.000; -589.000
358.085;  801.125; -632.000; -612.000
358.218; 1027.175;-1131.000; -932.000
358.350;  187.425;  -58.000;  312.000
358.483; -129.600;-1300.000;-1187.000
358.615;  -45.300;-1182.000;-1078.000
358.747;  -67.250;-1187.000;-1058.000
358.880;   10.400; -810.000; -744.000
359.012;    2.150; -376.000; -202.000
359.145;  -37.875; -480.000; -511.000
359.277;   53.850; -962.000; -913.000
359.409; 2944.600;  536.000;  231.000
359.542;  783.925; -738.000; -688.000
359.674;   53.900;   46.000;   13.000
359.806;  -60.025; -565.000; -438.000
359.939;  -45.700; -617.000; -516.000
360.071;  -18.500; -583.000; -579.000
360.203;  -36.775; -411.000; -364.000
360.335;   35.550;  164.000;  -16.000
360.468;  185.325; -249.000; -307.000
360.600; 2402.275; -547.000; -454.000
360.732; 2896.175; -546.000; -423.000
360.864;  396.625;-1216.000;-1044.000
360.996;  254.700; -516.000; -554.000
361.129;   36.200; -389.000; -598.000
361.261;   27.200;  110.000; -113.000
361.393;  -26.750; -252.000; -214.000
361.525;   19.700;   94.000;  244.000
361.657;  -43.950; -821.000; -703.000
361.789;   10.575; -139.000; -155.000
361.921;  196.325; -642.000; -593.000
362.053;  240.200;  524.000;  541.000
362.185;   52.275;  288.000;   72.000
362.318;  -84.875; -709.000; -705.000
362.450;  108.675;  294.000;  444.000
362.582;   64.625; -913.000; -870.000
362.714;  -29.550; -353.000; -332.000
362.846;  -87.350; -606.000; -490.000
362.978; -130.775; -941.000; -811.000
363.109;   32.275; -161.000; -260.000
363.241;  400.675; -739.000; -749.000
363.373;  415.400; -649.000; -564.000
363.505;  675.325; -186.000;  -91.000
363.637;  146.450; -787.000; -601.000
363.769; -122.025;-1067.000;-1080.000
363.901;  -68.800; -596.000; -654.000
364.033; -113.350;-1103.000;-1062.000
364.165;    3.500; -283.000; -283.000
364.296;   77.125; -316.000; -177.000
364.428;   72.875;-1344.000;-1220.000
364.560;  -69.075; -679.000; -661.000
364.692;  -70.950; -738.000; -835.000
364.824;  229.950; -588.000; -456.000
364.955;  436.425; -402.000; -564.000
365.087;  962.075;-1097.000; -852.000
365.219;   29.925; -686.000; -816.000
365.351;  -64.350; -526.000; -572.000
365.482;   33.825;  300.000;  240.000
365.614;  -41.700; -402.000; -314.000
365.746; -106.250; -729.000; -752.000
365.877;  -97.875; -706.000; -672.000
366.009;  267.150;  -35.000;  -62.000
366.141;  -94.500;-1249.000;-1134.000
366.272; -111.300; -803.000; -719.000
366.404; -111.675;-1005.000; -874.000
366.535;  -13.000; -139.000;  -12.000
366.667; -106.300; -644.000; -649.000
366.799;   40.200;  353.000;  203.000
366.930; -114.325; -862.000; -996.000
367.062;  118.950; -639.000; -613.000
367.193;  157.700; -872.000; -842.000
367.325;  -66.650; -580.000; -684.000
367.456;   39.600; -246.000;   31.000
367.588;  161.200; -371.000; -318.000
367.719;   16.250;  -44.000;  -45.000
367.851;  -30.425; -222.000; -241.000
367.982;  -43.600; -875.000; -732.000
368.113;   82.700; -475.000; -358.000
368.245; -118.600; -960.000; -841.000
368.376;  -30.025; -254.000; -302.000
368.508;  -39.350; -188.000; -263.000
368.639; -147.575;-1166.000;-1034.000
368.770;  -27.075; -670.000; -589.000
368.902;  -65.825; -836.000; -926.000
369.033; -111.175; -906.000; -855.000
369.164;  -58.950; -720.000; -653.000
369.296; -112.600; -452.000; -601.000
369.427;  -13.975; -209.000; -144.000
369.558;  -46.425; -593.000; -377.000
369.689;  -88.800; -721.000; -569.000
369.821; -129.450; -951.000; -845.000
369.952;  -18.525;   42.000; -108.000
370.083;  -48.325; -229.000; -108.000
370.214;  -93.500; -735.000; -650.000
370.345;  -17.625;   65.000;   81.000
370.477;  -94.425; -810.000; -790.000
370.608;  208.025; -328.000; -264.000
370.739;  -44.600;-1233.000;-1292.000
370.870;  -42.925;-1102.000; -923.000
371.001;   87.575; -378.000; -467.000
371.132;  -74.900; -754.000; -735.000
371.263;  -35.950;  -42.000; -148.000
371.394; -135.825; -841.000; -748.000
371.525;   21.250;  345.000;  225.000
371.657;  -90.425; -808.000; -670.000
371.788;   71.000;  103.000;  199.000
371.919;  169.325; -384.000; -304.000
372.050; 3468.300;  -91.000; -156.000
372.181; 1050.900; -188.000; -294.000
372.311;  353.475;   42.000; -127.000
372.442;   24.950; -457.000; -451.000
372.573;  -26.375; -444.000; -340.000
372.704; -125.450;-1008.000; -980.000
372.835;   73.775; -228.000; -289.000
372.966;  -63.100; -646.000; -554.000
373.097;  -63.025; -575.000; -711.000
373.228;  -36.675; -717.000; -542.000
373.359;  123.725; -824.000; -536.000
373.490;  895.900; -881.000; -727.000
373.620; 1099.600;-1001.000; -803.000
373.751; 1664.275; -332.000; -396.000
373.882;  776.325; -663.000; -733.000
374.013;   59.475; -449.000; -262.000
374.143;  -52.450; -581.000; -659.000
374.274; -108.825; -987.000; -908.000
374.405;  165.525; -388.000; -276.000
374.536;  407.700; -526.000; -387.000
374.666; 1030.350; -759.000; -807.000
374.797;  208.150; -817.000; -868.000
374.928;  794.050; -710.000; -560.000
375.058;  842.075; -535.000; -500.000
375.189;   61.525;  -59.000;  -93.000
375.320; -111.025; -928.000;-1034.000
375.450;  -49.450; -625.000; -616.000
375.581;  -50.350; -526.000; -436.000
375.712;  -28.050; -574.000; -250.000
375.842;  283.400; -438.000; -415.000
375.973;  206.650; -554.000; -513.000
376.103;  -53.725; -665.000; -648.000
376.234;  -95.250; -531.000; -552.000
376.364;  -51.400; -944.000; -867.000
376.495;  310.150;  925.000;  529.000
376.625;    2.625; -472.000; -485.000
376.756;   43.550; -709.000; -678.000
376.886;  -80.650;-1178.000;-1026.000
377.017;   50.950;-1048.000;-1061.000
377.147;  368.575; -786.000; -782.000
377.278;   51.475;  174.000;  228.000
377.408; -126.325; -801.000; -815.000
377.538; -104.150; -707.000; -693.000
377.669;  -85.500; -537.000; -613.000
377.799; -101.725; -645.000; -635.000
377.929;  -68.650; -610.000; -428.000
378.060; -134.550; -781.000; -847.000
378.190;  -55.400; -726.000; -531.000
378.320;  -51.200; -401.000; -406.000
378.451;  -29.300; -131.000;  -22.000
378.581;  -17.950;  -67.000; -110.000
378.711;  145.025; 1035.000;  866.000
378.841;  -28.575; -533.000; -675.000
378.972;  -67.500; -871.000; -751.000
379.102;   -1.325; -652.000; -579.000
379.232;  -19.175; -126.000;  -73.000
379.362; -109.250;-1001.000; -885.000
379.492;    2.300; -373.000; -424.000
379.623;   95.275;    0.000;  111.000
379.753; -107.175;-1107.000; -974.000
379.883;  183.450;   59.000;  156.000
380.013;   -2.850;-1081.000;-1017.000
380.143; -108.200;-1097.000;-1056.000
380.273; -100.800; -985.000; -861.000
380.403;   -7.800; -344.000; -257.000
380.533;  -37.350; -651.000; -664.000
380.663;   69.275;  173.000;  128.000
380.793;  -97.925;-1027.000;-1074.000
380.923;  -25.625; -103.000;  -34.000
381.053;  -84.950; -613.000; -623.000
381.183;  -36.425; -106.000; -248.000
381.313;   21.025; -656.000; -470.000
381.443;   29.975; -692.000; -473.000
381.573;  171.450; -402.000; -409.000
381.703;  247.600;-1249.000;-1095.000
381.833; -121.225;-1454.000;-1336.000
381.963;  100.625; -134.000;  -87.000
382.093; 1332.375; -925.000; -909.000
382.223;  417.225; -713.000; -602.000
382.353;  -31.100; -801.000; -608.000
382.482;  339.175;-1091.000; -964.000
382.612;  731.300; -872.000; -644.000
382.742;  421.925; -695.000; -622.000
382.872;  234.600; -565.000; -551.000
383.002;   57.200;  347.000; -132.000
383.131;  -16.675; -226.000; -160.000
383.261;  -56.325; -706.000; -768.000
383.391;  285.025; -552.000; -377.000
383.521; 3307.950;  451.000;  263.000
383.650;  809.500; -947.000; -904.000
383.780;  -37.800; -783.000; -656.000
383.910;  107.450;  880.000;  802.000
384.039;    9.125; -794.000; -656.000
384.169;  192.975;-1205.000;-1017.000
384.299;  -21.450; -650.000; -662.000
384.428; -106.300; -764.000; -680.000
384.558;  -48.150; -308.000; -275.000
384.687;  -55.225; -414.000; -334.000
384.817;   -3.500;   75.000;   -2.000
384.947;   11.600; -234.000; -141.000
385.076;  267.025;  982.000;  912.000
385.206;   99.400;  369.000;  480.000
385.335;  -46.275; -549.000; -417.000
385.465;  -80.150; -655.000; -663.000
385.594;  122.550;  -53.000;  -44.000
385.724;  412.800; -868.000; -838.000
385.853;  115.425; -296.000; -270.000
385.982; 1279.675; -743.000; -787.000
386.112; 2051.600;-1052.000; -871.000
386.241;  147.950; -307.000; -312.000
386.371;    2.950; -174.000;  -87.000
386.500;   -9.450; -825.000; -789.000
386.629;   13.250; -874.000; -817.000
386.759;   72.225;  -43.000;   68.000
386.888;  -18.700; -170.000; -250.000
387.017;  -70.950; -648.000; -620.000
387.147; -105.125; -771.000; -798.000
387.276;   -5.600; -410.000; -397.000
387.405;   -2.350; -398.000; -342.000
387.535;  -42.750; -452.000; -361.000
387.664;  -73.725; -692.000; -620.000
387.793;   42.125; -198.000; -113.000
387.922;  472.225;  255.000;  200.000
388.052;   17.275; -576.000; -423.000
388.181;   -1.450; -342.000; -472.000
388.310;   -9.750; -889.000; -710.000
388.439;  -56.975; -749.000; -742.000
388.568;  182.150;  365.000;  244.000
388.697;  979.150; -756.000; -653.000
388.826;  187.400; -768.000; -666.000
388.956;   52.875; -285.000; -307.000
389.085;  -23.900; -347.000; -287.000
389.214; -112.400; -842.000; -872.000
389.343;  -64.875; -645.000; -413.000
389.472;  390.825;  126.000;  149.000
389.601;  526.400;   91.000;    0.000
389.730;    2.275; -568.000; -687.000
389.859;   62.625;  226.000;   46.000
389.988;  172.075; -423.000; -408.000
390.117;  121.575; -168.000; -146.000
390.246;  -22.975; -331.000; -320.000
390.375;   91.100; -673.000; -626.000
390.504;  -72.150; -703.000; -621.000
390.633;  -97.700; -672.000; -726.000
390.761;  -78.750; -732.000; -645.000
390.890;    7.875;   -4.000; -130.000
391.019;  -40.500; -421.000; -441.000
391.148; -123.300; -826.000; -855.000
391.277;  -75.925; -576.000; -493.000
391.406;  -92.075; -821.000; -805.000
391.534;   18.825;  574.000; -301.000
391.663;  -71.550; -583.000; -645.000
391.792;  -91.750; -673.000; -701.000
391.921;   86.375;   -3.000;   15.000
392.050;  162.025; -287.000; -228.000
392.178;  -59.425;-1206.000;-1061.000
392.307;  126.300; -758.000; -712.000
392.436;   70.275; -427.000; -641.000
392.564;   18.275;  166.000;   -6.000
392.693;  -84.725; -860.000; -682.000
392.822;  174.350; -529.000; -534.000
392.950;   72.425; -880.000; -714.000
393.079;  296.875; -188.000; -328.000
393.208;   14.300; -488.000; -511.000
393.336;  -19.250; -170.000; -145.000
393.465;  -54.550; -317.000; -199.000
393.593;   -1.575;   62.000;   79.000
393.722; -154.600;-1121.000; -916.000
393.850;  -39.075; -188.000;  -61.000
393.979; -165.825; -926.000; -805.000
394.107;  -60.975; -517.000; -537.000
394.236;  -38.200; -570.000; -507.000
394.364;  195.500;  383.000;  206.000
394.493;  336.900; -911.000; -767.000
394.621;   -8.500; -955.000; -916.000
394.750;  728.925; -873.000; -923.000
394.878; 2953.000; -247.000; -149.000
395.007; 4064.300; -721.000; -807.000
395.135;  305.300; -790.000; -721.000
395.263;  -75.225;-1038.000;-1040.000
395.392;   -8.075;  -25.000; -107.000
395.520; -131.350; -818.000; -679.000
395.648; -101.450; -865.000; -915.000
395.777;  -23.175; -366.000; -405.000
395.905;  -56.825; -449.000; -564.000
396.033;    1.425;  217.000;  172.000
396.162;  520.800; -399.000; -453.000
396.290;  493.450;  -17.000;   -2.000
396.418;   71.750; -555.000; -514.000
396.546;  -74.075; -571.000; -466.000
396.674;  -99.700; -850.000; -878.000
396.803;    0.725;  -72.000;  -23.000
396.931;   67.900; -179.000; -199.000
397.059;   32.500;-1026.000; -989.000
397.187; -128.350;-1026.000; -975.000
397.315; -139.200; -884.000; -649.000
397.443;  -98.175; -592.000; -443.000
397.572;  -99.400; -578.000; -424.000
397.700;  -24.025; -607.000; -614.000
397.828;  -10.275;  120.000;  -90.000
397.956;  -54.400; -508.000; -478.000
398.084;  -70.000; -767.000; -626.000
398.212;   21.100;  137.000;  124.000
398.340;   -0.875;  -56.000;  159.000
398.468;   10.850; -390.000; -169.000
398.596; -138.725; -993.000; -953.000
398.724; -113.400; -762.000; -767.000
398.852; -169.850;-1024.000; -976.000
398.980;  -72.050; -560.000; -560.000
399.108;  -55.700; -982.000; -735.000
399.236;   12.550;   13.000;    8.000
399.363;   10.250;  222.000;  196.000
399.491;  -79.525; -404.000; -398.000
399.619; -127.800; -829.000; -800.000
399.747; -107.750; -859.000; -771.000
399.875;   80.325;  220.000;  234.000
400.003;  -52.100; -359.000; -284.000
400.130;  -99.625; -421.000; -341.000
400.258;  -28.400;  -83.000;   38.000
400.386;  -61.625; -352.000; -168.000
400.514;  -60.400; -526.000; -587.000
400.641;  -89.825; -928.000; -802.000
400.769; -160.225; -979.000; -888.000
400.897; -115.350; -838.000; -793.000
401.025;  -14.750; -166.000; -152.000
401.152;   -3.850;  220.000;   38.000
401.280;  -70.375; -430.000; -429.000
401.408; -120.650; -712.000; -576.000
401.535; -119.100; -735.000; -758.000
401.663; -183.275;-1134.000;-1054.000
401.790;  -93.850; -514.000; -525.000
401.918;   31.975;  436.000;  405.000
402.046;  -33.775;  134.000;  122.000
402.173;  -30.425;  -18.000;    7.000
402.301;  -74.600; -519.000; -397.000
402.428;   26.625;  528.000;  383.000
402.556; -138.375;-1188.000; -913.000
402.683;  -40.325;  -20.000;   -1.000
402.811;  -20.825;  -37.000; -206.000
402.938;   -3.150;   20.000;   27.000
403.066;  174.550; -574.000; -558.000
403.193;  331.250;  299.000;  239.000
403.321;  249.450; -396.000; -574.000
403.448;  311.000;   83.000;   27.000
403.575;  130.625;  -90.000;  -46.000
403.703;  -85.675; -732.000; -557.000
403.830;  -77.850; -531.000; -496.000
403.957; -140.150;-1117.000;-1023.000
404.085;   -2.750;  -61.000; -172.000
404.212;  106.575;  -50.000;   63.000
404.339;  261.425; -566.000; -306.000
404.467; 5834.075; -612.000; -524.000
404.594; 3836.475; -287.000; -227.000
404.721;  885.300; -869.000; -764.000
404.848;   75.625; -113.000; -202.000
404.976; -105.250; -856.000; -783.000
405.103;  -23.150;  -14.000;  -82.000
405.230;  -19.575;  190.000;  226.000
405.357;   18.925;  117.000;   44.000
405.484;  271.350;  -49.000;    5.000
405.612;   60.675; -548.000; -563.000
405.739;  -57.150; -488.000; -243.000
405.866;   68.700;  669.000;  385.000
405.993;  -45.300; -398.000; -102.000
406.120; -138.225; -801.000; -887.000
406.247;  -52.375; -323.000; -342.000
406.374;  391.850;  540.000;  629.000
406.501;   87.250; -632.000; -702.000
406.628;  -78.625; -621.000; -589.000
406.755; -101.900; -803.000; -620.000
406.882;  -44.600; -228.000; -277.000
407.009; -116.450; -719.000; -628.000
407.136;   24.850; -480.000; -401.000
407.263;  107.100; -939.000; -829.000
407.390;  -73.775; -692.000; -614.000
407.517; -168.650;-1139.000;-1187.000
407.644;  -67.575; -332.000; -256.000
407.771; -133.050; -249.000; -287.000
407.898;   -2.825;  168.000;  328.000
408.025;  -76.925; -421.000; -313.000
408.151;  -28.050;   82.000;  153.000
408.278;  -68.675; -267.000; -216.000
408.405; -120.575; -931.000; -899.000
408.532;  -65.850; -549.000; -542.000
408.659; -124.825; -677.000; -648.000
408.785; -195.600;-1298.000;-1170.000
408.912;  -69.250; -412.000; -296.000
409.039; -107.600; -610.000; -686.000
409.166; -116.825; -591.000; -555.000
409.292; -112.700; -571.000; -534.000
409.419; -132.025; -665.000; -649.000
409.546;  -93.325; -431.000; -192.000
409.672; -116.225; -713.000; -545.000
409.799;  -29.500;  -36.000;   34.000
409.926;  -55.575; -180.000; -179.000
410.052; -183.525;-1127.000;-1091.000
410.179;  -64.900; -368.000; -392.000
410.305;  -85.175; -375.000; -493.000
410.432;  -48.400; -220.000; -333.000
410.558;  -87.850; -305.000; -380.000
410.685; -121.000; -688.000; -431.000
410.812;  -96.575; -409.000; -588.000
410.938; -134.575; -964.000; -808.000
411.065;  -98.375; -671.000; -645.000
411.191;  -29.725; -189.000; -174.000
411.317; -111.575; -823.000; -742.000
411.444;  -69.275; -317.000; -246.000
411.570;  -77.700; -339.000; -294.000
411.697; -145.225; -758.000; -752.000
411.823; -173.250; -989.000; -999.000
411.949;  -40.900;  -56.000;   17.000
412.076; -117.525; -539.000; -519.000
412.202; -131.350; -758.000; -757.000
412.329; -128.275; -798.000; -752.000
412.455; -123.300; -821.000; -657.000
412.581;  -31.850;  -15.000;  172.000
412.707;  -78.575; -540.000; -457.000
412.834;    3.875;  156.000;  219.000
412.960;  -91.175; -785.000; -784.000
413.086;  -97.175; -743.000; -701.000
413.212;  138.400;  604.000;  578.000
413.339;  -73.525; -685.000; -701.000
413.465;  -10.400; -364.000; -310.000
413.591;  -84.900; -757.000; -474.000
413.717;  -76.200; -358.000; -366.000
413.843; -128.850; -839.000; -861.000
413.969;  -67.025;  -47.000; -292.000
414.096; -109.275; -679.000; -679.000
414.222;   -3.025;  -33.000;   85.000
414.348;  -33.350; -652.000; -385.000
414.474;   83.225;   38.000;  -52.000
414.600;  -10.000; -126.000; -144.000
414.726;  -26.575;  -96.000;  -55.000
414.852;  -51.325; -365.000; -342.000
414.978;   28.875;  104.000;  -18.000
415.104;   49.300;   38.000;   80.000
415.230;   10.300; -329.000; -330.000
415.356;   43.125; -409.000; -514.000
415.482;  180.975;   13.000;  -35.000
415.608;  292.100; -247.000; -323.000
415.734;  956.000;   67.000;   38.000
415.860;19942.075; -875.000; -767.000
415.986;15024.750; -685.000; -607.000
416.111; 1290.925; -798.000; -652.000
416.237;  271.850; -424.000; -571.000
416.363; 1115.375; -765.000; -733.000
416.489; 4307.500; -324.000; -251.000
416.615;  500.625; -707.000; -742.000
416.741;  -27.300; -677.000; -784.000
416.866;  -87.400; -673.000; -736.000
416.992; -117.700; -801.000; -818.000
417.118;  -25.500;  -41.000;  -80.000
417.244;  -76.725; -798.000; -531.000
417.369;  -80.600; -801.000; -612.000
417.495;  -16.500; -325.000; -254.000
417.621;  -86.275;-1015.000; -803.000
417.746;   -1.450; -579.000; -572.000
417.872;   55.950; -254.000; -144.000
417.998;   51.350; -515.000; -530.000
418.123; 1023.925;-1073.000; -845.000
418.249; 5518.900; -512.000; -601.000
418.374;  789.525; -916.000; -824.000
418.500;  115.550; -383.000; -482.000
418.626;  120.275;   70.000;  -59.000
418.751;  108.975; -549.000; -448.000
418.877;  195.700; -637.000; -643.000
419.002; 1797.500; -688.000; -560.000
419.128;12783.100; -930.000; -721.000
419.253; 3253.200; -967.000; -837.000
419.379;  445.200; -391.000; -338.000
419.504;  389.150;  325.000;  415.000
419.629;  528.775; -393.000; -212.000
419.755; 3606.250; -317.000; -254.000
419.880;21705.425;  -98.000;   67.000
420.006;11583.150; -280.000; -221.000
420.131;30069.925; -662.000; -775.000
420.256; 4511.675; -315.000; -316.000
420.382;  585.775; -665.000; -687.000
420.507;   77.175; -649.000; -778.000
420.632;  106.725; -337.000; -339.000
420.758;  241.200; -251.000; -425.000
420.883;  -90.450; -876.000; -672.000
421.008; -105.525; -775.000; -619.000
421.133;  -76.550; -509.000; -467.000
421.259;  -61.700; -325.000; -259.000
421.384; -109.550; -834.000; -693.000
421.509;  -84.775;-1052.000; -862.000
421.634; 1033.625; -936.000; -820.000
421.759;  457.600; -359.000; -327.000
421.885;  -56.250; -717.000; -656.000
422.010;  -74.525; -673.000; -542.000
422.135; -147.775; -695.000; -727.000
422.260;   37.575;  340.000;  280.000
422.385;  -34.950;   12.000;  -98.000
422.510;  -10.125;  151.000;  -26.000
422.635;   26.500;  -87.000;  -43.000
422.760;   85.900; -766.000; -791.000
422.885;   41.600;  -57.000;  -80.000
423.010;  -36.175; -112.000; -169.000
423.135;  -96.750; -481.000; -561.000
423.260;  -21.625; -150.000; -245.000
423.385;   55.175;  476.000;  222.000
423.510;   12.550;   71.000;  -22.000
423.635;   63.350;  133.000;   45.000
423.760;   54.675;  383.000;  328.000
423.885;   58.425;  336.000;  391.000
424.010;   -6.525;  -68.000;  -13.000
424.135;  -11.500;    5.000;  -33.000
424.259;  -74.100; -654.000; -457.000
424.384;  -70.000; -279.000; -272.000
424.509;  -28.375; -260.000; -186.000
424.634;  -85.650; -761.000; -623.000
424.759;  -32.975; -688.000; -544.000
424.883;   -8.500; -506.000; -527.000
425.008;  138.700; -502.000; -410.000
425.133; 2012.650; -679.000; -653.000
425.258;  994.325; -517.000; -381.000
425.382;  961.600; -867.000; -774.000
425.507; 2562.425; -487.000; -543.000
425.632;  427.600; -802.000; -663.000
425.756;  469.200; -256.000; -146.000
425.881; 6600.725; -831.000; -857.000
426.006;18545.100; -604.000; -355.000
426.130; 2982.175; -696.000; -508.000
426.255;  389.675; -611.000; -491.000
426.379;  166.350; -189.000; -577.000
426.504;  367.575;  660.000;  544.000
426.629; 4003.700; -519.000; -466.000
426.753; 2890.200;   64.000;  -46.000
426.878;  321.400; -252.000; -288.000
427.002;  149.400; -651.000; -668.000
427.127; 1549.050;  -35.000; -158.000
427.251;11545.150;  372.000;  401.000
427.375; 3451.075; -191.000; -173.000
427.500; 2197.150; -616.000; -610.000
427.624;  772.350; -234.000; -400.000
427.749;   87.525; -216.000; -225.000
427.873;  -38.500; -499.000; -412.000
427.997;  -45.300; -222.000; -230.000
428.122;   64.975;  795.000;  703.000
428.246;   61.550;  433.000;  434.000
428.371; -123.050; -869.000; -773.000
428.495; -104.825; -624.000; -646.000
428.619;  -36.275; -186.000; -117.000
428.743;   15.175;   65.000;  132.000
428.868;   -1.950; -732.000; -643.000
428.992; 1299.525; -219.000; -326.000
429.116;  539.725; -329.000; -357.000
429.240;  262.275;  419.000;  426.000
429.365;  -28.250; -454.000; -574.000
429.489;  -47.075; -638.000; -647.000
429.613;   26.500; -236.000; -177.000
429.737;   12.675; -563.000; -432.000
429.861;  273.525; -247.000; -133.000
429.985; 5518.625; -425.000; -305.000
430.109; 6386.100; -770.000; -908.000
430.234;  745.025;   76.000;  -50.000
430.358;   83.775; -250.000; -160.000
430.482;  -76.925; -672.000; -564.000
430.606;  -56.875; -655.000; -375.000
430.730;    3.075; -437.000; -388.000
430.854;   95.875; -909.000; -835.000
430.978;  -77.875; -795.000; -764.000
431.102;  -88.575; -499.000; -422.000
431.226; -121.975; -874.000; -815.000
431.350;   40.800;  345.000;  422.000
431.474;  -97.100; -661.000; -373.000
431.597; -151.700;-1060.000; -848.000
431.721;  -78.175; -276.000; -267.000
431.845; -133.575; -704.000; -472.000
431.969;  -88.650; -304.000; -349.000
432.093;  -95.050; -395.000; -317.000
432.217;  -22.425;   32.000;   82.000
432.341; -102.350; -523.000; -518.000
432.464;  -15.250;   96.000;   40.000
432.588;  181.575; -401.000; -329.000
432.712;  103.100;  -52.000;  -52.000
432.836;   54.750;  213.000;  263.000
432.959;  -15.625; -372.000; -311.000
433.083;   81.125;   11.000;    2.000
433.207;  352.700;  285.000;  930.000
433.330; 5086.475; -391.000; -200.000
433.454; 6503.725; -654.000; -638.000
433.578; 3688.875;  583.000;  278.000
433.701;  698.325; -623.000; -675.000
433.825;  123.975; -292.000; -299.000
433.949;  145.025;   28.000;  -72.000
434.072;   29.650; -410.000; -323.000
434.196;  -25.850; -309.000; -117.000
434.319; 3638.050;25482.000;25124.000
434.443;  705.750; -656.000; -603.000
434.566; 2734.250;  281.000;   62.000
434.690;  470.875; -637.000; -383.000
434.813;   52.200; -251.000; -173.000
434.937;  -72.575; -569.000; -696.000
435.060;  -55.875; -423.000; -332.000
435.184;  251.975; -492.000; -217.000
435.307;  150.425;  159.000;  102.000
435.431;  -18.975;  -40.000;   24.000
435.554;  -82.025; -399.000; -240.000
435.677;  -86.975; -350.000; -258.000
435.801;  -35.750;  -25.000;   49.000
435.924;  -34.075;    1.000;  -67.000
436.048; -114.925;-1019.000; -732.000
436.171;  -78.075; -240.000;  -66.000
436.294;  -28.400; -248.000; -229.000
436.417;   89.275; -963.000; -849.000
436.541;  -83.675; -814.000; -840.000
436.664;  -46.025; -242.000; -316.000
436.787;  -36.900;   13.000;  113.000
436.910; -121.200; -792.000; -422.000
437.034;   -0.750;  142.000;  143.000
437.157;   33.875;  -11.000;    0.000
437.280;  -68.025; -392.000; -292.000
437.403;  -99.750; -982.000; -869.000
437.526;  518.975; -903.000; -865.000
437.649; 2034.000; -505.000; -332.000
437.772;  289.825; -692.000; -540.000
437.896;  110.650;  700.000;  544.000
438.019; -104.575; -758.000; -503.000
438.142;  -85.875; -596.000; -506.000
438.265;  -48.275; -639.000; -670.000
438.388;  484.925; -520.000; -410.000
438.511;   82.900; -597.000; -394.000
438.634;  -60.525; -247.000; -125.000
438.757; -148.275; -693.000; -619.000
438.880;  -33.100;  -34.000;  -57.000
439.003;  -76.250; -417.000; -437.000
439.126;  -78.075; -287.000; -167.000
439.248;  -69.625;  -98.000; -139.000
439.371;  -53.500;    9.000;  -53.000
439.494;   29.700;  510.000;  439.000
439.617;  -55.250;   65.000;  -88.000
439.740; -176.200; -968.000; -816.000
439.863; -151.550; -755.000; -595.000
439.986; -121.100; -476.000; -431.000
440.108;  -51.475; -161.000; -112.000
440.231; -161.725; -950.000; -836.000
440.354;  -38.300;  -64.000; -150.000
440.477;    0.550; -566.000; -542.000
440.599;  -15.550; -200.000; -225.000
440.722; -122.250; -709.000; -586.000
440.845;   64.175;  751.000;  928.000
440.968; -109.900; -415.000; -311.000
441.090;  -72.925; -199.000;  -33.000
441.213; -170.600;-1021.000; -825.000
441.336;  -63.475; -159.000;   -5.000
441.458;  -75.025; -549.000; -396.000
441.581;  -98.275; -628.000; -629.000
441.703;  -69.350; -152.000;   13.000
441.826; -125.925; -557.000; -400.000
441.948;  -51.900;   56.000;   51.000
442.071;   16.875;  555.000;  424.000
442.193; -125.300; -531.000; -485.000
442.316;   13.050;  152.000;   97.000
442.438;   31.775; -233.000;  -10.000
442.561;   52.975;  272.000;  262.000
442.683;  445.275; -809.000; -522.000
442.806; 1035.350;   -8.000;   74.000
442.928;    6.400; -859.000; -604.000
443.051;  -79.025; -577.000; -373.000
443.173;  -91.450; -341.000; -339.000
443.295;  -85.250; -263.000; -371.000
443.418;  -63.525; -321.000;  -29.000
443.540;  -10.250; -106.000;   -4.000
443.662; -114.575; -563.000; -465.000
443.785;  -24.750;  335.000;  199.000
443.907;  -90.700; -362.000; -208.000
444.029; -125.200; -767.000; -494.000
444.152; -132.375; -644.000; -554.000
444.274;  -31.600;  -18.000;  -24.000
444.396; -112.300; -461.000; -221.000
444.518; -133.175; -691.000; -454.000
444.640; -106.000; -268.000; -111.000
444.763;  -33.850;  388.000;  249.000
444.885; -130.100; -432.000; -392.000
445.007;  -37.125;   35.000;   86.000
445.129; -120.225; -610.000; -515.000
445.251; -103.150; -372.000; -439.000
445.373; -133.700; -537.000; -386.000
445.495;    6.000;  242.000;  350.000
445.617;   44.100;  853.000;  753.000
445.739;  -69.275; -215.000;  -97.000
445.861;  -40.875; -245.000; -112.000
445.984;  -51.525; -267.000; -101.000
446.105;  174.375; -418.000; -251.000
446.227;  556.425; -176.000;  -19.000
446.349;    4.200; -358.000; -249.000
446.471; -100.400; -615.000; -448.000
446.593;  -57.625; -316.000;   19.000
446.715;  -18.050;  -67.000;   41.000
446.837;   56.550;  697.000;  832.000
446.959; -106.525; -457.000; -478.000
447.081; -130.525; -628.000; -518.000
447.203;   44.725;  862.000;  834.000
447.325;  -90.925; -270.000;   42.000
447.446;  -12.375;  286.000;  530.000
447.568; -138.200; -921.000; -803.000
447.690;  -83.550; -236.000; -245.000
447.812; -154.650; -798.000; -519.000
447.933;  -24.925;  155.000;  127.000
448.055;  -66.900; -306.000; -261.000
448.177;  120.450;   31.000;   79.000
448.299;   75.725; -935.000; -727.000
448.420;   28.750;  -25.000;  159.000
448.542;  -51.950;   -3.000;   33.000
448.664;  -29.700;  109.000;  322.000
448.785;  -46.225;  265.000;   83.000
448.907;  -81.125; -614.000; -353.000
449.028;  -54.550; -771.000; -471.000
449.150;   53.300;  492.000;  589.000
449.272; -178.925;-1044.000; -913.000
449.393;   20.675;  612.000;  694.000
449.515; -146.225; -634.000; -581.000
449.636;  -77.825; -264.000; -155.000
449.758;   80.900;  763.000;  622.000
449.879;  -98.550; -498.000; -396.000
450.001;  -77.825; -149.000;  -49.000
450.122;  -36.825;  -95.000;  162.000
450.244;  -28.400;   37.000;  364.000
450.365;  -90.500; -495.000; -301.000
450.486;  -30.800;   80.000;  268.000
450.608;   28.750;  393.000;  326.000
450.729;   58.375;  578.000;  645.000
450.850;    4.525; -574.000; -466.000
450.972;  747.275; -552.000; -389.000
451.093; 5054.375;  190.000;  588.000
451.214; 2278.625; -516.000; -337.000
451.336;  406.900;  773.000;  579.000
451.457;   64.050;  264.000;  393.000
451.578;  -43.950; -118.000;  -74.000
451.699; -120.475; -546.000; -540.000
451.821;  -73.000; -284.000;  -50.000
451.942;   -4.475;  278.000;  285.000
452.063;   32.400;  228.000;  419.000
452.184;  547.750;  -54.000;  -49.000
452.305; 1122.625;  103.000;  170.000
452.427;  150.450; -549.000; -301.000
452.548;  -20.550;   23.000;   79.000
452.669;  -44.375; -257.000;  -89.000
452.790;  -44.700;    3.000;  -18.000
452.911;  -11.025;  195.000;  259.000
453.032;  -73.050; -289.000;  -60.000
453.153;  -51.150;  -29.000;   81.000
453.274;   58.875;  737.000;  868.000
453.395;  -55.850;  -51.000;  175.000
453.516;  120.050; 1317.000; 1388.000
453.637;  -73.350; -205.000; -150.000
453.758;  -60.725;   15.000;   69.000
453.879; -116.725; -462.000; -250.000
454.000;   63.700; 1086.000;  948.000
454.121; -114.100; -554.000; -326.000
454.242; -127.550; -599.000; -383.000
454.362;  -65.300;  -99.000;  114.000
454.483;  -37.875; -309.000; -229.000
454.604;   51.300;  512.000;  580.000
454.725; -138.100; -627.000; -555.000
454.846; -125.375; -474.000; -406.000
454.967;  -29.575;  230.000;  539.000
455.087;  -42.525;  179.000;  153.000
455.208;    9.025;  554.000;  856.000
455.329;  -63.425;  -22.000;   82.000
455.450;   24.125;  473.000;  633.000
455.570;  -82.650; -234.000; -211.000
455.691;  -42.050;  201.000;  407.000
455.812; -109.175; -270.000;  -92.000
455.932;  -72.225;  107.000;  -97.000
456.053;  -80.675;   36.000;   24.000
456.173; -110.175; -433.000; -355.000
456.294; -132.200; -476.000; -303.000
456.415;  -70.050;  -73.000;   70.000
456.535;  -39.900;  297.000;  273.000
456.656;  -46.675;  132.000;  240.000
456.776;  -78.000;    3.000;  298.000
456.897;   -7.050;  308.000;  513.000
457.017;  -72.475; -153.000;   -3.000
457.138; -119.800; -402.000; -249.000
457.258;  -14.725;  263.000;  224.000
457.379;  -14.975;  509.000;  521.000
457.499;  -33.125;  443.000;  432.000
457.620; -126.050; -407.000; -231.000
457.740;  -89.950; -132.000;  -11.000
457.860;  -70.575;   87.000;   44.000
457.981;  -54.175;  132.000;  124.000
458.101;  -83.275;  -89.000;   40.000
458.221;  -25.950;  336.000;  402.000
458.342;  -71.850;   -4.000;  -37.000
458.462;   42.425;  617.000;  352.000
458.582;  -30.450; -302.000; -294.000
458.703;   -1.000;  303.000;  154.000
458.823;  -22.425;   22.000;  163.000
458.943;   19.650;  341.000;  467.000
459.063;  -18.500; 1124.000;  192.000
459.183;  -31.050;  328.000;  313.000
459.304;   10.250;  315.000;  517.000
459.424;  -77.075; -246.000;  -89.000
459.544;  310.525;  388.000;  764.000
459.664;  860.475;  499.000;  506.000
459.784;  327.525; 1004.000; 1175.000
459.904;   66.650;  867.000;  744.000
460.024;   69.625;  867.000;  684.000
460.144;    6.250;  449.000;  554.000
460.264;  -17.700;  515.000;  327.000
460.385;  -85.750; -145.000; -119.000
460.505;   32.575;  905.000;  858.000
460.625;  -87.050;  -17.000;  -68.000
460.745;  -25.650;  396.000;  541.000
460.864;  -47.950;  153.000;  469.000
460.984;    0.750;  499.000;  573.000
461.104;  132.925; 1656.000; 1775.000
461.224;   13.575;  657.000;  650.000
461.344;  -34.275;  431.000;  360.000
461.464;  -40.425;  258.000;  513.000
461.584;  -25.125;  283.000;  466.000
461.704;  -53.175;   58.000;  108.000
461.824;  -55.150;  238.000;  259.000
461.943;  -54.125;  191.000;  130.000
462.063;  -76.900;    2.000;  324.000
462.183;   26.950;  639.000;  717.000
462.303;  109.850; 1678.000; 1230.000
462.422;   27.675;  781.000;  840.000
462.542;  -35.400;  271.000;  391.000
462.662;   36.425;  353.000;  380.000
462.782;  230.400;  833.000;  572.000
462.901;  472.825;  545.000;  717.000
463.021;  284.400; 1702.000; 1638.000
463.141;  -12.050;  337.000;  770.000
463.260;  -18.625;  614.000;  474.000
463.380;    6.825;  902.000;  884.000
463.499;  -42.200;  342.000;  332.000
463.619;  -31.775;  581.000;  559.000
463.738;  130.450; 1644.000;  903.000
463.858;   16.350;  657.000;  811.000
463.978;  -38.450;  542.000;  396.000
464.097;   51.775;  921.000; 1114.000
464.217;  111.925; 1196.000; 1143.000
464.336;  117.975; 1068.000; 1130.000
464.455;  -39.650;  328.000;  659.000
464.575;   48.675;  597.000;  602.000
464.694;  158.750; 1204.000; 1179.000
464.814;  110.825; 1190.000; 1138.000
464.933;   80.300; 1095.000; 1027.000
465.052;   96.250; 1412.000; 1054.000
465.172;   84.325;  922.000;  799.000
465.291;  130.950; 1376.000; 1320.000
465.410;   17.350;  462.000;  735.000
465.530;   78.450; 1355.000; 1310.000
465.649;   69.850; 1209.000; 1273.000
465.768;  120.525; 1673.000; 1508.000
465.888;   35.175;  941.000; 1174.000
466.007;   90.650; 1335.000; 1440.000
466.126;  -16.525;  721.000;  641.000
466.245;   47.525; 1176.000; 1187.000
466.364;   21.000;  950.000; 1060.000
466.484;   43.375; 1024.000; 1213.000
466.603;   29.050; 1101.000; 1222.000
466.722;  114.350; 1490.000; 1769.000
466.841;   95.900; 1151.000; 1401.000
466.960;   28.200; 1069.000;  972.000
467.079;  144.350; 1971.000; 1786.000
467.198;   43.475; 1238.000; 1181.000
467.317;   96.600; 1768.000; 1162.000
467.436;   81.150; 1709.000; 1261.000
467.555;  130.750; 1796.000; 1746.000
467.674;   79.675; 1227.000; 1329.000
467.793;   45.025; 1376.000; 1374.000
467.912;   86.725; 1658.000; 1539.000
468.031;  140.725; 2038.000; 1930.000
468.150;  136.900; 1842.000; 1837.000
468.269;  184.125; 2313.000; 2090.000
468.388;  189.550; 2168.000; 2339.000
468.507;  259.300; 2884.000; 2903.000
468.626;  262.025; 2555.000; 2541.000
468.744;  127.925; 2018.000; 2174.000
468.863;  207.475; 2312.000; 2523.000
468.982;  100.375; 1503.000; 1555.000
469.101;  222.475; 2788.000; 2692.000
469.220;  150.050; 2333.000; 2176.000
469.338;  232.375; 2935.000; 3051.000
469.457;  211.550; 2719.000; 2545.000
469.576;  343.575; 3953.000; 3784.000
469.695;  241.625; 2877.000; 3066.000
469.813;  426.100; 4148.000; 4192.000
469.932;  402.025; 4255.000; 4485.000
470.051;  392.725; 4075.000; 4161.000
470.169;  842.350; 4470.000; 4338.000
470.288; 1487.050; 4700.000; 4809.000
470.406;  895.100; 5059.000; 5194.000
470.525;  628.550; 6101.000; 5787.000
470.644;  639.025; 6847.000; 6794.000
470.762;  789.600; 8397.000; 7873.000
470.881;  884.475; 8651.000; 8464.000
470.999; 1013.450; 9685.000; 9151.000
471.118; 1115.375;11174.000;10711.000

