
Integration time [ms]: 100.000
Averaging Nr. [scans]: 40
Smoothing Nr. [pixels]: 0
Data measured with spectrometer [name]: 2101012U2
Wave   ;Sample   ;Dark     ;Reference
[nm]   ;[counts] ;[counts] ;[counts] 

197.733;   59.500;  516.000;  404.000
197.879;  -66.725; -610.000; -634.000
198.025;  -40.375; -475.000; -420.000
198.171;  -78.400; -602.000; -612.000
198.317;  -29.250; -401.000; -316.000
198.463;  -53.600; -655.000; -404.000
198.609;   32.750;  181.000; -137.000
198.755;  -69.925; -644.000; -410.000
198.901;  -56.125; -505.000; -424.000
199.047;  -61.650; -615.000; -488.000
199.193;  -31.200; -230.000; -468.000
199.339;  -28.825; -222.000; -369.000
199.485;   34.750;  330.000;  271.000
199.631;   13.750;  227.000;  310.000
199.777;  -47.975; -466.000; -398.000
199.923;  -57.575; -610.000; -424.000
200.069;   -7.675; -141.000;  -58.000
200.215;   54.450;  128.000;  453.000
200.361;   46.275;  243.000;  477.000
200.507;  -66.575; -600.000; -373.000
200.653;  -30.700; -371.000; -194.000
200.798;  -30.350; -215.000; -125.000
200.944;   -1.575; -146.000;  -41.000
201.090;   39.575;   61.000;  222.000
201.236;  -10.425; -116.000; -158.000
201.382;  124.700;  874.000;  903.000
201.528;    2.600;  -58.000;  -48.000
201.674;  -48.375; -386.000; -293.000
201.819;  -62.875; -540.000; -439.000
201.965;  -73.225; -699.000; -447.000
202.111;  -17.400; -273.000; -226.000
202.257;  -31.000; -250.000; -238.000
202.402;   -6.700;   13.000;  -36.000
202.548;  -13.050; -169.000; -116.000
202.694;   79.725;  410.000; -183.000
202.840;  -65.050; -603.000; -531.000
202.985;  -65.675; -681.000; -639.000
203.131;  -97.675; -832.000; -666.000
203.277;  -27.350; -199.000; -262.000
203.423;  -46.425; -434.000; -520.000
203.568;  -43.175; -462.000; -237.000
203.714;  -60.000; -535.000; -542.000
203.860;  -64.625; -682.000; -641.000
204.005;   15.425;  112.000;  167.000
204.151;   65.775;  561.000;  556.000
204.296;  -46.375; -354.000; -221.000
204.442;  -56.050; -600.000; -547.000
204.588;  -83.575; -592.000; -579.000
204.733;   10.500;  178.000;  168.000
204.879; -115.950;-1018.000; -822.000
205.025;    6.150;  -99.000;  126.000
205.170;    0.175;  -17.000;   94.000
205.316;   72.850;  438.000;  661.000
205.461;  -73.975; -698.000; -554.000
205.607;   74.100;  609.000;  665.000
205.752;  -62.600; -626.000; -551.000
205.898;  -44.850; -501.000; -391.000
206.043;  -56.050; -578.000; -506.000
206.189;  -36.950; -243.000; -285.000
206.334;   66.900;  554.000;  606.000
206.480;   83.275;  409.000;  239.000
206.625;  -70.950; -529.000; -552.000
206.771;  -42.075; -451.000; -373.000
206.916;  -38.950; -210.000; -537.000
207.062;  -64.125; -545.000; -591.000
207.207;  -57.000; -546.000; -443.000
207.353;   47.050;  185.000;  460.000
207.498;    0.000;  196.000;   85.000
207.643;  -46.700; -501.000; -370.000
207.789; -110.400;-1069.000; -910.000
207.934;  -91.050; -665.000; -713.000
208.080;  -15.300; -154.000;   66.000
208.225;   -5.100;  -22.000;  -57.000
208.370;  -75.525; -727.000; -619.000
208.516;  -67.825; -741.000; -487.000
208.661;  -18.075; -127.000;  -69.000
208.806;  -15.050; -165.000; -171.000
208.952; -115.600;-1044.000; -731.000
209.097;   65.750;  378.000;  349.000
209.242;  -37.250; -307.000; -382.000
209.387;   63.525;  392.000;  350.000
209.533;  -38.150; -321.000; -350.000
209.678;   74.550;  472.000;  543.000
209.823;  -44.750; -408.000; -310.000
209.969;  -97.050; -860.000; -757.000
210.114;  -99.425; -907.000; -719.000
210.259; -103.950; -939.000; -889.000
210.404;  -10.475; -171.000;  103.000
210.549;   11.175;  108.000;    3.000
210.695;   -7.525;   -3.000;  -95.000
210.840;   39.525;   94.000;   67.000
210.985;  -53.800; -484.000; -303.000
211.130;   72.625;  268.000;  406.000
211.275;   12.150;  207.000;  199.000
211.420;  -43.675; -300.000; -289.000
211.566;  -53.925; -536.000; -489.000
211.711;   15.750;  218.000;  157.000
211.856;  -54.375; -545.000; -519.000
212.001;   19.200;  151.000;   44.000
212.146;   14.375;  153.000;   49.000
212.291;  -18.150; -210.000; -186.000
212.436;  -14.300; -280.000;   -6.000
212.581;  -84.050; -685.000; -653.000
212.726;  -55.150; -487.000; -538.000
212.871;  -47.875; -552.000; -217.000
213.016; -132.975;-1172.000;-1029.000
213.161;   60.875;  406.000;  291.000
213.306;  -61.025; -435.000; -577.000
213.451;  -69.725; -778.000; -689.000
213.596;  -41.275; -455.000; -347.000
213.741;  -41.875; -448.000; -538.000
213.886;  -76.075; -498.000; -517.000
214.031;   -9.175; -294.000; -124.000
214.176;  -50.725; -408.000; -341.000
214.321;  -23.675; -296.000; -157.000
214.466;  -24.375; -163.000;  -43.000
214.611;    2.550;  -61.000;  -10.000
214.756; -106.400; -948.000; -858.000
214.901;  -10.625; -388.000; -226.000
215.046; -107.200; -797.000; -825.000
215.191;    7.100;  128.000;   35.000
215.336;   -9.625; -157.000;  -19.000
215.480;  -61.600; -684.000; -505.000
215.625;    2.700; -175.000;  -19.000
215.770;  -79.550; -757.000; -662.000
215.915;   -2.300;   -5.000;  -97.000
216.060;   -0.650; -113.000;  -21.000
216.205;  -95.325; -731.000; -779.000
216.349;  -58.400; -470.000; -533.000
216.494; -125.750; -939.000; -867.000
216.639;  -97.825; -823.000; -888.000
216.784;  -65.500; -577.000; -525.000
216.929;   51.075;  392.000;  281.000
217.073;   -7.200; -244.000;  -31.000
217.218;   -0.325;   78.000;  -47.000
217.363;  -61.700; -656.000; -618.000
217.507;  -62.575; -623.000; -588.000
217.652; -115.550; -845.000; -874.000
217.797;  -81.650; -708.000; -659.000
217.942;  -94.025; -856.000; -720.000
218.086;   55.075;  608.000;  539.000
218.231;  -18.400; -174.000;  -26.000
218.376;  -34.075; -337.000; -229.000
218.520;    7.350;  -41.000;   96.000
218.665;  -30.975; -338.000; -204.000
218.810;  -44.600; -275.000; -233.000
218.954;   24.450;  201.000;   35.000
219.099;  -96.800; -713.000; -963.000
219.243;  -51.825; -589.000; -554.000
219.388;  -27.525; -264.000; -136.000
219.532;   -9.075; -116.000; -116.000
219.677;  -64.200; -564.000; -521.000
219.822;   -5.825;   33.000;   89.000
219.966;   18.550;   17.000;  -99.000
220.111;  -27.950; -328.000;  -40.000
220.255;  -93.775; -797.000; -750.000
220.400;   -6.850; -180.000; -146.000
220.544;  -57.325; -516.000; -450.000
220.689;  -50.100; -422.000; -451.000
220.833;  -16.075; -123.000;  -58.000
220.978;  -38.225; -393.000; -563.000
221.122;   31.300;  319.000;  307.000
221.267;  -92.400; -906.000; -837.000
221.411;  -48.700; -478.000; -394.000
221.555;    8.925; -104.000;  -23.000
221.700;  -39.975; -329.000; -222.000
221.844;   38.050;  255.000;  272.000
221.989;  -49.075; -328.000; -311.000
222.133;  -29.325; -289.000; -307.000
222.277;   -6.175;    5.000;   78.000
222.422;   11.300;  227.000;  113.000
222.566;  -21.675; -381.000; -214.000
222.711;  -56.400; -414.000; -479.000
222.855;  -67.675; -643.000; -586.000
222.999;  -74.525; -642.000; -717.000
223.144;  -29.175; -195.000; -194.000
223.288;   47.375;  423.000;  251.000
223.432;   29.700;  184.000;  230.000
223.576;   31.225;  152.000;  -21.000
223.721;   37.325;  364.000;  273.000
223.865;  -46.550; -472.000; -475.000
224.009;  224.775; 1673.000; 1631.000
224.153;  -69.625; -660.000; -671.000
224.298;  -70.650; -531.000; -489.000
224.442;   -3.800;  -74.000;  -33.000
224.586;  -17.825; -169.000; -106.000
224.730;  -89.000; -858.000; -670.000
224.875;  -90.225; -739.000; -688.000
225.019;   26.275;  102.000;  188.000
225.163;   55.150;  208.000;  341.000
225.307;   13.925;   97.000;  -91.000
225.451;   42.725;  360.000;  481.000
225.595;   16.600;  264.000;  176.000
225.739;   -2.950; -170.000;  -94.000
225.884;   -3.300;   86.000;    5.000
226.028;  -90.925; -760.000; -626.000
226.172;  -35.675; -260.000; -273.000
226.316; -103.975; -941.000; -902.000
226.460;  -58.125; -645.000; -493.000
226.604;  -47.325; -406.000; -400.000
226.748;  -88.875; -836.000; -733.000
226.892;  -39.750; -227.000; -181.000
227.036;  -31.375; -537.000; -447.000
227.180;  -49.250; -551.000; -375.000
227.324;  -56.975; -561.000; -580.000
227.468;  -98.500; -819.000; -717.000
227.612;    5.150;  242.000;  -28.000
227.756;  -88.350; -845.000; -698.000
227.900;   54.825;  342.000;  441.000
228.044;  -58.425; -509.000; -290.000
228.188;   60.575;  448.000;  568.000
228.332;  -80.400; -546.000; -472.000
228.476;  -21.925; -223.000; -149.000
228.620;  -27.050; -210.000; -150.000
228.764;   61.625;  431.000;  349.000
228.908;  -22.025; -155.000;   30.000
229.052;  -54.850; -615.000; -528.000
229.195;   -7.225; -172.000;   13.000
229.339;  -26.700; -235.000; -305.000
229.483;  -32.925;    5.000; -162.000
229.627;    0.125; -156.000;  139.000
229.771;  -41.650; -218.000; -294.000
229.915;    0.975;  230.000;   79.000
230.059;  -95.475; -648.000; -663.000
230.202;  -33.825; -370.000; -317.000
230.346;  -21.725; -107.000;  107.000
230.490;  -60.600; -489.000; -521.000
230.634;  -98.325; -736.000; -553.000
230.777;   58.425;  478.000;  509.000
230.921;  -38.025; -450.000; -359.000
231.065;  -37.450; -246.000; -286.000
231.209;   22.875;  261.000;  265.000
231.352;   15.450;   54.000;   40.000
231.496;   12.025;  568.000;  188.000
231.640;  -71.525; -693.000; -621.000
231.783;   61.125;  546.000;  525.000
231.927;  -35.100; -294.000; -365.000
232.071;  -99.250; -962.000; -736.000
232.214; -101.125; -980.000; -764.000
232.358;  -78.550; -683.000; -599.000
232.502;    8.200;  -19.000;    7.000
232.645; -124.375;-1090.000; -927.000
232.789;  -18.625; -257.000; -218.000
232.933;  -33.150; -407.000; -224.000
233.076; -123.525;-1038.000; -897.000
233.220; -104.500; -752.000; -777.000
233.363;  -71.150; -669.000; -477.000
233.507;   53.050;  371.000;  129.000
233.650;  -81.900; -764.000; -834.000
233.794;   49.250;  438.000;  461.000
233.938;  -61.175; -530.000; -362.000
234.081;  -23.825;  -93.000;   31.000
234.225;  -65.950; -631.000; -539.000
234.368; -110.050; -773.000; -723.000
234.512;  -36.950; -385.000; -299.000
234.655;  -93.325; -582.000; -555.000
234.798;  -63.975; -493.000; -466.000
234.942; -128.025; -884.000;-1002.000
235.085;  -72.250; -651.000; -443.000
235.229;  -64.625; -405.000; -410.000
235.372;  -36.425; -247.000; -191.000
235.516;  -46.400; -397.000; -321.000
235.659;   19.925;   92.000;  121.000
235.802;   -9.200;  -38.000;  -22.000
235.946;   34.000;  335.000;  215.000
236.089;   21.400;  126.000;  250.000
236.233;   47.975;  275.000;  298.000
236.376;  -52.075; -235.000; -378.000
236.519;  -48.275; -297.000; -319.000
236.663;  -28.225; -215.000; -117.000
236.806; -113.025;-1029.000; -999.000
236.949;   54.600;  543.000;  431.000
237.092;   46.050;  412.000;  391.000
237.236;  -78.675; -589.000; -502.000
237.379;   64.375;  352.000;  428.000
237.522; -111.975; -879.000; -768.000
237.666;  -20.850; -271.000;   18.000
237.809; -113.775; -851.000; -823.000
237.952;   38.150;  469.000;  271.000
238.095;  -59.475; -447.000; -442.000
238.238;   73.150;  688.000;  700.000
238.382;    9.200;  166.000;  103.000
238.525;  -68.575; -598.000; -511.000
238.668; -131.550;-1060.000; -985.000
238.811;  -78.625; -638.000; -643.000
238.954;  -57.375; -483.000; -334.000
239.097;   83.275;  617.000;  664.000
239.241;   30.575;  394.000;  326.000
239.384;  -28.200; -254.000; -214.000
239.527;  -41.625; -424.000; -224.000
239.670; -128.900; -994.000;-1091.000
239.813;  -98.650; -696.000; -658.000
239.956;   80.775;  579.000;  473.000
240.099;  -90.375; -778.000; -725.000
240.242;   50.900;  428.000;  432.000
240.385;   37.950;  466.000;  450.000
240.528;  -65.400; -706.000; -473.000
240.671;   14.075;  189.000;  134.000
240.814;  -31.750; -441.000; -158.000
240.957; -103.750; -767.000; -578.000
241.100;  -93.050; -779.000; -755.000
241.243; -124.275;-1234.000; -893.000
241.386;  -64.250; -508.000; -379.000
241.529;  -93.650; -735.000; -547.000
241.672;  -55.425; -566.000; -495.000
241.815; -111.400; -832.000; -808.000
241.958;  -17.600; -125.000; -182.000
242.101;  -73.550; -545.000; -390.000
242.244;  -43.750; -270.000; -325.000
242.387;  -50.650; -304.000; -246.000
242.530;   52.450;  470.000;  134.000
242.673;  -37.750; -381.000; -309.000
242.815; -102.950; -925.000; -899.000
242.958;  -61.600; -482.000; -381.000
243.101;    5.675;  132.000;  187.000
243.244;  -64.825; -564.000; -521.000
243.387;  -46.675; -313.000; -316.000
243.530;  -83.125; -657.000; -674.000
243.672;    4.250;   43.000;  -92.000
243.815;  -39.125; -355.000; -283.000
243.958;    7.675;   98.000;  -26.000
244.101;   -2.150;   59.000;  -16.000
244.243;  -18.700;  -47.000;  101.000
244.386;  -92.025; -761.000; -630.000
244.529;  -29.275; -132.000; -139.000
244.672; -143.350;-1154.000; -951.000
244.814;  -85.375; -621.000; -794.000
244.957;  -62.250; -380.000; -304.000
245.100;  -71.025; -489.000; -489.000
245.242;  -57.825; -387.000; -374.000
245.385;   -7.075;  -59.000;  -39.000
245.528; -118.050; -871.000; -705.000
245.670;   76.125;  612.000;  634.000
245.813;  -82.150; -599.000; -547.000
245.956;  -22.825; -324.000; -275.000
246.098;  -65.000; -508.000; -650.000
246.241;   15.700;  194.000;   48.000
246.383;  -24.775; -119.000;  -73.000
246.526;  -65.550; -454.000; -525.000
246.669; -117.750; -889.000; -780.000
246.811;   13.600;  172.000;   -1.000
246.954;  -56.800; -512.000; -426.000
247.096;  -18.775;  -84.000;   -6.000
247.239;  -67.950; -482.000; -445.000
247.381;  -76.950; -647.000; -488.000
247.524;   81.600;  645.000;  679.000
247.666;  -11.350;   58.000;   11.000
247.809; -100.850; -887.000; -691.000
247.951;  -11.675;  -75.000;  138.000
248.094;   22.925;  432.000;  308.000
248.236; -156.750;-1262.000;-1238.000
248.378;  -40.300; -356.000;  -81.000
248.521;  -49.250; -334.000; -337.000
248.663;  -42.675; -236.000; -267.000
248.806;  -35.375; -300.000; -266.000
248.948;  -98.375; -886.000; -763.000
249.090;  -66.950; -428.000; -398.000
249.233;  -62.525; -344.000; -381.000
249.375;  -66.625; -474.000; -451.000
249.518;  -22.350;  -83.000; -133.000
249.660;   -5.425; -103.000;    3.000
249.802; -174.650;-1303.000;-1189.000
249.945;  -62.100; -612.000; -540.000
250.087; -108.250; -834.000; -768.000
250.229;  -48.000; -362.000; -480.000
250.371;  -73.150; -494.000; -439.000
250.514;  -46.325; -310.000; -244.000
250.656;  -64.175;   69.000;  102.000
250.798; -114.875; -849.000; -800.000
250.940;  -49.750; -322.000; -322.000
251.083;  -27.500; -335.000; -111.000
251.225;   34.725;  338.000;  310.000
251.367;  -41.925; -274.000; -373.000
251.509;  -45.475; -265.000; -210.000
251.651;  -83.850; -731.000; -671.000
251.794;   38.675;  538.000;  632.000
251.936; -102.800; -821.000; -747.000
252.078;  -82.475; -540.000; -461.000
252.220;  -75.150; -645.000; -477.000
252.362;   25.600;  344.000;  462.000
252.504;  -89.425; -677.000; -584.000
252.646; -116.500; -875.000; -722.000
252.788;  -14.025;   14.000; -128.000
252.931;  -47.125; -257.000; -253.000
253.073;  -37.075; -376.000; -317.000
253.215;   -4.425;  141.000;  122.000
253.357;  -13.225;   82.000; -153.000
253.499;  -47.250; -374.000; -234.000
253.641;  -78.200; -749.000; -594.000
253.783;  -75.875; -609.000; -527.000
253.925;  -82.850; -586.000; -591.000
254.067; -100.975; -744.000; -667.000
254.209;  -41.550; -391.000; -259.000
254.351; -123.400; -865.000; -883.000
254.493;  -69.050; -441.000; -417.000
254.635; -113.975; -936.000; -818.000
254.777;  -88.450; -752.000; -687.000
254.918;  -48.800; -512.000; -430.000
255.060;  -62.300; -551.000; -395.000
255.202;  -50.925; -473.000; -261.000
255.344;  -67.950; -658.000; -455.000
255.486;  -75.600; -471.000; -406.000
255.628; -106.675; -780.000; -781.000
255.770;  -73.950; -676.000; -536.000
255.912;  -63.800; -559.000; -468.000
256.053;  -86.050; -730.000; -508.000
256.195;  143.150; 1008.000;  903.000
256.337; -104.400; -861.000; -595.000
256.479;   61.725;  532.000;  416.000
256.621;  -59.975; -394.000; -212.000
256.762; -101.050; -789.000; -742.000
256.904;   41.100;  485.000;  487.000
257.046;  -39.525; -381.000; -271.000
257.188;  -42.175; -351.000; -264.000
257.329;  -83.250; -525.000; -464.000
257.471; -111.600; -939.000; -807.000
257.613;  -62.100; -584.000; -498.000
257.755; -139.225;-1073.000; -982.000
257.896;   23.925;  286.000;  392.000
258.038;  -63.200; -403.000; -352.000
258.180;  -39.050; -354.000; -279.000
258.321;  -77.775; -581.000; -457.000
258.463;  -17.225;  -71.000;  133.000
258.605;  -81.150; -562.000; -570.000
258.746; -101.675; -886.000; -772.000
258.888; -133.700;-1026.000;-1020.000
259.029;   15.975;  121.000;   -8.000
259.171;  -88.675; -614.000; -550.000
259.313;  -11.425;  -49.000;  -47.000
259.454;  -62.800; -536.000; -414.000
259.596;  -53.000; -483.000; -390.000
259.737;  -75.075; -590.000; -474.000
259.879;   34.425;  217.000;  311.000
260.020;   67.375;  901.000;  636.000
260.162;  -25.825; -146.000; -253.000
260.303; -101.625; -768.000; -687.000
260.445;  -70.775; -609.000; -613.000
260.586;   12.425;  392.000;  157.000
260.728;  -42.650; -360.000; -248.000
260.869;  -59.575; -350.000; -343.000
261.011;   45.150;  706.000;  537.000
261.152;  -64.550; -479.000; -319.000
261.293;  -76.650; -576.000; -595.000
261.435;  -32.350; -219.000; -184.000
261.576;  -56.550; -455.000; -325.000
261.718;   34.150;  420.000;  470.000
261.859; -124.825; -940.000; -949.000
262.000; -110.975; -951.000;-1016.000
262.142;  -27.850;  -52.000;  -60.000
262.283; -116.700; -808.000; -691.000
262.424;  -92.750; -666.000; -625.000
262.566; -139.375;-1161.000; -983.000
262.707; -107.350; -840.000; -830.000
262.848; -116.200; -769.000; -726.000
262.990;  -55.150; -362.000; -345.000
263.131;   63.325;  650.000;  681.000
263.272;  -10.025;  -61.000;  -41.000
263.413;  -92.200; -589.000; -561.000
263.555;  -75.925; -669.000; -143.000
263.696;  -77.500; -550.000; -641.000
263.837;  -67.400; -449.000; -551.000
263.978;   -6.400;   -5.000;  -77.000
264.119;  -47.300; -283.000; -264.000
264.261; -109.950; -847.000; -630.000
264.402;   -2.800;   33.000;   40.000
264.543;  -68.050; -509.000; -524.000
264.684;   -4.725;   61.000;  -50.000
264.825;  -75.750; -816.000; -538.000
264.966;   -0.200;  -84.000;  -67.000
265.107; -107.625; -646.000; -670.000
265.248; -103.325; -825.000; -812.000
265.390;   -2.425;  152.000;   -9.000
265.531;  -40.700; -238.000; -107.000
265.672;  -86.675; -557.000; -630.000
265.813;   32.725;  563.000;  439.000
265.954; -141.050; -959.000; -940.000
266.095;  -26.400; -372.000; -322.000
266.236;  -89.175; -686.000; -548.000
266.377;  -44.550; -243.000; -297.000
266.518;  -73.650; -619.000; -547.000
266.659;   18.125;  170.000;  268.000
266.800;    4.725;   83.000;   85.000
266.941;  -79.125; -487.000; -478.000
267.082;   18.475;  354.000;   99.000
267.223;  -47.325; -344.000; -273.000
267.364; -106.750; -892.000; -686.000
267.504;  -19.375;    3.000;  135.000
267.645;   -9.900;  160.000;   67.000
267.786;  -26.700; -147.000;  -86.000
267.927;  -73.900; -473.000; -379.000
268.068;  -25.925; -186.000;  -61.000
268.209;  -44.100; -175.000; -413.000
268.350;  -54.000; -388.000; -532.000
268.490;  -84.625; -648.000; -521.000
268.631;   20.200;  127.000;  225.000
268.772; -107.400; -874.000; -647.000
268.913;  -57.725; -328.000; -476.000
269.054;  -32.350; -117.000;   12.000
269.194;  -58.300; -418.000; -402.000
269.335; -144.900;-1137.000;-1074.000
269.476;  -24.425;   33.000;  -35.000
269.617;  -54.550; -347.000; -392.000
269.757;  -85.025; -713.000; -646.000
269.898; -110.375; -856.000; -613.000
270.039;  -63.500; -415.000; -405.000
270.180; -139.250; -952.000; -816.000
270.320;  -25.875; -190.000; -250.000
270.461;  -56.875; -277.000; -249.000
270.602;  -11.575; -186.000; -156.000
270.742; -120.475; -868.000; -943.000
270.883;  -58.975; -442.000; -390.000
271.023;  -67.875; -358.000; -357.000
271.164;  -74.950; -607.000; -528.000
271.305;  -97.800; -666.000; -654.000
271.445; -104.975; -722.000; -683.000
271.586;  -68.750; -462.000; -283.000
271.726;  -49.825; -397.000; -322.000
271.867;  -90.000; -594.000; -534.000
272.008;  -31.575; -473.000; -285.000
272.148;   48.600;  462.000;  468.000
272.289;  -10.575; -113.000; -181.000
272.429;   -1.425;   19.000;  185.000
272.570; -104.200; -633.000; -737.000
272.710; -101.550; -825.000; -775.000
272.851;  -28.600;  113.000; -130.000
272.991; -149.150;-1173.000;-1077.000
273.131;  -77.375; -419.000; -459.000
273.272;  -95.675; -683.000; -723.000
273.412;  -23.325; -143.000;  -31.000
273.553;  -80.675; -488.000; -507.000
273.693;   95.600;  913.000;  858.000
273.834; -130.050; -894.000; -692.000
273.974;  -86.275; -664.000; -615.000
274.114;  -93.500; -772.000; -560.000
274.255;   29.100;  414.000;  373.000
274.395;  -33.475; -180.000; -125.000
274.535;   15.425;  199.000;  350.000
274.676;   16.550;  225.000;   94.000
274.816;   -7.650;  110.000;   34.000
274.956;  -95.525; -624.000; -690.000
275.097; -123.650;-1014.000; -922.000
275.237; -132.925; -913.000; -803.000
275.377; -101.650; -778.000; -689.000
275.517; -156.550; -878.000; -937.000
275.658;  -78.175; -590.000; -555.000
275.798;  -83.875; -606.000; -413.000
275.938;    4.850;  215.000;  323.000
276.078;  -78.200; -626.000; -395.000
276.218;   -9.200;   99.000;  104.000
276.359; -140.975;-1026.000;-1024.000
276.499;  -72.600; -605.000; -446.000
276.639;  -47.250; -305.000; -151.000
276.779;  -59.550; -475.000; -357.000
276.919; -106.525; -783.000; -624.000
277.059;  -26.825; -261.000; -212.000
277.199;  -67.150; -357.000; -259.000
277.340;   30.275;  287.000;  175.000
277.480; -102.650; -840.000; -693.000
277.620;   11.900;  192.000;   16.000
277.760; -182.650;-1533.000;-1294.000
277.900;   -7.750;  113.000;   33.000
278.040;    4.850;  137.000;  159.000
278.180;    8.375;  270.000;  170.000
278.320;  -16.725;   21.000;   56.000
278.460;  -75.300; -443.000; -469.000
278.600;  -84.000; -708.000; -598.000
278.740;   30.275;  448.000;  224.000
278.880; -120.675; -768.000; -791.000
279.020;  -44.675; -194.000; -144.000
279.160;  -96.825; -672.000; -595.000
279.300; -101.350; -926.000; -873.000
279.440; -105.275; -709.000; -622.000
279.579; -128.925;-1014.000; -929.000
279.719;  -75.500; -410.000; -394.000
279.859;   13.250;   -4.000;   41.000
279.999;  -23.875; -208.000;  101.000
280.139;  -61.950; -435.000; -387.000
280.279; -106.600; -708.000; -745.000
280.419;  -32.975; -229.000; -147.000
280.559;  -34.525; -259.000; -180.000
280.698;  -97.425; -790.000; -639.000
280.838; -109.175; -778.000; -800.000
280.978;  -95.225; -846.000; -790.000
281.118; -108.300; -811.000; -704.000
281.257;   -2.650;   24.000;    6.000
281.397; -156.275;-1094.000; -960.000
281.537; -100.975; -599.000; -712.000
281.677;  -28.075; -150.000; -101.000
281.816;  -89.725; -700.000; -630.000
281.956;  -29.275; -193.000; -257.000
282.096;  -65.150; -539.000; -396.000
282.235; -101.800; -672.000; -638.000
282.375;  -42.800; -243.000;  -98.000
282.515; -116.800; -715.000; -707.000
282.654;   -0.625;   29.000;  106.000
282.794;   10.950;  388.000;  244.000
282.934;  -71.300; -530.000; -491.000
283.073; -130.350;-1030.000; -857.000
283.213;  -62.525; -460.000; -467.000
283.353;  -79.550; -408.000; -349.000
283.492;  -40.425; -264.000; -296.000
283.632;  -64.075; -254.000; -168.000
283.771; -101.100; -859.000; -730.000
283.911;  -59.500; -369.000; -260.000
284.050; -109.325; -794.000; -748.000
284.190; -147.575;-1229.000;-1096.000
284.329; -142.500;-1055.000; -964.000
284.469;  -95.450; -516.000; -591.000
284.608;  -72.150; -559.000; -598.000
284.748;  -91.575; -614.000; -570.000
284.887;  -12.825;  -87.000;  -20.000
285.027; -119.650; -844.000; -892.000
285.166;  -45.300; -192.000; -249.000
285.306;  -23.275; -116.000;  -33.000
285.445;  -47.300; -229.000; -343.000
285.584;  -97.100; -630.000; -494.000
285.724;  -55.650; -282.000; -322.000
285.863; -120.100; -857.000; -507.000
286.002;  -64.325; -366.000; -276.000
286.142; -106.875; -715.000; -622.000
286.281;  -75.050; -525.000; -493.000
286.420;  -99.000; -554.000; -417.000
286.560;   69.100;  653.000;  623.000
286.699; -135.600; -958.000; -912.000
286.838;  -87.825; -590.000; -591.000
286.978;  -94.875; -533.000; -537.000
287.117; -125.775;-1085.000; -950.000
287.256;  -41.425; -228.000; -211.000
287.395;  -51.075; -197.000; -378.000
287.535;  -67.675; -370.000; -298.000
287.674;  -88.800; -509.000; -484.000
287.813;   27.725;  661.000;  533.000
287.952; -125.650;-1010.000; -871.000
288.091; -151.250;-1049.000; -915.000
288.231;   -5.300;   13.000;   15.000
288.370; -173.500;-1217.000;-1200.000
288.509;  -98.175; -728.000; -645.000
288.648;  -93.250; -770.000; -548.000
288.787;  -36.100; -243.000;  -87.000
288.926;  -76.650; -454.000; -475.000
289.065;   75.400;  859.000;  672.000
289.204;  -68.275; -377.000; -217.000
289.344; -114.575; -791.000; -690.000
289.483;  -12.525;  416.000;  304.000
289.622;  -35.650; -291.000; -149.000
289.761;  -17.750; -309.000; -166.000
289.900; -110.250; -785.000; -626.000
290.039;  -26.125;  -12.000;  -95.000
290.178;  -45.600; -274.000; -180.000
290.317;  -96.050; -618.000; -479.000
290.456;  -63.675; -463.000; -451.000
290.595; -140.450; -961.000; -833.000
290.734; -135.050; -904.000; -891.000
290.873;  -69.500; -456.000; -420.000
291.011; -114.900; -833.000; -843.000
291.150; -106.350; -770.000; -682.000
291.289;  -36.550; -343.000; -110.000
291.428; -104.750; -599.000; -480.000
291.567;  -63.600; -370.000; -442.000
291.706;  -25.150;  109.000;  154.000
291.845;  -89.025; -597.000; -505.000
291.984; -168.975;-1234.000;-1061.000
292.122;   62.275;  602.000;  582.000
292.261;   29.375;  620.000;  463.000
292.400;   -3.700; -144.000;  211.000
292.539; -133.375; -959.000; -813.000
292.678;  -47.000; -325.000; -300.000
292.816; -149.825;-1136.000; -965.000
292.955; -111.550; -844.000; -684.000
293.094;  -31.925; -173.000; -337.000
293.233;  -72.275; -556.000; -400.000
293.371;  -52.400; -225.000;  -84.000
293.510; -103.475; -866.000; -780.000
293.649; -133.200; -959.000; -924.000
293.787; -146.525;-1083.000;-1012.000
293.926;  -30.925; -113.000;  -32.000
294.065;  -55.025; -379.000; -290.000
294.203;   21.050;  298.000;  406.000
294.342;   -9.925;   74.000;  156.000
294.481; 5035.750;51180.000; -836.000
294.619;  -53.125; -425.000; -582.000
294.758; -153.550;-1230.000;-1137.000
294.896;   -9.850; -125.000;    5.000
295.035; -153.175;-1040.000;-1006.000
295.174; -136.750;-1082.000; -954.000
295.312;  -72.700; -323.000; -203.000
295.451;  -62.400; -307.000; -428.000
295.589;  -91.300; -389.000; -518.000
295.728;  -20.700; -292.000; -165.000
295.866;  -25.425;  -36.000;  -51.000
296.005;  -92.900; -584.000; -341.000
296.143; -103.775; -558.000; -596.000
296.282; -114.475; -957.000; -881.000
296.420;  -87.950; -657.000; -557.000
296.559; -112.825; -892.000; -633.000
296.697; -114.525; -847.000; -665.000
296.835; -149.600;-1141.000;-1002.000
296.974;  -27.800;  -23.000;   39.000
297.112;  -71.150; -443.000; -504.000
297.251; -112.475; -815.000; -755.000
297.389;  -88.225; -576.000; -438.000
297.527;  -20.425; -145.000;  -83.000
297.666;  -78.700; -486.000; -438.000
297.804;  -65.725; -404.000; -264.000
297.942;  -20.275; -136.000; -161.000
298.081;  -36.350; -183.000;   63.000
298.219;  -32.625;  -17.000;  -19.000
298.357;  -43.150; -144.000;  -71.000
298.495; -123.300; -810.000; -812.000
298.634;  -11.000;  245.000;  219.000
298.772;  -55.625; -220.000; -338.000
298.910;  -67.375; -309.000; -182.000
299.048;   -9.875; -130.000; -153.000
299.187;  -58.025; -350.000; -250.000
299.325;  -14.875;   52.000;  122.000
299.463;  -72.100; -389.000; -299.000
299.601;  -56.525; -327.000; -271.000
299.739; -134.200; -908.000; -883.000
299.877; -101.275; -791.000; -703.000
300.016; -142.575;-1095.000; -935.000
300.154;  -24.050;  -19.000; -161.000
300.292;  -74.425; -428.000; -348.000
300.430;  -64.300; -408.000; -291.000
300.568; -120.625; -940.000; -874.000
300.706;  -64.800; -366.000; -469.000
300.844; -145.200;-1108.000; -979.000
300.982;   19.775;  246.000;  282.000
301.120; -141.950; -965.000; -866.000
301.258;  -93.575; -812.000; -705.000
301.396;  -12.475;  104.000;  -41.000
301.534;  -52.325; -218.000; -293.000
301.672;  -96.225; -664.000; -521.000
301.810;  -85.150; -613.000; -545.000
301.948;   -3.525;   53.000;  149.000
302.086;  -38.400; -250.000;  -32.000
302.224;  -95.000; -610.000; -585.000
302.362; -109.175; -558.000; -622.000
302.500; -139.475; -923.000; -893.000
302.638;   -2.425;  128.000;  245.000
302.776;  -55.975; -352.000; -408.000
302.913;   21.700;  447.000;  236.000
303.051;  -38.650;  -86.000;  -23.000
303.189;   -0.375;   90.000;  118.000
303.327;  -58.650; -341.000; -256.000
303.465; -101.750; -832.000; -588.000
303.603; -115.075; -805.000; -604.000
303.740;   17.800;  417.000;  241.000
303.878; -108.100; -800.000; -759.000
304.016; -111.975; -915.000; -790.000
304.154; -168.300;-1123.000;-1152.000
304.291;  -87.650; -505.000; -554.000
304.429;  -25.350;  102.000;   74.000
304.567; -147.950; -908.000; -893.000
304.705;  -80.050; -408.000; -515.000
304.842; -101.250; -616.000; -540.000
304.980;  -10.500;  215.000;   35.000
305.118;  -51.350; -367.000; -365.000
305.255; -143.650; -945.000; -927.000
305.393;   27.425;  178.000;  239.000
305.531; -148.875;-1173.000; -956.000
305.668;  -95.950; -663.000; -582.000
305.806;  -67.900; -358.000; -439.000
305.943;  -87.900; -629.000; -637.000
306.081;  -67.025; -378.000; -267.000
306.219; -108.875; -863.000; -748.000
306.356;  -25.800;  158.000;   27.000
306.494;   71.025;  981.000;  761.000
306.631;  -29.450;  -11.000;  -55.000
306.769;  -37.425; -613.000; -485.000
306.906;  -73.600; -284.000; -258.000
307.044;  -75.925; -473.000; -488.000
307.181;  -76.700; -410.000; -332.000
307.319;   -1.025;  112.000;   87.000
307.456; -173.525;-1191.000;-1153.000
307.594; -122.775; -980.000; -727.000
307.731;  -50.600; -371.000; -164.000
307.868;  -12.375;  -15.000;   20.000
308.006; -140.050; -961.000; -847.000
308.143;  -88.175; -618.000; -330.000
308.281;  -57.900;  -37.000; -254.000
308.418;  -96.250; -748.000; -640.000
308.555; -108.375; -400.000; -250.000
308.693;  -86.675; -577.000; -573.000
308.830; -112.025; -712.000; -657.000
308.967;  -39.300; -215.000;  -95.000
309.105;  -73.725; -507.000; -396.000
309.242;  -56.250; -468.000; -367.000
309.379; -109.650; -577.000; -655.000
309.517; -135.425; -936.000; -948.000
309.654; -133.675; -910.000; -734.000
309.791;  -93.700; -662.000; -580.000
309.928; -140.925; -977.000; -914.000
310.065;   61.800;  819.000;  697.000
310.203; -128.675; -825.000; -850.000
310.340;  -72.150; -465.000; -321.000
310.477; -101.300; -412.000; -516.000
310.614;  -79.450; -383.000; -473.000
310.751;  -92.375; -427.000; -518.000
310.889;  -45.775;    1.000;   11.000
311.026; -160.975;-1161.000; -939.000
311.163;  -60.150; -386.000; -380.000
311.300;  -87.175; -512.000; -479.000
311.437;  -92.825; -658.000; -619.000
311.574; -169.150;-1226.000; -985.000
311.711;  -71.800; -595.000; -433.000
311.848;  -67.025; -380.000; -388.000
311.985;    1.450;  270.000;   93.000
312.122; -133.550; -932.000; -762.000
312.259; -127.850; -941.000; -994.000
312.396;  -82.250; -508.000; -551.000
312.533; -101.675; -812.000; -790.000
312.670; -159.425;-1070.000; -898.000
312.807;  -67.075; -352.000; -367.000
312.944; -107.300; -513.000; -611.000
313.081;  -71.000; -150.000; -415.000
313.218; -143.475;-1111.000; -867.000
313.355;  -82.850; -531.000; -449.000
313.492;  -64.700; -455.000; -292.000
313.629;   70.900;  815.000;  735.000
313.766; -176.775;-1176.000;-1008.000
313.902;  -32.300; -186.000;   21.000
314.039;  -67.425; -372.000; -289.000
314.176;    2.950;  286.000;  192.000
314.313; -106.050; -569.000; -473.000
314.450; -117.725; -788.000; -684.000
314.587;  -86.450; -468.000; -480.000
314.723;  -23.200;  -78.000;  130.000
314.860;  -12.100;  318.000;  332.000
314.997;   -5.725;  223.000;  142.000
315.134;  -75.100; -385.000; -368.000
315.270;  -85.600; -480.000; -496.000
315.407; -160.400;-1094.000; -967.000
315.544;  -86.050; -657.000; -538.000
315.681; -103.525; -681.000; -565.000
315.817;  -45.650; -133.000; -176.000
315.954;  -91.525; -613.000; -392.000
316.091; -155.000;-1045.000;-1023.000
316.227;  -46.400;  -71.000; -179.000
316.364;  -23.425;   23.000;    6.000
316.500;  -53.900; -113.000; -300.000
316.637;  -61.850; -181.000; -302.000
316.774;  -87.125; -625.000; -358.000
316.910;  -93.625; -598.000; -629.000
317.047;  -98.625; -487.000; -351.000
317.183;  -81.900; -435.000; -566.000
317.320;  -71.450; -367.000; -321.000
317.456; -121.125; -733.000; -805.000
317.593; -111.150; -598.000; -641.000
317.729;  -16.125;  168.000;  -67.000
317.866; -194.175;-1434.000;-1285.000
318.002;  -99.250; -708.000; -948.000
318.139; -128.800; -883.000; -867.000
318.275; -129.925;-1003.000; -738.000
318.412;  -78.625; -517.000; -336.000
318.548; -109.675; -751.000; -720.000
318.685; -142.875; -985.000; -888.000
318.821; -117.875; -762.000; -735.000
318.957;  -37.375;   34.000;  -23.000
319.094;   20.400;  297.000;  154.000
319.230; -135.350; -756.000; -742.000
319.367;  -79.275; -471.000; -520.000
319.503;  -78.700; -538.000; -436.000
319.639; -122.975; -877.000; -793.000
319.775; -105.200; -750.000; -685.000
319.912;  -84.850; -424.000; -519.000
320.048; -165.825;-1184.000;-1184.000
320.184;   -6.650;   59.000;   70.000
320.321;  -62.025; -497.000; -467.000
320.457;   28.275;  475.000;  662.000
320.593;  -74.100; -375.000; -382.000
320.729; -120.200; -732.000; -734.000
320.866;  -91.500; -577.000; -635.000
321.002; -120.775; -759.000; -809.000
321.138;  -64.425; -135.000; -211.000
321.274;  -45.675; -148.000; -115.000
321.410;  -89.275; -585.000; -353.000
321.546; -134.050;-1011.000; -911.000
321.683;    1.500;  400.000;  185.000
321.819;  -36.425;  -48.000; -117.000
321.955; -137.650; -743.000; -722.000
322.091;  -76.550; -585.000; -540.000
322.227;  -73.675; -382.000; -202.000
322.363;  -68.625; -320.000; -215.000
322.499;  -75.000; -343.000; -331.000
322.635;   43.650;  636.000;  443.000
322.771;  -39.925; -139.000;   12.000
322.907;   22.825;  129.000;  327.000
323.043;  -47.400; -115.000; -206.000
323.179;  -74.975; -394.000; -363.000
323.315;  -91.375; -401.000; -371.000
323.451;  -60.275; -328.000; -236.000
323.587;  -41.800;  -60.000;  -77.000
323.723;  -97.200; -682.000; -601.000
323.859;  -52.625; -258.000;  -76.000
323.995;  -69.300; -467.000; -409.000
324.131; -140.625; -967.000; -892.000
324.267;  -45.800; -254.000; -276.000
324.402; -155.850; -960.000; -983.000
324.538;  -56.800; -279.000; -104.000
324.674;  -16.575;  164.000;   77.000
324.810;  -13.275;  226.000;  308.000
324.946;  -69.500; -810.000; -658.000
325.082;  -86.325; -568.000; -475.000
325.217;  -45.200;  -62.000;   16.000
325.353; -113.250; -764.000; -659.000
325.489; -102.550; -540.000; -506.000
325.625;  -81.300; -579.000; -525.000
325.760;   -1.450;  517.000;  376.000
325.896;  -93.550; -515.000; -702.000
326.032;  -62.550; -403.000; -352.000
326.168;  -80.175; -462.000; -369.000
326.303;  -86.850; -352.000; -461.000
326.439;  -50.400; -336.000; -276.000
326.575;  -35.575; -190.000;  -29.000
326.710;  -34.850; -156.000;  -30.000
326.846;  -28.850;  146.000;  103.000
326.982; -103.925; -530.000; -548.000
327.117;  -88.075; -481.000; -442.000
327.253; -109.050; -745.000; -742.000
327.388; -171.650;-1137.000;-1153.000
327.524; -104.550; -811.000; -578.000
327.659;  -36.225;  -58.000;  -22.000
327.795;  -21.500;   69.000;   45.000
327.931; -116.600; -723.000; -499.000
328.066;  -59.525; -417.000; -276.000
328.202;  -37.875;   12.000; -129.000
328.337;   77.475;  957.000;  713.000
328.473;    6.675;  -12.000;  -74.000
328.608;  -46.125; -256.000; -267.000
328.743; -125.300; -799.000; -664.000
328.879;    3.225;  214.000;  114.000
329.014;  -41.450; -102.000; -122.000
329.150;  -98.000; -358.000; -483.000
329.285;  -89.300; -465.000; -466.000
329.421;  -65.575; -548.000; -246.000
329.556;  -33.400;  -36.000;   85.000
329.691; -102.675; -633.000; -615.000
329.827;  -93.400; -626.000; -480.000
329.962;  -49.525;  131.000; -301.000
330.097; -121.275; -673.000; -585.000
330.233;  -69.475; -410.000; -223.000
330.368; -127.725; -839.000; -628.000
330.503;  -22.250;    3.000;   98.000
330.638;  -39.325;  -93.000; -125.000
330.774;  -96.725; -609.000; -530.000
330.909;  -53.450; -434.000; -244.000
331.044; -105.725; -714.000; -708.000
331.179; -170.125;-1217.000;-1109.000
331.315;   -1.200;   77.000;   20.000
331.450;   -4.850;  157.000;  285.000
331.585; -125.625; -805.000; -706.000
331.720; -102.075; -510.000; -460.000
331.855;  -38.325;  -35.000; -102.000
331.990;  -41.475;   62.000;  138.000
332.126;  -30.375; -110.000;   71.000
332.261;  -86.575; -379.000; -265.000
332.396;  -53.600; -135.000; -242.000
332.531; -166.550;-1074.000;-1031.000
332.666;  -76.700; -519.000; -363.000
332.801; -123.525; -726.000; -807.000
332.936;  -32.000; -192.000; -122.000
333.071; -138.550; -870.000; -817.000
333.206;    0.000;  307.000;  379.000
333.341;    6.800;  344.000;  418.000
333.476; -115.850; -627.000; -623.000
333.611;  -52.700; -251.000; -173.000
333.746;  -74.025; -381.000; -464.000
333.881; -144.450; -973.000; -935.000
334.016; -138.925; -936.000; -917.000
334.151; -141.450; -746.000; -702.000
334.286;  -13.625;  152.000;  186.000
334.421;  -54.675; -125.000; -178.000
334.556;  -93.125; -611.000; -567.000
334.690; -108.325; -631.000; -577.000
334.825;   22.250;  381.000;   83.000
334.960;  -90.200; -285.000; -413.000
335.095;  -31.775;  135.000;  -91.000
335.230; -132.300; -722.000; -738.000
335.365; -146.850;-1084.000; -990.000
335.499; -170.625;-1108.000;-1037.000
335.634;  -25.350;    9.000;  534.000
335.769; -131.725; -755.000; -720.000
335.904; -104.025; -603.000; -561.000
336.038; -116.250; -735.000; -657.000
336.173; -165.700;-1206.000;-1194.000
336.308;  -69.100; -116.000; -189.000
336.443;  -76.925; -544.000; -634.000
336.577; -134.500; -936.000; -787.000
336.712;  -15.350;   -4.000;  -12.000
336.847; -120.300; -724.000; -607.000
336.981;  -73.150; -272.000; -208.000
337.116;   36.125;  615.000;  501.000
337.250;  -82.200; -434.000; -421.000
337.385;  -69.050; -297.000; -208.000
337.520; -107.250; -632.000; -603.000
337.654;  -61.900; -215.000; -126.000
337.789; -147.750; -989.000; -933.000
337.923;  -70.175; -104.000; -205.000
338.058; -122.075; -673.000; -738.000
338.192;  -97.250; -611.000; -488.000
338.327;  -41.275;  -18.000; -155.000
338.461; -113.400; -299.000; -469.000
338.596; -105.275; -780.000; -638.000
338.730; -124.625; -767.000; -803.000
338.865;  -36.375;  -46.000; -140.000
338.999; -141.600; -846.000; -702.000
339.134;  -96.400; -634.000; -536.000
339.268; -111.725; -741.000; -603.000
339.403; -119.400; -740.000; -775.000
339.537; -134.100; -894.000; -820.000
339.671; -136.175; -829.000; -813.000
339.806; -102.225; -556.000; -512.000
339.940;  -58.925; -261.000; -235.000
340.074; -118.725; -685.000; -510.000
340.209;  -67.275; -351.000; -230.000
340.343; -100.000; -517.000; -573.000
340.477;  124.000;  998.000; 1036.000
340.612; -147.250;-1033.000; -900.000
340.746;  -61.975; -199.000; -243.000
340.880; -124.725; -924.000; -785.000
341.014;  -41.900;  -45.000; -154.000
341.149; -129.700; -756.000; -718.000
341.283; -128.875; -839.000; -754.000
341.417; -155.225;-1124.000; -938.000
341.551; -115.150; -768.000; -708.000
341.685;  -94.600; -633.000; -611.000
341.820; -101.150; -562.000; -493.000
341.954;  -92.725; -218.000; -349.000
342.088; -159.550;-1102.000;-1019.000
342.222;   31.000;  565.000;  618.000
342.356;  -93.625; -395.000; -335.000
342.490; -129.450; -880.000; -841.000
342.624;  -66.025; -339.000; -242.000
342.758;  -72.175; -364.000; -312.000
342.892; -115.150; -710.000; -585.000
343.026;  -55.400;  -58.000; -116.000
343.160;  -67.025; -426.000; -376.000
343.294; -100.175; -474.000; -337.000
343.428; -103.050; -488.000; -448.000
343.562;  -58.275; -172.000;  -23.000
343.696;  -67.400; -385.000; -314.000
343.830;  -71.825; -362.000; -356.000
343.964;  -55.875; -231.000; -168.000
344.098;  -21.925;  199.000;   70.000
344.232;  -55.275; -266.000; -127.000
344.366; -117.975; -567.000; -453.000
344.500; -111.475; -665.000; -744.000
344.634;  -70.975; -324.000; -164.000
344.768;  -87.600; -531.000; -341.000
344.902;  -27.925;  278.000;  256.000
345.035;  -86.425; -556.000; -496.000
345.169; -144.450; -933.000; -656.000
345.303;  -86.925; -308.000; -482.000
345.437; -143.900; -826.000; -717.000
345.571; -111.000; -675.000; -594.000
345.704;  -85.500; -309.000; -532.000
345.838;  -51.875; -331.000; -284.000
345.972; -115.925; -543.000; -495.000
346.106;  -41.875; -179.000; -190.000
346.239;  -67.175; -312.000; -243.000
346.373;  -71.825; -343.000; -302.000
346.507; -145.450; -950.000; -962.000
346.640;  -47.750;  -30.000;   13.000
346.774; -118.675; -650.000; -797.000
346.908;  -39.025; -138.000;  -11.000
347.041; -105.425; -646.000; -593.000
347.175;   -9.875;  259.000;   27.000
347.309; -127.600; -698.000; -628.000
347.442; -132.475; -883.000; -732.000
347.576;   37.700;  670.000;  668.000
347.709;  -43.200; -123.000;  -52.000
347.843; -142.550; -933.000; -825.000
347.976;    4.125;  235.000;  294.000
348.110; -184.800;-1268.000;-1186.000
348.243; -113.225; -679.000; -772.000
348.377;  -30.075;  -26.000;   60.000
348.510;   23.075;  403.000;  540.000
348.644;  -53.975;  -37.000; -159.000
348.777;  -13.300;  180.000;  191.000
348.911;  -74.575; -142.000; -112.000
349.044;   25.950;  471.000;  448.000
349.178; -165.100;-1069.000;-1006.000
349.311;   -0.575;  141.000;  255.000
349.444; -141.725; -927.000; -813.000
349.578;  -62.200; -347.000; -200.000
349.711; -147.400; -959.000; -862.000
349.845; -119.300; -661.000; -591.000
349.978; -181.975;-1224.000;-1137.000
350.111; -100.325; -546.000; -612.000
350.244; -125.625; -596.000; -700.000
350.378;  -84.225; -392.000; -393.000
350.511;  -78.725; -393.000; -426.000
350.644; -122.325; -808.000; -806.000
350.778;  -42.525;  168.000;  104.000
350.911;  -13.100;  134.000;  140.000
351.044; -119.350; -685.000; -615.000
351.177;  -70.450; -321.000; -281.000
351.310;  -44.550;    3.000; -131.000
351.444; -138.400; -888.000; -788.000
351.577;  -12.300;  140.000;   90.000
351.710;   47.700;  593.000;  417.000
351.843;  -48.750; -165.000;  -77.000
351.976;  -21.700;  149.000;  -79.000
352.109; -123.100; -621.000; -612.000
352.242;  -93.975; -464.000; -419.000
352.376; -124.175; -580.000; -636.000
352.509; -100.025; -437.000; -356.000
352.642; -172.125; -654.000; -604.000
352.775;  -46.400; -141.000;  -98.000
352.908; -153.425; -933.000; -904.000
353.041; -131.400; -814.000; -824.000
353.174;  -80.175; -551.000; -424.000
353.307; -128.775; -753.000; -764.000
353.440;   13.550;  541.000;  453.000
353.573; -140.875; -957.000;-1008.000
353.706; -114.100; -384.000; -558.000
353.839;  -65.950; -264.000; -220.000
353.971; -109.075; -657.000; -512.000
354.104; -135.600; -896.000; -835.000
354.237; -115.950; -627.000; -662.000
354.370; -132.325; -846.000; -879.000
354.503; -191.650;-1231.000;-1308.000
354.636;  -74.275; -529.000; -348.000
354.769; -145.700; -937.000; -860.000
354.902;  -59.075; -230.000; -139.000
355.034;  -60.650; -164.000; -220.000
355.167;  -71.050; -262.000; -162.000
355.300; -159.575;-1061.000; -880.000
355.433;  -26.800;  -71.000;  -14.000
355.565;  -95.150; -402.000; -384.000
355.698;  -79.000; -356.000; -296.000
355.831; -140.350; -882.000; -801.000
355.964;  -47.500; -285.000; -170.000
356.096; -137.325; -856.000; -843.000
356.229;  -91.975; -523.000; -530.000
356.362;  -67.450; -373.000; -266.000
356.494;  -53.475; -229.000; -162.000
356.627;   -5.775;  269.000;  377.000
356.760;  -23.825;  120.000;   53.000
356.892;  -75.950; -286.000; -601.000
357.025;   10.675;  403.000;  389.000
357.157;  -63.300; -167.000; -179.000
357.290; -128.175; -856.000; -713.000
357.423; -123.250; -667.000; -556.000
357.555;  -59.350; -217.000; -228.000
357.688;  -91.125; -483.000; -364.000
357.820; -147.850; -870.000; -877.000
357.953; -106.875; -563.000; -589.000
358.085; -120.325; -632.000; -612.000
358.218; -163.250;-1131.000; -932.000
358.350;  -29.825;  -58.000;  312.000
358.483; -191.900;-1300.000;-1187.000
358.615; -167.050;-1182.000;-1078.000
358.747; -177.150;-1187.000;-1058.000
358.880; -122.675; -810.000; -744.000
359.012;  -77.575; -376.000; -202.000
359.145;  -94.400; -480.000; -511.000
359.277; -166.650; -962.000; -913.000
359.409;   16.225;  536.000;  231.000
359.542; -126.700; -738.000; -688.000
359.674;  -28.300;   46.000;   13.000
359.806; -112.325; -565.000; -438.000
359.939;  -96.425; -617.000; -516.000
360.071; -114.175; -583.000; -579.000
360.203;  -64.650; -411.000; -364.000
360.335;  -22.975;  164.000;  -16.000
360.468;  -64.225; -249.000; -307.000
360.600; -103.100; -547.000; -454.000
360.732; -106.525; -546.000; -423.000
360.864; -170.025;-1216.000;-1044.000
360.996;  -82.275; -516.000; -554.000
361.129;  -96.900; -389.000; -598.000
361.261;  -43.575;  110.000; -113.000
361.393;  -75.325; -252.000; -214.000
361.525;  -30.725;   94.000;  244.000
361.657; -150.775; -821.000; -703.000
361.789;  -40.950; -139.000; -155.000
361.921; -114.525; -642.000; -593.000
362.053;   23.025;  524.000;  541.000
362.185;  -26.375;  288.000;   72.000
362.318; -122.425; -709.000; -705.000
362.450;  -10.150;  294.000;  444.000
362.582; -149.025; -913.000; -870.000
362.714;  -80.850; -353.000; -332.000
362.846;  -94.350; -606.000; -490.000
362.978; -152.275; -941.000; -811.000
363.109;  -79.300; -161.000; -260.000
363.241; -132.150; -739.000; -749.000
363.373; -108.375; -649.000; -564.000
363.505;  -48.400; -186.000;  -91.000
363.637; -115.075; -787.000; -601.000
363.769; -185.450;-1067.000;-1080.000
363.901; -114.350; -596.000; -654.000
364.033; -178.125;-1103.000;-1062.000
364.165;  -58.075; -283.000; -283.000
364.296;  -74.600; -316.000; -177.000
364.428; -186.800;-1344.000;-1220.000
364.560; -105.750; -679.000; -661.000
364.692; -115.600; -738.000; -835.000
364.824; -113.100; -588.000; -456.000
364.955;  -77.275; -402.000; -564.000
365.087; -167.025;-1097.000; -852.000
365.219; -125.425; -686.000; -816.000
365.351; -115.275; -526.000; -572.000
365.482;   -8.475;  300.000;  240.000
365.614;  -76.475; -402.000; -314.000
365.746; -120.975; -729.000; -752.000
365.877; -136.150; -706.000; -672.000
366.009;  -36.125;  -35.000;  -62.000
366.141; -192.650;-1249.000;-1134.000
366.272; -132.475; -803.000; -719.000
366.404; -145.000;-1005.000; -874.000
366.535;  -34.050; -139.000;  -12.000
366.667; -125.775; -644.000; -649.000
366.799;   -0.225;  353.000;  203.000
366.930; -158.400; -862.000; -996.000
367.062; -100.100; -639.000; -613.000
367.193; -151.700; -872.000; -842.000
367.325; -105.200; -580.000; -684.000
367.456;  -75.775; -246.000;   31.000
367.588;  -78.075; -371.000; -318.000
367.719;  -70.350;  -44.000;  -45.000
367.851;  -63.200; -222.000; -241.000
367.982; -150.975; -875.000; -732.000
368.113;  -73.900; -475.000; -358.000
368.245; -162.300; -960.000; -841.000
368.376;  -67.075; -254.000; -302.000
368.508;  -68.150; -188.000; -263.000
368.639; -167.525;-1166.000;-1034.000
368.770; -135.025; -670.000; -589.000
368.902; -137.175; -836.000; -926.000
369.033; -156.275; -906.000; -855.000
369.164; -114.400; -720.000; -653.000
369.296; -127.925; -452.000; -601.000
369.427;  -60.025; -209.000; -144.000
369.558; -104.600; -593.000; -377.000
369.689; -100.000; -721.000; -569.000
369.821; -166.250; -951.000; -845.000
369.952;  -52.150;   42.000; -108.000
370.083;  -87.425; -229.000; -108.000
370.214; -128.925; -735.000; -650.000
370.345;  -36.025;   65.000;   81.000
370.477; -134.100; -810.000; -790.000
370.608;  -70.000; -328.000; -264.000
370.739; -176.300;-1233.000;-1292.000
370.870; -154.000;-1102.000; -923.000
371.001;  -91.375; -378.000; -467.000
371.132; -134.700; -754.000; -735.000
371.263;  -56.925;  -42.000; -148.000
371.394; -139.000; -841.000; -748.000
371.525;    0.750;  345.000;  225.000
371.657; -144.550; -808.000; -670.000
371.788;  -21.100;  103.000;  199.000
371.919;  -86.050; -384.000; -304.000
372.050;  -47.500;  -91.000; -156.000
372.181;  -61.200; -188.000; -294.000
372.311;  -32.875;   42.000; -127.000
372.442; -104.250; -457.000; -451.000
372.573;  -74.400; -444.000; -340.000
372.704; -160.675;-1008.000; -980.000
372.835;  -70.225; -228.000; -289.000
372.966; -124.275; -646.000; -554.000
373.097; -124.850; -575.000; -711.000
373.228; -133.475; -717.000; -542.000
373.359; -134.800; -824.000; -536.000
373.490; -142.325; -881.000; -727.000
373.620; -155.100;-1001.000; -803.000
373.751;  -98.150; -332.000; -396.000
373.882; -116.400; -663.000; -733.000
374.013; -100.300; -449.000; -262.000
374.143; -103.950; -581.000; -659.000
374.274; -164.575; -987.000; -908.000
374.405;  -68.425; -388.000; -276.000
374.536; -101.275; -526.000; -387.000
374.666; -121.975; -759.000; -807.000
374.797; -144.150; -817.000; -868.000
374.928; -121.525; -710.000; -560.000
375.058; -116.650; -535.000; -500.000
375.189;  -53.750;  -59.000;  -93.000
375.320; -165.150; -928.000;-1034.000
375.450; -114.725; -625.000; -616.000
375.581; -106.600; -526.000; -436.000
375.712;  -74.000; -574.000; -250.000
375.842; -101.175; -438.000; -415.000
375.973; -108.150; -554.000; -513.000
376.103; -132.650; -665.000; -648.000
376.234; -113.500; -531.000; -552.000
376.364; -155.325; -944.000; -867.000
376.495;   55.500;  925.000;  529.000
376.625; -120.000; -472.000; -485.000
376.756; -115.900; -709.000; -678.000
376.886; -185.100;-1178.000;-1026.000
377.017; -169.775;-1048.000;-1061.000
377.147; -139.475; -786.000; -782.000
377.278;   -9.250;  174.000;  228.000
377.408; -138.325; -801.000; -815.000
377.538; -125.225; -707.000; -693.000
377.669; -125.625; -537.000; -613.000
377.799; -130.325; -645.000; -635.000
377.929; -101.875; -610.000; -428.000
378.060; -159.375; -781.000; -847.000
378.190; -126.775; -726.000; -531.000
378.320;  -94.800; -401.000; -406.000
378.451;  -50.300; -131.000;  -22.000
378.581;  -50.475;  -67.000; -110.000
378.711;   58.050; 1035.000;  866.000
378.841; -111.275; -533.000; -675.000
378.972; -140.550; -871.000; -751.000
379.102; -114.350; -652.000; -579.000
379.232;  -64.025; -126.000;  -73.000
379.362; -166.275;-1001.000; -885.000
379.492; -106.300; -373.000; -424.000
379.623;  -20.750;    0.000;  111.000
379.753; -158.550;-1107.000; -974.000
379.883;  -31.150;   59.000;  156.000
380.013; -188.125;-1081.000;-1017.000
380.143; -185.775;-1097.000;-1056.000
380.273; -158.450; -985.000; -861.000
380.403;  -62.325; -344.000; -257.000
380.533; -137.525; -651.000; -664.000
380.663;  -24.275;  173.000;  128.000
380.793; -170.050;-1027.000;-1074.000
380.923;  -69.025; -103.000;  -34.000
381.053; -134.450; -613.000; -623.000
381.183;  -62.300; -106.000; -248.000
381.313; -119.675; -656.000; -470.000
381.443; -105.375; -692.000; -473.000
381.573;  -91.350; -402.000; -409.000
381.703; -179.400;-1249.000;-1095.000
381.833; -212.175;-1454.000;-1336.000
381.963;  -47.625; -134.000;  -87.000
382.093; -153.700; -925.000; -909.000
382.223; -118.050; -713.000; -602.000
382.353; -137.750; -801.000; -608.000
382.482; -162.750;-1091.000; -964.000
382.612; -137.575; -872.000; -644.000
382.742; -124.125; -695.000; -622.000
382.872;  -94.975; -565.000; -551.000
383.002;  -27.900;  347.000; -132.000
383.131;  -82.300; -226.000; -160.000
383.261; -141.075; -706.000; -768.000
383.391; -109.100; -552.000; -377.000
383.521;   -2.950;  451.000;  263.000
383.650; -177.075; -947.000; -904.000
383.780; -113.375; -783.000; -656.000
383.910;   52.125;  880.000;  802.000
384.039; -137.975; -794.000; -656.000
384.169; -182.050;-1205.000;-1017.000
384.299; -120.650; -650.000; -662.000
384.428; -119.300; -764.000; -680.000
384.558;  -72.050; -308.000; -275.000
384.687;  -97.100; -414.000; -334.000
384.817;  -40.900;   75.000;   -2.000
384.947;  -61.600; -234.000; -141.000
385.076;   57.400;  982.000;  912.000
385.206;    6.425;  369.000;  480.000
385.335;  -95.425; -549.000; -417.000
385.465; -124.775; -655.000; -663.000
385.594;  -40.300;  -53.000;  -44.000
385.724; -142.125; -868.000; -838.000
385.853;  -90.550; -296.000; -270.000
385.982; -140.575; -743.000; -787.000
386.112; -147.475;-1052.000; -871.000
386.241;  -84.850; -307.000; -312.000
386.371;  -64.375; -174.000;  -87.000
386.500; -154.250; -825.000; -789.000
386.629; -130.950; -874.000; -817.000
386.759;  -50.525;  -43.000;   68.000
386.888;  -58.125; -170.000; -250.000
387.017; -128.275; -648.000; -620.000
387.147; -138.400; -771.000; -798.000
387.276; -105.925; -410.000; -397.000
387.405;  -82.525; -398.000; -342.000
387.535; -101.100; -452.000; -361.000
387.664; -123.775; -692.000; -620.000
387.793;  -62.450; -198.000; -113.000
387.922;  -13.975;  255.000;  200.000
388.052; -112.775; -576.000; -423.000
388.181;  -77.700; -342.000; -472.000
388.310; -140.325; -889.000; -710.000
388.439; -155.550; -749.000; -742.000
388.568;  -21.300;  365.000;  244.000
388.697; -134.800; -756.000; -653.000
388.826; -116.025; -768.000; -666.000
388.956;  -86.175; -285.000; -307.000
389.085;  -81.350; -347.000; -287.000
389.214; -140.875; -842.000; -872.000
389.343; -128.775; -645.000; -413.000
389.472;  -20.875;  126.000;  149.000
389.601;  -41.300;   91.000;    0.000
389.730; -118.000; -568.000; -687.000
389.859;   -2.125;  226.000;   46.000
389.988;  -91.000; -423.000; -408.000
390.117;  -79.300; -168.000; -146.000
390.246;  -81.975; -331.000; -320.000
390.375; -132.300; -673.000; -626.000
390.504; -114.075; -703.000; -621.000
390.633; -147.275; -672.000; -726.000
390.761; -136.150; -732.000; -645.000
390.890;  -54.000;   -4.000; -130.000
391.019; -106.425; -421.000; -441.000
391.148; -156.750; -826.000; -855.000
391.277; -110.950; -576.000; -493.000
391.406; -138.700; -821.000; -805.000
391.534;  -24.000;  574.000; -301.000
391.663; -108.375; -583.000; -645.000
391.792; -138.050; -673.000; -701.000
391.921;  -59.550;   -3.000;   15.000
392.050;  -82.325; -287.000; -228.000
392.178; -191.800;-1206.000;-1061.000
392.307; -139.700; -758.000; -712.000
392.436; -122.975; -427.000; -641.000
392.564;  -33.700;  166.000;   -6.000
392.693; -155.600; -860.000; -682.000
392.822; -115.925; -529.000; -534.000
392.950; -140.600; -880.000; -714.000
393.079;  -74.975; -188.000; -328.000
393.208; -112.450; -488.000; -511.000
393.336;  -52.500; -170.000; -145.000
393.465;  -66.850; -317.000; -199.000
393.593;  -34.525;   62.000;   79.000
393.722; -176.075;-1121.000; -916.000
393.850;  -65.175; -188.000;  -61.000
393.979; -168.100; -926.000; -805.000
394.107; -111.775; -517.000; -537.000
394.236; -116.775; -570.000; -507.000
394.364;  -19.175;  383.000;  206.000
394.493; -149.575; -911.000; -767.000
394.621; -168.275; -955.000; -916.000
394.750; -157.450; -873.000; -923.000
394.878;  -69.825; -247.000; -149.000
395.007; -145.050; -721.000; -807.000
395.135; -130.175; -790.000; -721.000
395.263; -180.750;-1038.000;-1040.000
395.392;  -44.025;  -25.000; -107.000
395.520; -152.050; -818.000; -679.000
395.648; -150.025; -865.000; -915.000
395.777; -100.950; -366.000; -405.000
395.905; -106.000; -449.000; -564.000
396.033;  -31.625;  217.000;  172.000
396.162; -102.475; -399.000; -453.000
396.290;  -62.775;  -17.000;   -2.000
396.418; -114.250; -555.000; -514.000
396.546; -116.675; -571.000; -466.000
396.674; -153.550; -850.000; -878.000
396.803;  -50.575;  -72.000;  -23.000
396.931;  -69.625; -179.000; -199.000
397.059; -183.400;-1026.000; -989.000
397.187; -151.350;-1026.000; -975.000
397.315; -145.350; -884.000; -649.000
397.443; -119.025; -592.000; -443.000
397.572; -114.925; -578.000; -424.000
397.700; -113.725; -607.000; -614.000
397.828;  -59.825;  120.000;  -90.000
397.956; -102.100; -508.000; -478.000
398.084; -131.625; -767.000; -626.000
398.212;  -37.600;  137.000;  124.000
398.340;  -55.625;  -56.000;  159.000
398.468;  -85.950; -390.000; -169.000
398.596; -169.525; -993.000; -953.000
398.724; -139.775; -762.000; -767.000
398.852; -169.700;-1024.000; -976.000
398.980; -117.450; -560.000; -560.000
399.108; -139.975; -982.000; -735.000
399.236;  -29.900;   13.000;    8.000
399.363;  -40.800;  222.000;  196.000
399.491; -101.950; -404.000; -398.000
399.619; -141.525; -829.000; -800.000
399.747; -145.125; -859.000; -771.000
399.875;   -5.800;  220.000;  234.000
400.003;  -76.550; -359.000; -284.000
400.130;  -96.925; -421.000; -341.000
400.258;  -47.900;  -83.000;   38.000
400.386;  -71.275; -352.000; -168.000
400.514; -105.300; -526.000; -587.000
400.641; -172.100; -928.000; -802.000
400.769; -166.950; -979.000; -888.000
400.897; -150.000; -838.000; -793.000
401.025;  -58.950; -166.000; -152.000
401.152;  -11.925;  220.000;   38.000
401.280;  -88.650; -430.000; -429.000
401.408; -129.025; -712.000; -576.000
401.535; -123.675; -735.000; -758.000
401.663; -195.850;-1134.000;-1054.000
401.790; -109.000; -514.000; -525.000
401.918;    1.950;  436.000;  405.000
402.046;  -33.125;  134.000;  122.000
402.173;  -52.500;  -18.000;    7.000
402.301; -100.600; -519.000; -397.000
402.428;   17.375;  528.000;  383.000
402.556; -172.100;-1188.000; -913.000
402.683;  -73.850;  -20.000;   -1.000
402.811;  -69.500;  -37.000; -206.000
402.938;  -60.550;   20.000;   27.000
403.066; -122.725; -574.000; -558.000
403.193;  -44.425;  299.000;  239.000
403.321; -102.450; -396.000; -574.000
403.448;  -39.700;   83.000;   27.000
403.575;  -65.400;  -90.000;  -46.000
403.703; -156.750; -732.000; -557.000
403.830; -122.725; -531.000; -496.000
403.957; -187.325;-1117.000;-1023.000
404.085;  -66.675;  -61.000; -172.000
404.212;  -59.875;  -50.000;   63.000
404.339;  -94.325; -566.000; -306.000
404.467; -119.400; -612.000; -524.000
404.594;  -71.800; -287.000; -227.000
404.721; -139.575; -869.000; -764.000
404.848;  -65.700; -113.000; -202.000
404.976; -161.750; -856.000; -783.000
405.103;  -51.525;  -14.000;  -82.000
405.230;  -44.950;  190.000;  226.000
405.357;  -50.225;  117.000;   44.000
405.484;  -73.200;  -49.000;    5.000
405.612; -115.250; -548.000; -563.000
405.739; -108.400; -488.000; -243.000
405.866;   22.800;  669.000;  385.000
405.993;  -90.575; -398.000; -102.000
406.120; -157.025; -801.000; -887.000
406.247; -106.775; -323.000; -342.000
406.374;   25.200;  540.000;  629.000
406.501; -127.850; -632.000; -702.000
406.628; -123.300; -621.000; -589.000
406.755; -139.975; -803.000; -620.000
406.882;  -89.200; -228.000; -277.000
407.009; -113.800; -719.000; -628.000
407.136; -102.425; -480.000; -401.000
407.263; -172.825; -939.000; -829.000
407.390; -119.150; -692.000; -614.000
407.517; -204.600;-1139.000;-1187.000
407.644;  -95.975; -332.000; -256.000
407.771; -172.450; -249.000; -287.000
407.898;  -23.475;  168.000;  328.000
408.025; -106.200; -421.000; -313.000
408.151;  -47.050;   82.000;  153.000
408.278; -100.925; -267.000; -216.000
408.405; -153.725; -931.000; -899.000
408.532; -123.075; -549.000; -542.000
408.659; -130.375; -677.000; -648.000
408.785; -207.075;-1298.000;-1170.000
408.912;  -89.550; -412.000; -296.000
409.039; -120.275; -610.000; -686.000
409.166; -120.550; -591.000; -555.000
409.292; -122.625; -571.000; -534.000
409.419; -136.000; -665.000; -649.000
409.546; -108.625; -431.000; -192.000
409.672; -117.575; -713.000; -545.000
409.799;  -58.250;  -36.000;   34.000
409.926;  -74.675; -180.000; -179.000
410.052; -208.475;-1127.000;-1091.000
410.179; -105.025; -368.000; -392.000
410.305; -117.025; -375.000; -493.000
410.432;  -64.375; -220.000; -333.000
410.558; -104.750; -305.000; -380.000
410.685; -118.700; -688.000; -431.000
410.812; -110.025; -409.000; -588.000
410.938; -150.875; -964.000; -808.000
411.065; -132.900; -671.000; -645.000
411.191;  -71.450; -189.000; -174.000
411.317; -159.525; -823.000; -742.000
411.444;  -97.225; -317.000; -246.000
411.570;  -77.700; -339.000; -294.000
411.697; -136.600; -758.000; -752.000
411.823; -185.900; -989.000; -999.000
411.949;  -65.450;  -56.000;   17.000
412.076; -128.625; -539.000; -519.000
412.202; -141.000; -758.000; -757.000
412.329; -156.225; -798.000; -752.000
412.455; -136.825; -821.000; -657.000
412.581;  -49.400;  -15.000;  172.000
412.707; -110.125; -540.000; -457.000
412.834;  -28.800;  156.000;  219.000
412.960; -141.750; -785.000; -784.000
413.086; -143.700; -743.000; -701.000
413.212;   15.475;  604.000;  578.000
413.339; -150.425; -685.000; -701.000
413.465; -109.700; -364.000; -310.000
413.591; -146.450; -757.000; -474.000
413.717;  -87.200; -358.000; -366.000
413.843; -158.300; -839.000; -861.000
413.969;  -89.150;  -47.000; -292.000
414.096; -138.200; -679.000; -679.000
414.222;  -47.500;  -33.000;   85.000
414.348; -123.200; -652.000; -385.000
414.474;  -60.450;   38.000;  -52.000
414.600;  -67.475; -126.000; -144.000
414.726;  -65.125;  -96.000;  -55.000
414.852; -109.575; -365.000; -342.000
414.978;  -22.125;  104.000;  -18.000
415.104;  -55.125;   38.000;   80.000
415.230; -118.325; -329.000; -330.000
415.356; -123.700; -409.000; -514.000
415.482;  -64.875;   13.000;  -35.000
415.608;  -81.875; -247.000; -323.000
415.734;  -55.875;   67.000;   38.000
415.860; -146.975; -875.000; -767.000
415.986; -131.850; -685.000; -607.000
416.111; -157.375; -798.000; -652.000
416.237; -114.325; -424.000; -571.000
416.363; -150.575; -765.000; -733.000
416.489;  -87.200; -324.000; -251.000
416.615; -158.850; -707.000; -742.000
416.741; -125.725; -677.000; -784.000
416.866; -144.550; -673.000; -736.000
416.992; -158.725; -801.000; -818.000
417.118;  -87.150;  -41.000;  -80.000
417.244; -142.525; -798.000; -531.000
417.369; -147.175; -801.000; -612.000
417.495;  -89.950; -325.000; -254.000
417.621; -177.125;-1015.000; -803.000
417.746; -115.575; -579.000; -572.000
417.872;  -83.200; -254.000; -144.000
417.998; -119.175; -515.000; -530.000
418.123; -162.575;-1073.000; -845.000
418.249; -118.575; -512.000; -601.000
418.374; -174.150; -916.000; -824.000
418.500; -109.650; -383.000; -482.000
418.626;  -45.600;   70.000;  -59.000
418.751; -105.850; -549.000; -448.000
418.877; -147.650; -637.000; -643.000
419.002; -126.175; -688.000; -560.000
419.128; -157.725; -930.000; -721.000
419.253; -160.400; -967.000; -837.000
419.379; -124.325; -391.000; -338.000
419.504;  -24.375;  325.000;  415.000
419.629;  -87.600; -393.000; -212.000
419.755;  -76.350; -317.000; -254.000
419.880;  -86.125;  -98.000;   67.000
420.006;  -87.400; -280.000; -221.000
420.131; -140.650; -662.000; -775.000
420.256;  -92.075; -315.000; -316.000
420.382; -142.350; -665.000; -687.000
420.507; -151.075; -649.000; -778.000
420.632; -100.350; -337.000; -339.000
420.758;  -83.725; -251.000; -425.000
420.883; -151.750; -876.000; -672.000
421.008; -142.700; -775.000; -619.000
421.133; -120.075; -509.000; -467.000
421.259;  -72.500; -325.000; -259.000
421.384; -155.725; -834.000; -693.000
421.509; -156.975;-1052.000; -862.000
421.634; -162.800; -936.000; -820.000
421.759; -106.700; -359.000; -327.000
421.885; -139.075; -717.000; -656.000
422.010; -123.225; -673.000; -542.000
422.135; -163.500; -695.000; -727.000
422.260;  -13.825;  340.000;  280.000
422.385;  -75.850;   12.000;  -98.000
422.510;  -36.350;  151.000;  -26.000
422.635;  -58.100;  -87.000;  -43.000
422.760; -138.525; -766.000; -791.000
422.885;  -63.800;  -57.000;  -80.000
423.010;  -47.525; -112.000; -169.000
423.135; -105.700; -481.000; -561.000
423.260;  -70.750; -150.000; -245.000
423.385;  -27.425;  476.000;  222.000
423.510;  -26.350;   71.000;  -22.000
423.635;  -49.475;  133.000;   45.000
423.760;  -13.075;  383.000;  328.000
423.885;  -11.650;  336.000;  391.000
424.010;  -57.075;  -68.000;  -13.000
424.135;  -64.525;    5.000;  -33.000
424.259; -128.825; -654.000; -457.000
424.384;  -98.550; -279.000; -272.000
424.509;  -74.400; -260.000; -186.000
424.634; -147.150; -761.000; -623.000
424.759; -117.600; -688.000; -544.000
424.883; -127.050; -506.000; -527.000
425.008; -121.825; -502.000; -410.000
425.133; -142.125; -679.000; -653.000
425.258; -121.725; -517.000; -381.000
425.382; -137.975; -867.000; -774.000
425.507; -118.100; -487.000; -543.000
425.632; -159.350; -802.000; -663.000
425.756;  -90.450; -256.000; -146.000
425.881; -155.125; -831.000; -857.000
426.006; -106.825; -604.000; -355.000
426.130; -133.000; -696.000; -508.000
426.255; -122.575; -611.000; -491.000
426.379;  -72.775; -189.000; -577.000
426.504;   24.125;  660.000;  544.000
426.629; -127.650; -519.000; -466.000
426.753;  -53.925;   64.000;  -46.000
426.878;  -90.600; -252.000; -288.000
427.002; -116.800; -651.000; -668.000
427.127;  -91.125;  -35.000; -158.000
427.251;   -9.250;  372.000;  401.000
427.375;  -82.775; -191.000; -173.000
427.500; -133.725; -616.000; -610.000
427.624;  -98.950; -234.000; -400.000
427.749;  -83.700; -216.000; -225.000
427.873; -122.775; -499.000; -412.000
427.997;  -79.550; -222.000; -230.000
428.122;   25.350;  795.000;  703.000
428.246;  -11.900;  433.000;  434.000
428.371; -161.675; -869.000; -773.000
428.495; -132.150; -624.000; -646.000
428.619;  -91.925; -186.000; -117.000
428.743;  -31.600;   65.000;  132.000
428.868; -145.300; -732.000; -643.000
428.992;  -97.575; -219.000; -326.000
429.116; -115.800; -329.000; -357.000
429.240;  -21.200;  419.000;  426.000
429.365; -112.575; -454.000; -574.000
429.489; -136.575; -638.000; -647.000
429.613;  -89.425; -236.000; -177.000
429.737; -122.275; -563.000; -432.000
429.861;  -88.450; -247.000; -133.000
429.985; -112.675; -425.000; -305.000
430.109; -165.375; -770.000; -908.000
430.234;  -25.925;   76.000;  -50.000
430.358;  -94.650; -250.000; -160.000
430.482; -143.700; -672.000; -564.000
430.606; -119.950; -655.000; -375.000
430.730; -116.925; -437.000; -388.000
430.854; -169.900; -909.000; -835.000
430.978; -142.050; -795.000; -764.000
431.102; -134.475; -499.000; -422.000
431.226; -159.825; -874.000; -815.000
431.350;  -19.875;  345.000;  422.000
431.474; -125.000; -661.000; -373.000
431.597; -183.500;-1060.000; -848.000
431.721;  -83.825; -276.000; -267.000
431.845; -153.450; -704.000; -472.000
431.969; -108.925; -304.000; -349.000
432.093; -107.300; -395.000; -317.000
432.217;  -56.900;   32.000;   82.000
432.341; -133.775; -523.000; -518.000
432.464;  -46.525;   96.000;   40.000
432.588; -113.475; -401.000; -329.000
432.712;  -77.175;  -52.000;  -52.000
432.836;  -30.550;  213.000;  263.000
432.959;  -93.700; -372.000; -311.000
433.083;  -74.675;   11.000;    2.000
433.207;    5.250;  285.000;  930.000
433.330;  -84.325; -391.000; -200.000
433.454; -115.600; -654.000; -638.000
433.578;   -0.900;  583.000;  278.000
433.701; -136.925; -623.000; -675.000
433.825; -109.150; -292.000; -299.000
433.949;  -71.600;   28.000;  -72.000
434.072; -103.525; -410.000; -323.000
434.196;  -80.800; -309.000; -117.000
434.319; 3525.125;25482.000;25124.000
434.443; -128.425; -656.000; -603.000
434.566;  -46.000;  281.000;   62.000
434.690; -123.350; -637.000; -383.000
434.813; -107.225; -251.000; -173.000
434.937; -135.425; -569.000; -696.000
435.060; -112.500; -423.000; -332.000
435.184; -100.850; -492.000; -217.000
435.307;  -52.425;  159.000;  102.000
435.431;  -55.625;  -40.000;   24.000
435.554;  -92.925; -399.000; -240.000
435.677;  -96.000; -350.000; -258.000
435.801;  -62.000;  -25.000;   49.000
435.924;  -72.825;    1.000;  -67.000
436.048; -177.875;-1019.000; -732.000
436.171; -101.250; -240.000;  -66.000
436.294; -102.300; -248.000; -229.000
436.417; -170.325; -963.000; -849.000
436.541; -154.600; -814.000; -840.000
436.664;  -75.925; -242.000; -316.000
436.787;  -57.500;   13.000;  113.000
436.910; -142.825; -792.000; -422.000
437.034;  -51.425;  142.000;  143.000
437.157;  -39.875;  -11.000;    0.000
437.280; -114.350; -392.000; -292.000
437.403; -168.150; -982.000; -869.000
437.526; -174.700; -903.000; -865.000
437.649; -113.650; -505.000; -332.000
437.772; -140.500; -692.000; -540.000
437.896;   -2.200;  700.000;  544.000
438.019; -161.750; -758.000; -503.000
438.142; -124.000; -596.000; -506.000
438.265; -144.575; -639.000; -670.000
438.388; -105.900; -520.000; -410.000
438.511; -131.975; -597.000; -394.000
438.634; -113.975; -247.000; -125.000
438.757; -155.575; -693.000; -619.000
438.880;  -60.275;  -34.000;  -57.000
439.003; -118.675; -417.000; -437.000
439.126; -105.175; -287.000; -167.000
439.248;  -78.150;  -98.000; -139.000
439.371;  -52.650;    9.000;  -53.000
439.494;    3.875;  510.000;  439.000
439.617;  -59.250;   65.000;  -88.000
439.740; -179.500; -968.000; -816.000
439.863; -158.550; -755.000; -595.000
439.986; -141.825; -476.000; -431.000
440.108;  -84.100; -161.000; -112.000
440.231; -179.175; -950.000; -836.000
440.354;  -82.675;  -64.000; -150.000
440.477; -124.300; -566.000; -542.000
440.599; -124.025; -200.000; -225.000
440.722; -144.850; -709.000; -586.000
440.845;   41.775;  751.000;  928.000
440.968; -119.175; -415.000; -311.000
441.090;  -88.475; -199.000;  -33.000
441.213; -176.525;-1021.000; -825.000
441.336;  -51.075; -159.000;   -5.000
441.458; -118.075; -549.000; -396.000
441.581; -139.225; -628.000; -629.000
441.703;  -96.850; -152.000;   13.000
441.826; -109.275; -557.000; -400.000
441.948;  -56.275;   56.000;   51.000
442.071;   -8.250;  555.000;  424.000
442.193; -134.600; -531.000; -485.000
442.316;  -52.825;  152.000;   97.000
442.438;  -87.150; -233.000;  -10.000
442.561;  -29.500;  272.000;  262.000
442.683; -155.725; -809.000; -522.000
442.806;  -75.775;   -8.000;   74.000
442.928; -160.425; -859.000; -604.000
443.051; -119.075; -577.000; -373.000
443.173; -101.250; -341.000; -339.000
443.295;  -99.275; -263.000; -371.000
443.418; -104.725; -321.000;  -29.000
443.540;  -69.350; -106.000;   -4.000
443.662; -150.350; -563.000; -465.000
443.785;  -30.100;  335.000;  199.000
443.907; -103.000; -362.000; -208.000
444.029; -143.425; -767.000; -494.000
444.152; -154.900; -644.000; -554.000
444.274;  -56.125;  -18.000;  -24.000
444.396; -127.625; -461.000; -221.000
444.518; -133.275; -691.000; -454.000
444.640; -122.200; -268.000; -111.000
444.763;  -33.275;  388.000;  249.000
444.885; -134.325; -432.000; -392.000
445.007;  -49.225;   35.000;   86.000
445.129; -126.950; -610.000; -515.000
445.251; -114.375; -372.000; -439.000
445.373; -153.100; -537.000; -386.000
445.495;  -39.600;  242.000;  350.000
445.617;   12.675;  853.000;  753.000
445.739;  -95.925; -215.000;  -97.000
445.861;  -88.225; -245.000; -112.000
445.984;  -98.225; -267.000; -101.000
446.105; -104.700; -418.000; -251.000
446.227;  -84.925; -176.000;  -19.000
446.349; -133.325; -358.000; -249.000
446.471; -142.050; -615.000; -448.000
446.593;  -95.850; -316.000;   19.000
446.715;  -76.200;  -67.000;   41.000
446.837;   31.800;  697.000;  832.000
446.959; -121.300; -457.000; -478.000
447.081; -147.900; -628.000; -518.000
447.203;   22.950;  862.000;  834.000
447.325;  -93.175; -270.000;   42.000
447.446;  -23.325;  286.000;  530.000
447.568; -176.700; -921.000; -803.000
447.690; -104.000; -236.000; -245.000
447.812; -159.125; -798.000; -519.000
447.933;  -47.825;  155.000;  127.000
448.055;  -93.325; -306.000; -261.000
448.177;  -51.525;   31.000;   79.000
448.299; -196.300; -935.000; -727.000
448.420;  -45.150;  -25.000;  159.000
448.542;  -65.525;   -3.000;   33.000
448.664;  -50.275;  109.000;  322.000
448.785;  -58.025;  265.000;   83.000
448.907; -131.225; -614.000; -353.000
449.028; -151.350; -771.000; -471.000
449.150;    4.675;  492.000;  589.000
449.272; -189.625;-1044.000; -913.000
449.393;    2.200;  612.000;  694.000
449.515; -170.150; -634.000; -581.000
449.636;  -99.375; -264.000; -155.000
449.758;   22.950;  763.000;  622.000
449.879; -116.375; -498.000; -396.000
450.001; -108.175; -149.000;  -49.000
450.122;  -63.900;  -95.000;  162.000
450.244;  -66.000;   37.000;  364.000
450.365; -119.400; -495.000; -301.000
450.486;  -67.950;   80.000;  268.000
450.608;  -26.500;  393.000;  326.000
450.729;  -14.175;  578.000;  645.000
450.850; -119.225; -574.000; -466.000
450.972; -149.225; -552.000; -389.000
451.093;  -32.050;  190.000;  588.000
451.214; -138.900; -516.000; -337.000
451.336;   30.750;  773.000;  579.000
451.457;  -40.625;  264.000;  393.000
451.578;  -76.475; -118.000;  -74.000
451.699; -137.175; -546.000; -540.000
451.821;  -81.575; -284.000;  -50.000
451.942;  -37.000;  278.000;  285.000
452.063;  -21.825;  228.000;  419.000
452.184; -103.725;  -54.000;  -49.000
452.305;  -48.925;  103.000;  170.000
452.427; -125.650; -549.000; -301.000
452.548;  -83.350;   23.000;   79.000
452.669; -110.750; -257.000;  -89.000
452.790;  -80.825;    3.000;  -18.000
452.911;  -53.025;  195.000;  259.000
453.032;  -94.050; -289.000;  -60.000
453.153;  -72.900;  -29.000;   81.000
453.274;   34.625;  737.000;  868.000
453.395;  -82.225;  -51.000;  175.000
453.516;   68.800; 1317.000; 1388.000
453.637; -105.275; -205.000; -150.000
453.758;  -67.100;   15.000;   69.000
453.879; -131.425; -462.000; -250.000
454.000;   52.100; 1086.000;  948.000
454.121; -143.425; -554.000; -326.000
454.242; -132.000; -599.000; -383.000
454.362;  -75.075;  -99.000;  114.000
454.483;  -94.825; -309.000; -229.000
454.604;  -11.625;  512.000;  580.000
454.725; -137.075; -627.000; -555.000
454.846; -133.150; -474.000; -406.000
454.967;  -39.100;  230.000;  539.000
455.087;  -49.625;  179.000;  153.000
455.208;    2.550;  554.000;  856.000
455.329;  -84.175;  -22.000;   82.000
455.450;   -3.700;  473.000;  633.000
455.570; -107.375; -234.000; -211.000
455.691;  -60.675;  201.000;  407.000
455.812; -118.775; -270.000;  -92.000
455.932;  -73.875;  107.000;  -97.000
456.053;  -85.175;   36.000;   24.000
456.173;  -98.675; -433.000; -355.000
456.294; -135.050; -476.000; -303.000
456.415;  -70.100;  -73.000;   70.000
456.535;  -37.375;  297.000;  273.000
456.656;  -51.850;  132.000;  240.000
456.776;  -66.275;    3.000;  298.000
456.897;  -16.450;  308.000;  513.000
457.017;  -99.575; -153.000;   -3.000
457.138; -123.575; -402.000; -249.000
457.258;  -48.525;  263.000;  224.000
457.379;  -39.525;  509.000;  521.000
457.499;  -39.275;  443.000;  432.000
457.620; -117.650; -407.000; -231.000
457.740; -106.900; -132.000;  -11.000
457.860;  -68.975;   87.000;   44.000
457.981;  -73.525;  132.000;  124.000
458.101;  -93.900;  -89.000;   40.000
458.221;  -34.475;  336.000;  402.000
458.342;  -78.425;   -4.000;  -37.000
458.462;  -23.775;  617.000;  352.000
458.582; -106.425; -302.000; -294.000
458.703;  -72.350;  303.000;  154.000
458.823;  -75.125;   22.000;  163.000
458.943;  -41.675;  341.000;  467.000
459.063;  -75.450; 1124.000;  192.000
459.183;  -53.400;  328.000;  313.000
459.304;  -37.075;  315.000;  517.000
459.424;  -98.625; -246.000;  -89.000
459.544;  -17.050;  388.000;  764.000
459.664;  -13.525;  499.000;  506.000
459.784;   36.225; 1004.000; 1175.000
459.904;   12.525;  867.000;  744.000
460.024;   28.775;  867.000;  684.000
460.144;  -19.700;  449.000;  554.000
460.264;  -30.600;  515.000;  327.000
460.385;  -99.525; -145.000; -119.000
460.505;   21.225;  905.000;  858.000
460.625; -110.225;  -17.000;  -68.000
460.745;  -35.825;  396.000;  541.000
460.864;  -58.000;  153.000;  469.000
460.984;  -19.725;  499.000;  573.000
461.104;  113.125; 1656.000; 1775.000
461.224;   -8.925;  657.000;  650.000
461.344;  -41.675;  431.000;  360.000
461.464;  -54.575;  258.000;  513.000
461.584;  -47.450;  283.000;  466.000
461.704;  -69.975;   58.000;  108.000
461.824;  -85.475;  238.000;  259.000
461.943;  -44.775;  191.000;  130.000
462.063;  -81.925;    2.000;  324.000
462.183;   10.875;  639.000;  717.000
462.303;   62.100; 1678.000; 1230.000
462.422;   14.175;  781.000;  840.000
462.542;  -69.675;  271.000;  391.000
462.662;  -32.325;  353.000;  380.000
462.782;  -16.775;  833.000;  572.000
462.901;  -11.500;  545.000;  717.000
463.021;  106.850; 1702.000; 1638.000
463.141;  -38.250;  337.000;  770.000
463.260;  -29.725;  614.000;  474.000
463.380;   -1.475;  902.000;  884.000
463.499;  -41.325;  342.000;  332.000
463.619;  -38.925;  581.000;  559.000
463.738;   82.000; 1644.000;  903.000
463.858;    8.850;  657.000;  811.000
463.978;  -49.700;  542.000;  396.000
464.097;   11.075;  921.000; 1114.000
464.217;   38.825; 1196.000; 1143.000
464.336;   41.175; 1068.000; 1130.000
464.455;  -44.750;  328.000;  659.000
464.575;   -9.750;  597.000;  602.000
464.694;   36.050; 1204.000; 1179.000
464.814;   13.525; 1190.000; 1138.000
464.933;   46.225; 1095.000; 1027.000
465.052;   67.475; 1412.000; 1054.000
465.172;   16.150;  922.000;  799.000
465.291;   66.150; 1376.000; 1320.000
465.410;   -0.750;  462.000;  735.000
465.530;   71.600; 1355.000; 1310.000
465.649;   40.075; 1209.000; 1273.000
465.768;   93.600; 1673.000; 1508.000
465.888;   13.775;  941.000; 1174.000
466.007;   74.900; 1335.000; 1440.000
466.126;   -3.875;  721.000;  641.000
466.245;   22.525; 1176.000; 1187.000
466.364;   20.425;  950.000; 1060.000
466.484;   32.800; 1024.000; 1213.000
466.603;    2.825; 1101.000; 1222.000
466.722;   84.850; 1490.000; 1769.000
466.841;   44.425; 1151.000; 1401.000
466.960;   25.000; 1069.000;  972.000
467.079;  109.025; 1971.000; 1786.000
467.198;   37.450; 1238.000; 1181.000
467.317;   88.975; 1768.000; 1162.000
467.436;   63.850; 1709.000; 1261.000
467.555;  115.025; 1796.000; 1746.000
467.674;   59.600; 1227.000; 1329.000
467.793;   47.475; 1376.000; 1374.000
467.912;   76.800; 1658.000; 1539.000
468.031;  108.925; 2038.000; 1930.000
468.150;  113.675; 1842.000; 1837.000
468.269;  171.475; 2313.000; 2090.000
468.388;  163.475; 2168.000; 2339.000
468.507;  234.225; 2884.000; 2903.000
468.626;  202.850; 2555.000; 2541.000
468.744;  136.875; 2018.000; 2174.000
468.863;  193.825; 2312.000; 2523.000
468.982;   99.125; 1503.000; 1555.000
469.101;  216.300; 2788.000; 2692.000
469.220;  157.450; 2333.000; 2176.000
469.338;  245.150; 2935.000; 3051.000
469.457;  194.775; 2719.000; 2545.000
469.576;  326.550; 3953.000; 3784.000
469.695;  227.775; 2877.000; 3066.000
469.813;  371.750; 4148.000; 4192.000
469.932;  377.575; 4255.000; 4485.000
470.051;  341.350; 4075.000; 4161.000
470.169;  376.575; 4470.000; 4338.000
470.288;  401.300; 4700.000; 4809.000
470.406;  451.025; 5059.000; 5194.000
470.525;  552.300; 6101.000; 5787.000
470.644;  611.475; 6847.000; 6794.000
470.762;  767.075; 8397.000; 7873.000
470.881;  838.925; 8651.000; 8464.000
470.999;  936.025; 9685.000; 9151.000
471.118; 1043.200;11174.000;10711.000

