
Integration time [ms]: 200.000
Averaging Nr. [scans]: 10
Smoothing Nr. [pixels]: 0
Data measured with spectrometer [name]: 2101012U2
Wave   ;Sample   ;Dark     ;Reference
[nm]   ;[counts] ;[counts] ;[counts] 

197.733;  128.700;  516.000;  404.000
197.879; -147.800; -610.000; -634.000
198.025; -123.700; -475.000; -420.000
198.171; -158.200; -602.000; -612.000
198.317;  -89.400; -401.000; -316.000
198.463; -134.600; -655.000; -404.000
198.609;   42.800;  181.000; -137.000
198.755; -161.600; -644.000; -410.000
198.901; -137.800; -505.000; -424.000
199.047; -149.400; -615.000; -488.000
199.193;  -97.400; -230.000; -468.000
199.339;  -90.000; -222.000; -369.000
199.485;   91.400;  330.000;  271.000
199.631;   29.900;  227.000;  310.000
199.777; -121.500; -466.000; -398.000
199.923; -136.100; -610.000; -424.000
200.069;  -12.500; -141.000;  -58.000
200.215;  102.500;  128.000;  453.000
200.361;   86.900;  243.000;  477.000
200.507; -153.000; -600.000; -373.000
200.653;  -52.600; -371.000; -194.000
200.798;  -87.800; -215.000; -125.000
200.944;   -4.300; -146.000;  -41.000
201.090;   65.300;   61.000;  222.000
201.236;   21.900; -116.000; -158.000
201.382;  226.600;  874.000;  903.000
201.528;  -16.700;  -58.000;  -48.000
201.674; -114.600; -386.000; -293.000
201.819; -130.500; -540.000; -439.000
201.965; -169.900; -699.000; -447.000
202.111;  -67.500; -273.000; -226.000
202.257; -103.700; -250.000; -238.000
202.402;   17.700;   13.000;  -36.000
202.548;  -77.500; -169.000; -116.000
202.694;  146.100;  410.000; -183.000
202.840; -144.400; -603.000; -531.000
202.985; -166.600; -681.000; -639.000
203.131; -189.600; -832.000; -666.000
203.277;  -43.300; -199.000; -262.000
203.423; -118.700; -434.000; -520.000
203.568;  -80.500; -462.000; -237.000
203.714; -162.200; -535.000; -542.000
203.860; -180.600; -682.000; -641.000
204.005;   43.200;  112.000;  167.000
204.151;  142.200;  561.000;  556.000
204.296; -110.600; -354.000; -221.000
204.442; -149.800; -600.000; -547.000
204.588; -166.600; -592.000; -579.000
204.733;    1.100;  178.000;  168.000
204.879; -315.000;-1018.000; -822.000
205.025;    4.200;  -99.000;  126.000
205.170;    0.300;  -17.000;   94.000
205.316;  163.400;  438.000;  661.000
205.461; -175.900; -698.000; -554.000
205.607;  135.300;  609.000;  665.000
205.752; -154.500; -626.000; -551.000
205.898; -105.500; -501.000; -391.000
206.043;  -93.200; -578.000; -506.000
206.189;  -99.800; -243.000; -285.000
206.334;  163.400;  554.000;  606.000
206.480;  166.000;  409.000;  239.000
206.625; -157.200; -529.000; -552.000
206.771;  -82.000; -451.000; -373.000
206.916;  -62.400; -210.000; -537.000
207.062; -155.200; -545.000; -591.000
207.207; -126.000; -546.000; -443.000
207.353;  103.700;  185.000;  460.000
207.498;   53.900;  196.000;   85.000
207.643; -108.500; -501.000; -370.000
207.789; -279.700;-1069.000; -910.000
207.934; -218.800; -665.000; -713.000
208.080;  -48.100; -154.000;   66.000
208.225;   16.700;  -22.000;  -57.000
208.370; -184.100; -727.000; -619.000
208.516; -159.500; -741.000; -487.000
208.661;  -84.600; -127.000;  -69.000
208.806;  -47.100; -165.000; -171.000
208.952; -252.800;-1044.000; -731.000
209.097;  133.300;  378.000;  349.000
209.242; -103.600; -307.000; -382.000
209.387;  114.200;  392.000;  350.000
209.533;  -84.600; -321.000; -350.000
209.678;  146.100;  472.000;  543.000
209.823; -114.500; -408.000; -310.000
209.969; -235.300; -860.000; -757.000
210.114; -215.100; -907.000; -719.000
210.259; -244.100; -939.000; -889.000
210.404;    1.100; -171.000;  103.000
210.549;   11.600;  108.000;    3.000
210.695;  -37.600;   -3.000;  -95.000
210.840;   85.200;   94.000;   67.000
210.985; -138.900; -484.000; -303.000
211.130;  110.000;  268.000;  406.000
211.275;   -7.900;  207.000;  199.000
211.420;  -98.100; -300.000; -289.000
211.566; -153.000; -536.000; -489.000
211.711;   32.900;  218.000;  157.000
211.856; -147.200; -545.000; -519.000
212.001;    6.500;  151.000;   44.000
212.146;   20.200;  153.000;   49.000
212.291;  -62.400; -210.000; -186.000
212.436;  -44.000; -280.000;   -6.000
212.581; -176.500; -685.000; -653.000
212.726; -183.000; -487.000; -538.000
212.871;  -89.800; -552.000; -217.000
213.016; -317.400;-1172.000;-1029.000
213.161;   97.800;  406.000;  291.000
213.306; -126.900; -435.000; -577.000
213.451; -201.500; -778.000; -689.000
213.596;  -84.100; -455.000; -347.000
213.741; -106.400; -448.000; -538.000
213.886; -180.200; -498.000; -517.000
214.031;  -26.200; -294.000; -124.000
214.176; -115.400; -408.000; -341.000
214.321;  -80.700; -296.000; -157.000
214.466;  -88.800; -163.000;  -43.000
214.611;  -26.300;  -61.000;  -10.000
214.756; -281.900; -948.000; -858.000
214.901;  -70.700; -388.000; -226.000
215.046; -262.600; -797.000; -825.000
215.191;   71.400;  128.000;   35.000
215.336;  -25.400; -157.000;  -19.000
215.480; -141.300; -684.000; -505.000
215.625;   -7.400; -175.000;  -19.000
215.770; -177.200; -757.000; -662.000
215.915;  -25.100;   -5.000;  -97.000
216.060;  -50.700; -113.000;  -21.000
216.205; -220.600; -731.000; -779.000
216.349; -166.300; -470.000; -533.000
216.494; -269.600; -939.000; -867.000
216.639; -236.600; -823.000; -888.000
216.784; -176.400; -577.000; -525.000
216.929;   99.600;  392.000;  281.000
217.073;  -23.400; -244.000;  -31.000
217.218;   19.600;   78.000;  -47.000
217.363; -182.100; -656.000; -618.000
217.507; -183.000; -623.000; -588.000
217.652; -267.300; -845.000; -874.000
217.797; -217.800; -708.000; -659.000
217.942; -210.900; -856.000; -720.000
218.086;  147.000;  608.000;  539.000
218.231;  -42.600; -174.000;  -26.000
218.376;  -80.800; -337.000; -229.000
218.520;   24.200;  -41.000;   96.000
218.665;  -72.200; -338.000; -204.000
218.810; -100.500; -275.000; -233.000
218.954;   36.900;  201.000;   35.000
219.099; -224.500; -713.000; -963.000
219.243; -168.800; -589.000; -554.000
219.388;  -48.700; -264.000; -136.000
219.532;  -28.500; -116.000; -116.000
219.677; -155.600; -564.000; -521.000
219.822;   46.700;   33.000;   89.000
219.966;   14.800;   17.000;  -99.000
220.111;  -54.900; -328.000;  -40.000
220.255; -204.900; -797.000; -750.000
220.400;  -37.700; -180.000; -146.000
220.544; -149.000; -516.000; -450.000
220.689; -107.700; -422.000; -451.000
220.833;  -36.000; -123.000;  -58.000
220.978; -123.800; -393.000; -563.000
221.122;   69.800;  319.000;  307.000
221.267; -260.600; -906.000; -837.000
221.411; -151.700; -478.000; -394.000
221.555;  -13.400; -104.000;  -23.000
221.700; -146.300; -329.000; -222.000
221.844;   73.100;  255.000;  272.000
221.989;  -95.000; -328.000; -311.000
222.133;  -63.200; -289.000; -307.000
222.277;  -16.400;    5.000;   78.000
222.422;   27.600;  227.000;  113.000
222.566;  -68.500; -381.000; -214.000
222.711; -121.100; -414.000; -479.000
222.855; -180.700; -643.000; -586.000
222.999; -167.700; -642.000; -717.000
223.144;  -67.400; -195.000; -194.000
223.288;  115.200;  423.000;  251.000
223.432;   40.100;  184.000;  230.000
223.576;   28.600;  152.000;  -21.000
223.721;   56.600;  364.000;  273.000
223.865; -100.700; -472.000; -475.000
224.009;  457.800; 1673.000; 1631.000
224.153; -180.700; -660.000; -671.000
224.298; -148.000; -531.000; -489.000
224.442;  -26.100;  -74.000;  -33.000
224.586;  -42.400; -169.000; -106.000
224.730; -177.700; -858.000; -670.000
224.875; -244.800; -739.000; -688.000
225.019;   22.100;  102.000;  188.000
225.163;  150.700;  208.000;  341.000
225.307;   27.600;   97.000;  -91.000
225.451;   97.200;  360.000;  481.000
225.595;   83.100;  264.000;  176.000
225.739;  -32.600; -170.000;  -94.000
225.884;   18.000;   86.000;    5.000
226.028; -182.800; -760.000; -626.000
226.172;  -36.900; -260.000; -273.000
226.316; -246.600; -941.000; -902.000
226.460; -141.200; -645.000; -493.000
226.604; -118.300; -406.000; -400.000
226.748; -197.700; -836.000; -733.000
226.892;  -64.500; -227.000; -181.000
227.036;  -80.900; -537.000; -447.000
227.180; -121.700; -551.000; -375.000
227.324; -134.400; -561.000; -580.000
227.468; -258.600; -819.000; -717.000
227.612;   51.800;  242.000;  -28.000
227.756; -207.000; -845.000; -698.000
227.900;  106.800;  342.000;  441.000
228.044;  -93.600; -509.000; -290.000
228.188;  142.600;  448.000;  568.000
228.332; -193.900; -546.000; -472.000
228.476;  -57.900; -223.000; -149.000
228.620;  -66.800; -210.000; -150.000
228.764;  132.500;  431.000;  349.000
228.908;  -49.900; -155.000;   30.000
229.052; -105.500; -615.000; -528.000
229.195;    6.600; -172.000;   13.000
229.339;  -66.600; -235.000; -305.000
229.483;  -39.900;    5.000; -162.000
229.627;    1.700; -156.000;  139.000
229.771;  -96.900; -218.000; -294.000
229.915;   29.200;  230.000;   79.000
230.059; -194.600; -648.000; -663.000
230.202;  -63.900; -370.000; -317.000
230.346;  -29.300; -107.000;  107.000
230.490; -150.600; -489.000; -521.000
230.634; -200.000; -736.000; -553.000
230.777;  150.600;  478.000;  509.000
230.921; -125.900; -450.000; -359.000
231.065;  -73.700; -246.000; -286.000
231.209;   72.900;  261.000;  265.000
231.352;   27.500;   54.000;   40.000
231.496;   14.600;  568.000;  188.000
231.640; -176.000; -693.000; -621.000
231.783;  117.100;  546.000;  525.000
231.927;  -85.300; -294.000; -365.000
232.071; -228.500; -962.000; -736.000
232.214; -220.600; -980.000; -764.000
232.358; -174.400; -683.000; -599.000
232.502;   -9.800;  -19.000;    7.000
232.645; -306.700;-1090.000; -927.000
232.789;  -46.400; -257.000; -218.000
232.933; -131.600; -407.000; -224.000
233.076; -236.200;-1038.000; -897.000
233.220; -198.600; -752.000; -777.000
233.363; -170.700; -669.000; -477.000
233.507;  109.400;  371.000;  129.000
233.650; -204.900; -764.000; -834.000
233.794;   93.000;  438.000;  461.000
233.938; -136.800; -530.000; -362.000
234.081;  -33.600;  -93.000;   31.000
234.225; -153.000; -631.000; -539.000
234.368; -245.200; -773.000; -723.000
234.512;  -73.300; -385.000; -299.000
234.655; -195.200; -582.000; -555.000
234.798; -174.000; -493.000; -466.000
234.942; -283.500; -884.000;-1002.000
235.085; -165.600; -651.000; -443.000
235.229; -159.000; -405.000; -410.000
235.372; -109.200; -247.000; -191.000
235.516; -126.000; -397.000; -321.000
235.659;   42.400;   92.000;  121.000
235.802;  -20.800;  -38.000;  -22.000
235.946;   27.300;  335.000;  215.000
236.089;   60.100;  126.000;  250.000
236.233;   86.800;  275.000;  298.000
236.376;  -71.700; -235.000; -378.000
236.519;  -75.400; -297.000; -319.000
236.663;  -37.300; -215.000; -117.000
236.806; -304.000;-1029.000; -999.000
236.949;  170.600;  543.000;  431.000
237.092;  129.100;  412.000;  391.000
237.236; -181.600; -589.000; -502.000
237.379;  118.100;  352.000;  428.000
237.522; -224.100; -879.000; -768.000
237.666;  -24.400; -271.000;   18.000
237.809; -265.700; -851.000; -823.000
237.952;   54.900;  469.000;  271.000
238.095; -100.500; -447.000; -442.000
238.238;  190.100;  688.000;  700.000
238.382;   35.300;  166.000;  103.000
238.525; -181.000; -598.000; -511.000
238.668; -280.700;-1060.000; -985.000
238.811; -161.100; -638.000; -643.000
238.954; -140.500; -483.000; -334.000
239.097;  183.800;  617.000;  664.000
239.241;   60.800;  394.000;  326.000
239.384;  -83.100; -254.000; -214.000
239.527; -107.100; -424.000; -224.000
239.670; -304.400; -994.000;-1091.000
239.813; -236.800; -696.000; -658.000
239.956;  169.400;  579.000;  473.000
240.099; -233.700; -778.000; -725.000
240.242;  153.300;  428.000;  432.000
240.385;  102.100;  466.000;  450.000
240.528; -154.400; -706.000; -473.000
240.671;   34.700;  189.000;  134.000
240.814;  -95.300; -441.000; -158.000
240.957; -203.500; -767.000; -578.000
241.100; -206.900; -779.000; -755.000
241.243; -304.800;-1234.000; -893.000
241.386; -137.500; -508.000; -379.000
241.529; -186.900; -735.000; -547.000
241.672; -136.600; -566.000; -495.000
241.815; -257.500; -832.000; -808.000
241.958;  -64.900; -125.000; -182.000
242.101; -152.600; -545.000; -390.000
242.244;  -82.000; -270.000; -325.000
242.387;  -70.000; -304.000; -246.000
242.530;  118.300;  470.000;  134.000
242.673;  -81.600; -381.000; -309.000
242.815; -221.900; -925.000; -899.000
242.958; -129.600; -482.000; -381.000
243.101;   16.600;  132.000;  187.000
243.244; -161.400; -564.000; -521.000
243.387;  -68.000; -313.000; -316.000
243.530; -184.600; -657.000; -674.000
243.672;   11.200;   43.000;  -92.000
243.815; -127.300; -355.000; -283.000
243.958;    0.900;   98.000;  -26.000
244.101;   11.800;   59.000;  -16.000
244.243;  -35.700;  -47.000;  101.000
244.386; -225.200; -761.000; -630.000
244.529;  -40.700; -132.000; -139.000
244.672; -331.900;-1154.000; -951.000
244.814; -175.700; -621.000; -794.000
244.957; -111.500; -380.000; -304.000
245.100; -127.700; -489.000; -489.000
245.242; -114.700; -387.000; -374.000
245.385;  -24.600;  -59.000;  -39.000
245.528; -244.800; -871.000; -705.000
245.670;  208.800;  612.000;  634.000
245.813; -181.700; -599.000; -547.000
245.956;  -90.600; -324.000; -275.000
246.098; -140.600; -508.000; -650.000
246.241;   14.300;  194.000;   48.000
246.383;  -41.200; -119.000;  -73.000
246.526; -144.900; -454.000; -525.000
246.669; -232.500; -889.000; -780.000
246.811;   47.700;  172.000;   -1.000
246.954;  -96.400; -512.000; -426.000
247.096;  -39.200;  -84.000;   -6.000
247.239; -142.500; -482.000; -445.000
247.381; -152.100; -647.000; -488.000
247.524;  185.000;  645.000;  679.000
247.666;    6.200;   58.000;   11.000
247.809; -238.300; -887.000; -691.000
247.951;  -14.400;  -75.000;  138.000
248.094;   95.900;  432.000;  308.000
248.236; -316.100;-1262.000;-1238.000
248.378;  -38.500; -356.000;  -81.000
248.521;  -66.400; -334.000; -337.000
248.663;  -56.200; -236.000; -267.000
248.806;  -66.400; -300.000; -266.000
248.948; -199.800; -886.000; -763.000
249.090; -116.700; -428.000; -398.000
249.233; -123.100; -344.000; -381.000
249.375; -135.700; -474.000; -451.000
249.518;  -46.700;  -83.000; -133.000
249.660;   20.200; -103.000;    3.000
249.802; -334.300;-1303.000;-1189.000
249.945; -122.400; -612.000; -540.000
250.087; -227.600; -834.000; -768.000
250.229;  -88.800; -362.000; -480.000
250.371; -140.900; -494.000; -439.000
250.514;  -89.000; -310.000; -244.000
250.656;   -4.700;   69.000;  102.000
250.798; -232.800; -849.000; -800.000
250.940; -107.300; -322.000; -322.000
251.083;  -56.500; -335.000; -111.000
251.225;  130.400;  338.000;  310.000
251.367;  -69.100; -274.000; -373.000
251.509;  -51.200; -265.000; -210.000
251.651; -207.800; -731.000; -671.000
251.794;  119.600;  538.000;  632.000
251.936; -216.400; -821.000; -747.000
252.078; -157.700; -540.000; -461.000
252.220; -117.200; -645.000; -477.000
252.362;  136.400;  344.000;  462.000
252.504; -174.400; -677.000; -584.000
252.646; -208.500; -875.000; -722.000
252.788;  -21.400;   14.000; -128.000
252.931;  -63.100; -257.000; -253.000
253.073;  -87.400; -376.000; -317.000
253.215;  -10.700;  141.000;  122.000
253.357;  -28.800;   82.000; -153.000
253.499;  -86.400; -374.000; -234.000
253.641; -180.100; -749.000; -594.000
253.783; -184.200; -609.000; -527.000
253.925; -165.800; -586.000; -591.000
254.067; -231.200; -744.000; -667.000
254.209;  -78.500; -391.000; -259.000
254.351; -271.700; -865.000; -883.000
254.493; -143.700; -441.000; -417.000
254.635; -250.800; -936.000; -818.000
254.777; -193.900; -752.000; -687.000
254.918; -161.600; -512.000; -430.000
255.060; -127.900; -551.000; -395.000
255.202; -122.800; -473.000; -261.000
255.344; -150.500; -658.000; -455.000
255.486; -122.900; -471.000; -406.000
255.628; -217.000; -780.000; -781.000
255.770; -185.800; -676.000; -536.000
255.912; -122.500; -559.000; -468.000
256.053; -164.200; -730.000; -508.000
256.195;  293.600; 1008.000;  903.000
256.337; -196.800; -861.000; -595.000
256.479;  144.600;  532.000;  416.000
256.621;  -93.700; -394.000; -212.000
256.762; -184.300; -789.000; -742.000
256.904;  105.100;  485.000;  487.000
257.046;  -88.100; -381.000; -271.000
257.188;  -83.200; -351.000; -264.000
257.329; -157.800; -525.000; -464.000
257.471; -236.800; -939.000; -807.000
257.613; -112.400; -584.000; -498.000
257.755; -299.600;-1073.000; -982.000
257.896;   62.700;  286.000;  392.000
258.038; -131.000; -403.000; -352.000
258.180;  -51.800; -354.000; -279.000
258.321; -184.200; -581.000; -457.000
258.463;  -12.600;  -71.000;  133.000
258.605; -179.700; -562.000; -570.000
258.746; -195.300; -886.000; -772.000
258.888; -294.000;-1026.000;-1020.000
259.029;   26.500;  121.000;   -8.000
259.171; -181.300; -614.000; -550.000
259.313;  -10.700;  -49.000;  -47.000
259.454; -146.800; -536.000; -414.000
259.596; -103.500; -483.000; -390.000
259.737; -121.000; -590.000; -474.000
259.879;   88.600;  217.000;  311.000
260.020;  176.000;  901.000;  636.000
260.162;  -55.500; -146.000; -253.000
260.303; -226.000; -768.000; -687.000
260.445; -169.600; -609.000; -613.000
260.586;   88.600;  392.000;  157.000
260.728;  -74.300; -360.000; -248.000
260.869; -157.700; -350.000; -343.000
261.011;  160.800;  706.000;  537.000
261.152; -122.500; -479.000; -319.000
261.293; -167.100; -576.000; -595.000
261.435;  -42.000; -219.000; -184.000
261.576;  -97.700; -455.000; -325.000
261.718;  107.400;  420.000;  470.000
261.859; -228.800; -940.000; -949.000
262.000; -268.100; -951.000;-1016.000
262.142;  -42.700;  -52.000;  -60.000
262.283; -225.100; -808.000; -691.000
262.424; -160.400; -666.000; -625.000
262.566; -306.600;-1161.000; -983.000
262.707; -233.300; -840.000; -830.000
262.848; -238.200; -769.000; -726.000
262.990;  -72.300; -362.000; -345.000
263.131;  186.400;  650.000;  681.000
263.272;   28.200;  -61.000;  -41.000
263.413; -195.900; -589.000; -561.000
263.555; -104.100; -669.000; -143.000
263.696; -174.600; -550.000; -641.000
263.837; -121.600; -449.000; -551.000
263.978;  -12.800;   -5.000;  -77.000
264.119; -100.300; -283.000; -264.000
264.261; -245.500; -847.000; -630.000
264.402;   30.100;   33.000;   40.000
264.543; -153.900; -509.000; -524.000
264.684;   -7.700;   61.000;  -50.000
264.825; -134.800; -816.000; -538.000
264.966;    1.500;  -84.000;  -67.000
265.107; -213.700; -646.000; -670.000
265.248; -243.600; -825.000; -812.000
265.390;   -2.200;  152.000;   -9.000
265.531;  -52.800; -238.000; -107.000
265.672; -171.600; -557.000; -630.000
265.813;  148.100;  563.000;  439.000
265.954; -299.700; -959.000; -940.000
266.095;   -8.800; -372.000; -322.000
266.236; -200.800; -686.000; -548.000
266.377;  -66.300; -243.000; -297.000
266.518; -134.900; -619.000; -547.000
266.659;   29.000;  170.000;  268.000
266.800;    6.500;   83.000;   85.000
266.941; -144.600; -487.000; -478.000
267.082;   30.000;  354.000;   99.000
267.223;  -99.600; -344.000; -273.000
267.364; -235.000; -892.000; -686.000
267.504;  -21.000;    3.000;  135.000
267.645;    2.900;  160.000;   67.000
267.786;  -47.700; -147.000;  -86.000
267.927; -148.600; -473.000; -379.000
268.068;  -26.100; -186.000;  -61.000
268.209;  -78.300; -175.000; -413.000
268.350;  -78.900; -388.000; -532.000
268.490; -176.600; -648.000; -521.000
268.631;   69.400;  127.000;  225.000
268.772; -208.900; -874.000; -647.000
268.913;  -99.200; -328.000; -476.000
269.054;  -34.400; -117.000;   12.000
269.194; -107.500; -418.000; -402.000
269.335; -305.000;-1137.000;-1074.000
269.476;  -26.300;   33.000;  -35.000
269.617;  -95.200; -347.000; -392.000
269.757; -177.500; -713.000; -646.000
269.898; -218.500; -856.000; -613.000
270.039; -103.600; -415.000; -405.000
270.180; -250.500; -952.000; -816.000
270.320;  -69.600; -190.000; -250.000
270.461;  -89.500; -277.000; -249.000
270.602;  -10.300; -186.000; -156.000
270.742; -246.000; -868.000; -943.000
270.883; -122.600; -442.000; -390.000
271.023; -125.100; -358.000; -357.000
271.164; -165.500; -607.000; -528.000
271.305; -203.900; -666.000; -654.000
271.445; -174.000; -722.000; -683.000
271.586; -124.000; -462.000; -283.000
271.726; -105.600; -397.000; -322.000
271.867; -170.700; -594.000; -534.000
272.008;  122.500; -473.000; -285.000
272.148;  151.900;  462.000;  468.000
272.289;  -14.300; -113.000; -181.000
272.429;   14.900;   19.000;  185.000
272.570; -182.800; -633.000; -737.000
272.710; -214.600; -825.000; -775.000
272.851;  -43.800;  113.000; -130.000
272.991; -334.500;-1173.000;-1077.000
273.131; -131.700; -419.000; -459.000
273.272; -214.900; -683.000; -723.000
273.412;  -21.800; -143.000;  -31.000
273.553; -123.800; -488.000; -507.000
273.693;  221.900;  913.000;  858.000
273.834; -235.100; -894.000; -692.000
273.974; -142.800; -664.000; -615.000
274.114; -215.900; -772.000; -560.000
274.255;  116.600;  414.000;  373.000
274.395;  -52.200; -180.000; -125.000
274.535;   49.400;  199.000;  350.000
274.676;   62.800;  225.000;   94.000
274.816;   12.200;  110.000;   34.000
274.956; -193.000; -624.000; -690.000
275.097; -225.400;-1014.000; -922.000
275.237; -241.800; -913.000; -803.000
275.377; -213.500; -778.000; -689.000
275.517; -297.100; -878.000; -937.000
275.658; -143.000; -590.000; -555.000
275.798; -151.800; -606.000; -413.000
275.938;   66.800;  215.000;  323.000
276.078; -187.200; -626.000; -395.000
276.218;    3.800;   99.000;  104.000
276.359; -258.000;-1026.000;-1024.000
276.499; -154.600; -605.000; -446.000
276.639;  -59.000; -305.000; -151.000
276.779; -108.300; -475.000; -357.000
276.919; -216.000; -783.000; -624.000
277.059;  -42.100; -261.000; -212.000
277.199;  -62.500; -357.000; -259.000
277.340;  102.200;  287.000;  175.000
277.480; -226.700; -840.000; -693.000
277.620;   85.400;  192.000;   16.000
277.760; -408.300;-1533.000;-1294.000
277.900;    3.500;  113.000;   33.000
278.040;   18.500;  137.000;  159.000
278.180;   60.900;  270.000;  170.000
278.320;  -23.500;   21.000;   56.000
278.460; -133.600; -443.000; -469.000
278.600; -203.200; -708.000; -598.000
278.740;   92.900;  448.000;  224.000
278.880; -221.400; -768.000; -791.000
279.020;  -43.000; -194.000; -144.000
279.160; -184.300; -672.000; -595.000
279.300; -256.500; -926.000; -873.000
279.440; -184.500; -709.000; -622.000
279.579; -185.700;-1014.000; -929.000
279.719; -130.900; -410.000; -394.000
279.859;   82.400;   -4.000;   41.000
279.999;  -17.100; -208.000;  101.000
280.139;  -74.000; -435.000; -387.000
280.279; -183.500; -708.000; -745.000
280.419;  -44.700; -229.000; -147.000
280.559;  -48.300; -259.000; -180.000
280.698; -152.000; -790.000; -639.000
280.838; -217.200; -778.000; -800.000
280.978; -188.300; -846.000; -790.000
281.118; -235.400; -811.000; -704.000
281.257;   34.500;   24.000;    6.000
281.397; -290.900;-1094.000; -960.000
281.537; -188.400; -599.000; -712.000
281.677;  -34.400; -150.000; -101.000
281.816; -162.900; -700.000; -630.000
281.956;  -62.700; -193.000; -257.000
282.096; -105.500; -539.000; -396.000
282.235; -203.500; -672.000; -638.000
282.375;  -40.400; -243.000;  -98.000
282.515; -192.600; -715.000; -707.000
282.654;   45.300;   29.000;  106.000
282.794;   66.100;  388.000;  244.000
282.934;  -90.200; -530.000; -491.000
283.073; -248.500;-1030.000; -857.000
283.213;  -83.400; -460.000; -467.000
283.353;  -79.400; -408.000; -349.000
283.492;  -48.300; -264.000; -296.000
283.632;  -73.600; -254.000; -168.000
283.771; -164.600; -859.000; -730.000
283.911; -102.800; -369.000; -260.000
284.050; -213.300; -794.000; -748.000
284.190; -295.900;-1229.000;-1096.000
284.329; -265.200;-1055.000; -964.000
284.469; -149.300; -516.000; -591.000
284.608; -123.900; -559.000; -598.000
284.748; -137.400; -614.000; -570.000
284.887;   12.300;  -87.000;  -20.000
285.027; -266.400; -844.000; -892.000
285.166;  -40.200; -192.000; -249.000
285.306;  -18.300; -116.000;  -33.000
285.445;  -77.800; -229.000; -343.000
285.584; -173.400; -630.000; -494.000
285.724;  -83.700; -282.000; -322.000
285.863; -221.800; -857.000; -507.000
286.002;  -69.300; -366.000; -276.000
286.142; -221.100; -715.000; -622.000
286.281; -156.400; -525.000; -493.000
286.420; -141.700; -554.000; -417.000
286.560;  207.700;  653.000;  623.000
286.699; -256.700; -958.000; -912.000
286.838; -155.700; -590.000; -591.000
286.978; -182.200; -533.000; -537.000
287.117; -268.200;-1085.000; -950.000
287.256;  -59.800; -228.000; -211.000
287.395;  -71.500; -197.000; -378.000
287.535;  -73.700; -370.000; -298.000
287.674; -141.100; -509.000; -484.000
287.813;  155.100;  661.000;  533.000
287.952; -260.900;-1010.000; -871.000
288.091; -324.400;-1049.000; -915.000
288.231;   25.500;   13.000;   15.000
288.370; -321.100;-1217.000;-1200.000
288.509; -189.100; -728.000; -645.000
288.648; -158.500; -770.000; -548.000
288.787;  -60.700; -243.000;  -87.000
288.926; -124.500; -454.000; -475.000
289.065;  223.000;  859.000;  672.000
289.204;  -82.700; -377.000; -217.000
289.344; -154.700; -791.000; -690.000
289.483;   48.300;  416.000;  304.000
289.622;  -51.100; -291.000; -149.000
289.761;  -20.400; -309.000; -166.000
289.900; -198.300; -785.000; -626.000
290.039;  -19.400;  -12.000;  -95.000
290.178;  -97.200; -274.000; -180.000
290.317; -144.000; -618.000; -479.000
290.456; -116.600; -463.000; -451.000
290.595; -249.600; -961.000; -833.000
290.734; -287.000; -904.000; -891.000
290.873; -139.500; -456.000; -420.000
291.011; -210.900; -833.000; -843.000
291.150; -199.200; -770.000; -682.000
291.289;  -54.300; -343.000; -110.000
291.428; -174.500; -599.000; -480.000
291.567; -111.200; -370.000; -442.000
291.706;    4.100;  109.000;  154.000
291.845; -145.100; -597.000; -505.000
291.984; -334.700;-1234.000;-1061.000
292.122;  179.200;  602.000;  582.000
292.261;  108.700;  620.000;  463.000
292.400;   12.900; -144.000;  211.000
292.539; -247.800; -959.000; -813.000
292.678;  -68.900; -325.000; -300.000
292.816; -314.400;-1136.000; -965.000
292.955; -204.700; -844.000; -684.000
293.094;  -26.600; -173.000; -337.000
293.233;  -95.700; -556.000; -400.000
293.371;  -69.400; -225.000;  -84.000
293.510; -219.100; -866.000; -780.000
293.649; -271.300; -959.000; -924.000
293.787; -209.700;-1083.000;-1012.000
293.926;  -21.600; -113.000;  -32.000
294.065;  -90.400; -379.000; -290.000
294.203;   98.900;  298.000;  406.000
294.342;   24.900;   74.000;  156.000
294.481;11741.500;51180.000; -836.000
294.619;  -72.900; -425.000; -582.000
294.758; -281.300;-1230.000;-1137.000
294.896;   39.500; -125.000;    5.000
295.035; -254.400;-1040.000;-1006.000
295.174; -264.600;-1082.000; -954.000
295.312;  -76.100; -323.000; -203.000
295.451;  -76.900; -307.000; -428.000
295.589; -142.900; -389.000; -518.000
295.728;   17.100; -292.000; -165.000
295.866;   -1.600;  -36.000;  -51.000
296.005; -164.600; -584.000; -341.000
296.143; -148.000; -558.000; -596.000
296.282; -208.000; -957.000; -881.000
296.420; -167.000; -657.000; -557.000
296.559; -171.400; -892.000; -633.000
296.697;  -77.300; -847.000; -665.000
296.835; -155.600;-1141.000;-1002.000
296.974;   58.800;  -23.000;   39.000
297.112;  -58.200; -443.000; -504.000
297.251; -143.100; -815.000; -755.000
297.389;    8.400; -576.000; -438.000
297.527;   41.000; -145.000;  -83.000
297.666; -126.700; -486.000; -438.000
297.804; -108.900; -404.000; -264.000
297.942;   -4.900; -136.000; -161.000
298.081;  -46.800; -183.000;   63.000
298.219;   60.800;  -17.000;  -19.000
298.357;   20.900; -144.000;  -71.000
298.495; -136.200; -810.000; -812.000
298.634;   33.200;  245.000;  219.000
298.772;  -20.900; -220.000; -338.000
298.910;  -91.400; -309.000; -182.000
299.048;  -26.600; -130.000; -153.000
299.187;  -61.200; -350.000; -250.000
299.325;   -6.500;   52.000;  122.000
299.463;  -33.700; -389.000; -299.000
299.601;   13.100; -327.000; -271.000
299.739; -230.000; -908.000; -883.000
299.877; -175.100; -791.000; -703.000
300.016; -242.700;-1095.000; -935.000
300.154;  102.600;  -19.000; -161.000
300.292;  -46.800; -428.000; -348.000
300.430;  -50.300; -408.000; -291.000
300.568; -244.900; -940.000; -874.000
300.706; -117.700; -366.000; -469.000
300.844; -225.800;-1108.000; -979.000
300.982;  140.800;  246.000;  282.000
301.120; -246.800; -965.000; -866.000
301.258; -156.600; -812.000; -705.000
301.396;   16.300;  104.000;  -41.000
301.534;   -2.900; -218.000; -293.000
301.672; -139.500; -664.000; -521.000
301.810; -114.500; -613.000; -545.000
301.948;  134.500;   53.000;  149.000
302.086;  366.900; -250.000;  -32.000
302.224;  562.200; -610.000; -585.000
302.362;  -94.000; -558.000; -622.000
302.500; -193.000; -923.000; -893.000
302.638;   54.800;  128.000;  245.000
302.776;  -51.800; -352.000; -408.000
302.913;  113.100;  447.000;  236.000
303.051;  -42.700;  -86.000;  -23.000
303.189;   51.500;   90.000;  118.000
303.327;  -90.800; -341.000; -256.000
303.465; -169.500; -832.000; -588.000
303.603; -171.600; -805.000; -604.000
303.740;  113.400;  417.000;  241.000
303.878; -131.200; -800.000; -759.000
304.016; -200.400; -915.000; -790.000
304.154; -296.600;-1123.000;-1152.000
304.291; -104.100; -505.000; -554.000
304.429;   14.000;  102.000;   74.000
304.567; -256.600; -908.000; -893.000
304.705; -114.600; -408.000; -515.000
304.842;  -68.700; -616.000; -540.000
304.980;   47.100;  215.000;   35.000
305.118;  -21.700; -367.000; -365.000
305.255; -238.200; -945.000; -927.000
305.393;   71.800;  178.000;  239.000
305.531; -260.600;-1173.000; -956.000
305.668; -162.500; -663.000; -582.000
305.806;   -5.300; -358.000; -439.000
305.943;  -57.800; -629.000; -637.000
306.081;    0.400; -378.000; -267.000
306.219; -226.000; -863.000; -748.000
306.356;   17.400;  158.000;   27.000
306.494;  272.700;  981.000;  761.000
306.631;   28.200;  -11.000;  -55.000
306.769;  -20.500; -613.000; -485.000
306.906;  -29.800; -284.000; -258.000
307.044;  -63.900; -473.000; -488.000
307.181; -100.300; -410.000; -332.000
307.319;  112.600;  112.000;   87.000
307.456; -338.300;-1191.000;-1153.000
307.594; -189.300; -980.000; -727.000
307.731;  -35.200; -371.000; -164.000
307.868;    3.600;  -15.000;   20.000
308.006; -233.000; -961.000; -847.000
308.143; -131.600; -618.000; -330.000
308.281;  127.400;  -37.000; -254.000
308.418;  -89.000; -748.000; -640.000
308.555; -116.800; -400.000; -250.000
308.693; -112.200; -577.000; -573.000
308.830; -165.000; -712.000; -657.000
308.967;    7.500; -215.000;  -95.000
309.105;   -8.400; -507.000; -396.000
309.242;  -10.400; -468.000; -367.000
309.379;  191.900; -577.000; -655.000
309.517; -139.200; -936.000; -948.000
309.654; -153.900; -910.000; -734.000
309.791;  -83.600; -662.000; -580.000
309.928; -158.200; -977.000; -914.000
310.065;  323.200;  819.000;  697.000
310.203; -121.900; -825.000; -850.000
310.340;   -2.700; -465.000; -321.000
310.477; -139.500; -412.000; -516.000
310.614;  -64.700; -383.000; -473.000
310.751;  -45.500; -427.000; -518.000
310.889;  -27.000;    1.000;   11.000
311.026; -259.000;-1161.000; -939.000
311.163;  -59.900; -386.000; -380.000
311.300;  -99.300; -512.000; -479.000
311.437;  -94.500; -658.000; -619.000
311.574; -286.900;-1226.000; -985.000
311.711; -128.700; -595.000; -433.000
311.848;  -13.100; -380.000; -388.000
311.985;   59.200;  270.000;   93.000
312.122; -187.900; -932.000; -762.000
312.259; -207.700; -941.000; -994.000
312.396;  -78.300; -508.000; -551.000
312.533; -139.700; -812.000; -790.000
312.670; -229.000;-1070.000; -898.000
312.807;   -0.400; -352.000; -367.000
312.944;  -99.900; -513.000; -611.000
313.081;  -22.200; -150.000; -415.000
313.218; -221.800;-1111.000; -867.000
313.355;  -39.400; -531.000; -449.000
313.492;  -16.000; -455.000; -292.000
313.629;  267.300;  815.000;  735.000
313.766; -282.900;-1176.000;-1008.000
313.902;  -15.200; -186.000;   21.000
314.039;  -81.800; -372.000; -289.000
314.176;   91.700;  286.000;  192.000
314.313; -112.600; -569.000; -473.000
314.450; -143.400; -788.000; -684.000
314.587; -110.500; -468.000; -480.000
314.723;   27.700;  -78.000;  130.000
314.860;  118.700;  318.000;  332.000
314.997;   58.800;  223.000;  142.000
315.134;  -69.700; -385.000; -368.000
315.270;  -68.700; -480.000; -496.000
315.407; -237.200;-1094.000; -967.000
315.544; -132.100; -657.000; -538.000
315.681; -155.400; -681.000; -565.000
315.817;   10.200; -133.000; -176.000
315.954;  -89.300; -613.000; -392.000
316.091; -271.900;-1045.000;-1023.000
316.227;    4.700;  -71.000; -179.000
316.364;   30.000;   23.000;    6.000
316.500;  -69.700; -113.000; -300.000
316.637;  -41.800; -181.000; -302.000
316.774; -182.400; -625.000; -358.000
316.910; -158.300; -598.000; -629.000
317.047; -110.000; -487.000; -351.000
317.183; -120.500; -435.000; -566.000
317.320;  -92.500; -367.000; -321.000
317.456; -173.100; -733.000; -805.000
317.593; -166.300; -598.000; -641.000
317.729;   41.400;  168.000;  -67.000
317.866; -381.200;-1434.000;-1285.000
318.002; -177.000; -708.000; -948.000
318.139; -208.500; -883.000; -867.000
318.275; -241.500;-1003.000; -738.000
318.412; -113.900; -517.000; -336.000
318.548; -146.300; -751.000; -720.000
318.685; -228.200; -985.000; -888.000
318.821; -175.500; -762.000; -735.000
318.957;  -44.900;   34.000;  -23.000
319.094;   80.400;  297.000;  154.000
319.230; -173.000; -756.000; -742.000
319.367;   57.600; -471.000; -520.000
319.503;  -20.500; -538.000; -436.000
319.639; -221.200; -877.000; -793.000
319.775; -173.300; -750.000; -685.000
319.912; -100.700; -424.000; -519.000
320.048; -274.500;-1184.000;-1184.000
320.184;   86.600;   59.000;   70.000
320.321; -154.500; -497.000; -467.000
320.457;  134.000;  475.000;  662.000
320.593; -118.900; -375.000; -382.000
320.729; -176.600; -732.000; -734.000
320.866; -143.200; -577.000; -635.000
321.002; -195.000; -759.000; -809.000
321.138;  -66.400; -135.000; -211.000
321.274;   34.600; -148.000; -115.000
321.410; -120.800; -585.000; -353.000
321.546; -199.300;-1011.000; -911.000
321.683;   95.000;  400.000;  185.000
321.819;   -7.500;  -48.000; -117.000
321.955; -218.500; -743.000; -722.000
322.091; -127.300; -585.000; -540.000
322.227;  -43.200; -382.000; -202.000
322.363;  -65.400; -320.000; -215.000
322.499;  -95.800; -343.000; -331.000
322.635;  191.300;  636.000;  443.000
322.771;   -4.800; -139.000;   12.000
322.907;  136.900;  129.000;  327.000
323.043;  -40.000; -115.000; -206.000
323.179;  -80.000; -394.000; -363.000
323.315;  -80.500; -401.000; -371.000
323.451;   -4.400; -328.000; -236.000
323.587;   52.200;  -60.000;  -77.000
323.723; -112.800; -682.000; -601.000
323.859;  -55.500; -258.000;  -76.000
323.995; -119.800; -467.000; -409.000
324.131; -290.900; -967.000; -892.000
324.267;  -80.500; -254.000; -276.000
324.402; -264.300; -960.000; -983.000
324.538;  -46.600; -279.000; -104.000
324.674;   21.100;  164.000;   77.000
324.810;  155.200;  226.000;  308.000
324.946;  -45.500; -810.000; -658.000
325.082; -127.400; -568.000; -475.000
325.217;  -21.600;  -62.000;   16.000
325.353; -173.200; -764.000; -659.000
325.489; -165.600; -540.000; -506.000
325.625; -151.400; -579.000; -525.000
325.760;  117.900;  517.000;  376.000
325.896; -109.400; -515.000; -702.000
326.032;  -95.600; -403.000; -352.000
326.168; -104.300; -462.000; -369.000
326.303; -105.700; -352.000; -461.000
326.439;  -63.100; -336.000; -276.000
326.575;    9.100; -190.000;  -29.000
326.710;   -3.400; -156.000;  -30.000
326.846;   -1.400;  146.000;  103.000
326.982; -159.500; -530.000; -548.000
327.117; -146.400; -481.000; -442.000
327.253; -198.900; -745.000; -742.000
327.388; -305.400;-1137.000;-1153.000
327.524; -148.400; -811.000; -578.000
327.659;   -9.500;  -58.000;  -22.000
327.795;   -2.400;   69.000;   45.000
327.931; -163.400; -723.000; -499.000
328.066;  -63.400; -417.000; -276.000
328.202;  -22.900;   12.000; -129.000
328.337;  214.000;  957.000;  713.000
328.473;    9.700;  -12.000;  -74.000
328.608;  -44.900; -256.000; -267.000
328.743; -221.000; -799.000; -664.000
328.879;   61.500;  214.000;  114.000
329.014; -111.300; -102.000; -122.000
329.150; -153.700; -358.000; -483.000
329.285; -144.200; -465.000; -466.000
329.421;  -48.400; -548.000; -246.000
329.556;   -1.100;  -36.000;   85.000
329.691; -187.000; -633.000; -615.000
329.827; -144.000; -626.000; -480.000
329.962;  -37.900;  131.000; -301.000
330.097; -186.300; -673.000; -585.000
330.233;  -59.600; -410.000; -223.000
330.368; -234.200; -839.000; -628.000
330.503;  -35.100;    3.000;   98.000
330.638;   33.700;  -93.000; -125.000
330.774; -132.500; -609.000; -530.000
330.909;  -94.900; -434.000; -244.000
331.044; -155.800; -714.000; -708.000
331.179; -333.600;-1217.000;-1109.000
331.315;   32.900;   77.000;   20.000
331.450;   28.200;  157.000;  285.000
331.585; -164.900; -805.000; -706.000
331.720; -189.900; -510.000; -460.000
331.855;  -18.300;  -35.000; -102.000
331.990;  191.300;   62.000;  138.000
332.126;   80.200; -110.000;   71.000
332.261;  -67.000; -379.000; -265.000
332.396;  -36.400; -135.000; -242.000
332.531; -282.100;-1074.000;-1031.000
332.666;  -42.100; -519.000; -363.000
332.801; -206.900; -726.000; -807.000
332.936;  -39.100; -192.000; -122.000
333.071; -281.400; -870.000; -817.000
333.206;   46.300;  307.000;  379.000
333.341;   77.800;  344.000;  418.000
333.476; -166.500; -627.000; -623.000
333.611;  -75.400; -251.000; -173.000
333.746;  -59.200; -381.000; -464.000
333.881; -205.900; -973.000; -935.000
334.016; -246.400; -936.000; -917.000
334.151; -229.800; -746.000; -702.000
334.286;   44.100;  152.000;  186.000
334.421;  -48.900; -125.000; -178.000
334.556; -168.600; -611.000; -567.000
334.690; -209.100; -631.000; -577.000
334.825;  136.200;  381.000;   83.000
334.960; -105.700; -285.000; -413.000
335.095;  -23.000;  135.000;  -91.000
335.230; -225.200; -722.000; -738.000
335.365; -287.000;-1084.000; -990.000
335.499; -284.200;-1108.000;-1037.000
335.634;   33.200;    9.000;  534.000
335.769; -224.200; -755.000; -720.000
335.904; -146.300; -603.000; -561.000
336.038; -201.000; -735.000; -657.000
336.173; -299.700;-1206.000;-1194.000
336.308;  -50.400; -116.000; -189.000
336.443;  -58.000; -544.000; -634.000
336.577; -227.800; -936.000; -787.000
336.712;   43.500;   -4.000;  -12.000
336.847; -159.300; -724.000; -607.000
336.981;  -47.500; -272.000; -208.000
337.116;  264.300;  615.000;  501.000
337.250;   -2.500; -434.000; -421.000
337.385;  159.600; -297.000; -208.000
337.520;  -32.900; -632.000; -603.000
337.654; -102.300; -215.000; -126.000
337.789; -243.600; -989.000; -933.000
337.923;  -61.200; -104.000; -205.000
338.058; -193.600; -673.000; -738.000
338.192; -117.700; -611.000; -488.000
338.327;  -20.800;  -18.000; -155.000
338.461; -131.100; -299.000; -469.000
338.596; -187.300; -780.000; -638.000
338.730; -204.900; -767.000; -803.000
338.865;   84.200;  -46.000; -140.000
338.999; -181.100; -846.000; -702.000
339.134; -158.000; -634.000; -536.000
339.268; -118.600; -741.000; -603.000
339.403;   85.300; -740.000; -775.000
339.537;  -64.800; -894.000; -820.000
339.671; -210.800; -829.000; -813.000
339.806; -159.200; -556.000; -512.000
339.940;  -33.600; -261.000; -235.000
340.074; -204.700; -685.000; -510.000
340.209;  -98.300; -351.000; -230.000
340.343; -153.800; -517.000; -573.000
340.477;  319.500;  998.000; 1036.000
340.612; -172.100;-1033.000; -900.000
340.746;   55.700; -199.000; -243.000
340.880; -203.600; -924.000; -785.000
341.014;  -24.000;  -45.000; -154.000
341.149; -193.400; -756.000; -718.000
341.283; -192.500; -839.000; -754.000
341.417; -258.000;-1124.000; -938.000
341.551;  -39.700; -768.000; -708.000
341.685; -114.200; -633.000; -611.000
341.820; -123.400; -562.000; -493.000
341.954; -125.500; -218.000; -349.000
342.088; -286.600;-1102.000;-1019.000
342.222;   88.300;  565.000;  618.000
342.356; -143.100; -395.000; -335.000
342.490; -190.900; -880.000; -841.000
342.624;  -75.900; -339.000; -242.000
342.758;  -47.800; -364.000; -312.000
342.892; -154.900; -710.000; -585.000
343.026;  -35.000;  -58.000; -116.000
343.160; -110.400; -426.000; -376.000
343.294; -143.300; -474.000; -337.000
343.428; -108.500; -488.000; -448.000
343.562;  -41.700; -172.000;  -23.000
343.696;  -57.000; -385.000; -314.000
343.830;  -69.400; -362.000; -356.000
343.964;   -5.200; -231.000; -168.000
344.098;  705.200;  199.000;   70.000
344.232;  519.200; -266.000; -127.000
344.366;  -50.700; -567.000; -453.000
344.500;  -40.000; -665.000; -744.000
344.634;   -9.400; -324.000; -164.000
344.768; -112.300; -531.000; -341.000
344.902;   45.300;  278.000;  256.000
345.035; -129.700; -556.000; -496.000
345.169; -277.200; -933.000; -656.000
345.303;  -82.300; -308.000; -482.000
345.437; -183.800; -826.000; -717.000
345.571; -155.100; -675.000; -594.000
345.704; -129.000; -309.000; -532.000
345.838;  -49.900; -331.000; -284.000
345.972; -139.600; -543.000; -495.000
346.106;   88.900; -179.000; -190.000
346.239;  232.300; -312.000; -243.000
346.373;  -61.600; -343.000; -302.000
346.507; -284.400; -950.000; -962.000
346.640;   91.000;  -30.000;   13.000
346.774; -155.400; -650.000; -797.000
346.908;  -23.400; -138.000;  -11.000
347.041; -190.300; -646.000; -593.000
347.175;   23.900;  259.000;   27.000
347.309; -148.400; -698.000; -628.000
347.442; -237.300; -883.000; -732.000
347.576;  302.100;  670.000;  668.000
347.709;  124.900; -123.000;  -52.000
347.843; -221.000; -933.000; -825.000
347.976;   85.800;  235.000;  294.000
348.110; -318.200;-1268.000;-1186.000
348.243; -169.500; -679.000; -772.000
348.377;   12.600;  -26.000;   60.000
348.510;   93.200;  403.000;  540.000
348.644;  -51.200;  -37.000; -159.000
348.777;   21.400;  180.000;  191.000
348.911;  -42.200; -142.000; -112.000
349.044;  205.400;  471.000;  448.000
349.178;  -84.500;-1069.000;-1006.000
349.311;  137.300;  141.000;  255.000
349.444; -162.600; -927.000; -813.000
349.578;  -57.400; -347.000; -200.000
349.711; -236.100; -959.000; -862.000
349.845; -108.300; -661.000; -591.000
349.978; -333.600;-1224.000;-1137.000
350.111; -155.800; -546.000; -612.000
350.244; -173.300; -596.000; -700.000
350.378;  -48.500; -392.000; -393.000
350.511; -143.700; -393.000; -426.000
350.644; -214.000; -808.000; -806.000
350.778;   23.400;  168.000;  104.000
350.911;   34.400;  134.000;  140.000
351.044; -203.600; -685.000; -615.000
351.177;  -71.800; -321.000; -281.000
351.310;  -13.700;    3.000; -131.000
351.444; -229.700; -888.000; -788.000
351.577;   78.000;  140.000;   90.000
351.710;  205.300;  593.000;  417.000
351.843;  -42.700; -165.000;  -77.000
351.976;   10.900;  149.000;  -79.000
352.109; -181.000; -621.000; -612.000
352.242; -105.200; -464.000; -419.000
352.376; -162.700; -580.000; -636.000
352.509;   23.200; -437.000; -356.000
352.642; -167.700; -654.000; -604.000
352.775;   20.000; -141.000;  -98.000
352.908; -264.900; -933.000; -904.000
353.041; -244.800; -814.000; -824.000
353.174; -143.100; -551.000; -424.000
353.307; -204.000; -753.000; -764.000
353.440;  130.800;  541.000;  453.000
353.573; -263.000; -957.000;-1008.000
353.706; -176.000; -384.000; -558.000
353.839;  -84.400; -264.000; -220.000
353.971; -199.300; -657.000; -512.000
354.104; -211.500; -896.000; -835.000
354.237; -143.800; -627.000; -662.000
354.370; -201.000; -846.000; -879.000
354.503; -365.100;-1231.000;-1308.000
354.636;  -94.100; -529.000; -348.000
354.769; -248.900; -937.000; -860.000
354.902;  -69.200; -230.000; -139.000
355.034;  -37.400; -164.000; -220.000
355.167;  -71.600; -262.000; -162.000
355.300; -228.100;-1061.000; -880.000
355.433;  674.900;  -71.000;  -14.000
355.565;  896.400; -402.000; -384.000
355.698;  191.000; -356.000; -296.000
355.831; -161.800; -882.000; -801.000
355.964;   18.200; -285.000; -170.000
356.096; -199.400; -856.000; -843.000
356.229; -119.000; -523.000; -530.000
356.362;  156.300; -373.000; -266.000
356.494;  371.000; -229.000; -162.000
356.627;  365.700;  269.000;  377.000
356.760;  432.900;  120.000;   53.000
356.892;  541.400; -286.000; -601.000
357.025;  467.000;  403.000;  389.000
357.157;  340.700; -167.000; -179.000
357.290;  399.800; -856.000; -713.000
357.423;   51.300; -667.000; -556.000
357.555;   17.400; -217.000; -228.000
357.688;  -41.600; -483.000; -364.000
357.820;  112.800; -870.000; -877.000
357.953; 2362.200; -563.000; -589.000
358.085;  409.200; -632.000; -612.000
358.218;  552.400;-1131.000; -932.000
358.350;  120.200;  -58.000;  312.000
358.483; -318.500;-1300.000;-1187.000
358.615; -201.600;-1182.000;-1078.000
358.747; -283.200;-1187.000;-1058.000
358.880; -111.700; -810.000; -744.000
359.012;  -43.700; -376.000; -202.000
359.145; -101.500; -480.000; -511.000
359.277; -135.400; -962.000; -913.000
359.409; 2068.300;  536.000;  231.000
359.542;  369.400; -738.000; -688.000
359.674;   57.900;   46.000;   13.000
359.806; -149.300; -565.000; -438.000
359.939;  -98.800; -617.000; -516.000
360.071; -104.100; -583.000; -579.000
360.203;  -49.700; -411.000; -364.000
360.335;   25.800;  164.000;  -16.000
360.468;   94.600; -249.000; -307.000
360.600; 1516.900; -547.000; -454.000
360.732; 1722.200; -546.000; -423.000
360.864;   11.100;-1216.000;-1044.000
360.996;  100.300; -516.000; -554.000
361.129;  -58.500; -389.000; -598.000
361.261;   -2.100;  110.000; -113.000
361.393;  -59.400; -252.000; -214.000
361.525;    6.300;   94.000;  244.000
361.657; -174.300; -821.000; -703.000
361.789;    8.700; -139.000; -155.000
361.921;   28.600; -642.000; -593.000
362.053;  280.400;  524.000;  541.000
362.185;   72.400;  288.000;   72.000
362.318; -201.700; -709.000; -705.000
362.450;  139.400;  294.000;  444.000
362.582; -106.200; -913.000; -870.000
362.714;  -68.100; -353.000; -332.000
362.846; -158.700; -606.000; -490.000
362.978; -246.900; -941.000; -811.000
363.109;   -3.700; -161.000; -260.000
363.241;   91.300; -739.000; -749.000
363.373;  159.400; -649.000; -564.000
363.505;  426.100; -186.000;  -91.000
363.637;  -15.100; -787.000; -601.000
363.769; -309.800;-1067.000;-1080.000
363.901; -137.300; -596.000; -654.000
364.033; -274.600;-1103.000;-1062.000
364.165;  -46.700; -283.000; -283.000
364.296;   15.400; -316.000; -177.000
364.428; -159.100;-1344.000;-1220.000
364.560; -148.500; -679.000; -661.000
364.692; -135.200; -738.000; -835.000
364.824;   55.600; -588.000; -456.000
364.955;  220.400; -402.000; -564.000
365.087;  446.400;-1097.000; -852.000
365.219; -107.000; -686.000; -816.000
365.351; -115.900; -526.000; -572.000
365.482;   83.100;  300.000;  240.000
365.614; -117.500; -402.000; -314.000
365.746; -197.000; -729.000; -752.000
365.877; -199.000; -706.000; -672.000
366.009;  195.700;  -35.000;  -62.000
366.141; -289.100;-1249.000;-1134.000
366.272; -203.400; -803.000; -719.000
366.404; -219.900;-1005.000; -874.000
366.535;  -15.900; -139.000;  -12.000
366.667; -185.300; -644.000; -649.000
366.799;   84.300;  353.000;  203.000
366.930; -229.200; -862.000; -996.000
367.062;  -15.200; -639.000; -613.000
367.193;  -60.200; -872.000; -842.000
367.325; -136.600; -580.000; -684.000
367.456;   -8.100; -246.000;   31.000
367.588;   51.700; -371.000; -318.000
367.719;   10.000;  -44.000;  -45.000
367.851;  -34.600; -222.000; -241.000
367.982; -218.300; -875.000; -732.000
368.113;   17.500; -475.000; -358.000
368.245; -252.600; -960.000; -841.000
368.376;  -31.800; -254.000; -302.000
368.508;  -52.800; -188.000; -263.000
368.639; -287.600;-1166.000;-1034.000
368.770; -119.400; -670.000; -589.000
368.902; -207.300; -836.000; -926.000
369.033; -246.000; -906.000; -855.000
369.164; -141.700; -720.000; -653.000
369.296; -219.900; -452.000; -601.000
369.427;  -36.100; -209.000; -144.000
369.558;  -80.800; -593.000; -377.000
369.689; -184.500; -721.000; -569.000
369.821; -254.200; -951.000; -845.000
369.952;  -21.800;   42.000; -108.000
370.083;  -90.600; -229.000; -108.000
370.214; -199.500; -735.000; -650.000
370.345;   31.200;   65.000;   81.000
370.477; -209.600; -810.000; -790.000
370.608;  142.900; -328.000; -264.000
370.739; -227.200;-1233.000;-1292.000
370.870; -181.900;-1102.000; -923.000
371.001;   -9.800; -378.000; -467.000
371.132; -173.300; -754.000; -735.000
371.263;  -22.600;  -42.000; -148.000
371.394; -236.000; -841.000; -748.000
371.525;   64.700;  345.000;  225.000
371.657; -210.300; -808.000; -670.000
371.788;   91.800;  103.000;  199.000
371.919;   49.500; -384.000; -304.000
372.050; 2961.800;  -91.000; -156.000
372.181;  799.300; -188.000; -294.000
372.311;  253.600;   42.000; -127.000
372.442;  -79.400; -457.000; -451.000
372.573;  -54.500; -444.000; -340.000
372.704; -284.000;-1008.000; -980.000
372.835;   -8.500; -228.000; -289.000
372.966; -148.800; -646.000; -554.000
373.097; -178.600; -575.000; -711.000
373.228; -139.100; -717.000; -542.000
373.359;  -19.300; -824.000; -536.000
373.490;  503.900; -881.000; -727.000
373.620;  606.100;-1001.000; -803.000
373.751; 1371.000; -332.000; -396.000
373.882;  487.800; -663.000; -733.000
374.013;    1.200; -449.000; -262.000
374.143; -125.800; -581.000; -659.000
374.274; -259.300; -987.000; -908.000
374.405;   52.900; -388.000; -276.000
374.536;  237.400; -526.000; -387.000
374.666;  710.300; -759.000; -807.000
374.797;   20.300; -817.000; -868.000
374.928;  497.800; -710.000; -560.000
375.058;  517.800; -535.000; -500.000
375.189;   51.800;  -59.000;  -93.000
375.320; -279.500; -928.000;-1034.000
375.450; -136.700; -625.000; -616.000
375.581; -144.700; -526.000; -436.000
375.712;  -58.000; -574.000; -250.000
375.842;  101.400; -438.000; -415.000
375.973;   27.100; -554.000; -513.000
376.103; -155.500; -665.000; -648.000
376.234; -152.600; -531.000; -552.000
376.364; -181.400; -944.000; -867.000
376.495;  390.500;  925.000;  529.000
376.625; -121.800; -472.000; -485.000
376.756;  -59.800; -709.000; -678.000
376.886; -285.200;-1178.000;-1026.000
377.017; -137.100;-1048.000;-1061.000
377.147;   80.000; -786.000; -782.000
377.278;   60.800;  174.000;  228.000
377.408; -250.100; -801.000; -815.000
377.538; -196.900; -707.000; -693.000
377.669; -153.700; -537.000; -613.000
377.799; -190.100; -645.000; -635.000
377.929; -132.200; -610.000; -428.000
378.060; -221.000; -781.000; -847.000
378.190; -175.200; -726.000; -531.000
378.320; -116.000; -401.000; -406.000
378.451;  -17.000; -131.000;  -22.000
378.581;   19.200;  -67.000; -110.000
378.711;  233.600; 1035.000;  866.000
378.841;  -99.900; -533.000; -675.000
378.972; -214.600; -871.000; -751.000
379.102;  -81.900; -652.000; -579.000
379.232;  -53.400; -126.000;  -73.000
379.362; -234.100;-1001.000; -885.000
379.492;  -93.700; -373.000; -424.000
379.623;  107.300;    0.000;  111.000
379.753; -225.000;-1107.000; -974.000
379.883;  190.800;   59.000;  156.000
380.013; -189.500;-1081.000;-1017.000
380.143; -264.100;-1097.000;-1056.000
380.273; -264.700; -985.000; -861.000
380.403;  -33.600; -344.000; -257.000
380.533; -174.000; -651.000; -664.000
380.663;   99.100;  173.000;  128.000
380.793; -290.800;-1027.000;-1074.000
380.923;  -26.600; -103.000;  -34.000
381.053; -176.000; -613.000; -623.000
381.183;  -27.500; -106.000; -248.000
381.313;  -96.900; -656.000; -470.000
381.443;  -41.300; -692.000; -473.000
381.573;   69.900; -402.000; -409.000
381.703;  -15.400;-1249.000;-1095.000
381.833; -308.100;-1454.000;-1336.000
381.963;   98.200; -134.000;  -87.000
382.093;  853.200; -925.000; -909.000
382.223;  162.400; -713.000; -602.000
382.353; -133.900; -801.000; -608.000
382.482;  110.000;-1091.000; -964.000
382.612;  395.400; -872.000; -644.000
382.742;  164.600; -695.000; -622.000
382.872;   84.900; -565.000; -551.000
383.002;   78.400;  347.000; -132.000
383.131;  -47.800; -226.000; -160.000
383.261; -131.600; -706.000; -768.000
383.391;   80.200; -552.000; -377.000
383.521; 2243.500;  451.000;  263.000
383.650;  306.700; -947.000; -904.000
383.780; -133.900; -783.000; -656.000
383.910;  186.200;  880.000;  802.000
384.039; -132.000; -794.000; -656.000
384.169;  -96.800;-1205.000;-1017.000
384.299; -121.800; -650.000; -662.000
384.428; -160.700; -764.000; -680.000
384.558;  -78.200; -308.000; -275.000
384.687; -111.500; -414.000; -334.000
384.817;    4.600;   75.000;   -2.000
384.947;   19.700; -234.000; -141.000
385.076;  357.000;  982.000;  912.000
385.206;  159.200;  369.000;  480.000
385.335; -112.100; -549.000; -417.000
385.465; -170.700; -655.000; -663.000
385.594;  116.000;  -53.000;  -44.000
385.724;  154.600; -868.000; -838.000
385.853;   35.100; -296.000; -270.000
385.982;  992.100; -743.000; -787.000
386.112; 1520.800;-1052.000; -871.000
386.241;   61.500; -307.000; -312.000
386.371;   10.200; -174.000;  -87.000
386.500; -128.800; -825.000; -789.000
386.629; -123.800; -874.000; -817.000
386.759;   21.200;  -43.000;   68.000
386.888;  -24.600; -170.000; -250.000
387.017; -163.600; -648.000; -620.000
387.147; -186.100; -771.000; -798.000
387.276;  -73.400; -410.000; -397.000
387.405;  -55.500; -398.000; -342.000
387.535;  -90.200; -452.000; -361.000
387.664; -142.600; -692.000; -620.000
387.793;    8.000; -198.000; -113.000
387.922;  441.200;  255.000;  200.000
388.052;  -82.700; -576.000; -423.000
388.181;  -52.100; -342.000; -472.000
388.310; -153.200; -889.000; -710.000
388.439; -201.300; -749.000; -742.000
388.568;  164.000;  365.000;  244.000
388.697;  674.100; -756.000; -653.000
388.826;   31.000; -768.000; -666.000
388.956;   -1.700; -285.000; -307.000
389.085;  -78.500; -347.000; -287.000
389.214; -202.400; -842.000; -872.000
389.343; -118.500; -645.000; -413.000
389.472;  324.800;  126.000;  149.000
389.601;  403.900;   91.000;    0.000
389.730;  -76.500; -568.000; -687.000
389.859;  109.300;  226.000;   46.000
389.988;  106.800; -423.000; -408.000
390.117;   71.100; -168.000; -146.000
390.246;  -45.800; -331.000; -320.000
390.375;  -52.400; -673.000; -626.000
390.504; -146.100; -703.000; -621.000
390.633; -231.800; -672.000; -726.000
390.761; -166.700; -732.000; -645.000
390.890;  -16.200;   -4.000; -130.000
391.019;  -68.000; -421.000; -441.000
391.148; -229.300; -826.000; -855.000
391.277; -147.500; -576.000; -493.000
391.406; -175.600; -821.000; -805.000
391.534;   96.600;  574.000; -301.000
391.663; -152.200; -583.000; -645.000
391.792; -183.400; -673.000; -701.000
391.921;   80.700;   -3.000;   15.000
392.050;  125.900; -287.000; -228.000
392.178; -218.700;-1206.000;-1061.000
392.307;   20.600; -758.000; -712.000
392.436;  -39.400; -427.000; -641.000
392.564;   47.300;  166.000;   -6.000
392.693; -205.200; -860.000; -682.000
392.822;   89.600; -529.000; -534.000
392.950;  -79.900; -880.000; -714.000
393.079;  233.000; -188.000; -328.000
393.208; -101.100; -488.000; -511.000
393.336;  -21.100; -170.000; -145.000
393.465;  -60.300; -317.000; -199.000
393.593;   22.800;   62.000;   79.000
393.722; -274.200;-1121.000; -916.000
393.850;  -49.100; -188.000;  -61.000
393.979; -274.500; -926.000; -805.000
394.107; -138.000; -517.000; -537.000
394.236; -111.100; -570.000; -507.000
394.364;  236.600;  383.000;  206.000
394.493;  103.400; -911.000; -767.000
394.621; -149.700; -955.000; -916.000
394.750;  285.600; -873.000; -923.000
394.878; 1838.400; -247.000; -149.000
395.007; 2226.200; -721.000; -807.000
395.135;   15.200; -790.000; -721.000
395.263; -261.200;-1038.000;-1040.000
395.392;   26.300;  -25.000; -107.000
395.520; -168.700; -818.000; -679.000
395.648; -218.100; -865.000; -915.000
395.777; -101.500; -366.000; -405.000
395.905;  -95.300; -449.000; -564.000
396.033;   42.600;  217.000;  172.000
396.162;  370.900; -399.000; -453.000
396.290;  386.400;  -17.000;   -2.000
396.418;  -62.600; -555.000; -514.000
396.546; -214.600; -571.000; -466.000
396.674; -205.900; -850.000; -878.000
396.803;    1.200;  -72.000;  -23.000
396.931;   16.500; -179.000; -199.000
397.059; -189.700;-1026.000; -989.000
397.187; -222.600;-1026.000; -975.000
397.315; -257.100; -884.000; -649.000
397.443; -172.900; -592.000; -443.000
397.572; -176.300; -578.000; -424.000
397.700; -147.300; -607.000; -614.000
397.828;  -28.000;  120.000;  -90.000
397.956; -105.700; -508.000; -478.000
398.084; -187.100; -767.000; -626.000
398.212;   51.600;  137.000;  124.000
398.340;   21.000;  -56.000;  159.000
398.468;  -33.400; -390.000; -169.000
398.596; -262.700; -993.000; -953.000
398.724; -231.900; -762.000; -767.000
398.852; -281.600;-1024.000; -976.000
398.980; -127.300; -560.000; -560.000
399.108; -191.000; -982.000; -735.000
399.236;   -4.900;   13.000;    8.000
399.363;   31.600;  222.000;  196.000
399.491; -132.800; -404.000; -398.000
399.619; -248.700; -829.000; -800.000
399.747; -240.200; -859.000; -771.000
399.875;  118.100;  220.000;  234.000
400.003;  -85.900; -359.000; -284.000
400.130; -156.100; -421.000; -341.000
400.258;  -12.900;  -83.000;   38.000
400.386; -115.400; -352.000; -168.000
400.514; -145.500; -526.000; -587.000
400.641; -230.400; -928.000; -802.000
400.769; -243.700; -979.000; -888.000
400.897; -189.900; -838.000; -793.000
401.025;  -39.100; -166.000; -152.000
401.152;   -6.600;  220.000;   38.000
401.280; -139.400; -430.000; -429.000
401.408; -213.000; -712.000; -576.000
401.535; -179.400; -735.000; -758.000
401.663; -340.700;-1134.000;-1054.000
401.790; -129.900; -514.000; -525.000
401.918;  108.400;  436.000;  405.000
402.046;   -6.200;  134.000;  122.000
402.173;  -26.400;  -18.000;    7.000
402.301; -134.900; -519.000; -397.000
402.428;  149.500;  528.000;  383.000
402.556; -296.700;-1188.000; -913.000
402.683;  -35.200;  -20.000;   -1.000
402.811;  -33.700;  -37.000; -206.000
402.938;   -6.000;   20.000;   27.000
403.066;   56.500; -574.000; -558.000
403.193;  249.600;  299.000;  239.000
403.321;   87.100; -396.000; -574.000
403.448;  267.800;   83.000;   27.000
403.575;  127.600;  -90.000;  -46.000
403.703; -155.500; -732.000; -557.000
403.830; -107.400; -531.000; -496.000
403.957; -297.000;-1117.000;-1023.000
404.085;   -4.400;  -61.000; -172.000
404.212;   51.800;  -50.000;   63.000
404.339;  134.300; -566.000; -306.000
404.467; 3560.000; -612.000; -524.000
404.594; 2282.800; -287.000; -227.000
404.721;  392.700; -869.000; -764.000
404.848;   32.400; -113.000; -202.000
404.976; -203.000; -856.000; -783.000
405.103;   -1.600;  -14.000;  -82.000
405.230;   42.800;  190.000;  226.000
405.357;   24.200;  117.000;   44.000
405.484;  153.600;  -49.000;    5.000
405.612;  -61.500; -548.000; -563.000
405.739; -146.000; -488.000; -243.000
405.866;  181.400;  669.000;  385.000
405.993;  -70.200; -398.000; -102.000
406.120; -257.800; -801.000; -887.000
406.247; -145.800; -323.000; -342.000
406.374;  397.100;  540.000;  629.000
406.501;  -41.500; -632.000; -702.000
406.628; -156.900; -621.000; -589.000
406.755; -202.500; -803.000; -620.000
406.882;  -59.200; -228.000; -277.000
407.009; -201.700; -719.000; -628.000
407.136;    1.600; -480.000; -401.000
407.263;  -69.900; -939.000; -829.000
407.390; -176.100; -692.000; -614.000
407.517; -300.100;-1139.000;-1187.000
407.644;  -93.900; -332.000; -256.000
407.771; -120.100; -249.000; -287.000
407.898;   57.800;  168.000;  328.000
408.025; -128.300; -421.000; -313.000
408.151;   16.100;   82.000;  153.000
408.278;  -90.100; -267.000; -216.000
408.405; -251.800; -931.000; -899.000
408.532; -162.900; -549.000; -542.000
408.659; -177.700; -677.000; -648.000
408.785; -349.000;-1298.000;-1170.000
408.912;  -74.500; -412.000; -296.000
409.039; -165.900; -610.000; -686.000
409.166; -139.400; -591.000; -555.000
409.292; -210.400; -571.000; -534.000
409.419; -210.600; -665.000; -649.000
409.546;  -97.500; -431.000; -192.000
409.672; -207.600; -713.000; -545.000
409.799;  -34.300;  -36.000;   34.000
409.926;  -26.400; -180.000; -179.000
410.052; -335.000;-1127.000;-1091.000
410.179; -126.900; -368.000; -392.000
410.305; -141.600; -375.000; -493.000
410.432;  -80.300; -220.000; -333.000
410.558; -117.700; -305.000; -380.000
410.685; -165.400; -688.000; -431.000
410.812; -158.900; -409.000; -588.000
410.938; -226.900; -964.000; -808.000
411.065; -169.800; -671.000; -645.000
411.191;  -61.800; -189.000; -174.000
411.317; -229.900; -823.000; -742.000
411.444;  -76.500; -317.000; -246.000
411.570; -112.500; -339.000; -294.000
411.697; -200.900; -758.000; -752.000
411.823; -328.700; -989.000; -999.000
411.949;  -10.900;  -56.000;   17.000
412.076; -212.800; -539.000; -519.000
412.202; -208.600; -758.000; -757.000
412.329; -240.400; -798.000; -752.000
412.455; -224.500; -821.000; -657.000
412.581;    8.200;  -15.000;  172.000
412.707; -153.200; -540.000; -457.000
412.834;   45.300;  156.000;  219.000
412.960; -197.300; -785.000; -784.000
413.086; -204.300; -743.000; -701.000
413.212;  210.800;  604.000;  578.000
413.339; -179.100; -685.000; -701.000
413.465;  -62.700; -364.000; -310.000
413.591; -212.100; -757.000; -474.000
413.717; -124.900; -358.000; -366.000
413.843; -277.300; -839.000; -861.000
413.969;  -98.400;  -47.000; -292.000
414.096; -197.700; -679.000; -679.000
414.222;   -7.200;  -33.000;   85.000
414.348; -119.400; -652.000; -385.000
414.474;   71.700;   38.000;  -52.000
414.600;  -48.300; -126.000; -144.000
414.726;  -16.500;  -96.000;  -55.000
414.852; -125.000; -365.000; -342.000
414.978;   22.200;  104.000;  -18.000
415.104;    6.200;   38.000;   80.000
415.230;  -28.200; -329.000; -330.000
415.356;  -62.500; -409.000; -514.000
415.482;  138.700;   13.000;  -35.000
415.608;  118.300; -247.000; -323.000
415.734;  633.000;   67.000;   38.000
415.860;13648.400; -875.000; -767.000
415.986; 8984.200; -685.000; -607.000
416.111;  636.700; -798.000; -652.000
416.237;   92.300; -424.000; -571.000
416.363;  663.400; -765.000; -733.000
416.489; 2649.100; -324.000; -251.000
416.615;  106.500; -707.000; -742.000
416.741; -100.400; -677.000; -784.000
416.866; -183.300; -673.000; -736.000
416.992; -208.200; -801.000; -818.000
417.118;  -67.300;  -41.000;  -80.000
417.244; -149.500; -798.000; -531.000
417.369; -208.000; -801.000; -612.000
417.495;  -67.600; -325.000; -254.000
417.621; -218.400;-1015.000; -803.000
417.746;  -81.200; -579.000; -572.000
417.872;   29.600; -254.000; -144.000
417.998;  -51.100; -515.000; -530.000
418.123;  549.400;-1073.000; -845.000
418.249; 3304.600; -512.000; -601.000
418.374;  289.000; -916.000; -824.000
418.500;   -7.800; -383.000; -482.000
418.626;   87.200;   70.000;  -59.000
418.751;   18.400; -549.000; -448.000
418.877;   -3.600; -637.000; -643.000
419.002; 1201.400; -688.000; -560.000
419.128; 7928.900; -930.000; -721.000
419.253; 1607.900; -967.000; -837.000
419.379;  158.700; -391.000; -338.000
419.504;  349.100;  325.000;  415.000
419.629;  309.100; -393.000; -212.000
419.755; 2417.400; -317.000; -254.000
419.880;13178.000;  -98.000;   67.000
420.006; 7581.300; -280.000; -221.000
420.131;19245.700; -662.000; -775.000
420.256; 2535.000; -315.000; -316.000
420.382;  184.600; -665.000; -687.000
420.507;  -87.900; -649.000; -778.000
420.632;   53.100; -337.000; -339.000
420.758;  169.800; -251.000; -425.000
420.883; -178.500; -876.000; -672.000
421.008; -171.500; -775.000; -619.000
421.133; -246.400; -509.000; -467.000
421.259;  -64.500; -325.000; -259.000
421.384; -233.900; -834.000; -693.000
421.509; -164.100;-1052.000; -862.000
421.634;  853.100; -936.000; -820.000
421.759;  307.500; -359.000; -327.000
421.885; -133.400; -717.000; -656.000
422.010; -139.200; -673.000; -542.000
422.135; -256.600; -695.000; -727.000
422.260;  110.300;  340.000;  280.000
422.385;  -59.900;   12.000;  -98.000
422.510;   60.600;  151.000;  -26.000
422.635;    3.400;  -87.000;  -43.000
422.760;  -39.700; -766.000; -791.000
422.885;   43.200;  -57.000;  -80.000
423.010;  -39.100; -112.000; -169.000
423.135; -170.400; -481.000; -561.000
423.260;  -42.300; -150.000; -245.000
423.385;  130.800;  476.000;  222.000
423.510;   16.100;   71.000;  -22.000
423.635;   60.500;  133.000;   45.000
423.760;  100.900;  383.000;  328.000
423.885;  146.300;  336.000;  391.000
424.010;  -29.500;  -68.000;  -13.000
424.135;  -43.500;    5.000;  -33.000
424.259; -168.600; -654.000; -457.000
424.384;  -91.700; -279.000; -272.000
424.509;  -31.500; -260.000; -186.000
424.634; -228.800; -761.000; -623.000
424.759; -120.600; -688.000; -544.000
424.883; -113.600; -506.000; -527.000
425.008;   38.400; -502.000; -410.000
425.133; 1236.800; -679.000; -653.000
425.258;  450.500; -517.000; -381.000
425.382;  610.400; -867.000; -774.000
425.507; 1687.500; -487.000; -543.000
425.632;  157.100; -802.000; -663.000
425.756;  239.200; -256.000; -146.000
425.881; 4213.200; -831.000; -857.000
426.006;10498.600; -604.000; -355.000
426.130; 1393.600; -696.000; -508.000
426.255;  134.600; -611.000; -491.000
426.379;   62.900; -189.000; -577.000
426.504;  367.800;  660.000;  544.000
426.629; 2566.100; -519.000; -466.000
426.753; 1720.100;   64.000;  -46.000
426.878;  173.900; -252.000; -288.000
427.002;  -67.000; -651.000; -668.000
427.127; 1081.100;  -35.000; -158.000
427.251; 7815.500;  372.000;  401.000
427.375; 1967.700; -191.000; -173.000
427.500; 1495.600; -616.000; -610.000
427.624;  466.800; -234.000; -400.000
427.749;   37.700; -216.000; -225.000
427.873; -103.700; -499.000; -412.000
427.997;  -50.600; -222.000; -230.000
428.122;  152.700;  795.000;  703.000
428.246;  127.800;  433.000;  434.000
428.371; -247.900; -869.000; -773.000
428.495; -157.900; -624.000; -646.000
428.619;  -39.200; -186.000; -117.000
428.743;   53.600;   65.000;  132.000
428.868; -110.300; -732.000; -643.000
428.992;  987.100; -219.000; -326.000
429.116;  328.800; -329.000; -357.000
429.240;  248.500;  419.000;  426.000
429.365;  -71.000; -454.000; -574.000
429.489;  -92.100; -638.000; -647.000
429.613;   18.400; -236.000; -177.000
429.737;  -39.400; -563.000; -432.000
429.861;  105.100; -247.000; -133.000
429.985; 3809.900; -425.000; -305.000
430.109; 3702.000; -770.000; -908.000
430.234;  494.000;   76.000;  -50.000
430.358;   19.200; -250.000; -160.000
430.482; -116.700; -672.000; -564.000
430.606; -117.600; -655.000; -375.000
430.730;  -38.100; -437.000; -388.000
430.854;  -54.100; -909.000; -835.000
430.978; -167.400; -795.000; -764.000
431.102; -127.000; -499.000; -422.000
431.226; -177.900; -874.000; -815.000
431.350;  110.900;  345.000;  422.000
431.474; -129.800; -661.000; -373.000
431.597; -279.500;-1060.000; -848.000
431.721; -119.200; -276.000; -267.000
431.845; -207.300; -704.000; -472.000
431.969; -113.100; -304.000; -349.000
432.093; -148.200; -395.000; -317.000
432.217;   -2.400;   32.000;   82.000
432.341; -141.200; -523.000; -518.000
432.464;   13.900;   96.000;   40.000
432.588;   46.300; -401.000; -329.000
432.712;   48.000;  -52.000;  -52.000
432.836;   40.900;  213.000;  263.000
432.959;  -44.600; -372.000; -311.000
433.083;   62.600;   11.000;    2.000
433.207;  323.800;  285.000;  930.000
433.330; 3305.300; -391.000; -200.000
433.454; 3683.800; -654.000; -638.000
433.578; 2269.700;  583.000;  278.000
433.701;  249.500; -623.000; -675.000
433.825;    9.200; -292.000; -299.000
433.949;  107.700;   28.000;  -72.000
434.072;  -33.600; -410.000; -323.000
434.196;  -48.500; -309.000; -117.000
434.319; 7596.300;25482.000;25124.000
434.443;  401.200; -656.000; -603.000
434.566; 1708.000;  281.000;   62.000
434.690;  143.900; -637.000; -383.000
434.813;  -14.900; -251.000; -173.000
434.937; -161.400; -569.000; -696.000
435.060; -110.000; -423.000; -332.000
435.184;  120.800; -492.000; -217.000
435.307;  120.600;  159.000;  102.000
435.431;  -28.500;  -40.000;   24.000
435.554;  -95.100; -399.000; -240.000
435.677; -105.600; -350.000; -258.000
435.801;  -21.900;  -25.000;   49.000
435.924;  -13.000;    1.000;  -67.000
436.048; -249.000;-1019.000; -732.000
436.171; -107.500; -240.000;  -66.000
436.294; -101.600; -248.000; -229.000
436.417;  -94.100; -963.000; -849.000
436.541; -225.900; -814.000; -840.000
436.664;  -50.500; -242.000; -316.000
436.787;   13.600;   13.000;  113.000
436.910; -177.200; -792.000; -422.000
437.034;   46.300;  142.000;  143.000
437.157;   54.100;  -11.000;    0.000
437.280; -139.800; -392.000; -292.000
437.403; -199.300; -982.000; -869.000
437.526;  374.200; -903.000; -865.000
437.649; 1707.900; -505.000; -332.000
437.772;  111.000; -692.000; -540.000
437.896;  198.800;  700.000;  544.000
438.019; -186.900; -758.000; -503.000
438.142; -148.600; -596.000; -506.000
438.265; -127.200; -639.000; -670.000
438.388;  293.500; -520.000; -410.000
438.511;  -59.900; -597.000; -394.000
438.634; -109.000; -247.000; -125.000
438.757; -227.500; -693.000; -619.000
438.880;  -19.500;  -34.000;  -57.000
439.003; -152.500; -417.000; -437.000
439.126;  -87.400; -287.000; -167.000
439.248;  -74.700;  -98.000; -139.000
439.371;  -35.800;    9.000;  -53.000
439.494;   92.200;  510.000;  439.000
439.617;   -6.600;   65.000;  -88.000
439.740; -298.900; -968.000; -816.000
439.863; -246.800; -755.000; -595.000
439.986; -162.300; -476.000; -431.000
440.108;  -97.900; -161.000; -112.000
440.231; -295.600; -950.000; -836.000
440.354; -100.200;  -64.000; -150.000
440.477;  -94.000; -566.000; -542.000
440.599;  -80.300; -200.000; -225.000
440.722; -203.900; -709.000; -586.000
440.845;  156.500;  751.000;  928.000
440.968; -161.100; -415.000; -311.000
441.090;  -78.700; -199.000;  -33.000
441.213; -282.000;-1021.000; -825.000
441.336;  -45.500; -159.000;   -5.000
441.458; -126.300; -549.000; -396.000
441.581; -169.500; -628.000; -629.000
441.703;  -69.200; -152.000;   13.000
441.826; -164.400; -557.000; -400.000
441.948;  -73.300;   56.000;   51.000
442.071;   94.800;  555.000;  424.000
442.193; -190.500; -531.000; -485.000
442.316;   14.800;  152.000;   97.000
442.438;   -3.200; -233.000;  -10.000
442.561;   99.300;  272.000;  262.000
442.683;  330.800; -809.000; -522.000
442.806;  883.300;   -8.000;   74.000
442.928; -155.100; -859.000; -604.000
443.051; -155.800; -577.000; -373.000
443.173; -129.400; -341.000; -339.000
443.295; -125.200; -263.000; -371.000
443.418; -117.000; -321.000;  -29.000
443.540;  -16.600; -106.000;   -4.000
443.662; -212.300; -563.000; -465.000
443.785;  -16.500;  335.000;  199.000
443.907; -164.000; -362.000; -208.000
444.029; -231.700; -767.000; -494.000
444.152; -230.100; -644.000; -554.000
444.274;  -28.000;  -18.000;  -24.000
444.396; -184.400; -461.000; -221.000
444.518; -230.200; -691.000; -454.000
444.640; -182.300; -268.000; -111.000
444.763;    7.500;  388.000;  249.000
444.885; -196.600; -432.000; -392.000
445.007;   -7.600;   35.000;   86.000
445.129; -207.700; -610.000; -515.000
445.251; -168.500; -372.000; -439.000
445.373; -227.100; -537.000; -386.000
445.495;   69.600;  242.000;  350.000
445.617;  132.700;  853.000;  753.000
445.739;  -95.900; -215.000;  -97.000
445.861;  -72.800; -245.000; -112.000
445.984;  -61.800; -267.000; -101.000
446.105;  111.900; -418.000; -251.000
446.227;  459.700; -176.000;  -19.000
446.349;  -95.000; -358.000; -249.000
446.471; -168.600; -615.000; -448.000
446.593; -104.900; -316.000;   19.000
446.715;   -5.700;  -67.000;   41.000
446.837;  155.900;  697.000;  832.000
446.959; -160.100; -457.000; -478.000
447.081; -232.600; -628.000; -518.000
447.203;  184.800;  862.000;  834.000
447.325; -132.600; -270.000;   42.000
447.446;    9.800;  286.000;  530.000
447.568; -289.300; -921.000; -803.000
447.690; -150.600; -236.000; -245.000
447.812; -261.900; -798.000; -519.000
447.933;  -24.400;  155.000;  127.000
448.055;  -88.400; -306.000; -261.000
448.177;  161.000;   31.000;   79.000
448.299; -121.500; -935.000; -727.000
448.420;   57.900;  -25.000;  159.000
448.542;  -45.300;   -3.000;   33.000
448.664;  -33.800;  109.000;  322.000
448.785;   26.900;  265.000;   83.000
448.907; -152.000; -614.000; -353.000
449.028; -105.300; -771.000; -471.000
449.150;  129.200;  492.000;  589.000
449.272; -323.900;-1044.000; -913.000
449.393;  133.600;  612.000;  694.000
449.515; -233.600; -634.000; -581.000
449.636;  -60.300; -264.000; -155.000
449.758;  167.200;  763.000;  622.000
449.879; -160.800; -498.000; -396.000
450.001; -115.800; -149.000;  -49.000
450.122;  -29.500;  -95.000;  162.000
450.244;  -10.800;   37.000;  364.000
450.365; -120.100; -495.000; -301.000
450.486;  -29.400;   80.000;  268.000
450.608;   64.400;  393.000;  326.000
450.729;  130.900;  578.000;  645.000
450.850; -125.400; -574.000; -466.000
450.972;  395.000; -552.000; -389.000
451.093; 3215.600;  190.000;  588.000
451.214; 1156.400; -516.000; -337.000
451.336;  263.600;  773.000;  579.000
451.457;   88.100;  264.000;  393.000
451.578;  -38.200; -118.000;  -74.000
451.699; -187.000; -546.000; -540.000
451.821;  -81.600; -284.000;  -50.000
451.942;    2.200;  278.000;  285.000
452.063;   92.000;  228.000;  419.000
452.184;  353.300;  -54.000;  -49.000
452.305;  710.100;  103.000;  170.000
452.427;  -27.900; -549.000; -301.000
452.548;  -29.900;   23.000;   79.000
452.669;  -85.000; -257.000;  -89.000
452.790;  -49.800;    3.000;  -18.000
452.911;  -11.100;  195.000;  259.000
453.032; -111.600; -289.000;  -60.000
453.153;  -49.200;  -29.000;   81.000
453.274;  169.500;  737.000;  868.000
453.395;  -51.900;  -51.000;  175.000
453.516;  277.100; 1317.000; 1388.000
453.637; -133.900; -205.000; -150.000
453.758;  -83.000;   15.000;   69.000
453.879; -151.900; -462.000; -250.000
454.000;  196.700; 1086.000;  948.000
454.121; -199.600; -554.000; -326.000
454.242; -220.100; -599.000; -383.000
454.362;  -64.900;  -99.000;  114.000
454.483;  -85.000; -309.000; -229.000
454.604;   92.100;  512.000;  580.000
454.725; -221.300; -627.000; -555.000
454.846; -196.600; -474.000; -406.000
454.967;   25.200;  230.000;  539.000
455.087;   -3.000;  179.000;  153.000
455.208;   88.300;  554.000;  856.000
455.329;  -47.800;  -22.000;   82.000
455.450;   96.400;  473.000;  633.000
455.570; -156.700; -234.000; -211.000
455.691;  -12.100;  201.000;  407.000
455.812; -164.700; -270.000;  -92.000
455.932;  -57.500;  107.000;  -97.000
456.053;  -97.000;   36.000;   24.000
456.173; -150.200; -433.000; -355.000
456.294; -206.900; -476.000; -303.000
456.415;  -56.400;  -73.000;   70.000
456.535;    0.300;  297.000;  273.000
456.656;  -56.900;  132.000;  240.000
456.776;  -53.900;    3.000;  298.000
456.897;   47.700;  308.000;  513.000
457.017; -115.500; -153.000;   -3.000
457.138; -154.300; -402.000; -249.000
457.258;   -4.900;  263.000;  224.000
457.379;   20.900;  509.000;  521.000
457.499;    8.300;  443.000;  432.000
457.620; -172.400; -407.000; -231.000
457.740; -130.400; -132.000;  -11.000
457.860;  -65.000;   87.000;   44.000
457.981;  -50.100;  132.000;  124.000
458.101; -121.500;  -89.000;   40.000
458.221;   54.100;  336.000;  402.000
458.342;  -67.800;   -4.000;  -37.000
458.462;   37.600;  617.000;  352.000
458.582;  -75.100; -302.000; -294.000
458.703;   -7.400;  303.000;  154.000
458.823;  -53.000;   22.000;  163.000
458.943;   20.500;  341.000;  467.000
459.063;  -11.900; 1124.000;  192.000
459.183;   -4.800;  328.000;  313.000
459.304;   73.100;  315.000;  517.000
459.424; -110.800; -246.000;  -89.000
459.544;  290.100;  388.000;  764.000
459.664;  604.300;  499.000;  506.000
459.784;  333.300; 1004.000; 1175.000
459.904;  136.100;  867.000;  744.000
460.024;  173.700;  867.000;  684.000
460.144;   29.500;  449.000;  554.000
460.264;   48.600;  515.000;  327.000
460.385; -119.800; -145.000; -119.000
460.505;  134.400;  905.000;  858.000
460.625; -108.400;  -17.000;  -68.000
460.745;   12.200;  396.000;  541.000
460.864;  -34.200;  153.000;  469.000
460.984;   29.400;  499.000;  573.000
461.104;  357.000; 1656.000; 1775.000
461.224;   75.900;  657.000;  650.000
461.344;   -4.500;  431.000;  360.000
461.464;  -35.900;  258.000;  513.000
461.584;   30.900;  283.000;  466.000
461.704;  -23.400;   58.000;  108.000
461.824;  -39.300;  238.000;  259.000
461.943;  -62.300;  191.000;  130.000
462.063; -106.200;    2.000;  324.000
462.183;  102.000;  639.000;  717.000
462.303;  227.300; 1678.000; 1230.000
462.422;  111.400;  781.000;  840.000
462.542;  -42.100;  271.000;  391.000
462.662;   67.100;  353.000;  380.000
462.782;  227.900;  833.000;  572.000
462.901;  372.800;  545.000;  717.000
463.021;  398.200; 1702.000; 1638.000
463.141;    9.200;  337.000;  770.000
463.260;   36.700;  614.000;  474.000
463.380;  109.300;  902.000;  884.000
463.499;  -64.100;  342.000;  332.000
463.619;   15.500;  581.000;  559.000
463.738;  311.900; 1644.000;  903.000
463.858;   75.000;  657.000;  811.000
463.978;   -9.200;  542.000;  396.000
464.097;  160.600;  921.000; 1114.000
464.217;  207.700; 1196.000; 1143.000
464.336;  232.400; 1068.000; 1130.000
464.455;  -18.900;  328.000;  659.000
464.575;   67.100;  597.000;  602.000
464.694;  310.700; 1204.000; 1179.000
464.814;  239.800; 1190.000; 1138.000
464.933;  198.500; 1095.000; 1027.000
465.052;  242.700; 1412.000; 1054.000
465.172;  156.000;  922.000;  799.000
465.291;  271.300; 1376.000; 1320.000
465.410;   59.400;  462.000;  735.000
465.530;  220.600; 1355.000; 1310.000
465.649;  187.000; 1209.000; 1273.000
465.768;  318.400; 1673.000; 1508.000
465.888;  171.800;  941.000; 1174.000
466.007;  223.600; 1335.000; 1440.000
466.126;   80.800;  721.000;  641.000
466.245;  146.300; 1176.000; 1187.000
466.364;  121.500;  950.000; 1060.000
466.484;  148.600; 1024.000; 1213.000
466.603;  184.200; 1101.000; 1222.000
466.722;  356.400; 1490.000; 1769.000
466.841;  206.600; 1151.000; 1401.000
466.960;  130.900; 1069.000;  972.000
467.079;  344.200; 1971.000; 1786.000
467.198;  187.300; 1238.000; 1181.000
467.317;  254.600; 1768.000; 1162.000
467.436;  210.800; 1709.000; 1261.000
467.555;  346.700; 1796.000; 1746.000
467.674;  191.100; 1227.000; 1329.000
467.793;  161.900; 1376.000; 1374.000
467.912;  245.900; 1658.000; 1539.000
468.031;  362.200; 2038.000; 1930.000
468.150;  361.500; 1842.000; 1837.000
468.269;  460.400; 2313.000; 2090.000
468.388;  445.700; 2168.000; 2339.000
468.507;  600.700; 2884.000; 2903.000
468.626;  614.700; 2555.000; 2541.000
468.744;  386.900; 2018.000; 2174.000
468.863;  517.400; 2312.000; 2523.000
468.982;  243.800; 1503.000; 1555.000
469.101;  492.500; 2788.000; 2692.000
469.220;  387.600; 2333.000; 2176.000
469.338;  538.000; 2935.000; 3051.000
469.457;  445.300; 2719.000; 2545.000
469.576;  807.800; 3953.000; 3784.000
469.695;  530.900; 2877.000; 3066.000
469.813;  885.200; 4148.000; 4192.000
469.932;  829.400; 4255.000; 4485.000
470.051;  794.100; 4075.000; 4161.000
470.169; 1213.900; 4470.000; 4338.000
470.288; 1590.800; 4700.000; 4809.000
470.406; 1252.200; 5059.000; 5194.000
470.525; 1276.300; 6101.000; 5787.000
470.644; 1390.000; 6847.000; 6794.000
470.762; 1705.100; 8397.000; 7873.000
470.881; 1793.600; 8651.000; 8464.000
470.999; 2047.800; 9685.000; 9151.000
471.118; 2298.100;11174.000;10711.000

