
Integration time [ms]: 100.000
Averaging Nr. [scans]: 40
Smoothing Nr. [pixels]: 0
Data measured with spectrometer [name]: 2101012U2
Wave   ;Sample   ;Dark     ;Reference
[nm]   ;[counts] ;[counts] ;[counts] 

197.733;   51.525;  516.000;  404.000
197.879;  -79.350; -610.000; -634.000
198.025;  -66.375; -475.000; -420.000
198.171;  -67.575; -602.000; -612.000
198.317;  -30.625; -401.000; -316.000
198.463;  -69.450; -655.000; -404.000
198.609;   31.700;  181.000; -137.000
198.755;  -76.125; -644.000; -410.000
198.901;  -66.000; -505.000; -424.000
199.047;  -71.550; -615.000; -488.000
199.193;  -44.400; -230.000; -468.000
199.339;  -52.000; -222.000; -369.000
199.485;   28.975;  330.000;  271.000
199.631;    3.100;  227.000;  310.000
199.777;  -48.425; -466.000; -398.000
199.923;  -67.675; -610.000; -424.000
200.069;  -13.850; -141.000;  -58.000
200.215;   52.775;  128.000;  453.000
200.361;   50.450;  243.000;  477.000
200.507;  -74.725; -600.000; -373.000
200.653;  -28.175; -371.000; -194.000
200.798;  -42.450; -215.000; -125.000
200.944;   -3.125; -146.000;  -41.000
201.090;   27.275;   61.000;  222.000
201.236;   12.725; -116.000; -158.000
201.382;  103.575;  874.000;  903.000
201.528;  -12.775;  -58.000;  -48.000
201.674;  -38.950; -386.000; -293.000
201.819;  -70.975; -540.000; -439.000
201.965; -100.275; -699.000; -447.000
202.111;  -22.850; -273.000; -226.000
202.257;  -38.125; -250.000; -238.000
202.402;    1.725;   13.000;  -36.000
202.548;  -33.925; -169.000; -116.000
202.694;   65.975;  410.000; -183.000
202.840;  -71.025; -603.000; -531.000
202.985;  -77.125; -681.000; -639.000
203.131; -103.425; -832.000; -666.000
203.277;  -18.400; -199.000; -262.000
203.423;  -58.275; -434.000; -520.000
203.568;  -45.275; -462.000; -237.000
203.714;  -67.650; -535.000; -542.000
203.860;  -82.200; -682.000; -641.000
204.005;  -10.075;  112.000;  167.000
204.151;   63.900;  561.000;  556.000
204.296;  -53.425; -354.000; -221.000
204.442;  -67.975; -600.000; -547.000
204.588;  -87.175; -592.000; -579.000
204.733;   17.700;  178.000;  168.000
204.879; -122.750;-1018.000; -822.000
205.025;    9.400;  -99.000;  126.000
205.170;   -5.275;  -17.000;   94.000
205.316;   77.100;  438.000;  661.000
205.461;  -99.075; -698.000; -554.000
205.607;   65.450;  609.000;  665.000
205.752;  -74.900; -626.000; -551.000
205.898;  -49.700; -501.000; -391.000
206.043;  -53.625; -578.000; -506.000
206.189;  -39.000; -243.000; -285.000
206.334;   65.125;  554.000;  606.000
206.480;   73.575;  409.000;  239.000
206.625;  -85.375; -529.000; -552.000
206.771;  -48.800; -451.000; -373.000
206.916;  -30.725; -210.000; -537.000
207.062;  -79.025; -545.000; -591.000
207.207;  -60.725; -546.000; -443.000
207.353;   55.650;  185.000;  460.000
207.498;   13.000;  196.000;   85.000
207.643;  -52.300; -501.000; -370.000
207.789; -128.400;-1069.000; -910.000
207.934;  -94.875; -665.000; -713.000
208.080;  -34.650; -154.000;   66.000
208.225;   -6.275;  -22.000;  -57.000
208.370;  -80.950; -727.000; -619.000
208.516;  -87.650; -741.000; -487.000
208.661;  -34.950; -127.000;  -69.000
208.806;  -11.625; -165.000; -171.000
208.952; -131.475;-1044.000; -731.000
209.097;   62.525;  378.000;  349.000
209.242;  -57.450; -307.000; -382.000
209.387;   53.300;  392.000;  350.000
209.533;  -58.900; -321.000; -350.000
209.678;   59.900;  472.000;  543.000
209.823;  -47.050; -408.000; -310.000
209.969;  -96.925; -860.000; -757.000
210.114; -100.725; -907.000; -719.000
210.259; -118.350; -939.000; -889.000
210.404;  -26.950; -171.000;  103.000
210.549;   21.525;  108.000;    3.000
210.695;  -10.900;   -3.000;  -95.000
210.840;   26.425;   94.000;   67.000
210.985;  -65.875; -484.000; -303.000
211.130;   58.075;  268.000;  406.000
211.275;   -1.175;  207.000;  199.000
211.420;  -49.975; -300.000; -289.000
211.566;  -63.700; -536.000; -489.000
211.711;   27.250;  218.000;  157.000
211.856;  -76.250; -545.000; -519.000
212.001;    6.075;  151.000;   44.000
212.146;   22.100;  153.000;   49.000
212.291;  -30.775; -210.000; -186.000
212.436;  -29.350; -280.000;   -6.000
212.581;  -83.325; -685.000; -653.000
212.726;  -77.250; -487.000; -538.000
212.871;  -54.250; -552.000; -217.000
213.016; -149.675;-1172.000;-1029.000
213.161;   65.525;  406.000;  291.000
213.306;  -75.750; -435.000; -577.000
213.451;  -85.500; -778.000; -689.000
213.596;  -53.300; -455.000; -347.000
213.741;  -55.250; -448.000; -538.000
213.886;  -82.075; -498.000; -517.000
214.031;  -34.325; -294.000; -124.000
214.176;  -69.875; -408.000; -341.000
214.321;   -6.975; -296.000; -157.000
214.466;  -30.575; -163.000;  -43.000
214.611;  -11.950;  -61.000;  -10.000
214.756; -120.300; -948.000; -858.000
214.901;  -37.675; -388.000; -226.000
215.046; -122.150; -797.000; -825.000
215.191;   26.925;  128.000;   35.000
215.336;  -28.075; -157.000;  -19.000
215.480;  -54.575; -684.000; -505.000
215.625;  -20.350; -175.000;  -19.000
215.770;  -85.225; -757.000; -662.000
215.915;   -3.550;   -5.000;  -97.000
216.060;  -20.750; -113.000;  -21.000
216.205; -115.375; -731.000; -779.000
216.349;  -75.275; -470.000; -533.000
216.494; -134.575; -939.000; -867.000
216.639; -117.175; -823.000; -888.000
216.784;  -93.200; -577.000; -525.000
216.929;   47.200;  392.000;  281.000
217.073;   -8.900; -244.000;  -31.000
217.218;   -6.225;   78.000;  -47.000
217.363;  -94.600; -656.000; -618.000
217.507;  -82.950; -623.000; -588.000
217.652; -128.525; -845.000; -874.000
217.797;  -96.675; -708.000; -659.000
217.942; -112.450; -856.000; -720.000
218.086;   76.400;  608.000;  539.000
218.231;  -29.775; -174.000;  -26.000
218.376;  -30.275; -337.000; -229.000
218.520;   -0.225;  -41.000;   96.000
218.665;  -39.875; -338.000; -204.000
218.810;  -45.200; -275.000; -233.000
218.954;   11.950;  201.000;   35.000
219.099; -124.650; -713.000; -963.000
219.243;  -71.500; -589.000; -554.000
219.388;  -28.625; -264.000; -136.000
219.532;   -8.375; -116.000; -116.000
219.677;  -79.850; -564.000; -521.000
219.822;   -0.550;   33.000;   89.000
219.966;   -3.600;   17.000;  -99.000
220.111;  -43.025; -328.000;  -40.000
220.255; -100.750; -797.000; -750.000
220.400;  -24.575; -180.000; -146.000
220.544;  -90.675; -516.000; -450.000
220.689;  -64.400; -422.000; -451.000
220.833;  -17.475; -123.000;  -58.000
220.978;  -47.675; -393.000; -563.000
221.122;   16.725;  319.000;  307.000
221.267; -113.875; -906.000; -837.000
221.411;  -79.925; -478.000; -394.000
221.555;  -21.325; -104.000;  -23.000
221.700;  -51.700; -329.000; -222.000
221.844;   18.150;  255.000;  272.000
221.989;  -56.000; -328.000; -311.000
222.133;  -43.575; -289.000; -307.000
222.277;  -15.950;    5.000;   78.000
222.422;   19.700;  227.000;  113.000
222.566;  -49.150; -381.000; -214.000
222.711;  -59.575; -414.000; -479.000
222.855;  -83.425; -643.000; -586.000
222.999;  -78.275; -642.000; -717.000
223.144;  -49.700; -195.000; -194.000
223.288;   54.325;  423.000;  251.000
223.432;   24.775;  184.000;  230.000
223.576;    3.075;  152.000;  -21.000
223.721;   22.725;  364.000;  273.000
223.865;  -66.100; -472.000; -475.000
224.009;  239.175; 1673.000; 1631.000
224.153;  -80.100; -660.000; -671.000
224.298;  -71.250; -531.000; -489.000
224.442;  -18.750;  -74.000;  -33.000
224.586;  -18.675; -169.000; -106.000
224.730; -103.500; -858.000; -670.000
224.875; -107.800; -739.000; -688.000
225.019;   -5.625;  102.000;  188.000
225.163;   39.550;  208.000;  341.000
225.307;    6.925;   97.000;  -91.000
225.451;   32.575;  360.000;  481.000
225.595;   28.700;  264.000;  176.000
225.739;  -31.800; -170.000;  -94.000
225.884;   -5.875;   86.000;    5.000
226.028;  -99.350; -760.000; -626.000
226.172;  -44.975; -260.000; -273.000
226.316; -120.100; -941.000; -902.000
226.460;  -79.650; -645.000; -493.000
226.604;  -61.675; -406.000; -400.000
226.748; -107.025; -836.000; -733.000
226.892;  -51.625; -227.000; -181.000
227.036;  -47.025; -537.000; -447.000
227.180;  -48.375; -551.000; -375.000
227.324;  -73.325; -561.000; -580.000
227.468; -117.025; -819.000; -717.000
227.612;    3.025;  242.000;  -28.000
227.756;  -90.650; -845.000; -698.000
227.900;   49.550;  342.000;  441.000
228.044;  -64.975; -509.000; -290.000
228.188;   62.700;  448.000;  568.000
228.332;  -87.575; -546.000; -472.000
228.476;  -22.675; -223.000; -149.000
228.620;  -36.475; -210.000; -150.000
228.764;   64.650;  431.000;  349.000
228.908;  -38.850; -155.000;   30.000
229.052;  -72.750; -615.000; -528.000
229.195;  -27.225; -172.000;   13.000
229.339;  -30.625; -235.000; -305.000
229.483;  -47.300;    5.000; -162.000
229.627;  -13.400; -156.000;  139.000
229.771;  -48.225; -218.000; -294.000
229.915;   -5.175;  230.000;   79.000
230.059;  -95.700; -648.000; -663.000
230.202;  -46.850; -370.000; -317.000
230.346;  -24.175; -107.000;  107.000
230.490;  -74.850; -489.000; -521.000
230.634; -117.125; -736.000; -553.000
230.777;   68.850;  478.000;  509.000
230.921;  -70.200; -450.000; -359.000
231.065;  -50.325; -246.000; -286.000
231.209;   19.475;  261.000;  265.000
231.352;   20.500;   54.000;   40.000
231.496;    6.300;  568.000;  188.000
231.640;  -79.200; -693.000; -621.000
231.783;   51.850;  546.000;  525.000
231.927;  -44.825; -294.000; -365.000
232.071; -128.450; -962.000; -736.000
232.214; -107.525; -980.000; -764.000
232.358; -104.850; -683.000; -599.000
232.502;   11.225;  -19.000;    7.000
232.645; -132.025;-1090.000; -927.000
232.789;  -10.475; -257.000; -218.000
232.933;  -47.625; -407.000; -224.000
233.076; -133.025;-1038.000; -897.000
233.220; -105.475; -752.000; -777.000
233.363;  -67.425; -669.000; -477.000
233.507;   41.375;  371.000;  129.000
233.650; -102.200; -764.000; -834.000
233.794;   31.800;  438.000;  461.000
233.938;  -70.875; -530.000; -362.000
234.081;  -24.425;  -93.000;   31.000
234.225;  -64.400; -631.000; -539.000
234.368; -130.050; -773.000; -723.000
234.512;  -46.200; -385.000; -299.000
234.655;  -99.050; -582.000; -555.000
234.798;  -56.575; -493.000; -466.000
234.942; -134.525; -884.000;-1002.000
235.085;  -90.475; -651.000; -443.000
235.229;  -77.975; -405.000; -410.000
235.372;  -41.775; -247.000; -191.000
235.516;  -78.900; -397.000; -321.000
235.659;    5.925;   92.000;  121.000
235.802;   -9.975;  -38.000;  -22.000
235.946;   20.675;  335.000;  215.000
236.089;   21.525;  126.000;  250.000
236.233;   55.550;  275.000;  298.000
236.376;  -47.125; -235.000; -378.000
236.519;  -51.850; -297.000; -319.000
236.663;  -28.475; -215.000; -117.000
236.806; -142.675;-1029.000; -999.000
236.949;   32.300;  543.000;  431.000
237.092;   40.600;  412.000;  391.000
237.236;  -90.700; -589.000; -502.000
237.379;   60.700;  352.000;  428.000
237.522; -126.850; -879.000; -768.000
237.666;  -15.875; -271.000;   18.000
237.809; -130.325; -851.000; -823.000
237.952;   17.675;  469.000;  271.000
238.095;  -83.550; -447.000; -442.000
238.238;   85.225;  688.000;  700.000
238.382;  -17.325;  166.000;  103.000
238.525;  -69.100; -598.000; -511.000
238.668; -142.850;-1060.000; -985.000
238.811;  -83.150; -638.000; -643.000
238.954;  -60.675; -483.000; -334.000
239.097;   95.825;  617.000;  664.000
239.241;   17.525;  394.000;  326.000
239.384;  -32.675; -254.000; -214.000
239.527;  -78.125; -424.000; -224.000
239.670; -143.525; -994.000;-1091.000
239.813; -115.500; -696.000; -658.000
239.956;   77.400;  579.000;  473.000
240.099; -110.275; -778.000; -725.000
240.242;   49.775;  428.000;  432.000
240.385;   20.850;  466.000;  450.000
240.528;  -84.950; -706.000; -473.000
240.671;    8.075;  189.000;  134.000
240.814;  -41.075; -441.000; -158.000
240.957; -108.900; -767.000; -578.000
241.100;  -87.175; -779.000; -755.000
241.243; -140.500;-1234.000; -893.000
241.386;  -59.300; -508.000; -379.000
241.529; -100.275; -735.000; -547.000
241.672;  -60.950; -566.000; -495.000
241.815; -115.850; -832.000; -808.000
241.958;  -38.775; -125.000; -182.000
242.101;  -85.950; -545.000; -390.000
242.244;  -37.175; -270.000; -325.000
242.387;  -37.000; -304.000; -246.000
242.530;   54.450;  470.000;  134.000
242.673;  -47.025; -381.000; -309.000
242.815; -127.850; -925.000; -899.000
242.958;  -71.500; -482.000; -381.000
243.101;   -1.525;  132.000;  187.000
243.244; -104.825; -564.000; -521.000
243.387;  -47.575; -313.000; -316.000
243.530;  -96.125; -657.000; -674.000
243.672;  -10.025;   43.000;  -92.000
243.815;  -53.125; -355.000; -283.000
243.958;  -11.175;   98.000;  -26.000
244.101;  -10.275;   59.000;  -16.000
244.243;  -20.100;  -47.000;  101.000
244.386; -120.100; -761.000; -630.000
244.529;  -19.150; -132.000; -139.000
244.672; -149.875;-1154.000; -951.000
244.814;  -94.650; -621.000; -794.000
244.957;  -62.675; -380.000; -304.000
245.100;  -77.550; -489.000; -489.000
245.242;  -67.825; -387.000; -374.000
245.385;  -10.075;  -59.000;  -39.000
245.528; -123.350; -871.000; -705.000
245.670;   65.650;  612.000;  634.000
245.813;  -90.875; -599.000; -547.000
245.956;  -42.100; -324.000; -275.000
246.098;  -69.275; -508.000; -650.000
246.241;    0.400;  194.000;   48.000
246.383;  -24.400; -119.000;  -73.000
246.526;  -77.525; -454.000; -525.000
246.669; -120.425; -889.000; -780.000
246.811;   13.800;  172.000;   -1.000
246.954;  -70.125; -512.000; -426.000
247.096;  -22.400;  -84.000;   -6.000
247.239;  -68.125; -482.000; -445.000
247.381;  -79.975; -647.000; -488.000
247.524;   63.650;  645.000;  679.000
247.666;  -10.575;   58.000;   11.000
247.809; -113.800; -887.000; -691.000
247.951;   -8.500;  -75.000;  138.000
248.094;   29.950;  432.000;  308.000
248.236; -160.175;-1262.000;-1238.000
248.378;    1.000; -356.000;  -81.000
248.521;  -28.850; -334.000; -337.000
248.663;  -39.075; -236.000; -267.000
248.806;  -21.325; -300.000; -266.000
248.948;  -90.425; -886.000; -763.000
249.090;  -56.000; -428.000; -398.000
249.233;  -47.050; -344.000; -381.000
249.375;  -69.125; -474.000; -451.000
249.518;  -38.975;  -83.000; -133.000
249.660;  -16.450; -103.000;    3.000
249.802; -169.400;-1303.000;-1189.000
249.945;  -66.850; -612.000; -540.000
250.087; -114.025; -834.000; -768.000
250.229;  -67.825; -362.000; -480.000
250.371;  -80.450; -494.000; -439.000
250.514;  -46.100; -310.000; -244.000
250.656;  -58.425;   69.000;  102.000
250.798; -109.200; -849.000; -800.000
250.940;  -73.800; -322.000; -322.000
251.083;  -44.300; -335.000; -111.000
251.225;   45.050;  338.000;  310.000
251.367;  -46.375; -274.000; -373.000
251.509;  -37.675; -265.000; -210.000
251.651;  -88.650; -731.000; -671.000
251.794;   45.875;  538.000;  632.000
251.936; -112.275; -821.000; -747.000
252.078;  -86.600; -540.000; -461.000
252.220;  -80.975; -645.000; -477.000
252.362;   83.250;  344.000;  462.000
252.504;  -80.750; -677.000; -584.000
252.646; -107.100; -875.000; -722.000
252.788;   -7.450;   14.000; -128.000
252.931;  -34.800; -257.000; -253.000
253.073;  -45.575; -376.000; -317.000
253.215;  -18.300;  141.000;  122.000
253.357;  -20.825;   82.000; -153.000
253.499;  -58.525; -374.000; -234.000
253.641;  -86.325; -749.000; -594.000
253.783; -110.925; -609.000; -527.000
253.925;  -84.100; -586.000; -591.000
254.067; -103.125; -744.000; -667.000
254.209;  -15.675; -391.000; -259.000
254.351; -132.675; -865.000; -883.000
254.493;  -61.675; -441.000; -417.000
254.635; -123.400; -936.000; -818.000
254.777;  -93.800; -752.000; -687.000
254.918;  -66.925; -512.000; -430.000
255.060;  -47.800; -551.000; -395.000
255.202;  -73.375; -473.000; -261.000
255.344;  -72.200; -658.000; -455.000
255.486;  -79.500; -471.000; -406.000
255.628; -111.400; -780.000; -781.000
255.770;  -93.350; -676.000; -536.000
255.912;  -59.500; -559.000; -468.000
256.053; -102.925; -730.000; -508.000
256.195;  140.225; 1008.000;  903.000
256.337; -101.775; -861.000; -595.000
256.479;   48.825;  532.000;  416.000
256.621;  -47.375; -394.000; -212.000
256.762;  -98.325; -789.000; -742.000
256.904;   50.725;  485.000;  487.000
257.046;  -47.525; -381.000; -271.000
257.188;  -41.525; -351.000; -264.000
257.329;  -66.100; -525.000; -464.000
257.471; -119.400; -939.000; -807.000
257.613;  -68.850; -584.000; -498.000
257.755; -154.150;-1073.000; -982.000
257.896;   23.225;  286.000;  392.000
258.038;  -76.325; -403.000; -352.000
258.180;  -44.850; -354.000; -279.000
258.321;  -83.100; -581.000; -457.000
258.463;   -9.725;  -71.000;  133.000
258.605;  -96.025; -562.000; -570.000
258.746; -103.225; -886.000; -772.000
258.888; -157.475;-1026.000;-1020.000
259.029;   10.400;  121.000;   -8.000
259.171;  -98.750; -614.000; -550.000
259.313;    2.925;  -49.000;  -47.000
259.454;  -69.450; -536.000; -414.000
259.596;  -61.850; -483.000; -390.000
259.737;  -76.825; -590.000; -474.000
259.879;   21.800;  217.000;  311.000
260.020;   74.525;  901.000;  636.000
260.162;  -26.300; -146.000; -253.000
260.303; -119.825; -768.000; -687.000
260.445;  -75.925; -609.000; -613.000
260.586;   20.250;  392.000;  157.000
260.728;  -39.925; -360.000; -248.000
260.869; -125.275; -350.000; -343.000
261.011;   69.725;  706.000;  537.000
261.152;  -84.300; -479.000; -319.000
261.293;  -76.150; -576.000; -595.000
261.435;  -30.200; -219.000; -184.000
261.576;  -46.150; -455.000; -325.000
261.718;   41.700;  420.000;  470.000
261.859; -131.025; -940.000; -949.000
262.000; -140.775; -951.000;-1016.000
262.142;  -25.775;  -52.000;  -60.000
262.283; -114.550; -808.000; -691.000
262.424; -103.550; -666.000; -625.000
262.566; -149.175;-1161.000; -983.000
262.707; -107.650; -840.000; -830.000
262.848; -123.625; -769.000; -726.000
262.990;  -29.600; -362.000; -345.000
263.131;   65.800;  650.000;  681.000
263.272;   -3.625;  -61.000;  -41.000
263.413;  -93.700; -589.000; -561.000
263.555;  -81.350; -669.000; -143.000
263.696;  -85.775; -550.000; -641.000
263.837;  -72.600; -449.000; -551.000
263.978;   -8.375;   -5.000;  -77.000
264.119;  -60.825; -283.000; -264.000
264.261; -117.600; -847.000; -630.000
264.402;   -3.175;   33.000;   40.000
264.543;  -82.250; -509.000; -524.000
264.684;  -17.950;   61.000;  -50.000
264.825;  -77.975; -816.000; -538.000
264.966;  -13.525;  -84.000;  -67.000
265.107; -119.800; -646.000; -670.000
265.248; -122.475; -825.000; -812.000
265.390;  -20.650;  152.000;   -9.000
265.531;  -31.225; -238.000; -107.000
265.672;  -84.375; -557.000; -630.000
265.813;   55.350;  563.000;  439.000
265.954; -148.650; -959.000; -940.000
266.095;  -10.075; -372.000; -322.000
266.236;  -97.675; -686.000; -548.000
266.377;  -62.050; -243.000; -297.000
266.518;  -77.325; -619.000; -547.000
266.659;   19.200;  170.000;  268.000
266.800;    9.025;   83.000;   85.000
266.941;  -73.950; -487.000; -478.000
267.082;   -3.850;  354.000;   99.000
267.223;  -50.350; -344.000; -273.000
267.364; -119.175; -892.000; -686.000
267.504;   -7.500;    3.000;  135.000
267.645;  -14.450;  160.000;   67.000
267.786;  -29.450; -147.000;  -86.000
267.927;  -78.675; -473.000; -379.000
268.068;  -16.225; -186.000;  -61.000
268.209;  -42.175; -175.000; -413.000
268.350;  -76.250; -388.000; -532.000
268.490;  -90.850; -648.000; -521.000
268.631;   33.875;  127.000;  225.000
268.772; -113.025; -874.000; -647.000
268.913;  -59.550; -328.000; -476.000
269.054;  -17.650; -117.000;   12.000
269.194;  -52.100; -418.000; -402.000
269.335; -171.000;-1137.000;-1074.000
269.476;  -16.150;   33.000;  -35.000
269.617;  -48.075; -347.000; -392.000
269.757;  -90.025; -713.000; -646.000
269.898; -107.100; -856.000; -613.000
270.039;  -49.075; -415.000; -405.000
270.180; -137.675; -952.000; -816.000
270.320;  -16.925; -190.000; -250.000
270.461;  -44.000; -277.000; -249.000
270.602;   -5.500; -186.000; -156.000
270.742; -116.175; -868.000; -943.000
270.883;  -56.325; -442.000; -390.000
271.023;  -68.250; -358.000; -357.000
271.164;  -71.875; -607.000; -528.000
271.305;  -95.500; -666.000; -654.000
271.445;  -89.225; -722.000; -683.000
271.586;  -74.200; -462.000; -283.000
271.726;  -53.300; -397.000; -322.000
271.867;  -65.500; -594.000; -534.000
272.008;  192.550; -473.000; -285.000
272.148;  123.150;  462.000;  468.000
272.289;   11.625; -113.000; -181.000
272.429;    4.225;   19.000;  185.000
272.570;  -86.750; -633.000; -737.000
272.710; -102.900; -825.000; -775.000
272.851;  -26.475;  113.000; -130.000
272.991; -156.375;-1173.000;-1077.000
273.131;  -72.450; -419.000; -459.000
273.272; -105.675; -683.000; -723.000
273.412;   13.775; -143.000;  -31.000
273.553;  -67.000; -488.000; -507.000
273.693;  113.725;  913.000;  858.000
273.834;  -88.375; -894.000; -692.000
273.974;  -79.625; -664.000; -615.000
274.114; -103.875; -772.000; -560.000
274.255;   82.200;  414.000;  373.000
274.395;    5.050; -180.000; -125.000
274.535;   37.625;  199.000;  350.000
274.676;   22.400;  225.000;   94.000
274.816;    2.100;  110.000;   34.000
274.956;  -94.300; -624.000; -690.000
275.097;  -64.750;-1014.000; -922.000
275.237; -116.125; -913.000; -803.000
275.377;  -92.875; -778.000; -689.000
275.517; -145.500; -878.000; -937.000
275.658;  -60.850; -590.000; -555.000
275.798;  -82.200; -606.000; -413.000
275.938;   17.950;  215.000;  323.000
276.078;  -91.950; -626.000; -395.000
276.218;    1.500;   99.000;  104.000
276.359; -132.225;-1026.000;-1024.000
276.499;  -78.600; -605.000; -446.000
276.639;  -42.025; -305.000; -151.000
276.779;  -50.650; -475.000; -357.000
276.919; -107.275; -783.000; -624.000
277.059;  -17.475; -261.000; -212.000
277.199;  -56.775; -357.000; -259.000
277.340;   47.825;  287.000;  175.000
277.480; -112.200; -840.000; -693.000
277.620;   23.900;  192.000;   16.000
277.760; -188.575;-1533.000;-1294.000
277.900;    9.600;  113.000;   33.000
278.040;   22.950;  137.000;  159.000
278.180;   43.800;  270.000;  170.000
278.320;  -19.800;   21.000;   56.000
278.460;  -69.325; -443.000; -469.000
278.600;  -93.025; -708.000; -598.000
278.740;   30.975;  448.000;  224.000
278.880;  -51.100; -768.000; -791.000
279.020;   -1.850; -194.000; -144.000
279.160;  -94.375; -672.000; -595.000
279.300; -118.300; -926.000; -873.000
279.440;  -95.150; -709.000; -622.000
279.579;   -1.050;-1014.000; -929.000
279.719;  -58.250; -410.000; -394.000
279.859;   76.625;   -4.000;   41.000
279.999;   35.400; -208.000;  101.000
280.139;  -17.950; -435.000; -387.000
280.279;  -77.700; -708.000; -745.000
280.419;  -20.450; -229.000; -147.000
280.559;  -45.450; -259.000; -180.000
280.698;  -76.575; -790.000; -639.000
280.838; -105.275; -778.000; -800.000
280.978; -108.250; -846.000; -790.000
281.118; -120.275; -811.000; -704.000
281.257;  -14.225;   24.000;    6.000
281.397; -114.125;-1094.000; -960.000
281.537;  -76.875; -599.000; -712.000
281.677;  -39.550; -150.000; -101.000
281.816;  -89.425; -700.000; -630.000
281.956;  -24.750; -193.000; -257.000
282.096;  -55.175; -539.000; -396.000
282.235; -109.225; -672.000; -638.000
282.375;  -20.650; -243.000;  -98.000
282.515; -105.075; -715.000; -707.000
282.654;   18.875;   29.000;  106.000
282.794;   17.975;  388.000;  244.000
282.934;  -64.825; -530.000; -491.000
283.073; -131.875;-1030.000; -857.000
283.213;  -60.100; -460.000; -467.000
283.353;  -48.250; -408.000; -349.000
283.492;  -31.750; -264.000; -296.000
283.632;  -46.825; -254.000; -168.000
283.771; -104.125; -859.000; -730.000
283.911;  -59.950; -369.000; -260.000
284.050; -106.400; -794.000; -748.000
284.190; -168.225;-1229.000;-1096.000
284.329; -138.750;-1055.000; -964.000
284.469;  -74.350; -516.000; -591.000
284.608;  -56.200; -559.000; -598.000
284.748;  -81.800; -614.000; -570.000
284.887;  -14.250;  -87.000;  -20.000
285.027; -124.350; -844.000; -892.000
285.166;  -32.175; -192.000; -249.000
285.306;   -3.875; -116.000;  -33.000
285.445;  -53.950; -229.000; -343.000
285.584;  -95.875; -630.000; -494.000
285.724;  -52.700; -282.000; -322.000
285.863; -106.350; -857.000; -507.000
286.002;  -49.400; -366.000; -276.000
286.142; -103.575; -715.000; -622.000
286.281;  -68.425; -525.000; -493.000
286.420;  -83.800; -554.000; -417.000
286.560;   83.725;  653.000;  623.000
286.699; -136.100; -958.000; -912.000
286.838;  -78.675; -590.000; -591.000
286.978;  -93.325; -533.000; -537.000
287.117; -135.675;-1085.000; -950.000
287.256;  -41.975; -228.000; -211.000
287.395;  -55.000; -197.000; -378.000
287.535;  -65.875; -370.000; -298.000
287.674;  -76.975; -509.000; -484.000
287.813;   43.475;  661.000;  533.000
287.952; -130.000;-1010.000; -871.000
288.091; -149.675;-1049.000; -915.000
288.231;    5.975;   13.000;   15.000
288.370; -176.100;-1217.000;-1200.000
288.509;  -81.300; -728.000; -645.000
288.648;  -97.775; -770.000; -548.000
288.787;  -31.275; -243.000;  -87.000
288.926;  -63.275; -454.000; -475.000
289.065;  112.275;  859.000;  672.000
289.204;  -55.650; -377.000; -217.000
289.344;  -92.425; -791.000; -690.000
289.483;   -3.075;  416.000;  304.000
289.622;  -40.900; -291.000; -149.000
289.761;  -37.050; -309.000; -166.000
289.900; -106.225; -785.000; -626.000
290.039;  -22.675;  -12.000;  -95.000
290.178;  -60.075; -274.000; -180.000
290.317;  -85.425; -618.000; -479.000
290.456;  -68.725; -463.000; -451.000
290.595; -129.975; -961.000; -833.000
290.734; -133.400; -904.000; -891.000
290.873;  -71.250; -456.000; -420.000
291.011; -113.375; -833.000; -843.000
291.150;  -99.525; -770.000; -682.000
291.289;  -23.000; -343.000; -110.000
291.428;  -96.225; -599.000; -480.000
291.567;  -50.825; -370.000; -442.000
291.706;  -22.475;  109.000;  154.000
291.845;  -83.575; -597.000; -505.000
291.984; -171.000;-1234.000;-1061.000
292.122;   67.250;  602.000;  582.000
292.261;   16.650;  620.000;  463.000
292.400;    0.700; -144.000;  211.000
292.539; -120.075; -959.000; -813.000
292.678;  -31.650; -325.000; -300.000
292.816; -160.650;-1136.000; -965.000
292.955;  -75.300; -844.000; -684.000
293.094;  -34.450; -173.000; -337.000
293.233;  -62.775; -556.000; -400.000
293.371;  -40.025; -225.000;  -84.000
293.510;  -98.250; -866.000; -780.000
293.649; -121.425; -959.000; -924.000
293.787;  -52.475;-1083.000;-1012.000
293.926;  -10.800; -113.000;  -32.000
294.065;  -40.450; -379.000; -290.000
294.203;   39.900;  298.000;  406.000
294.342;   15.050;   74.000;  156.000
294.481; 5825.525;51180.000; -836.000
294.619;  -24.500; -425.000; -582.000
294.758; -147.350;-1230.000;-1137.000
294.896;   77.000; -125.000;    5.000
295.035; -119.700;-1040.000;-1006.000
295.174; -108.625;-1082.000; -954.000
295.312;  -54.050; -323.000; -203.000
295.451;   -2.300; -307.000; -428.000
295.589;  -52.050; -389.000; -518.000
295.728;   22.950; -292.000; -165.000
295.866;    6.525;  -36.000;  -51.000
296.005;  -70.275; -584.000; -341.000
296.143;  -70.625; -558.000; -596.000
296.282; -102.925; -957.000; -881.000
296.420;  -90.850; -657.000; -557.000
296.559;  -77.950; -892.000; -633.000
296.697;   58.675; -847.000; -665.000
296.835;   69.100;-1141.000;-1002.000
296.974;   44.325;  -23.000;   39.000
297.112;   29.925; -443.000; -504.000
297.251;  -66.050; -815.000; -755.000
297.389;   98.550; -576.000; -438.000
297.527;   40.250; -145.000;  -83.000
297.666;  -39.150; -486.000; -438.000
297.804;  -60.675; -404.000; -264.000
297.942;   -6.575; -136.000; -161.000
298.081;  -14.625; -183.000;   63.000
298.219;   74.075;  -17.000;  -19.000
298.357;   55.075; -144.000;  -71.000
298.495;   45.500; -810.000; -812.000
298.634;   87.950;  245.000;  219.000
298.772;   66.000; -220.000; -338.000
298.910;  -50.600; -309.000; -182.000
299.048;  -17.825; -130.000; -153.000
299.187;  -39.850; -350.000; -250.000
299.325;   12.800;   52.000;  122.000
299.463;   68.950; -389.000; -299.000
299.601;  126.175; -327.000; -271.000
299.739;  -89.775; -908.000; -883.000
299.877;  -79.550; -791.000; -703.000
300.016;  -39.800;-1095.000; -935.000
300.154;  195.050;  -19.000; -161.000
300.292;   67.375; -428.000; -348.000
300.430;   38.075; -408.000; -291.000
300.568;  -96.300; -940.000; -874.000
300.706;  -45.400; -366.000; -469.000
300.844;  -63.400;-1108.000; -979.000
300.982;  110.475;  246.000;  282.000
301.120; -111.400; -965.000; -866.000
301.258;  -56.500; -812.000; -705.000
301.396;   39.225;  104.000;  -41.000
301.534;   82.125; -218.000; -293.000
301.672;   -2.450; -664.000; -521.000
301.810;   52.775; -613.000; -545.000
301.948;  111.875;   53.000;  149.000
302.086;  712.625; -250.000;  -32.000
302.224; 1036.225; -610.000; -585.000
302.362;   54.900; -558.000; -622.000
302.500;  -13.650; -923.000; -893.000
302.638;  120.275;  128.000;  245.000
302.776;   -8.900; -352.000; -408.000
302.913;   38.950;  447.000;  236.000
303.051;   11.850;  -86.000;  -23.000
303.189;   37.525;   90.000;  118.000
303.327;  -49.550; -341.000; -256.000
303.465;  -90.425; -832.000; -588.000
303.603;  -87.025; -805.000; -604.000
303.740;   95.825;  417.000;  241.000
303.878;   26.750; -800.000; -759.000
304.016;  -93.175; -915.000; -790.000
304.154; -123.275;-1123.000;-1152.000
304.291;  -43.650; -505.000; -554.000
304.429;   -8.925;  102.000;   74.000
304.567; -108.375; -908.000; -893.000
304.705;  -64.175; -408.000; -515.000
304.842;  117.850; -616.000; -540.000
304.980;   41.125;  215.000;   35.000
305.118;   57.925; -367.000; -365.000
305.255;  -65.925; -945.000; -927.000
305.393;   50.875;  178.000;  239.000
305.531; -102.150;-1173.000; -956.000
305.668;  -74.850; -663.000; -582.000
305.806;  126.275; -358.000; -439.000
305.943;  120.950; -629.000; -637.000
306.081;   49.350; -378.000; -267.000
306.219;  -88.125; -863.000; -748.000
306.356;   -0.325;  158.000;   27.000
306.494;  103.275;  981.000;  761.000
306.631;    2.175;  -11.000;  -55.000
306.769;   13.075; -613.000; -485.000
306.906;  -18.700; -284.000; -258.000
307.044;  -73.000; -473.000; -488.000
307.181;  -66.275; -410.000; -332.000
307.319;   18.400;  112.000;   87.000
307.456; -172.025;-1191.000;-1153.000
307.594;  -91.900; -980.000; -727.000
307.731;    1.300; -371.000; -164.000
307.868;   -3.975;  -15.000;   20.000
308.006; -134.975; -961.000; -847.000
308.143;  -55.800; -618.000; -330.000
308.281;  202.300;  -37.000; -254.000
308.418;   -4.500; -748.000; -640.000
308.555;  -64.550; -400.000; -250.000
308.693;  -75.325; -577.000; -573.000
308.830; -111.675; -712.000; -657.000
308.967;  -29.000; -215.000;  -95.000
309.105;  -49.125; -507.000; -396.000
309.242;   66.500; -468.000; -367.000
309.379;  391.200; -577.000; -655.000
309.517;  -49.025; -936.000; -948.000
309.654; -103.725; -910.000; -734.000
309.791;  -78.250; -662.000; -580.000
309.928; -113.550; -977.000; -914.000
310.065;  188.175;  819.000;  697.000
310.203;    7.125; -825.000; -850.000
310.340;   -6.900; -465.000; -321.000
310.477;  -82.100; -412.000; -516.000
310.614;  -65.625; -383.000; -473.000
310.751;  -78.175; -427.000; -518.000
310.889;  -34.900;    1.000;   11.000
311.026; -155.200;-1161.000; -939.000
311.163;  -49.000; -386.000; -380.000
311.300;  -78.450; -512.000; -479.000
311.437;  -72.525; -658.000; -619.000
311.574; -154.025;-1226.000; -985.000
311.711;  -59.425; -595.000; -433.000
311.848;  -43.000; -380.000; -388.000
311.985;   11.100;  270.000;   93.000
312.122; -122.825; -932.000; -762.000
312.259; -123.775; -941.000; -994.000
312.396;  -74.225; -508.000; -551.000
312.533;  -96.800; -812.000; -790.000
312.670; -137.000;-1070.000; -898.000
312.807;  -23.450; -352.000; -367.000
312.944;  -65.900; -513.000; -611.000
313.081;  -34.550; -150.000; -415.000
313.218; -111.700;-1111.000; -867.000
313.355;    7.150; -531.000; -449.000
313.492;    9.950; -455.000; -292.000
313.629;  121.750;  815.000;  735.000
313.766; -141.800;-1176.000;-1008.000
313.902;  -14.400; -186.000;   21.000
314.039;  -45.900; -372.000; -289.000
314.176;   21.275;  286.000;  192.000
314.313;  -76.775; -569.000; -473.000
314.450;  -63.025; -788.000; -684.000
314.587;  -58.200; -468.000; -480.000
314.723;   -5.225;  -78.000;  130.000
314.860;   22.400;  318.000;  332.000
314.997;   33.025;  223.000;  142.000
315.134;  -49.725; -385.000; -368.000
315.270;  -34.175; -480.000; -496.000
315.407; -134.350;-1094.000; -967.000
315.544;  -39.775; -657.000; -538.000
315.681;  -71.500; -681.000; -565.000
315.817;   40.875; -133.000; -176.000
315.954;   34.725; -613.000; -392.000
316.091; -110.750;-1045.000;-1023.000
316.227;  -33.375;  -71.000; -179.000
316.364;   -6.850;   23.000;    6.000
316.500;  -53.025; -113.000; -300.000
316.637;  -40.650; -181.000; -302.000
316.774;  -96.575; -625.000; -358.000
316.910;  -74.750; -598.000; -629.000
317.047;  -65.475; -487.000; -351.000
317.183;  -47.675; -435.000; -566.000
317.320;  -27.150; -367.000; -321.000
317.456;  -65.775; -733.000; -805.000
317.593;  -94.950; -598.000; -641.000
317.729;   -5.800;  168.000;  -67.000
317.866; -195.250;-1434.000;-1285.000
318.002;  -91.825; -708.000; -948.000
318.139;  -84.125; -883.000; -867.000
318.275; -109.125;-1003.000; -738.000
318.412;  -65.050; -517.000; -336.000
318.548;  -33.200; -751.000; -720.000
318.685;  -86.200; -985.000; -888.000
318.821;  -97.325; -762.000; -735.000
318.957;  -28.075;   34.000;  -23.000
319.094;   37.250;  297.000;  154.000
319.230;  -49.575; -756.000; -742.000
319.367;  156.575; -471.000; -520.000
319.503;   61.200; -538.000; -436.000
319.639;  -99.025; -877.000; -793.000
319.775;  -57.650; -750.000; -685.000
319.912;  -47.425; -424.000; -519.000
320.048;  -83.400;-1184.000;-1184.000
320.184;   64.950;   59.000;   70.000
320.321;  -69.875; -497.000; -467.000
320.457;   44.350;  475.000;  662.000
320.593;  -76.550; -375.000; -382.000
320.729; -101.200; -732.000; -734.000
320.866;  -75.750; -577.000; -635.000
321.002;  -71.425; -759.000; -809.000
321.138;   -9.500; -135.000; -211.000
321.274;   76.025; -148.000; -115.000
321.410;  -15.350; -585.000; -353.000
321.546;  -17.725;-1011.000; -911.000
321.683;   56.800;  400.000;  185.000
321.819;    1.075;  -48.000; -117.000
321.955;  -99.800; -743.000; -722.000
322.091;  -52.500; -585.000; -540.000
322.227;   -1.125; -382.000; -202.000
322.363;  -10.450; -320.000; -215.000
322.499;  -56.675; -343.000; -331.000
322.635;  163.350;  636.000;  443.000
322.771;   26.900; -139.000;   12.000
322.907;   85.675;  129.000;  327.000
323.043;  -13.400; -115.000; -206.000
323.179;  -36.100; -394.000; -363.000
323.315;   26.575; -401.000; -371.000
323.451;  113.750; -328.000; -236.000
323.587;   64.575;  -60.000;  -77.000
323.723;   37.175; -682.000; -601.000
323.859;  -20.125; -258.000;  -76.000
323.995;  -32.475; -467.000; -409.000
324.131; -119.375; -967.000; -892.000
324.267;  -38.475; -254.000; -276.000
324.402; -134.600; -960.000; -983.000
324.538;  -18.025; -279.000; -104.000
324.674;   12.550;  164.000;   77.000
324.810;  148.525;  226.000;  308.000
324.946;   14.900; -810.000; -658.000
325.082;  -69.850; -568.000; -475.000
325.217;  -14.125;  -62.000;   16.000
325.353;  -90.000; -764.000; -659.000
325.489;  -85.450; -540.000; -506.000
325.625;  -67.375; -579.000; -525.000
325.760;   49.925;  517.000;  376.000
325.896;  -31.350; -515.000; -702.000
326.032;  -60.575; -403.000; -352.000
326.168;  -60.900; -462.000; -369.000
326.303;  -81.475; -352.000; -461.000
326.439;  -40.050; -336.000; -276.000
326.575;   -9.450; -190.000;  -29.000
326.710;  -12.900; -156.000;  -30.000
326.846;  -24.900;  146.000;  103.000
326.982; -102.300; -530.000; -548.000
327.117;  -78.625; -481.000; -442.000
327.253;  -80.950; -745.000; -742.000
327.388; -146.900;-1137.000;-1153.000
327.524;  -26.800; -811.000; -578.000
327.659;  -22.000;  -58.000;  -22.000
327.795;  -28.225;   69.000;   45.000
327.931;  -91.750; -723.000; -499.000
328.066;  -25.350; -417.000; -276.000
328.202;  -27.425;   12.000; -129.000
328.337;   80.900;  957.000;  713.000
328.473;   27.525;  -12.000;  -74.000
328.608;  -29.900; -256.000; -267.000
328.743;  -97.350; -799.000; -664.000
328.879;   34.900;  214.000;  114.000
329.014;  -35.675; -102.000; -122.000
329.150;  -83.825; -358.000; -483.000
329.285;  -77.900; -465.000; -466.000
329.421;  -61.575; -548.000; -246.000
329.556;  -34.875;  -36.000;   85.000
329.691; -105.925; -633.000; -615.000
329.827;  -77.025; -626.000; -480.000
329.962;  -31.100;  131.000; -301.000
330.097;  -95.300; -673.000; -585.000
330.233;  -55.900; -410.000; -223.000
330.368; -123.325; -839.000; -628.000
330.503;  -14.275;    3.000;   98.000
330.638;   -2.975;  -93.000; -125.000
330.774;  -56.575; -609.000; -530.000
330.909;  -42.525; -434.000; -244.000
331.044;  -94.850; -714.000; -708.000
331.179; -174.925;-1217.000;-1109.000
331.315;   14.800;   77.000;   20.000
331.450;   -1.000;  157.000;  285.000
331.585;  -88.425; -805.000; -706.000
331.720;  -84.675; -510.000; -460.000
331.855;   -5.625;  -35.000; -102.000
331.990;  240.450;   62.000;  138.000
332.126;  110.825; -110.000;   71.000
332.261;  -23.275; -379.000; -265.000
332.396;    0.550; -135.000; -242.000
332.531;  -99.975;-1074.000;-1031.000
332.666;   22.875; -519.000; -363.000
332.801; -104.875; -726.000; -807.000
332.936;  -26.125; -192.000; -122.000
333.071; -148.650; -870.000; -817.000
333.206;   21.075;  307.000;  379.000
333.341;   17.300;  344.000;  418.000
333.476;  -76.175; -627.000; -623.000
333.611;  -41.900; -251.000; -173.000
333.746;  -53.550; -381.000; -464.000
333.881; -122.475; -973.000; -935.000
334.016; -124.775; -936.000; -917.000
334.151; -125.475; -746.000; -702.000
334.286;   27.125;  152.000;  186.000
334.421;  -13.125; -125.000; -178.000
334.556;  -84.000; -611.000; -567.000
334.690;  -73.350; -631.000; -577.000
334.825;   44.575;  381.000;   83.000
334.960;  -58.200; -285.000; -413.000
335.095;    6.350;  135.000;  -91.000
335.230; -108.225; -722.000; -738.000
335.365; -138.950;-1084.000; -990.000
335.499; -128.175;-1108.000;-1037.000
335.634;   27.200;    9.000;  534.000
335.769;  -90.950; -755.000; -720.000
335.904;  -69.100; -603.000; -561.000
336.038;  -54.150; -735.000; -657.000
336.173; -115.350;-1206.000;-1194.000
336.308;    1.200; -116.000; -189.000
336.443;   -4.425; -544.000; -634.000
336.577;  -72.700; -936.000; -787.000
336.712;   58.550;   -4.000;  -12.000
336.847;  -36.325; -724.000; -607.000
336.981;   85.425; -272.000; -208.000
337.116;  287.300;  615.000;  501.000
337.250;  156.500; -434.000; -421.000
337.385;  220.675; -297.000; -208.000
337.520;   64.625; -632.000; -603.000
337.654;  -43.300; -215.000; -126.000
337.789; -119.350; -989.000; -933.000
337.923;  -47.775; -104.000; -205.000
338.058;  -74.150; -673.000; -738.000
338.192;  -23.275; -611.000; -488.000
338.327;   -8.150;  -18.000; -155.000
338.461;  -63.550; -299.000; -469.000
338.596;  -82.125; -780.000; -638.000
338.730; -106.175; -767.000; -803.000
338.865;   81.725;  -46.000; -140.000
338.999;  -56.775; -846.000; -702.000
339.134;  -43.800; -634.000; -536.000
339.268;   16.825; -741.000; -603.000
339.403;  362.625; -740.000; -775.000
339.537;   87.125; -894.000; -820.000
339.671; -111.250; -829.000; -813.000
339.806;  -67.775; -556.000; -512.000
339.940;   13.425; -261.000; -235.000
340.074; -104.125; -685.000; -510.000
340.209;  -54.425; -351.000; -230.000
340.343; -102.425; -517.000; -573.000
340.477;  133.675;  998.000; 1036.000
340.612;  -75.575;-1033.000; -900.000
340.746;  133.475; -199.000; -243.000
340.880;  -72.625; -924.000; -785.000
341.014;  -22.200;  -45.000; -154.000
341.149; -118.050; -756.000; -718.000
341.283; -102.825; -839.000; -754.000
341.417;  -92.775;-1124.000; -938.000
341.551;  162.400; -768.000; -708.000
341.685;  -27.350; -633.000; -611.000
341.820;  -57.725; -562.000; -493.000
341.954;  -47.275; -218.000; -349.000
342.088; -153.575;-1102.000;-1019.000
342.222;   37.675;  565.000;  618.000
342.356;  -56.500; -395.000; -335.000
342.490;  -88.700; -880.000; -841.000
342.624;  -40.475; -339.000; -242.000
342.758;   -2.425; -364.000; -312.000
342.892;  -60.050; -710.000; -585.000
343.026;  -39.500;  -58.000; -116.000
343.160;  -60.600; -426.000; -376.000
343.294;  -89.725; -474.000; -337.000
343.428;  -11.200; -488.000; -448.000
343.562;  -22.925; -172.000;  -23.000
343.696;  -28.150; -385.000; -314.000
343.830;  -14.425; -362.000; -356.000
343.964;    7.525; -231.000; -168.000
344.098; 1006.300;  199.000;   70.000
344.232;  839.300; -266.000; -127.000
344.366;   89.650; -567.000; -453.000
344.500;   80.900; -665.000; -744.000
344.634;   48.250; -324.000; -164.000
344.768;   -3.500; -531.000; -341.000
344.902;   10.700;  278.000;  256.000
345.035;  -81.775; -556.000; -496.000
345.169; -139.825; -933.000; -656.000
345.303;  -21.025; -308.000; -482.000
345.437;  -80.500; -826.000; -717.000
345.571;  -62.350; -675.000; -594.000
345.704;  -61.350; -309.000; -532.000
345.838;  -25.450; -331.000; -284.000
345.972;  -43.800; -543.000; -495.000
346.106;  165.425; -179.000; -190.000
346.239;  424.350; -312.000; -243.000
346.373;   17.600; -343.000; -302.000
346.507; -131.400; -950.000; -962.000
346.640;  166.525;  -30.000;   13.000
346.774;  -32.700; -650.000; -797.000
346.908;  -11.350; -138.000;  -11.000
347.041;  -89.475; -646.000; -593.000
347.175;    8.325;  259.000;   27.000
347.309;  -58.650; -698.000; -628.000
347.442;  -96.950; -883.000; -732.000
347.576;  295.225;  670.000;  668.000
347.709;  216.050; -123.000;  -52.000
347.843;  -77.075; -933.000; -825.000
347.976;   32.175;  235.000;  294.000
348.110; -184.900;-1268.000;-1186.000
348.243; -117.375; -679.000; -772.000
348.377;  -17.350;  -26.000;   60.000
348.510;   41.175;  403.000;  540.000
348.644;  -24.400;  -37.000; -159.000
348.777;  -10.300;  180.000;  191.000
348.911;  -33.425; -142.000; -112.000
349.044;  181.475;  471.000;  448.000
349.178;  180.975;-1069.000;-1006.000
349.311;  119.950;  141.000;  255.000
349.444;   -8.100; -927.000; -813.000
349.578;  -19.125; -347.000; -200.000
349.711;  -97.875; -959.000; -862.000
349.845;    6.950; -661.000; -591.000
349.978; -140.275;-1224.000;-1137.000
350.111;  -76.125; -546.000; -612.000
350.244;  -75.275; -596.000; -700.000
350.378;   24.125; -392.000; -393.000
350.511;  -69.175; -393.000; -426.000
350.644; -121.850; -808.000; -806.000
350.778;    1.850;  168.000;  104.000
350.911;   -7.550;  134.000;  140.000
351.044;  -88.375; -685.000; -615.000
351.177;  -30.400; -321.000; -281.000
351.310;  -16.200;    3.000; -131.000
351.444;  -58.675; -888.000; -788.000
351.577;  117.100;  140.000;   90.000
351.710;   83.350;  593.000;  417.000
351.843;  -48.675; -165.000;  -77.000
351.976;  -10.725;  149.000;  -79.000
352.109;  -96.450; -621.000; -612.000
352.242;  -14.975; -464.000; -419.000
352.376;  -64.850; -580.000; -636.000
352.509;  197.500; -437.000; -356.000
352.642;   35.700; -654.000; -604.000
352.775;   66.350; -141.000;  -98.000
352.908; -118.375; -933.000; -904.000
353.041;  -89.800; -814.000; -824.000
353.174;  -56.750; -551.000; -424.000
353.307;  -83.650; -753.000; -764.000
353.440;   55.325;  541.000;  453.000
353.573; -112.875; -957.000;-1008.000
353.706;  -26.250; -384.000; -558.000
353.839;   -0.125; -264.000; -220.000
353.971;  -92.150; -657.000; -512.000
354.104;  -76.800; -896.000; -835.000
354.237;  -25.075; -627.000; -662.000
354.370;  -67.350; -846.000; -879.000
354.503; -178.225;-1231.000;-1308.000
354.636;  -38.200; -529.000; -348.000
354.769; -120.625; -937.000; -860.000
354.902;   -9.725; -230.000; -139.000
355.034;  -22.575; -164.000; -220.000
355.167;  -14.350; -262.000; -162.000
355.300;  -84.400;-1061.000; -880.000
355.433;  947.700;  -71.000;  -14.000
355.565; 1483.300; -402.000; -384.000
355.698;  365.900; -356.000; -296.000
355.831;    5.250; -882.000; -801.000
355.964;   87.250; -285.000; -170.000
356.096;  -72.575; -856.000; -843.000
356.229;    1.725; -523.000; -530.000
356.362;  304.700; -373.000; -266.000
356.494;  577.875; -229.000; -162.000
356.627;  505.575;  269.000;  377.000
356.760;  650.350;  120.000;   53.000
356.892;  920.800; -286.000; -601.000
357.025;  708.800;  403.000;  389.000
357.157;  657.275; -167.000; -179.000
357.290;  623.900; -856.000; -713.000
357.423;  201.700; -667.000; -556.000
357.555;  114.175; -217.000; -228.000
357.688;  147.400; -483.000; -364.000
357.820;  511.950; -870.000; -877.000
357.953; 3983.750; -563.000; -589.000
358.085;  925.175; -632.000; -612.000
358.218; 1331.850;-1131.000; -932.000
358.350;  236.475;  -58.000;  312.000
358.483; -102.325;-1300.000;-1187.000
358.615;   12.200;-1182.000;-1078.000
358.747;  -42.025;-1187.000;-1058.000
358.880;   34.350; -810.000; -744.000
359.012;  -19.150; -376.000; -202.000
359.145;  -45.925; -480.000; -511.000
359.277;   64.375; -962.000; -913.000
359.409; 3256.450;  536.000;  231.000
359.542;  902.125; -738.000; -688.000
359.674;   79.700;   46.000;   13.000
359.806;  -65.700; -565.000; -438.000
359.939;  -43.775; -617.000; -516.000
360.071;  -14.200; -583.000; -579.000
360.203;  -18.550; -411.000; -364.000
360.335;   43.675;  164.000;  -16.000
360.468;  211.150; -249.000; -307.000
360.600; 2574.025; -547.000; -454.000
360.732; 2774.000; -546.000; -423.000
360.864;  400.050;-1216.000;-1044.000
360.996;  325.325; -516.000; -554.000
361.129;   66.775; -389.000; -598.000
361.261;   38.725;  110.000; -113.000
361.393;  -21.275; -252.000; -214.000
361.525;   36.550;   94.000;  244.000
361.657;  -36.975; -821.000; -703.000
361.789;   10.225; -139.000; -155.000
361.921;  265.675; -642.000; -593.000
362.053;  293.050;  524.000;  541.000
362.185;   43.150;  288.000;   72.000
362.318;  -64.650; -709.000; -705.000
362.450;  134.675;  294.000;  444.000
362.582;  160.425; -913.000; -870.000
362.714;  -39.275; -353.000; -332.000
362.846;  -91.850; -606.000; -490.000
362.978; -135.325; -941.000; -811.000
363.109;   55.100; -161.000; -260.000
363.241;  495.525; -739.000; -749.000
363.373;  426.550; -649.000; -564.000
363.505;  631.900; -186.000;  -91.000
363.637;  169.025; -787.000; -601.000
363.769; -117.225;-1067.000;-1080.000
363.901;  -66.600; -596.000; -654.000
364.033; -110.700;-1103.000;-1062.000
364.165;    5.575; -283.000; -283.000
364.296;   76.825; -316.000; -177.000
364.428;   74.725;-1344.000;-1220.000
364.560;  -61.475; -679.000; -661.000
364.692;  -58.300; -738.000; -835.000
364.824;  303.350; -588.000; -456.000
364.955;  437.075; -402.000; -564.000
365.087;  874.450;-1097.000; -852.000
365.219;   37.175; -686.000; -816.000
365.351;  -48.400; -526.000; -572.000
365.482;   58.325;  300.000;  240.000
365.614;  -55.400; -402.000; -314.000
365.746;  -98.075; -729.000; -752.000
365.877; -104.075; -706.000; -672.000
366.009;  237.475;  -35.000;  -62.000
366.141;  -86.100;-1249.000;-1134.000
366.272; -108.075; -803.000; -719.000
366.404; -104.975;-1005.000; -874.000
366.535;  -10.500; -139.000;  -12.000
366.667; -101.100; -644.000; -649.000
366.799;   32.100;  353.000;  203.000
366.930; -125.200; -862.000; -996.000
367.062;  108.500; -639.000; -613.000
367.193;  153.200; -872.000; -842.000
367.325;  -72.625; -580.000; -684.000
367.456;   55.625; -246.000;   31.000
367.588;  156.075; -371.000; -318.000
367.719;   24.550;  -44.000;  -45.000
367.851;  -32.000; -222.000; -241.000
367.982;  -57.075; -875.000; -732.000
368.113;  121.125; -475.000; -358.000
368.245; -113.100; -960.000; -841.000
368.376;  -11.875; -254.000; -302.000
368.508;  -42.050; -188.000; -263.000
368.639; -135.075;-1166.000;-1034.000
368.770;  -14.775; -670.000; -589.000
368.902;  -38.625; -836.000; -926.000
369.033; -108.200; -906.000; -855.000
369.164;  -50.950; -720.000; -653.000
369.296; -105.625; -452.000; -601.000
369.427;    5.850; -209.000; -144.000
369.558;  -49.950; -593.000; -377.000
369.689;  -93.325; -721.000; -569.000
369.821; -137.075; -951.000; -845.000
369.952;  -27.700;   42.000; -108.000
370.083;  -65.575; -229.000; -108.000
370.214;  -88.775; -735.000; -650.000
370.345;  -13.950;   65.000;   81.000
370.477;  -90.625; -810.000; -790.000
370.608;  266.350; -328.000; -264.000
370.739;  -28.475;-1233.000;-1292.000
370.870;  -15.775;-1102.000; -923.000
371.001;   95.975; -378.000; -467.000
371.132;  -75.675; -754.000; -735.000
371.263;  -22.550;  -42.000; -148.000
371.394; -122.900; -841.000; -748.000
371.525;   32.575;  345.000;  225.000
371.657;  -82.525; -808.000; -670.000
371.788;   73.925;  103.000;  199.000
371.919;  172.500; -384.000; -304.000
372.050; 3919.675;  -91.000; -156.000
372.181; 1211.325; -188.000; -294.000
372.311;  424.950;   42.000; -127.000
372.442;   46.175; -457.000; -451.000
372.573;  -24.550; -444.000; -340.000
372.704; -113.950;-1008.000; -980.000
372.835;  100.900; -228.000; -289.000
372.966;  -60.375; -646.000; -554.000
373.097;  -65.300; -575.000; -711.000
373.228;  -44.125; -717.000; -542.000
373.359;  150.100; -824.000; -536.000
373.490; 1041.300; -881.000; -727.000
373.620; 1330.825;-1001.000; -803.000
373.751; 1945.325; -332.000; -396.000
373.882;  932.925; -663.000; -733.000
374.013;   78.275; -449.000; -262.000
374.143;  -40.825; -581.000; -659.000
374.274;  -77.350; -987.000; -908.000
374.405;  194.900; -388.000; -276.000
374.536;  488.550; -526.000; -387.000
374.666; 1273.775; -759.000; -807.000
374.797;  275.550; -817.000; -868.000
374.928;  973.950; -710.000; -560.000
375.058; 1049.225; -535.000; -500.000
375.189;   94.000;  -59.000;  -93.000
375.320; -107.775; -928.000;-1034.000
375.450;  -27.675; -625.000; -616.000
375.581;  -48.975; -526.000; -436.000
375.712;  -21.925; -574.000; -250.000
375.842;  347.600; -438.000; -415.000
375.973;  272.450; -554.000; -513.000
376.103;  -24.500; -665.000; -648.000
376.234;  -80.525; -531.000; -552.000
376.364;  -20.575; -944.000; -867.000
376.495;  360.650;  925.000;  529.000
376.625;    8.450; -472.000; -485.000
376.756;   92.575; -709.000; -678.000
376.886;  -63.425;-1178.000;-1026.000
377.017;   43.000;-1048.000;-1061.000
377.147;  333.950; -786.000; -782.000
377.278;   62.775;  174.000;  228.000
377.408; -134.150; -801.000; -815.000
377.538; -112.475; -707.000; -693.000
377.669;  -85.425; -537.000; -613.000
377.799;  -83.250; -645.000; -635.000
377.929;  -61.525; -610.000; -428.000
378.060; -141.800; -781.000; -847.000
378.190;  -69.200; -726.000; -531.000
378.320;  -47.650; -401.000; -406.000
378.451;  -11.300; -131.000;  -22.000
378.581;   -6.450;  -67.000; -110.000
378.711;  153.000; 1035.000;  866.000
378.841;  -10.975; -533.000; -675.000
378.972;  -73.300; -871.000; -751.000
379.102;   16.725; -652.000; -579.000
379.232;  -10.450; -126.000;  -73.000
379.362;  -96.650;-1001.000; -885.000
379.492;   17.550; -373.000; -424.000
379.623;  123.200;    0.000;  111.000
379.753;  -97.100;-1107.000; -974.000
379.883;  211.250;   59.000;  156.000
380.013;   31.100;-1081.000;-1017.000
380.143;  -88.550;-1097.000;-1056.000
380.273; -100.875; -985.000; -861.000
380.403;   -5.225; -344.000; -257.000
380.533;  -25.875; -651.000; -664.000
380.663;   71.750;  173.000;  128.000
380.793;  -84.225;-1027.000;-1074.000
380.923;  -16.125; -103.000;  -34.000
381.053; -100.025; -613.000; -623.000
381.183;  -22.525; -106.000; -248.000
381.313;   54.325; -656.000; -470.000
381.443;   50.300; -692.000; -473.000
381.573;  221.725; -402.000; -409.000
381.703;  360.975;-1249.000;-1095.000
381.833; -118.925;-1454.000;-1336.000
381.963;  111.025; -134.000;  -87.000
382.093; 1541.950; -925.000; -909.000
382.223;  515.300; -713.000; -602.000
382.353;   -1.350; -801.000; -608.000
382.482;  442.600;-1091.000; -964.000
382.612;  848.925; -872.000; -644.000
382.742;  508.150; -695.000; -622.000
382.872;  295.275; -565.000; -551.000
383.002;   79.050;  347.000; -132.000
383.131;  -29.700; -226.000; -160.000
383.261;  -31.125; -706.000; -768.000
383.391;  271.750; -552.000; -377.000
383.521; 3041.975;  451.000;  263.000
383.650;  766.275; -947.000; -904.000
383.780;   -1.800; -783.000; -656.000
383.910;  109.700;  880.000;  802.000
384.039;   35.700; -794.000; -656.000
384.169;  268.675;-1205.000;-1017.000
384.299;  -16.125; -650.000; -662.000
384.428;  -87.475; -764.000; -680.000
384.558;  -41.700; -308.000; -275.000
384.687;  -46.750; -414.000; -334.000
384.817;   16.750;   75.000;   -2.000
384.947;   29.450; -234.000; -141.000
385.076;  317.775;  982.000;  912.000
385.206;  100.000;  369.000;  480.000
385.335;  -29.150; -549.000; -417.000
385.465;  -83.200; -655.000; -663.000
385.594;  144.950;  -53.000;  -44.000
385.724;  492.550; -868.000; -838.000
385.853;  143.625; -296.000; -270.000
385.982; 1449.675; -743.000; -787.000
386.112; 2408.150;-1052.000; -871.000
386.241;  185.825; -307.000; -312.000
386.371;   31.375; -174.000;  -87.000
386.500;    0.575; -825.000; -789.000
386.629;   38.100; -874.000; -817.000
386.759;   52.500;  -43.000;   68.000
386.888;   14.625; -170.000; -250.000
387.017;  -73.850; -648.000; -620.000
387.147;  -86.375; -771.000; -798.000
387.276;    7.050; -410.000; -397.000
387.405;   25.675; -398.000; -342.000
387.535;  -49.000; -452.000; -361.000
387.664;  -63.275; -692.000; -620.000
387.793;   64.075; -198.000; -113.000
387.922;  581.625;  255.000;  200.000
388.052;   50.125; -576.000; -423.000
388.181;   17.750; -342.000; -472.000
388.310;   21.000; -889.000; -710.000
388.439;  -28.450; -749.000; -742.000
388.568;  188.825;  365.000;  244.000
388.697; 1175.025; -756.000; -653.000
388.826;  272.750; -768.000; -666.000
388.956;   68.150; -285.000; -307.000
389.085;  -33.875; -347.000; -287.000
389.214; -108.650; -842.000; -872.000
389.343;  -65.250; -645.000; -413.000
389.472;  371.675;  126.000;  149.000
389.601;  524.450;   91.000;    0.000
389.730;   29.000; -568.000; -687.000
389.859;   54.675;  226.000;   46.000
389.988;  207.725; -423.000; -408.000
390.117;  160.500; -168.000; -146.000
390.246;   -8.725; -331.000; -320.000
390.375;  132.600; -673.000; -626.000
390.504;  -53.775; -703.000; -621.000
390.633; -107.475; -672.000; -726.000
390.761;  -56.225; -732.000; -645.000
390.890;   24.425;   -4.000; -130.000
391.019;  -18.075; -421.000; -441.000
391.148; -124.350; -826.000; -855.000
391.277;  -75.825; -576.000; -493.000
391.406;  -73.300; -821.000; -805.000
391.534;   27.125;  574.000; -301.000
391.663;  -62.525; -583.000; -645.000
391.792;  -76.875; -673.000; -701.000
391.921;  121.275;   -3.000;   15.000
392.050;  212.750; -287.000; -228.000
392.178;  -18.825;-1206.000;-1061.000
392.307;  167.750; -758.000; -712.000
392.436;   92.525; -427.000; -641.000
392.564;   37.800;  166.000;   -6.000
392.693;  -98.225; -860.000; -682.000
392.822;  215.375; -529.000; -534.000
392.950;  117.575; -880.000; -714.000
393.079;  356.050; -188.000; -328.000
393.208;   39.800; -488.000; -511.000
393.336;  -29.275; -170.000; -145.000
393.465;  -44.025; -317.000; -199.000
393.593;   -8.575;   62.000;   79.000
393.722; -151.025;-1121.000; -916.000
393.850;  -28.850; -188.000;  -61.000
393.979; -170.450; -926.000; -805.000
394.107;  -53.450; -517.000; -537.000
394.236;  -17.250; -570.000; -507.000
394.364;  230.475;  383.000;  206.000
394.493;  438.175; -911.000; -767.000
394.621;   14.675; -955.000; -916.000
394.750;  688.375; -873.000; -923.000
394.878; 2800.725; -247.000; -149.000
395.007; 4018.025; -721.000; -807.000
395.135;  320.825; -790.000; -721.000
395.263;  -85.950;-1038.000;-1040.000
395.392;    8.125;  -25.000; -107.000
395.520; -121.750; -818.000; -679.000
395.648;  -80.500; -865.000; -915.000
395.777;   -7.300; -366.000; -405.000
395.905;  -48.325; -449.000; -564.000
396.033;    8.200;  217.000;  172.000
396.162;  676.400; -399.000; -453.000
396.290;  647.550;  -17.000;   -2.000
396.418;  125.175; -555.000; -514.000
396.546;  -61.325; -571.000; -466.000
396.674;  -96.525; -850.000; -878.000
396.803;    6.000;  -72.000;  -23.000
396.931;   94.425; -179.000; -199.000
397.059;   70.775;-1026.000; -989.000
397.187;  -97.375;-1026.000; -975.000
397.315; -140.150; -884.000; -649.000
397.443;  -96.775; -592.000; -443.000
397.572; -114.925; -578.000; -424.000
397.700;  -18.900; -607.000; -614.000
397.828;   -6.925;  120.000;  -90.000
397.956;  -45.900; -508.000; -478.000
398.084;  -68.350; -767.000; -626.000
398.212;   25.650;  137.000;  124.000
398.340;    4.500;  -56.000;  159.000
398.468;   28.000; -390.000; -169.000
398.596; -124.000; -993.000; -953.000
398.724; -111.275; -762.000; -767.000
398.852; -170.425;-1024.000; -976.000
398.980;  -76.600; -560.000; -560.000
399.108;  -51.150; -982.000; -735.000
399.236;   47.675;   13.000;    8.000
399.363;    4.950;  222.000;  196.000
399.491;  -84.575; -404.000; -398.000
399.619; -114.350; -829.000; -800.000
399.747; -117.800; -859.000; -771.000
399.875;   79.775;  220.000;  234.000
400.003;  -60.275; -359.000; -284.000
400.130; -105.500; -421.000; -341.000
400.258;  -39.100;  -83.000;   38.000
400.386;  -82.225; -352.000; -168.000
400.514;  -39.100; -526.000; -587.000
400.641;  -73.675; -928.000; -802.000
400.769; -131.275; -979.000; -888.000
400.897; -111.925; -838.000; -793.000
401.025;   -7.275; -166.000; -152.000
401.152;   -6.575;  220.000;   38.000
401.280;  -87.150; -430.000; -429.000
401.408; -118.375; -712.000; -576.000
401.535; -106.675; -735.000; -758.000
401.663; -191.000;-1134.000;-1054.000
401.790;  -83.950; -514.000; -525.000
401.918;   37.450;  436.000;  405.000
402.046;  -17.150;  134.000;  122.000
402.173;  -40.425;  -18.000;    7.000
402.301;  -75.475; -519.000; -397.000
402.428;   30.450;  528.000;  383.000
402.556; -141.350;-1188.000; -913.000
402.683;  -37.525;  -20.000;   -1.000
402.811;  -28.625;  -37.000; -206.000
402.938;   -9.275;   20.000;   27.000
403.066;  226.225; -574.000; -558.000
403.193;  380.975;  299.000;  239.000
403.321;  284.150; -396.000; -574.000
403.448;  352.650;   83.000;   27.000
403.575;  175.950;  -90.000;  -46.000
403.703;  -92.150; -732.000; -557.000
403.830;  -69.000; -531.000; -496.000
403.957; -140.225;-1117.000;-1023.000
404.085;   23.575;  -61.000; -172.000
404.212;  105.825;  -50.000;   63.000
404.339;  264.450; -566.000; -306.000
404.467; 5522.525; -612.000; -524.000
404.594; 4003.725; -287.000; -227.000
404.721; 1012.250; -869.000; -764.000
404.848;   85.500; -113.000; -202.000
404.976; -102.650; -856.000; -783.000
405.103;  -13.425;  -14.000;  -82.000
405.230;   -5.675;  190.000;  226.000
405.357;   27.275;  117.000;   44.000
405.484;  238.225;  -49.000;    5.000
405.612;   60.425; -548.000; -563.000
405.739;  -70.900; -488.000; -243.000
405.866;   87.400;  669.000;  385.000
405.993;  -42.725; -398.000; -102.000
406.120; -135.325; -801.000; -887.000
406.247;  -55.000; -323.000; -342.000
406.374;  467.525;  540.000;  629.000
406.501;  153.725; -632.000; -702.000
406.628;  -69.500; -621.000; -589.000
406.755;  -96.600; -803.000; -620.000
406.882;  -32.475; -228.000; -277.000
407.009; -124.800; -719.000; -628.000
407.136;   72.875; -480.000; -401.000
407.263;  182.125; -939.000; -829.000
407.390;  -64.150; -692.000; -614.000
407.517; -168.275;-1139.000;-1187.000
407.644;  -61.075; -332.000; -256.000
407.771;  -72.650; -249.000; -287.000
407.898;   14.675;  168.000;  328.000
408.025;  -73.200; -421.000; -313.000
408.151;   -5.575;   82.000;  153.000
408.278;  -85.575; -267.000; -216.000
408.405; -115.700; -931.000; -899.000
408.532;  -66.950; -549.000; -542.000
408.659; -114.125; -677.000; -648.000
408.785; -194.225;-1298.000;-1170.000
408.912;  -87.725; -412.000; -296.000
409.039; -123.575; -610.000; -686.000
409.166; -108.000; -591.000; -555.000
409.292; -116.175; -571.000; -534.000
409.419; -124.750; -665.000; -649.000
409.546;  -99.600; -431.000; -192.000
409.672; -110.400; -713.000; -545.000
409.799;  -20.425;  -36.000;   34.000
409.926;  -39.475; -180.000; -179.000
410.052; -187.075;-1127.000;-1091.000
410.179;  -47.800; -368.000; -392.000
410.305;  -96.675; -375.000; -493.000
410.432;  -44.600; -220.000; -333.000
410.558; -101.025; -305.000; -380.000
410.685; -105.150; -688.000; -431.000
410.812; -101.700; -409.000; -588.000
410.938; -138.925; -964.000; -808.000
411.065; -105.975; -671.000; -645.000
411.191;  -20.450; -189.000; -174.000
411.317; -122.950; -823.000; -742.000
411.444;  -70.100; -317.000; -246.000
411.570;  -71.350; -339.000; -294.000
411.697; -134.825; -758.000; -752.000
411.823; -184.475; -989.000; -999.000
411.949;  -30.575;  -56.000;   17.000
412.076; -126.175; -539.000; -519.000
412.202; -121.375; -758.000; -757.000
412.329; -118.925; -798.000; -752.000
412.455; -123.725; -821.000; -657.000
412.581;  -18.300;  -15.000;  172.000
412.707;  -63.775; -540.000; -457.000
412.834;   24.750;  156.000;  219.000
412.960;  -87.975; -785.000; -784.000
413.086;  -98.825; -743.000; -701.000
413.212;  143.825;  604.000;  578.000
413.339;  -63.350; -685.000; -701.000
413.465;   -7.275; -364.000; -310.000
413.591;  -85.475; -757.000; -474.000
413.717;  -54.900; -358.000; -366.000
413.843; -144.950; -839.000; -861.000
413.969;  -51.350;  -47.000; -292.000
414.096; -102.000; -679.000; -679.000
414.222;   -7.825;  -33.000;   85.000
414.348;  -29.775; -652.000; -385.000
414.474;  120.175;   38.000;  -52.000
414.600;  -33.450; -126.000; -144.000
414.726;  -13.125;  -96.000;  -55.000
414.852;  -67.375; -365.000; -342.000
414.978;   33.300;  104.000;  -18.000
415.104;   38.375;   38.000;   80.000
415.230;    4.750; -329.000; -330.000
415.356;   33.250; -409.000; -514.000
415.482;  208.950;   13.000;  -35.000
415.608;  240.900; -247.000; -323.000
415.734;  916.475;   67.000;   38.000
415.860;19217.425; -875.000; -767.000
415.986;15372.325; -685.000; -607.000
416.111; 1383.600; -798.000; -652.000
416.237;  270.600; -424.000; -571.000
416.363; 1023.925; -765.000; -733.000
416.489; 4167.900; -324.000; -251.000
416.615;  489.200; -707.000; -742.000
416.741;  -18.775; -677.000; -784.000
416.866; -100.225; -673.000; -736.000
416.992; -125.025; -801.000; -818.000
417.118;  -47.800;  -41.000;  -80.000
417.244;  -70.125; -798.000; -531.000
417.369;  -79.250; -801.000; -612.000
417.495;   -8.400; -325.000; -254.000
417.621;  -78.325;-1015.000; -803.000
417.746;    5.300; -579.000; -572.000
417.872;   52.475; -254.000; -144.000
417.998;   49.075; -515.000; -530.000
418.123;  957.975;-1073.000; -845.000
418.249; 5384.525; -512.000; -601.000
418.374;  851.925; -916.000; -824.000
418.500;  118.075; -383.000; -482.000
418.626;  102.350;   70.000;  -59.000
418.751;  111.625; -549.000; -448.000
418.877;  194.850; -637.000; -643.000
419.002; 1644.925; -688.000; -560.000
419.128;12278.025; -930.000; -721.000
419.253; 3310.950; -967.000; -837.000
419.379;  431.475; -391.000; -338.000
419.504;  366.100;  325.000;  415.000
419.629;  500.850; -393.000; -212.000
419.755; 3182.175; -317.000; -254.000
419.880;20423.300;  -98.000;   67.000
420.006;11180.650; -280.000; -221.000
420.131;29582.400; -662.000; -775.000
420.256; 4678.950; -315.000; -316.000
420.382;  610.775; -665.000; -687.000
420.507;   95.550; -649.000; -778.000
420.632;  132.650; -337.000; -339.000
420.758;  276.250; -251.000; -425.000
420.883;  -88.950; -876.000; -672.000
421.008;  -92.700; -775.000; -619.000
421.133;  -90.925; -509.000; -467.000
421.259;  -52.350; -325.000; -259.000
421.384; -118.300; -834.000; -693.000
421.509;  -39.700;-1052.000; -862.000
421.634; 1261.000; -936.000; -820.000
421.759;  611.575; -359.000; -327.000
421.885;  -49.475; -717.000; -656.000
422.010;  -84.250; -673.000; -542.000
422.135; -151.675; -695.000; -727.000
422.260;    9.625;  340.000;  280.000
422.385;  -65.775;   12.000;  -98.000
422.510;    5.050;  151.000;  -26.000
422.635;   21.175;  -87.000;  -43.000
422.760;  130.200; -766.000; -791.000
422.885;   53.900;  -57.000;  -80.000
423.010;  -42.200; -112.000; -169.000
423.135;  -96.250; -481.000; -561.000
423.260;  -31.900; -150.000; -245.000
423.385;   72.875;  476.000;  222.000
423.510;   22.375;   71.000;  -22.000
423.635;   89.125;  133.000;   45.000
423.760;   50.400;  383.000;  328.000
423.885;   49.350;  336.000;  391.000
424.010;   -4.250;  -68.000;  -13.000
424.135;  -23.175;    5.000;  -33.000
424.259;  -83.825; -654.000; -457.000
424.384;  -78.925; -279.000; -272.000
424.509;  -23.825; -260.000; -186.000
424.634; -108.100; -761.000; -623.000
424.759;  -31.250; -688.000; -544.000
424.883;  -12.725; -506.000; -527.000
425.008;  141.150; -502.000; -410.000
425.133; 1932.750; -679.000; -653.000
425.258; 1000.525; -517.000; -381.000
425.382; 1018.475; -867.000; -774.000
425.507; 2893.925; -487.000; -543.000
425.632;  488.675; -802.000; -663.000
425.756;  443.525; -256.000; -146.000
425.881; 5789.175; -831.000; -857.000
426.006;17278.600; -604.000; -355.000
426.130; 2964.900; -696.000; -508.000
426.255;  376.575; -611.000; -491.000
426.379;  166.450; -189.000; -577.000
426.504;  350.675;  660.000;  544.000
426.629; 3874.200; -519.000; -466.000
426.753; 2980.175;   64.000;  -46.000
426.878;  341.800; -252.000; -288.000
427.002;  190.975; -651.000; -668.000
427.127; 1469.800;  -35.000; -158.000
427.251;11038.500;  372.000;  401.000
427.375; 3524.400; -191.000; -173.000
427.500; 2415.725; -616.000; -610.000
427.624;  916.075; -234.000; -400.000
427.749;  110.800; -216.000; -225.000
427.873;  -34.275; -499.000; -412.000
427.997;  -37.950; -222.000; -230.000
428.122;   58.100;  795.000;  703.000
428.246;   58.625;  433.000;  434.000
428.371; -121.625; -869.000; -773.000
428.495; -100.550; -624.000; -646.000
428.619;  -32.675; -186.000; -117.000
428.743;   37.175;   65.000;  132.000
428.868;   13.400; -732.000; -643.000
428.992; 1470.750; -219.000; -326.000
429.116;  672.625; -329.000; -357.000
429.240;  307.775;  419.000;  426.000
429.365;   -8.750; -454.000; -574.000
429.489;  -28.875; -638.000; -647.000
429.613;   15.500; -236.000; -177.000
429.737;   36.875; -563.000; -432.000
429.861;  277.450; -247.000; -133.000
429.985; 5248.750; -425.000; -305.000
430.109; 6396.400; -770.000; -908.000
430.234;  765.525;   76.000;  -50.000
430.358;   61.550; -250.000; -160.000
430.482;  -74.050; -672.000; -564.000
430.606;  -58.425; -655.000; -375.000
430.730;   17.375; -437.000; -388.000
430.854;  152.275; -909.000; -835.000
430.978;  -55.750; -795.000; -764.000
431.102;  -89.200; -499.000; -422.000
431.226; -121.150; -874.000; -815.000
431.350;   11.725;  345.000;  422.000
431.474;  -80.400; -661.000; -373.000
431.597; -143.175;-1060.000; -848.000
431.721;  -91.775; -276.000; -267.000
431.845; -145.375; -704.000; -472.000
431.969;  -75.175; -304.000; -349.000
432.093; -101.075; -395.000; -317.000
432.217;  -29.650;   32.000;   82.000
432.341;  -84.250; -523.000; -518.000
432.464;    2.325;   96.000;   40.000
432.588;  207.550; -401.000; -329.000
432.712;  130.500;  -52.000;  -52.000
432.836;   43.000;  213.000;  263.000
432.959;  -11.575; -372.000; -311.000
433.083;   70.575;   11.000;    2.000
433.207;  371.100;  285.000;  930.000
433.330; 4745.125; -391.000; -200.000
433.454; 6342.475; -654.000; -638.000
433.578; 3613.100;  583.000;  278.000
433.701;  727.575; -623.000; -675.000
433.825;  160.650; -292.000; -299.000
433.949;  207.775;   28.000;  -72.000
434.072;   82.750; -410.000; -323.000
434.196;  -17.900; -309.000; -117.000
434.319; 3506.400;25482.000;25124.000
434.443;  680.250; -656.000; -603.000
434.566; 2643.950;  281.000;   62.000
434.690;  490.550; -637.000; -383.000
434.813;   54.175; -251.000; -173.000
434.937;  -76.225; -569.000; -696.000
435.060;  -48.950; -423.000; -332.000
435.184;  323.150; -492.000; -217.000
435.307;  214.775;  159.000;  102.000
435.431;   -8.700;  -40.000;   24.000
435.554;  -60.700; -399.000; -240.000
435.677;  -91.425; -350.000; -258.000
435.801;  -55.150;  -25.000;   49.000
435.924;  -19.500;    1.000;  -67.000
436.048; -117.775;-1019.000; -732.000
436.171;  -62.150; -240.000;  -66.000
436.294;  -44.375; -248.000; -229.000
436.417;   84.150; -963.000; -849.000
436.541;  -78.050; -814.000; -840.000
436.664;  -46.525; -242.000; -316.000
436.787;  -29.900;   13.000;  113.000
436.910; -115.500; -792.000; -422.000
437.034;   -4.150;  142.000;  143.000
437.157;   59.400;  -11.000;    0.000
437.280;  -44.875; -392.000; -292.000
437.403;  -76.350; -982.000; -869.000
437.526;  626.950; -903.000; -865.000
437.649; 2576.275; -505.000; -332.000
437.772;  445.125; -692.000; -540.000
437.896;  127.825;  700.000;  544.000
438.019; -111.125; -758.000; -503.000
438.142;  -81.350; -596.000; -506.000
438.265;    0.725; -639.000; -670.000
438.388;  649.750; -520.000; -410.000
438.511;  146.525; -597.000; -394.000
438.634;  -41.150; -247.000; -125.000
438.757; -136.225; -693.000; -619.000
438.880;  -26.750;  -34.000;  -57.000
439.003;  -77.850; -417.000; -437.000
439.126;  -68.725; -287.000; -167.000
439.248;  -71.125;  -98.000; -139.000
439.371;  -52.400;    9.000;  -53.000
439.494;   14.425;  510.000;  439.000
439.617;  -58.500;   65.000;  -88.000
439.740; -188.700; -968.000; -816.000
439.863; -158.350; -755.000; -595.000
439.986; -126.100; -476.000; -431.000
440.108;  -49.900; -161.000; -112.000
440.231; -160.875; -950.000; -836.000
440.354;  -51.450;  -64.000; -150.000
440.477;   25.200; -566.000; -542.000
440.599;   14.825; -200.000; -225.000
440.722; -122.875; -709.000; -586.000
440.845;   49.725;  751.000;  928.000
440.968; -113.075; -415.000; -311.000
441.090;  -61.525; -199.000;  -33.000
441.213; -182.650;-1021.000; -825.000
441.336;  -48.425; -159.000;   -5.000
441.458;  -91.000; -549.000; -396.000
441.581;  -74.725; -628.000; -629.000
441.703;  -71.875; -152.000;   13.000
441.826; -115.900; -557.000; -400.000
441.948;  -55.600;   56.000;   51.000
442.071;   21.750;  555.000;  424.000
442.193; -120.475; -531.000; -485.000
442.316;   13.925;  152.000;   97.000
442.438;   41.175; -233.000;  -10.000
442.561;   78.925;  272.000;  262.000
442.683;  540.625; -809.000; -522.000
442.806; 1322.150;   -8.000;   74.000
442.928;   69.450; -859.000; -604.000
443.051;  -56.400; -577.000; -373.000
443.173; -101.175; -341.000; -339.000
443.295;  -90.700; -263.000; -371.000
443.418;  -81.900; -321.000;  -29.000
443.540;   -6.125; -106.000;   -4.000
443.662; -125.175; -563.000; -465.000
443.785;  -17.900;  335.000;  199.000
443.907; -111.450; -362.000; -208.000
444.029; -124.450; -767.000; -494.000
444.152; -149.750; -644.000; -554.000
444.274;  -31.925;  -18.000;  -24.000
444.396; -122.275; -461.000; -221.000
444.518; -129.200; -691.000; -454.000
444.640; -120.600; -268.000; -111.000
444.763;  -29.975;  388.000;  249.000
444.885; -124.700; -432.000; -392.000
445.007;  -39.425;   35.000;   86.000
445.129; -124.100; -610.000; -515.000
445.251;  -95.250; -372.000; -439.000
445.373; -145.525; -537.000; -386.000
445.495;   -4.725;  242.000;  350.000
445.617;   45.400;  853.000;  753.000
445.739;  -77.225; -215.000;  -97.000
445.861;  -51.500; -245.000; -112.000
445.984;  -17.800; -267.000; -101.000
446.105;  194.175; -418.000; -251.000
446.227;  669.600; -176.000;  -19.000
446.349;   38.250; -358.000; -249.000
446.471;  -96.950; -615.000; -448.000
446.593;  -69.850; -316.000;   19.000
446.715;   -4.425;  -67.000;   41.000
446.837;   50.875;  697.000;  832.000
446.959;  -94.725; -457.000; -478.000
447.081; -129.600; -628.000; -518.000
447.203;   40.900;  862.000;  834.000
447.325;  -84.750; -270.000;   42.000
447.446;   -6.250;  286.000;  530.000
447.568; -155.875; -921.000; -803.000
447.690;  -78.475; -236.000; -245.000
447.812; -150.450; -798.000; -519.000
447.933;  -47.950;  155.000;  127.000
448.055;  -75.675; -306.000; -261.000
448.177;  141.725;   31.000;   79.000
448.299;  120.825; -935.000; -727.000
448.420;   25.150;  -25.000;  159.000
448.542;  -47.000;   -3.000;   33.000
448.664;  -22.050;  109.000;  322.000
448.785;  -43.775;  265.000;   83.000
448.907;  -87.600; -614.000; -353.000
449.028;  -34.375; -771.000; -471.000
449.150;   56.325;  492.000;  589.000
449.272; -179.275;-1044.000; -913.000
449.393;   19.575;  612.000;  694.000
449.515; -141.950; -634.000; -581.000
449.636;  -70.725; -264.000; -155.000
449.758;   76.150;  763.000;  622.000
449.879;  -93.625; -498.000; -396.000
450.001;  -85.100; -149.000;  -49.000
450.122;  -40.250;  -95.000;  162.000
450.244;  -40.050;   37.000;  364.000
450.365; -111.725; -495.000; -301.000
450.486;  -31.275;   80.000;  268.000
450.608;    0.025;  393.000;  326.000
450.729;   59.775;  578.000;  645.000
450.850;   -4.975; -574.000; -466.000
450.972;  656.600; -552.000; -389.000
451.093; 4653.625;  190.000;  588.000
451.214; 2254.200; -516.000; -337.000
451.336;  399.525;  773.000;  579.000
451.457;   55.450;  264.000;  393.000
451.578;  -34.650; -118.000;  -74.000
451.699; -123.750; -546.000; -540.000
451.821;  -80.400; -284.000;  -50.000
451.942;  -14.050;  278.000;  285.000
452.063;   21.250;  228.000;  419.000
452.184;  507.700;  -54.000;  -49.000
452.305; 1105.050;  103.000;  170.000
452.427;  164.250; -549.000; -301.000
452.548;  -16.625;   23.000;   79.000
452.669;  -50.250; -257.000;  -89.000
452.790;  -35.000;    3.000;  -18.000
452.911;  -15.200;  195.000;  259.000
453.032;  -73.475; -289.000;  -60.000
453.153;  -40.350;  -29.000;   81.000
453.274;   33.925;  737.000;  868.000
453.395;  -61.975;  -51.000;  175.000
453.516;  118.400; 1317.000; 1388.000
453.637;  -65.050; -205.000; -150.000
453.758;  -60.450;   15.000;   69.000
453.879; -122.800; -462.000; -250.000
454.000;   62.825; 1086.000;  948.000
454.121; -121.800; -554.000; -326.000
454.242; -108.250; -599.000; -383.000
454.362;  -56.400;  -99.000;  114.000
454.483;  -43.900; -309.000; -229.000
454.604;   57.475;  512.000;  580.000
454.725; -133.400; -627.000; -555.000
454.846; -131.775; -474.000; -406.000
454.967;  -35.150;  230.000;  539.000
455.087;  -55.175;  179.000;  153.000
455.208;    7.925;  554.000;  856.000
455.329;  -68.225;  -22.000;   82.000
455.450;   29.900;  473.000;  633.000
455.570;  -77.000; -234.000; -211.000
455.691;  -53.575;  201.000;  407.000
455.812; -112.225; -270.000;  -92.000
455.932;  -51.425;  107.000;  -97.000
456.053;  -92.925;   36.000;   24.000
456.173; -121.000; -433.000; -355.000
456.294; -139.950; -476.000; -303.000
456.415;  -65.425;  -73.000;   70.000
456.535;  -52.025;  297.000;  273.000
456.656;  -37.975;  132.000;  240.000
456.776;  -92.075;    3.000;  298.000
456.897;  -21.450;  308.000;  513.000
457.017;  -89.200; -153.000;   -3.000
457.138; -109.400; -402.000; -249.000
457.258;  -43.800;  263.000;  224.000
457.379;  -12.600;  509.000;  521.000
457.499;  -38.000;  443.000;  432.000
457.620; -119.975; -407.000; -231.000
457.740;  -99.750; -132.000;  -11.000
457.860;  -50.700;   87.000;   44.000
457.981;  -63.650;  132.000;  124.000
458.101;  -76.475;  -89.000;   40.000
458.221;  -26.650;  336.000;  402.000
458.342;  -54.750;   -4.000;  -37.000
458.462;    4.450;  617.000;  352.000
458.582;  -35.375; -302.000; -294.000
458.703;    8.875;  303.000;  154.000
458.823;  -34.825;   22.000;  163.000
458.943;   13.600;  341.000;  467.000
459.063;  -20.000; 1124.000;  192.000
459.183;  -20.100;  328.000;  313.000
459.304;    2.725;  315.000;  517.000
459.424;  -74.425; -246.000;  -89.000
459.544;  286.625;  388.000;  764.000
459.664;  800.050;  499.000;  506.000
459.784;  320.925; 1004.000; 1175.000
459.904;   51.725;  867.000;  744.000
460.024;   76.150;  867.000;  684.000
460.144;    3.525;  449.000;  554.000
460.264;  -13.475;  515.000;  327.000
460.385;  -97.425; -145.000; -119.000
460.505;   33.150;  905.000;  858.000
460.625;  -97.600;  -17.000;  -68.000
460.745;  -32.625;  396.000;  541.000
460.864;  -52.075;  153.000;  469.000
460.984;    4.100;  499.000;  573.000
461.104;  114.950; 1656.000; 1775.000
461.224;   20.575;  657.000;  650.000
461.344;  -45.000;  431.000;  360.000
461.464;  -24.625;  258.000;  513.000
461.584;  -14.050;  283.000;  466.000
461.704;  -40.475;   58.000;  108.000
461.824;  -53.300;  238.000;  259.000
461.943;  -35.925;  191.000;  130.000
462.063;  -77.350;    2.000;  324.000
462.183;   13.825;  639.000;  717.000
462.303;   97.650; 1678.000; 1230.000
462.422;   23.600;  781.000;  840.000
462.542;  -50.525;  271.000;  391.000
462.662;   30.450;  353.000;  380.000
462.782;  210.825;  833.000;  572.000
462.901;  473.400;  545.000;  717.000
463.021;  284.950; 1702.000; 1638.000
463.141;   -8.275;  337.000;  770.000
463.260;  -24.700;  614.000;  474.000
463.380;   17.750;  902.000;  884.000
463.499;  -41.900;  342.000;  332.000
463.619;  -36.550;  581.000;  559.000
463.738;   86.850; 1644.000;  903.000
463.858;   18.200;  657.000;  811.000
463.978;  -24.675;  542.000;  396.000
464.097;   37.075;  921.000; 1114.000
464.217;  101.550; 1196.000; 1143.000
464.336;  103.075; 1068.000; 1130.000
464.455;  -39.450;  328.000;  659.000
464.575;   35.825;  597.000;  602.000
464.694;  170.000; 1204.000; 1179.000
464.814;  125.725; 1190.000; 1138.000
464.933;   73.250; 1095.000; 1027.000
465.052;  107.250; 1412.000; 1054.000
465.172;   96.725;  922.000;  799.000
465.291;  115.450; 1376.000; 1320.000
465.410;   12.700;  462.000;  735.000
465.530;   80.525; 1355.000; 1310.000
465.649;   45.275; 1209.000; 1273.000
465.768;  128.650; 1673.000; 1508.000
465.888;   36.625;  941.000; 1174.000
466.007;  100.950; 1335.000; 1440.000
466.126;  -23.000;  721.000;  641.000
466.245;   33.750; 1176.000; 1187.000
466.364;    6.325;  950.000; 1060.000
466.484;   56.350; 1024.000; 1213.000
466.603;   24.750; 1101.000; 1222.000
466.722;  115.625; 1490.000; 1769.000
466.841;   74.525; 1151.000; 1401.000
466.960;   57.750; 1069.000;  972.000
467.079;  123.650; 1971.000; 1786.000
467.198;   45.175; 1238.000; 1181.000
467.317;   80.900; 1768.000; 1162.000
467.436;   63.675; 1709.000; 1261.000
467.555;  109.600; 1796.000; 1746.000
467.674;   68.200; 1227.000; 1329.000
467.793;   39.675; 1376.000; 1374.000
467.912;   76.050; 1658.000; 1539.000
468.031;  116.225; 2038.000; 1930.000
468.150;  140.900; 1842.000; 1837.000
468.269;  194.500; 2313.000; 2090.000
468.388;  196.100; 2168.000; 2339.000
468.507;  237.925; 2884.000; 2903.000
468.626;  255.825; 2555.000; 2541.000
468.744;  134.475; 2018.000; 2174.000
468.863;  198.775; 2312.000; 2523.000
468.982;   86.100; 1503.000; 1555.000
469.101;  222.200; 2788.000; 2692.000
469.220;  156.725; 2333.000; 2176.000
469.338;  261.550; 2935.000; 3051.000
469.457;  164.700; 2719.000; 2545.000
469.576;  353.050; 3953.000; 3784.000
469.695;  240.350; 2877.000; 3066.000
469.813;  403.550; 4148.000; 4192.000
469.932;  412.275; 4255.000; 4485.000
470.051;  399.875; 4075.000; 4161.000
470.169;  828.200; 4470.000; 4338.000
470.288; 1455.700; 4700.000; 4809.000
470.406;  913.125; 5059.000; 5194.000
470.525;  617.250; 6101.000; 5787.000
470.644;  633.200; 6847.000; 6794.000
470.762;  806.525; 8397.000; 7873.000
470.881;  891.275; 8651.000; 8464.000
470.999; 1025.875; 9685.000; 9151.000
471.118; 1110.000;11174.000;10711.000

