
Integration time [ms]: 100.000
Averaging Nr. [scans]: 40
Smoothing Nr. [pixels]: 0
Data measured with spectrometer [name]: 2101012U2
Wave   ;Sample   ;Dark     ;Reference
[nm]   ;[counts] ;[counts] ;[counts] 

197.733;   61.775;  516.000;  404.000
197.879;  -83.425; -610.000; -634.000
198.025;  -46.375; -475.000; -420.000
198.171;  -66.750; -602.000; -612.000
198.317;  -35.225; -401.000; -316.000
198.463;  -59.150; -655.000; -404.000
198.609;   35.400;  181.000; -137.000
198.755;  -81.825; -644.000; -410.000
198.901;  -63.225; -505.000; -424.000
199.047;  -67.675; -615.000; -488.000
199.193;  -34.450; -230.000; -468.000
199.339;  -39.100; -222.000; -369.000
199.485;   49.575;  330.000;  271.000
199.631;   36.400;  227.000;  310.000
199.777;  -47.700; -466.000; -398.000
199.923;  -61.075; -610.000; -424.000
200.069;    0.700; -141.000;  -58.000
200.215;   55.900;  128.000;  453.000
200.361;   53.225;  243.000;  477.000
200.507;  -53.675; -600.000; -373.000
200.653;  -20.750; -371.000; -194.000
200.798;  -29.875; -215.000; -125.000
200.944;   11.650; -146.000;  -41.000
201.090;   42.975;   61.000;  222.000
201.236;   -2.925; -116.000; -158.000
201.382;  131.300;  874.000;  903.000
201.528;    7.950;  -58.000;  -48.000
201.674;  -56.400; -386.000; -293.000
201.819;  -57.650; -540.000; -439.000
201.965;  -76.825; -699.000; -447.000
202.111;  -12.525; -273.000; -226.000
202.257;  -49.400; -250.000; -238.000
202.402;    5.825;   13.000;  -36.000
202.548;  -26.250; -169.000; -116.000
202.694;   82.500;  410.000; -183.000
202.840;  -67.425; -603.000; -531.000
202.985;  -66.150; -681.000; -639.000
203.131; -107.925; -832.000; -666.000
203.277;  -22.950; -199.000; -262.000
203.423;  -51.675; -434.000; -520.000
203.568;  -27.550; -462.000; -237.000
203.714;  -60.550; -535.000; -542.000
203.860;  -69.750; -682.000; -641.000
204.005;   11.125;  112.000;  167.000
204.151;   86.025;  561.000;  556.000
204.296;  -31.600; -354.000; -221.000
204.442;  -71.200; -600.000; -547.000
204.588;  -72.325; -592.000; -579.000
204.733;   10.475;  178.000;  168.000
204.879; -125.400;-1018.000; -822.000
205.025;   23.600;  -99.000;  126.000
205.170;    5.900;  -17.000;   94.000
205.316;   89.525;  438.000;  661.000
205.461;  -78.925; -698.000; -554.000
205.607;   86.100;  609.000;  665.000
205.752;  -88.100; -626.000; -551.000
205.898;  -33.850; -501.000; -391.000
206.043;  -63.225; -578.000; -506.000
206.189;  -47.100; -243.000; -285.000
206.334;   86.000;  554.000;  606.000
206.480;   96.625;  409.000;  239.000
206.625;  -73.950; -529.000; -552.000
206.771;  -47.325; -451.000; -373.000
206.916;  -38.475; -210.000; -537.000
207.062;  -63.475; -545.000; -591.000
207.207;  -52.200; -546.000; -443.000
207.353;   60.125;  185.000;  460.000
207.498;   20.125;  196.000;   85.000
207.643;  -43.725; -501.000; -370.000
207.789; -125.575;-1069.000; -910.000
207.934; -107.025; -665.000; -713.000
208.080;  -17.675; -154.000;   66.000
208.225;    4.775;  -22.000;  -57.000
208.370;  -76.850; -727.000; -619.000
208.516;  -62.775; -741.000; -487.000
208.661;  -23.700; -127.000;  -69.000
208.806;   -2.200; -165.000; -171.000
208.952; -116.650;-1044.000; -731.000
209.097;   86.875;  378.000;  349.000
209.242;  -47.550; -307.000; -382.000
209.387;   78.050;  392.000;  350.000
209.533;  -47.025; -321.000; -350.000
209.678;   87.500;  472.000;  543.000
209.823;  -44.225; -408.000; -310.000
209.969;  -95.775; -860.000; -757.000
210.114; -104.475; -907.000; -719.000
210.259; -118.625; -939.000; -889.000
210.404;   -1.750; -171.000;  103.000
210.549;   16.600;  108.000;    3.000
210.695;  -11.775;   -3.000;  -95.000
210.840;   47.425;   94.000;   67.000
210.985;  -50.075; -484.000; -303.000
211.130;   77.150;  268.000;  406.000
211.275;   12.375;  207.000;  199.000
211.420;  -56.500; -300.000; -289.000
211.566;  -67.000; -536.000; -489.000
211.711;   49.350;  218.000;  157.000
211.856;  -70.350; -545.000; -519.000
212.001;   25.550;  151.000;   44.000
212.146;   20.950;  153.000;   49.000
212.291;  -21.425; -210.000; -186.000
212.436;  -27.775; -280.000;   -6.000
212.581;  -78.600; -685.000; -653.000
212.726;  -78.925; -487.000; -538.000
212.871;  -40.050; -552.000; -217.000
213.016; -147.150;-1172.000;-1029.000
213.161;   48.100;  406.000;  291.000
213.306;  -67.350; -435.000; -577.000
213.451;  -93.900; -778.000; -689.000
213.596;  -49.450; -455.000; -347.000
213.741;  -57.525; -448.000; -538.000
213.886;  -66.325; -498.000; -517.000
214.031;  -14.175; -294.000; -124.000
214.176;  -45.650; -408.000; -341.000
214.321;  -11.575; -296.000; -157.000
214.466;  -33.125; -163.000;  -43.000
214.611;    2.125;  -61.000;  -10.000
214.756; -117.025; -948.000; -858.000
214.901;  -10.825; -388.000; -226.000
215.046; -124.325; -797.000; -825.000
215.191;   29.900;  128.000;   35.000
215.336;  -21.125; -157.000;  -19.000
215.480;  -64.875; -684.000; -505.000
215.625;   -7.750; -175.000;  -19.000
215.770;  -79.400; -757.000; -662.000
215.915;   -9.475;   -5.000;  -97.000
216.060;    8.325; -113.000;  -21.000
216.205; -106.325; -731.000; -779.000
216.349;  -66.625; -470.000; -533.000
216.494; -146.175; -939.000; -867.000
216.639; -110.450; -823.000; -888.000
216.784;  -89.125; -577.000; -525.000
216.929;   48.975;  392.000;  281.000
217.073;  -14.100; -244.000;  -31.000
217.218;   21.075;   78.000;  -47.000
217.363;  -74.700; -656.000; -618.000
217.507;  -73.900; -623.000; -588.000
217.652; -124.125; -845.000; -874.000
217.797;  -85.925; -708.000; -659.000
217.942; -115.175; -856.000; -720.000
218.086;   81.900;  608.000;  539.000
218.231;  -14.275; -174.000;  -26.000
218.376;  -32.975; -337.000; -229.000
218.520;   13.975;  -41.000;   96.000
218.665;  -20.600; -338.000; -204.000
218.810;  -48.525; -275.000; -233.000
218.954;   22.575;  201.000;   35.000
219.099; -114.625; -713.000; -963.000
219.243;  -73.375; -589.000; -554.000
219.388;  -32.200; -264.000; -136.000
219.532;   -8.350; -116.000; -116.000
219.677;  -73.875; -564.000; -521.000
219.822;    2.975;   33.000;   89.000
219.966;    9.475;   17.000;  -99.000
220.111;  -32.250; -328.000;  -40.000
220.255;  -89.525; -797.000; -750.000
220.400;  -24.050; -180.000; -146.000
220.544;  -68.250; -516.000; -450.000
220.689;  -50.450; -422.000; -451.000
220.833;  -15.175; -123.000;  -58.000
220.978;  -42.925; -393.000; -563.000
221.122;   20.500;  319.000;  307.000
221.267; -103.775; -906.000; -837.000
221.411;  -64.625; -478.000; -394.000
221.555;    3.750; -104.000;  -23.000
221.700;  -41.650; -329.000; -222.000
221.844;   34.925;  255.000;  272.000
221.989;  -52.325; -328.000; -311.000
222.133;  -22.700; -289.000; -307.000
222.277;   -8.550;    5.000;   78.000
222.422;   18.500;  227.000;  113.000
222.566;  -43.050; -381.000; -214.000
222.711;  -48.525; -414.000; -479.000
222.855;  -75.125; -643.000; -586.000
222.999;  -84.275; -642.000; -717.000
223.144;  -18.700; -195.000; -194.000
223.288;   64.775;  423.000;  251.000
223.432;   28.025;  184.000;  230.000
223.576;   34.675;  152.000;  -21.000
223.721;   42.125;  364.000;  273.000
223.865;  -56.675; -472.000; -475.000
224.009;  277.750; 1673.000; 1631.000
224.153;  -75.225; -660.000; -671.000
224.298;  -72.775; -531.000; -489.000
224.442;   -0.150;  -74.000;  -33.000
224.586;  -14.575; -169.000; -106.000
224.730;  -98.300; -858.000; -670.000
224.875; -104.500; -739.000; -688.000
225.019;   26.400;  102.000;  188.000
225.163;   66.150;  208.000;  341.000
225.307;   14.750;   97.000;  -91.000
225.451;   46.350;  360.000;  481.000
225.595;   37.275;  264.000;  176.000
225.739;   -7.225; -170.000;  -94.000
225.884;   11.525;   86.000;    5.000
226.028; -107.900; -760.000; -626.000
226.172;  -29.775; -260.000; -273.000
226.316; -115.150; -941.000; -902.000
226.460;  -63.950; -645.000; -493.000
226.604;  -57.975; -406.000; -400.000
226.748;  -89.575; -836.000; -733.000
226.892;  -31.875; -227.000; -181.000
227.036;  -57.800; -537.000; -447.000
227.180;  -47.550; -551.000; -375.000
227.324;  -56.250; -561.000; -580.000
227.468; -119.425; -819.000; -717.000
227.612;   20.800;  242.000;  -28.000
227.756; -105.425; -845.000; -698.000
227.900;   67.075;  342.000;  441.000
228.044;  -61.225; -509.000; -290.000
228.188;   71.075;  448.000;  568.000
228.332;  -97.325; -546.000; -472.000
228.476;  -29.700; -223.000; -149.000
228.620;  -29.375; -210.000; -150.000
228.764;   84.175;  431.000;  349.000
228.908;  -21.650; -155.000;   30.000
229.052;  -65.525; -615.000; -528.000
229.195;  -17.500; -172.000;   13.000
229.339;  -31.300; -235.000; -305.000
229.483;  -20.550;    5.000; -162.000
229.627;    7.850; -156.000;  139.000
229.771;  -42.875; -218.000; -294.000
229.915;   13.675;  230.000;   79.000
230.059;  -88.550; -648.000; -663.000
230.202;  -38.075; -370.000; -317.000
230.346;  -17.550; -107.000;  107.000
230.490;  -48.275; -489.000; -521.000
230.634; -106.250; -736.000; -553.000
230.777;   87.000;  478.000;  509.000
230.921;  -55.800; -450.000; -359.000
231.065;  -33.450; -246.000; -286.000
231.209;   32.350;  261.000;  265.000
231.352;   20.450;   54.000;   40.000
231.496;   18.625;  568.000;  188.000
231.640;  -68.725; -693.000; -621.000
231.783;   55.725;  546.000;  525.000
231.927;  -36.550; -294.000; -365.000
232.071; -118.425; -962.000; -736.000
232.214; -118.000; -980.000; -764.000
232.358; -108.250; -683.000; -599.000
232.502;   12.050;  -19.000;    7.000
232.645; -132.900;-1090.000; -927.000
232.789;  -27.550; -257.000; -218.000
232.933;  -41.900; -407.000; -224.000
233.076; -115.025;-1038.000; -897.000
233.220; -101.325; -752.000; -777.000
233.363;  -78.850; -669.000; -477.000
233.507;   51.300;  371.000;  129.000
233.650;  -98.525; -764.000; -834.000
233.794;   43.750;  438.000;  461.000
233.938;  -51.600; -530.000; -362.000
234.081;  -23.550;  -93.000;   31.000
234.225;  -61.800; -631.000; -539.000
234.368; -102.625; -773.000; -723.000
234.512;  -31.350; -385.000; -299.000
234.655;  -91.150; -582.000; -555.000
234.798;  -46.275; -493.000; -466.000
234.942; -120.150; -884.000;-1002.000
235.085;  -73.375; -651.000; -443.000
235.229;  -71.175; -405.000; -410.000
235.372;  -39.575; -247.000; -191.000
235.516;  -56.375; -397.000; -321.000
235.659;   26.275;   92.000;  121.000
235.802;  -10.875;  -38.000;  -22.000
235.946;   30.950;  335.000;  215.000
236.089;   21.275;  126.000;  250.000
236.233;   66.375;  275.000;  298.000
236.376;  -41.300; -235.000; -378.000
236.519;  -35.400; -297.000; -319.000
236.663;  -34.100; -215.000; -117.000
236.806; -141.300;-1029.000; -999.000
236.949;   47.425;  543.000;  431.000
237.092;   62.500;  412.000;  391.000
237.236;  -94.700; -589.000; -502.000
237.379;   67.200;  352.000;  428.000
237.522; -124.000; -879.000; -768.000
237.666;   -5.800; -271.000;   18.000
237.809; -125.525; -851.000; -823.000
237.952;   41.900;  469.000;  271.000
238.095;  -60.775; -447.000; -442.000
238.238;   95.775;  688.000;  700.000
238.382;   10.925;  166.000;  103.000
238.525;  -69.575; -598.000; -511.000
238.668; -138.025;-1060.000; -985.000
238.811;  -72.100; -638.000; -643.000
238.954;  -57.275; -483.000; -334.000
239.097;  102.475;  617.000;  664.000
239.241;   23.625;  394.000;  326.000
239.384;  -25.750; -254.000; -214.000
239.527;  -47.625; -424.000; -224.000
239.670; -134.875; -994.000;-1091.000
239.813; -101.050; -696.000; -658.000
239.956;   93.600;  579.000;  473.000
240.099; -107.750; -778.000; -725.000
240.242;   73.300;  428.000;  432.000
240.385;   41.325;  466.000;  450.000
240.528;  -54.625; -706.000; -473.000
240.671;   23.975;  189.000;  134.000
240.814;  -33.750; -441.000; -158.000
240.957;  -85.950; -767.000; -578.000
241.100;  -93.950; -779.000; -755.000
241.243; -144.050;-1234.000; -893.000
241.386;  -64.700; -508.000; -379.000
241.529;  -94.000; -735.000; -547.000
241.672;  -70.050; -566.000; -495.000
241.815; -116.075; -832.000; -808.000
241.958;   -2.825; -125.000; -182.000
242.101;  -90.225; -545.000; -390.000
242.244;  -37.050; -270.000; -325.000
242.387;  -44.900; -304.000; -246.000
242.530;   55.175;  470.000;  134.000
242.673;  -34.925; -381.000; -309.000
242.815; -111.200; -925.000; -899.000
242.958;  -63.125; -482.000; -381.000
243.101;   22.475;  132.000;  187.000
243.244;  -71.750; -564.000; -521.000
243.387;  -40.350; -313.000; -316.000
243.530;  -92.850; -657.000; -674.000
243.672;   12.875;   43.000;  -92.000
243.815;  -55.050; -355.000; -283.000
243.958;   15.625;   98.000;  -26.000
244.101;    1.250;   59.000;  -16.000
244.243;    1.925;  -47.000;  101.000
244.386; -110.125; -761.000; -630.000
244.529;  -31.550; -132.000; -139.000
244.672; -156.225;-1154.000; -951.000
244.814;  -83.200; -621.000; -794.000
244.957;  -69.150; -380.000; -304.000
245.100;  -77.625; -489.000; -489.000
245.242;  -59.900; -387.000; -374.000
245.385;    4.225;  -59.000;  -39.000
245.528; -124.850; -871.000; -705.000
245.670;   94.150;  612.000;  634.000
245.813;  -90.200; -599.000; -547.000
245.956;  -38.300; -324.000; -275.000
246.098;  -71.975; -508.000; -650.000
246.241;    9.050;  194.000;   48.000
246.383;   -8.975; -119.000;  -73.000
246.526;  -83.875; -454.000; -525.000
246.669; -107.350; -889.000; -780.000
246.811;   12.325;  172.000;   -1.000
246.954;  -60.675; -512.000; -426.000
247.096;  -16.675;  -84.000;   -6.000
247.239;  -66.200; -482.000; -445.000
247.381;  -63.825; -647.000; -488.000
247.524;   79.925;  645.000;  679.000
247.666;   -0.350;   58.000;   11.000
247.809; -105.125; -887.000; -691.000
247.951;   -6.925;  -75.000;  138.000
248.094;   25.425;  432.000;  308.000
248.236; -144.050;-1262.000;-1238.000
248.378;    5.625; -356.000;  -81.000
248.521;  -16.875; -334.000; -337.000
248.663;  -38.200; -236.000; -267.000
248.806;   -9.300; -300.000; -266.000
248.948;  -99.400; -886.000; -763.000
249.090;  -32.200; -428.000; -398.000
249.233;  -33.400; -344.000; -381.000
249.375;  -64.500; -474.000; -451.000
249.518;  -26.150;  -83.000; -133.000
249.660;    8.900; -103.000;    3.000
249.802; -173.775;-1303.000;-1189.000
249.945;  -79.500; -612.000; -540.000
250.087; -106.575; -834.000; -768.000
250.229;  -43.025; -362.000; -480.000
250.371;  -82.700; -494.000; -439.000
250.514;  -40.600; -310.000; -244.000
250.656;   -6.725;   69.000;  102.000
250.798; -110.850; -849.000; -800.000
250.940;  -57.975; -322.000; -322.000
251.083;  -28.550; -335.000; -111.000
251.225;   67.850;  338.000;  310.000
251.367;  -26.525; -274.000; -373.000
251.509;  -39.675; -265.000; -210.000
251.651;  -98.250; -731.000; -671.000
251.794;   96.975;  538.000;  632.000
251.936; -101.675; -821.000; -747.000
252.078;  -57.600; -540.000; -461.000
252.220;  -60.200; -645.000; -477.000
252.362;   85.425;  344.000;  462.000
252.504;  -74.550; -677.000; -584.000
252.646; -117.775; -875.000; -722.000
252.788;   -2.950;   14.000; -128.000
252.931;  -36.950; -257.000; -253.000
253.073;  -40.350; -376.000; -317.000
253.215;    8.200;  141.000;  122.000
253.357;   -9.300;   82.000; -153.000
253.499;  -45.275; -374.000; -234.000
253.641;  -80.425; -749.000; -594.000
253.783;  -97.725; -609.000; -527.000
253.925;  -89.500; -586.000; -591.000
254.067; -105.850; -744.000; -667.000
254.209;  -15.825; -391.000; -259.000
254.351; -134.675; -865.000; -883.000
254.493;  -56.400; -441.000; -417.000
254.635; -128.800; -936.000; -818.000
254.777;  -84.050; -752.000; -687.000
254.918;  -65.425; -512.000; -430.000
255.060;  -46.250; -551.000; -395.000
255.202;  -51.175; -473.000; -261.000
255.344;  -75.225; -658.000; -455.000
255.486;  -67.275; -471.000; -406.000
255.628; -101.600; -780.000; -781.000
255.770;  -88.000; -676.000; -536.000
255.912;  -51.925; -559.000; -468.000
256.053;  -93.075; -730.000; -508.000
256.195;  152.525; 1008.000;  903.000
256.337;  -96.175; -861.000; -595.000
256.479;   61.200;  532.000;  416.000
256.621;  -41.050; -394.000; -212.000
256.762;  -82.875; -789.000; -742.000
256.904;   59.500;  485.000;  487.000
257.046;  -40.025; -381.000; -271.000
257.188;  -37.400; -351.000; -264.000
257.329;  -71.200; -525.000; -464.000
257.471; -111.250; -939.000; -807.000
257.613;  -66.500; -584.000; -498.000
257.755; -139.000;-1073.000; -982.000
257.896;   36.525;  286.000;  392.000
258.038;  -68.100; -403.000; -352.000
258.180;  -33.300; -354.000; -279.000
258.321;  -87.500; -581.000; -457.000
258.463;    1.050;  -71.000;  133.000
258.605;  -80.700; -562.000; -570.000
258.746;  -94.625; -886.000; -772.000
258.888; -160.000;-1026.000;-1020.000
259.029;   15.150;  121.000;   -8.000
259.171;  -91.250; -614.000; -550.000
259.313;    1.425;  -49.000;  -47.000
259.454;  -79.525; -536.000; -414.000
259.596;  -36.925; -483.000; -390.000
259.737;  -74.750; -590.000; -474.000
259.879;   40.400;  217.000;  311.000
260.020;  103.475;  901.000;  636.000
260.162;  -19.725; -146.000; -253.000
260.303; -108.400; -768.000; -687.000
260.445;  -72.350; -609.000; -613.000
260.586;   37.550;  392.000;  157.000
260.728;  -29.750; -360.000; -248.000
260.869;  -57.375; -350.000; -343.000
261.011;   76.275;  706.000;  537.000
261.152;  -53.675; -479.000; -319.000
261.293;  -76.950; -576.000; -595.000
261.435;  -34.300; -219.000; -184.000
261.576;  -37.750; -455.000; -325.000
261.718;   52.725;  420.000;  470.000
261.859; -118.775; -940.000; -949.000
262.000; -126.925; -951.000;-1016.000
262.142;   -9.050;  -52.000;  -60.000
262.283; -103.400; -808.000; -691.000
262.424;  -87.225; -666.000; -625.000
262.566; -147.950;-1161.000; -983.000
262.707; -110.825; -840.000; -830.000
262.848; -120.950; -769.000; -726.000
262.990;  -46.575; -362.000; -345.000
263.131;   84.125;  650.000;  681.000
263.272;   -6.375;  -61.000;  -41.000
263.413;  -89.575; -589.000; -561.000
263.555;  -66.025; -669.000; -143.000
263.696;  -74.350; -550.000; -641.000
263.837;  -53.500; -449.000; -551.000
263.978;   -0.400;   -5.000;  -77.000
264.119;  -38.475; -283.000; -264.000
264.261; -116.500; -847.000; -630.000
264.402;   11.225;   33.000;   40.000
264.543;  -75.150; -509.000; -524.000
264.684;   -7.725;   61.000;  -50.000
264.825;  -65.600; -816.000; -538.000
264.966;  -13.375;  -84.000;  -67.000
265.107; -106.400; -646.000; -670.000
265.248; -122.175; -825.000; -812.000
265.390;  -11.050;  152.000;   -9.000
265.531;  -16.850; -238.000; -107.000
265.672;  -82.725; -557.000; -630.000
265.813;   67.825;  563.000;  439.000
265.954; -140.600; -959.000; -940.000
266.095;  -14.625; -372.000; -322.000
266.236; -103.675; -686.000; -548.000
266.377;  -25.925; -243.000; -297.000
266.518;  -64.525; -619.000; -547.000
266.659;   30.500;  170.000;  268.000
266.800;   27.300;   83.000;   85.000
266.941;  -73.475; -487.000; -478.000
267.082;   35.250;  354.000;   99.000
267.223;  -57.775; -344.000; -273.000
267.364; -115.525; -892.000; -686.000
267.504;   -6.875;    3.000;  135.000
267.645;    7.800;  160.000;   67.000
267.786;  -32.775; -147.000;  -86.000
267.927;  -81.750; -473.000; -379.000
268.068;  -14.275; -186.000;  -61.000
268.209;  -46.050; -175.000; -413.000
268.350;  -60.425; -388.000; -532.000
268.490;  -82.050; -648.000; -521.000
268.631;   33.550;  127.000;  225.000
268.772; -114.975; -874.000; -647.000
268.913;  -47.675; -328.000; -476.000
269.054;  -11.475; -117.000;   12.000
269.194;  -49.400; -418.000; -402.000
269.335; -158.675;-1137.000;-1074.000
269.476;   -3.775;   33.000;  -35.000
269.617;  -49.725; -347.000; -392.000
269.757;  -82.225; -713.000; -646.000
269.898; -107.500; -856.000; -613.000
270.039;  -64.850; -415.000; -405.000
270.180; -139.775; -952.000; -816.000
270.320;  -11.775; -190.000; -250.000
270.461;  -40.375; -277.000; -249.000
270.602;  -16.025; -186.000; -156.000
270.742; -126.150; -868.000; -943.000
270.883;  -53.000; -442.000; -390.000
271.023;  -60.350; -358.000; -357.000
271.164;  -75.625; -607.000; -528.000
271.305;  -97.050; -666.000; -654.000
271.445;  -84.725; -722.000; -683.000
271.586;  -51.700; -462.000; -283.000
271.726;  -39.950; -397.000; -322.000
271.867;  -59.875; -594.000; -534.000
272.008;  200.725; -473.000; -285.000
272.148;  147.450;  462.000;  468.000
272.289;   20.575; -113.000; -181.000
272.429;   33.225;   19.000;  185.000
272.570;  -75.750; -633.000; -737.000
272.710;  -96.900; -825.000; -775.000
272.851;  -25.800;  113.000; -130.000
272.991; -162.700;-1173.000;-1077.000
273.131;  -52.375; -419.000; -459.000
273.272;  -93.375; -683.000; -723.000
273.412;   15.975; -143.000;  -31.000
273.553;  -56.300; -488.000; -507.000
273.693;  149.100;  913.000;  858.000
273.834;  -71.550; -894.000; -692.000
273.974;  -57.275; -664.000; -615.000
274.114;  -90.550; -772.000; -560.000
274.255;   95.625;  414.000;  373.000
274.395;   22.625; -180.000; -125.000
274.535;   36.775;  199.000;  350.000
274.676;   38.100;  225.000;   94.000
274.816;    6.300;  110.000;   34.000
274.956;  -78.875; -624.000; -690.000
275.097;  -44.925;-1014.000; -922.000
275.237; -115.325; -913.000; -803.000
275.377;  -90.200; -778.000; -689.000
275.517; -144.525; -878.000; -937.000
275.658;  -51.000; -590.000; -555.000
275.798;  -57.050; -606.000; -413.000
275.938;   30.275;  215.000;  323.000
276.078;  -97.225; -626.000; -395.000
276.218;    7.275;   99.000;  104.000
276.359; -123.500;-1026.000;-1024.000
276.499;  -70.825; -605.000; -446.000
276.639;  -25.750; -305.000; -151.000
276.779;  -34.225; -475.000; -357.000
276.919;  -96.050; -783.000; -624.000
277.059;   -4.825; -261.000; -212.000
277.199;  -34.675; -357.000; -259.000
277.340;   53.225;  287.000;  175.000
277.480; -108.725; -840.000; -693.000
277.620;   38.525;  192.000;   16.000
277.760; -200.250;-1533.000;-1294.000
277.900;   49.725;  113.000;   33.000
278.040;   23.375;  137.000;  159.000
278.180;   49.225;  270.000;  170.000
278.320;   12.650;   21.000;   56.000
278.460;  -51.425; -443.000; -469.000
278.600;  -75.975; -708.000; -598.000
278.740;   67.725;  448.000;  224.000
278.880;  -20.625; -768.000; -791.000
279.020;    1.150; -194.000; -144.000
279.160;  -76.500; -672.000; -595.000
279.300; -116.625; -926.000; -873.000
279.440;  -87.450; -709.000; -622.000
279.579;  -16.000;-1014.000; -929.000
279.719;  -40.300; -410.000; -394.000
279.859;   84.625;   -4.000;   41.000
279.999;   39.500; -208.000;  101.000
280.139;   -8.675; -435.000; -387.000
280.279;  -75.725; -708.000; -745.000
280.419;   -5.775; -229.000; -147.000
280.559;  -26.625; -259.000; -180.000
280.698;  -70.900; -790.000; -639.000
280.838;  -75.550; -778.000; -800.000
280.978;  -91.400; -846.000; -790.000
281.118; -105.625; -811.000; -704.000
281.257;    2.525;   24.000;    6.000
281.397; -101.550;-1094.000; -960.000
281.537;  -71.650; -599.000; -712.000
281.677;  -22.725; -150.000; -101.000
281.816;  -76.025; -700.000; -630.000
281.956;  -31.925; -193.000; -257.000
282.096;  -44.475; -539.000; -396.000
282.235; -102.750; -672.000; -638.000
282.375;  -27.750; -243.000;  -98.000
282.515;  -95.525; -715.000; -707.000
282.654;   38.300;   29.000;  106.000
282.794;   29.800;  388.000;  244.000
282.934;  -51.975; -530.000; -491.000
283.073; -131.425;-1030.000; -857.000
283.213;  -43.325; -460.000; -467.000
283.353;  -29.625; -408.000; -349.000
283.492;  -17.125; -264.000; -296.000
283.632;  -43.925; -254.000; -168.000
283.771;  -93.575; -859.000; -730.000
283.911;  -43.250; -369.000; -260.000
284.050; -101.325; -794.000; -748.000
284.190; -156.100;-1229.000;-1096.000
284.329; -137.475;-1055.000; -964.000
284.469;  -43.475; -516.000; -591.000
284.608;  -50.625; -559.000; -598.000
284.748;  -79.775; -614.000; -570.000
284.887;    6.525;  -87.000;  -20.000
285.027; -117.000; -844.000; -892.000
285.166;  -30.050; -192.000; -249.000
285.306;   13.800; -116.000;  -33.000
285.445;  -31.175; -229.000; -343.000
285.584;  -88.275; -630.000; -494.000
285.724;  -32.250; -282.000; -322.000
285.863; -111.125; -857.000; -507.000
286.002;  -39.000; -366.000; -276.000
286.142; -114.950; -715.000; -622.000
286.281;  -67.775; -525.000; -493.000
286.420;  -69.875; -554.000; -417.000
286.560;   99.550;  653.000;  623.000
286.699; -143.225; -958.000; -912.000
286.838;  -84.350; -590.000; -591.000
286.978;  -79.750; -533.000; -537.000
287.117; -138.850;-1085.000; -950.000
287.256;  -28.250; -228.000; -211.000
287.395;  -35.075; -197.000; -378.000
287.535;  -45.225; -370.000; -298.000
287.674;  -65.525; -509.000; -484.000
287.813;   54.025;  661.000;  533.000
287.952; -123.550;-1010.000; -871.000
288.091; -138.600;-1049.000; -915.000
288.231;    7.425;   13.000;   15.000
288.370; -166.550;-1217.000;-1200.000
288.509;  -84.275; -728.000; -645.000
288.648;  -96.300; -770.000; -548.000
288.787;  -17.950; -243.000;  -87.000
288.926;  -55.425; -454.000; -475.000
289.065;  141.075;  859.000;  672.000
289.204;  -49.225; -377.000; -217.000
289.344;  -75.850; -791.000; -690.000
289.483;   48.150;  416.000;  304.000
289.622;  -12.250; -291.000; -149.000
289.761;  -13.125; -309.000; -166.000
289.900; -100.125; -785.000; -626.000
290.039;  -16.125;  -12.000;  -95.000
290.178;  -32.375; -274.000; -180.000
290.317;  -74.775; -618.000; -479.000
290.456;  -53.475; -463.000; -451.000
290.595; -134.550; -961.000; -833.000
290.734; -124.825; -904.000; -891.000
290.873;  -63.925; -456.000; -420.000
291.011;  -88.825; -833.000; -843.000
291.150;  -94.150; -770.000; -682.000
291.289;   -2.000; -343.000; -110.000
291.428;  -80.725; -599.000; -480.000
291.567;  -28.875; -370.000; -442.000
291.706;    0.400;  109.000;  154.000
291.845;  -83.300; -597.000; -505.000
291.984; -154.725;-1234.000;-1061.000
292.122;   67.675;  602.000;  582.000
292.261;   64.550;  620.000;  463.000
292.400;   14.025; -144.000;  211.000
292.539; -132.200; -959.000; -813.000
292.678;  -27.925; -325.000; -300.000
292.816; -147.000;-1136.000; -965.000
292.955;  -79.925; -844.000; -684.000
293.094;  -20.100; -173.000; -337.000
293.233;  -37.000; -556.000; -400.000
293.371;  -24.725; -225.000;  -84.000
293.510; -103.200; -866.000; -780.000
293.649; -122.200; -959.000; -924.000
293.787;  -30.900;-1083.000;-1012.000
293.926;   -2.975; -113.000;  -32.000
294.065;  -32.275; -379.000; -290.000
294.203;   52.900;  298.000;  406.000
294.342;   30.125;   74.000;  156.000
294.481; 5967.025;51180.000; -836.000
294.619;   -2.175; -425.000; -582.000
294.758; -127.375;-1230.000;-1137.000
294.896;   89.025; -125.000;    5.000
295.035; -111.275;-1040.000;-1006.000
295.174; -101.875;-1082.000; -954.000
295.312;  -34.525; -323.000; -203.000
295.451;   14.600; -307.000; -428.000
295.589;  -33.350; -389.000; -518.000
295.728;    7.125; -292.000; -165.000
295.866;   18.500;  -36.000;  -51.000
296.005;  -47.025; -584.000; -341.000
296.143;  -57.650; -558.000; -596.000
296.282;  -91.550; -957.000; -881.000
296.420;  -81.575; -657.000; -557.000
296.559;  -73.800; -892.000; -633.000
296.697;   77.225; -847.000; -665.000
296.835;  107.175;-1141.000;-1002.000
296.974;   66.600;  -23.000;   39.000
297.112;   33.775; -443.000; -504.000
297.251;  -61.475; -815.000; -755.000
297.389;  139.800; -576.000; -438.000
297.527;   54.325; -145.000;  -83.000
297.666;  -39.975; -486.000; -438.000
297.804;  -37.575; -404.000; -264.000
297.942;    6.350; -136.000; -161.000
298.081;   11.575; -183.000;   63.000
298.219;   94.100;  -17.000;  -19.000
298.357;   68.075; -144.000;  -71.000
298.495;   56.675; -810.000; -812.000
298.634;  105.050;  245.000;  219.000
298.772;  101.350; -220.000; -338.000
298.910;  -35.075; -309.000; -182.000
299.048;    2.525; -130.000; -153.000
299.187;  -25.700; -350.000; -250.000
299.325;   24.850;   52.000;  122.000
299.463;   77.075; -389.000; -299.000
299.601;  149.800; -327.000; -271.000
299.739;  -85.200; -908.000; -883.000
299.877;  -70.350; -791.000; -703.000
300.016;  -46.925;-1095.000; -935.000
300.154;  203.600;  -19.000; -161.000
300.292;   86.675; -428.000; -348.000
300.430;   55.000; -408.000; -291.000
300.568;  -93.225; -940.000; -874.000
300.706;  -19.150; -366.000; -469.000
300.844;  -59.550;-1108.000; -979.000
300.982;  137.125;  246.000;  282.000
301.120;  -97.825; -965.000; -866.000
301.258;  -62.775; -812.000; -705.000
301.396;   39.300;  104.000;  -41.000
301.534;  117.750; -218.000; -293.000
301.672;   29.425; -664.000; -521.000
301.810;   78.275; -613.000; -545.000
301.948;  167.675;   53.000;  149.000
302.086;  732.375; -250.000;  -32.000
302.224; 1132.925; -610.000; -585.000
302.362;   76.775; -558.000; -622.000
302.500;   19.175; -923.000; -893.000
302.638;  132.100;  128.000;  245.000
302.776;   19.325; -352.000; -408.000
302.913;   61.125;  447.000;  236.000
303.051;   25.050;  -86.000;  -23.000
303.189;   69.950;   90.000;  118.000
303.327;  -26.900; -341.000; -256.000
303.465;  -62.125; -832.000; -588.000
303.603;  -87.250; -805.000; -604.000
303.740;  111.575;  417.000;  241.000
303.878;   54.225; -800.000; -759.000
304.016;  -81.650; -915.000; -790.000
304.154; -117.550;-1123.000;-1152.000
304.291;  -22.775; -505.000; -554.000
304.429;    8.000;  102.000;   74.000
304.567; -108.325; -908.000; -893.000
304.705;  -38.825; -408.000; -515.000
304.842;  131.725; -616.000; -540.000
304.980;   65.000;  215.000;   35.000
305.118;   75.900; -367.000; -365.000
305.255;  -38.775; -945.000; -927.000
305.393;   88.500;  178.000;  239.000
305.531;  -90.175;-1173.000; -956.000
305.668;  -56.525; -663.000; -582.000
305.806;  106.825; -358.000; -439.000
305.943;  141.400; -629.000; -637.000
306.081;   87.075; -378.000; -267.000
306.219;  -84.925; -863.000; -748.000
306.356;   13.900;  158.000;   27.000
306.494;  122.175;  981.000;  761.000
306.631;   12.425;  -11.000;  -55.000
306.769;    7.375; -613.000; -485.000
306.906;   -5.275; -284.000; -258.000
307.044;  -48.450; -473.000; -488.000
307.181;  -53.700; -410.000; -332.000
307.319;   16.700;  112.000;   87.000
307.456; -179.075;-1191.000;-1153.000
307.594;  -82.325; -980.000; -727.000
307.731;   -1.725; -371.000; -164.000
307.868;    9.375;  -15.000;   20.000
308.006; -132.350; -961.000; -847.000
308.143;  -65.325; -618.000; -330.000
308.281;  163.825;  -37.000; -254.000
308.418;    3.850; -748.000; -640.000
308.555;  -68.350; -400.000; -250.000
308.693;  -74.800; -577.000; -573.000
308.830; -110.000; -712.000; -657.000
308.967;   -9.275; -215.000;  -95.000
309.105;  -22.925; -507.000; -396.000
309.242;   33.200; -468.000; -367.000
309.379;  278.775; -577.000; -655.000
309.517;  -46.000; -936.000; -948.000
309.654;  -98.375; -910.000; -734.000
309.791;  -66.425; -662.000; -580.000
309.928;  -89.475; -977.000; -914.000
310.065;  185.325;  819.000;  697.000
310.203;   19.950; -825.000; -850.000
310.340;   20.525; -465.000; -321.000
310.477;  -65.650; -412.000; -516.000
310.614;  -47.475; -383.000; -473.000
310.751;  -67.850; -427.000; -518.000
310.889;   -9.600;    1.000;   11.000
311.026; -137.500;-1161.000; -939.000
311.163;  -33.600; -386.000; -380.000
311.300;  -75.725; -512.000; -479.000
311.437;  -66.650; -658.000; -619.000
311.574; -154.950;-1226.000; -985.000
311.711;  -34.525; -595.000; -433.000
311.848;  -37.525; -380.000; -388.000
311.985;   31.575;  270.000;   93.000
312.122; -105.350; -932.000; -762.000
312.259; -118.650; -941.000; -994.000
312.396;  -74.025; -508.000; -551.000
312.533;  -71.225; -812.000; -790.000
312.670; -122.950;-1070.000; -898.000
312.807;  -26.150; -352.000; -367.000
312.944;  -57.050; -513.000; -611.000
313.081;  -15.000; -150.000; -415.000
313.218;  -93.200;-1111.000; -867.000
313.355;   35.750; -531.000; -449.000
313.492;    6.750; -455.000; -292.000
313.629;  161.975;  815.000;  735.000
313.766; -140.750;-1176.000;-1008.000
313.902;   -3.950; -186.000;   21.000
314.039;  -40.700; -372.000; -289.000
314.176;   44.350;  286.000;  192.000
314.313;  -72.000; -569.000; -473.000
314.450;  -74.850; -788.000; -684.000
314.587;  -56.425; -468.000; -480.000
314.723;    3.850;  -78.000;  130.000
314.860;   33.900;  318.000;  332.000
314.997;   60.525;  223.000;  142.000
315.134;  -24.600; -385.000; -368.000
315.270;  -18.075; -480.000; -496.000
315.407; -105.725;-1094.000; -967.000
315.544;  -32.975; -657.000; -538.000
315.681;  -56.725; -681.000; -565.000
315.817;   51.975; -133.000; -176.000
315.954;   44.700; -613.000; -392.000
316.091; -111.200;-1045.000;-1023.000
316.227;   -6.825;  -71.000; -179.000
316.364;   12.250;   23.000;    6.000
316.500;  -22.325; -113.000; -300.000
316.637;  -35.325; -181.000; -302.000
316.774;  -82.875; -625.000; -358.000
316.910;  -70.950; -598.000; -629.000
317.047;  -62.150; -487.000; -351.000
317.183;  -29.450; -435.000; -566.000
317.320;  -21.775; -367.000; -321.000
317.456;  -74.050; -733.000; -805.000
317.593;  -91.400; -598.000; -641.000
317.729;   12.400;  168.000;  -67.000
317.866; -195.975;-1434.000;-1285.000
318.002;  -82.650; -708.000; -948.000
318.139;  -78.925; -883.000; -867.000
318.275;  -81.925;-1003.000; -738.000
318.412;  -55.575; -517.000; -336.000
318.548;   -6.675; -751.000; -720.000
318.685;  -82.875; -985.000; -888.000
318.821;  -93.650; -762.000; -735.000
318.957;  -11.000;   34.000;  -23.000
319.094;   47.275;  297.000;  154.000
319.230;  -34.475; -756.000; -742.000
319.367;  178.700; -471.000; -520.000
319.503;   80.450; -538.000; -436.000
319.639;  -92.900; -877.000; -793.000
319.775;  -44.850; -750.000; -685.000
319.912;  -47.475; -424.000; -519.000
320.048;  -64.200;-1184.000;-1184.000
320.184;   85.275;   59.000;   70.000
320.321;  -71.850; -497.000; -467.000
320.457;   67.300;  475.000;  662.000
320.593;  -55.375; -375.000; -382.000
320.729;  -94.125; -732.000; -734.000
320.866;  -70.650; -577.000; -635.000
321.002;  -61.750; -759.000; -809.000
321.138;   -1.400; -135.000; -211.000
321.274;   88.050; -148.000; -115.000
321.410;    2.850; -585.000; -353.000
321.546;   -7.400;-1011.000; -911.000
321.683;   71.175;  400.000;  185.000
321.819;    5.275;  -48.000; -117.000
321.955;  -97.050; -743.000; -722.000
322.091;  -34.000; -585.000; -540.000
322.227;    7.550; -382.000; -202.000
322.363;   -4.200; -320.000; -215.000
322.499;  -34.400; -343.000; -331.000
322.635;  201.225;  636.000;  443.000
322.771;   32.325; -139.000;   12.000
322.907;  118.425;  129.000;  327.000
323.043;   -9.275; -115.000; -206.000
323.179;  -33.275; -394.000; -363.000
323.315;   81.050; -401.000; -371.000
323.451;  146.800; -328.000; -236.000
323.587;   83.625;  -60.000;  -77.000
323.723;   56.925; -682.000; -601.000
323.859;   12.825; -258.000;  -76.000
323.995;  -30.375; -467.000; -409.000
324.131; -118.650; -967.000; -892.000
324.267;  -35.550; -254.000; -276.000
324.402; -123.025; -960.000; -983.000
324.538;    2.450; -279.000; -104.000
324.674;   46.200;  164.000;   77.000
324.810;  176.325;  226.000;  308.000
324.946;   34.175; -810.000; -658.000
325.082;  -68.125; -568.000; -475.000
325.217;  -14.100;  -62.000;   16.000
325.353;  -88.050; -764.000; -659.000
325.489;  -71.225; -540.000; -506.000
325.625;  -58.925; -579.000; -525.000
325.760;   69.200;  517.000;  376.000
325.896;  -21.125; -515.000; -702.000
326.032;  -54.125; -403.000; -352.000
326.168;  -56.450; -462.000; -369.000
326.303;  -59.150; -352.000; -461.000
326.439;   -3.775; -336.000; -276.000
326.575;   12.775; -190.000;  -29.000
326.710;   21.475; -156.000;  -30.000
326.846;   -4.450;  146.000;  103.000
326.982;  -87.150; -530.000; -548.000
327.117;  -69.150; -481.000; -442.000
327.253;  -81.725; -745.000; -742.000
327.388; -159.525;-1137.000;-1153.000
327.524;  -16.600; -811.000; -578.000
327.659;  -16.575;  -58.000;  -22.000
327.795;   -9.550;   69.000;   45.000
327.931;  -86.750; -723.000; -499.000
328.066;  -10.775; -417.000; -276.000
328.202;  -12.650;   12.000; -129.000
328.337;  117.125;  957.000;  713.000
328.473;   51.925;  -12.000;  -74.000
328.608;  -15.125; -256.000; -267.000
328.743;  -86.925; -799.000; -664.000
328.879;   27.300;  214.000;  114.000
329.014;  -30.025; -102.000; -122.000
329.150;  -71.050; -358.000; -483.000
329.285;  -72.050; -465.000; -466.000
329.421;  -36.400; -548.000; -246.000
329.556;  -24.350;  -36.000;   85.000
329.691;  -84.775; -633.000; -615.000
329.827;  -85.350; -626.000; -480.000
329.962;  -35.425;  131.000; -301.000
330.097;  -84.050; -673.000; -585.000
330.233;  -50.575; -410.000; -223.000
330.368; -106.150; -839.000; -628.000
330.503;   -5.700;    3.000;   98.000
330.638;   40.725;  -93.000; -125.000
330.774;  -31.075; -609.000; -530.000
330.909;  -38.325; -434.000; -244.000
331.044;  -80.150; -714.000; -708.000
331.179; -174.925;-1217.000;-1109.000
331.315;   24.025;   77.000;   20.000
331.450;   28.175;  157.000;  285.000
331.585;  -82.625; -805.000; -706.000
331.720;  -68.625; -510.000; -460.000
331.855;    4.725;  -35.000; -102.000
331.990;  201.475;   62.000;  138.000
332.126;  119.975; -110.000;   71.000
332.261;  -22.775; -379.000; -265.000
332.396;   -3.125; -135.000; -242.000
332.531;  -95.475;-1074.000;-1031.000
332.666;   26.325; -519.000; -363.000
332.801;  -95.975; -726.000; -807.000
332.936;  -10.925; -192.000; -122.000
333.071; -131.050; -870.000; -817.000
333.206;   35.325;  307.000;  379.000
333.341;   21.850;  344.000;  418.000
333.476;  -73.300; -627.000; -623.000
333.611;  -39.175; -251.000; -173.000
333.746;  -18.525; -381.000; -464.000
333.881; -105.750; -973.000; -935.000
334.016; -111.825; -936.000; -917.000
334.151; -109.675; -746.000; -702.000
334.286;   50.300;  152.000;  186.000
334.421;   -2.850; -125.000; -178.000
334.556;  -66.600; -611.000; -567.000
334.690;  -72.575; -631.000; -577.000
334.825;   73.050;  381.000;   83.000
334.960;  -53.075; -285.000; -413.000
335.095;   34.350;  135.000;  -91.000
335.230;  -84.775; -722.000; -738.000
335.365; -115.700;-1084.000; -990.000
335.499; -117.725;-1108.000;-1037.000
335.634;   36.600;    9.000;  534.000
335.769;  -79.925; -755.000; -720.000
335.904;  -30.050; -603.000; -561.000
336.038;  -49.400; -735.000; -657.000
336.173;  -85.600;-1206.000;-1194.000
336.308;   19.450; -116.000; -189.000
336.443;   50.550; -544.000; -634.000
336.577;  -34.925; -936.000; -787.000
336.712;  106.625;   -4.000;  -12.000
336.847;   -3.525; -724.000; -607.000
336.981;  123.050; -272.000; -208.000
337.116;  349.125;  615.000;  501.000
337.250;  230.950; -434.000; -421.000
337.385;  202.000; -297.000; -208.000
337.520;   63.175; -632.000; -603.000
337.654;  -30.600; -215.000; -126.000
337.789; -127.550; -989.000; -933.000
337.923;  -24.700; -104.000; -205.000
338.058;  -82.475; -673.000; -738.000
338.192;   -8.600; -611.000; -488.000
338.327;   17.675;  -18.000; -155.000
338.461;  -67.250; -299.000; -469.000
338.596;  -75.525; -780.000; -638.000
338.730; -104.250; -767.000; -803.000
338.865;   70.825;  -46.000; -140.000
338.999;  -69.025; -846.000; -702.000
339.134;  -23.875; -634.000; -536.000
339.268;   12.075; -741.000; -603.000
339.403;  305.650; -740.000; -775.000
339.537;   65.600; -894.000; -820.000
339.671; -109.575; -829.000; -813.000
339.806;  -74.900; -556.000; -512.000
339.940;    0.775; -261.000; -235.000
340.074; -100.725; -685.000; -510.000
340.209;  -30.375; -351.000; -230.000
340.343;  -79.925; -517.000; -573.000
340.477;  173.550;  998.000; 1036.000
340.612;  -62.675;-1033.000; -900.000
340.746;  107.100; -199.000; -243.000
340.880;  -52.800; -924.000; -785.000
341.014;  -10.725;  -45.000; -154.000
341.149; -120.825; -756.000; -718.000
341.283;  -98.575; -839.000; -754.000
341.417;  -81.300;-1124.000; -938.000
341.551;  218.375; -768.000; -708.000
341.685;  -11.050; -633.000; -611.000
341.820;  -41.825; -562.000; -493.000
341.954;  -39.925; -218.000; -349.000
342.088; -144.475;-1102.000;-1019.000
342.222;   62.725;  565.000;  618.000
342.356;  -44.575; -395.000; -335.000
342.490;  -75.250; -880.000; -841.000
342.624;  -34.100; -339.000; -242.000
342.758;    9.275; -364.000; -312.000
342.892;  -37.325; -710.000; -585.000
343.026;  -42.275;  -58.000; -116.000
343.160;  -64.425; -426.000; -376.000
343.294;  -79.275; -474.000; -337.000
343.428;   -7.375; -488.000; -448.000
343.562;   -9.025; -172.000;  -23.000
343.696;  -13.075; -385.000; -314.000
343.830;   -2.925; -362.000; -356.000
343.964;   28.750; -231.000; -168.000
344.098; 1110.550;  199.000;   70.000
344.232;  966.125; -266.000; -127.000
344.366;   85.800; -567.000; -453.000
344.500;   86.600; -665.000; -744.000
344.634;   67.900; -324.000; -164.000
344.768;   14.225; -531.000; -341.000
344.902;   29.425;  278.000;  256.000
345.035;  -65.225; -556.000; -496.000
345.169; -133.175; -933.000; -656.000
345.303;  -35.550; -308.000; -482.000
345.437;  -57.150; -826.000; -717.000
345.571;  -76.325; -675.000; -594.000
345.704;  -69.125; -309.000; -532.000
345.838;    0.575; -331.000; -284.000
345.972;  -21.450; -543.000; -495.000
346.106;  142.850; -179.000; -190.000
346.239;  419.425; -312.000; -243.000
346.373;   18.200; -343.000; -302.000
346.507; -135.875; -950.000; -962.000
346.640;  182.600;  -30.000;   13.000
346.774;  -19.725; -650.000; -797.000
346.908;  -10.675; -138.000;  -11.000
347.041;  -90.300; -646.000; -593.000
347.175;   16.200;  259.000;   27.000
347.309;  -66.375; -698.000; -628.000
347.442;  -77.550; -883.000; -732.000
347.576;  336.900;  670.000;  668.000
347.709;  266.975; -123.000;  -52.000
347.843;  -87.600; -933.000; -825.000
347.976;   47.025;  235.000;  294.000
348.110; -172.175;-1268.000;-1186.000
348.243;  -96.575; -679.000; -772.000
348.377;    7.900;  -26.000;   60.000
348.510;   49.750;  403.000;  540.000
348.644;  -39.100;  -37.000; -159.000
348.777;   15.675;  180.000;  191.000
348.911;  -42.200; -142.000; -112.000
349.044;  207.825;  471.000;  448.000
349.178;  231.825;-1069.000;-1006.000
349.311;  125.500;  141.000;  255.000
349.444;  -21.550; -927.000; -813.000
349.578;   -4.125; -347.000; -200.000
349.711;  -90.650; -959.000; -862.000
349.845;   27.800; -661.000; -591.000
349.978; -115.575;-1224.000;-1137.000
350.111;  -67.325; -546.000; -612.000
350.244;  -61.325; -596.000; -700.000
350.378;   39.950; -392.000; -393.000
350.511;  -54.175; -393.000; -426.000
350.644;  -89.400; -808.000; -806.000
350.778;   10.175;  168.000;  104.000
350.911;   13.325;  134.000;  140.000
351.044;  -81.725; -685.000; -615.000
351.177;   -6.575; -321.000; -281.000
351.310;   -6.150;    3.000; -131.000
351.444;  -57.275; -888.000; -788.000
351.577;  140.250;  140.000;   90.000
351.710;  121.525;  593.000;  417.000
351.843;  -24.175; -165.000;  -77.000
351.976;    7.275;  149.000;  -79.000
352.109;  -89.375; -621.000; -612.000
352.242;   -5.350; -464.000; -419.000
352.376;  -39.350; -580.000; -636.000
352.509;  271.950; -437.000; -356.000
352.642;   68.125; -654.000; -604.000
352.775;   91.050; -141.000;  -98.000
352.908; -105.275; -933.000; -904.000
353.041;  -81.775; -814.000; -824.000
353.174;  -44.300; -551.000; -424.000
353.307;  -78.875; -753.000; -764.000
353.440;   81.625;  541.000;  453.000
353.573;  -96.525; -957.000;-1008.000
353.706;  -41.650; -384.000; -558.000
353.839;    8.550; -264.000; -220.000
353.971;  -72.000; -657.000; -512.000
354.104;  -63.100; -896.000; -835.000
354.237;  -23.550; -627.000; -662.000
354.370;  -72.550; -846.000; -879.000
354.503; -163.900;-1231.000;-1308.000
354.636;  -26.425; -529.000; -348.000
354.769; -124.175; -937.000; -860.000
354.902;   -4.175; -230.000; -139.000
355.034;  -14.025; -164.000; -220.000
355.167;  -17.275; -262.000; -162.000
355.300;  -90.150;-1061.000; -880.000
355.433;  829.525;  -71.000;  -14.000
355.565; 1299.800; -402.000; -384.000
355.698;  323.050; -356.000; -296.000
355.831;   14.050; -882.000; -801.000
355.964;  123.400; -285.000; -170.000
356.096;  -68.075; -856.000; -843.000
356.229;   36.350; -523.000; -530.000
356.362;  273.575; -373.000; -266.000
356.494;  511.025; -229.000; -162.000
356.627;  567.700;  269.000;  377.000
356.760;  610.875;  120.000;   53.000
356.892;  791.800; -286.000; -601.000
357.025;  767.450;  403.000;  389.000
357.157;  747.975; -167.000; -179.000
357.290;  513.900; -856.000; -713.000
357.423;  163.025; -667.000; -556.000
357.555;  162.025; -217.000; -228.000
357.688;  172.750; -483.000; -364.000
357.820;  518.975; -870.000; -877.000
357.953; 4134.275; -563.000; -589.000
358.085;  979.450; -632.000; -612.000
358.218; 1594.150;-1131.000; -932.000
358.350;  308.450;  -58.000;  312.000
358.483;  -92.650;-1300.000;-1187.000
358.615;   39.800;-1182.000;-1078.000
358.747;  -20.200;-1187.000;-1058.000
358.880;   72.450; -810.000; -744.000
359.012;   14.950; -376.000; -202.000
359.145;  -22.850; -480.000; -511.000
359.277;   88.700; -962.000; -913.000
359.409; 3467.450;  536.000;  231.000
359.542;  920.825; -738.000; -688.000
359.674;   98.250;   46.000;   13.000
359.806;  -46.950; -565.000; -438.000
359.939;  -41.950; -617.000; -516.000
360.071;  -45.175; -583.000; -579.000
360.203;   -8.850; -411.000; -364.000
360.335;   61.500;  164.000;  -16.000
360.468;  225.300; -249.000; -307.000
360.600; 2705.125; -547.000; -454.000
360.732; 2350.900; -546.000; -423.000
360.864;  319.875;-1216.000;-1044.000
360.996;  390.100; -516.000; -554.000
361.129;   77.900; -389.000; -598.000
361.261;   37.075;  110.000; -113.000
361.393;  -30.575; -252.000; -214.000
361.525;   28.550;   94.000;  244.000
361.657;  -17.525; -821.000; -703.000
361.789;   19.650; -139.000; -155.000
361.921;  315.525; -642.000; -593.000
362.053;  344.900;  524.000;  541.000
362.185;   80.375;  288.000;   72.000
362.318;  -52.700; -709.000; -705.000
362.450;  183.450;  294.000;  444.000
362.582;  249.450; -913.000; -870.000
362.714;  -13.425; -353.000; -332.000
362.846;  -71.025; -606.000; -490.000
362.978; -128.050; -941.000; -811.000
363.109;   80.000; -161.000; -260.000
363.241;  571.225; -739.000; -749.000
363.373;  351.925; -649.000; -564.000
363.505;  543.000; -186.000;  -91.000
363.637;  129.500; -787.000; -601.000
363.769; -117.750;-1067.000;-1080.000
363.901;  -53.825; -596.000; -654.000
364.033;  -98.625;-1103.000;-1062.000
364.165;   21.100; -283.000; -283.000
364.296;   62.450; -316.000; -177.000
364.428;   40.300;-1344.000;-1220.000
364.560;  -76.225; -679.000; -661.000
364.692;  -45.475; -738.000; -835.000
364.824;  398.250; -588.000; -456.000
364.955;  436.375; -402.000; -564.000
365.087;  655.100;-1097.000; -852.000
365.219;   15.825; -686.000; -816.000
365.351;  -70.225; -526.000; -572.000
365.482;   73.725;  300.000;  240.000
365.614;  -32.000; -402.000; -314.000
365.746;  -85.875; -729.000; -752.000
365.877; -106.325; -706.000; -672.000
366.009;  216.175;  -35.000;  -62.000
366.141; -107.925;-1249.000;-1134.000
366.272;  -98.425; -803.000; -719.000
366.404; -108.975;-1005.000; -874.000
366.535;   -6.325; -139.000;  -12.000
366.667;  -94.600; -644.000; -649.000
366.799;   53.825;  353.000;  203.000
366.930; -113.350; -862.000; -996.000
367.062;  132.900; -639.000; -613.000
367.193;   92.000; -872.000; -842.000
367.325;  -65.975; -580.000; -684.000
367.456;  107.050; -246.000;   31.000
367.588;  142.675; -371.000; -318.000
367.719;   33.225;  -44.000;  -45.000
367.851;   -4.550; -222.000; -241.000
367.982;  -13.450; -875.000; -732.000
368.113;  142.625; -475.000; -358.000
368.245; -106.725; -960.000; -841.000
368.376;    5.575; -254.000; -302.000
368.508;  -36.550; -188.000; -263.000
368.639; -126.750;-1166.000;-1034.000
368.770;    4.575; -670.000; -589.000
368.902;  -39.975; -836.000; -926.000
369.033;  -86.675; -906.000; -855.000
369.164;  -51.150; -720.000; -653.000
369.296; -109.175; -452.000; -601.000
369.427;   28.550; -209.000; -144.000
369.558;  -29.550; -593.000; -377.000
369.689;  -68.100; -721.000; -569.000
369.821; -122.750; -951.000; -845.000
369.952;   -7.600;   42.000; -108.000
370.083;  -43.600; -229.000; -108.000
370.214;  -72.575; -735.000; -650.000
370.345;    1.225;   65.000;   81.000
370.477;  -68.275; -810.000; -790.000
370.608;  335.875; -328.000; -264.000
370.739;  -26.200;-1233.000;-1292.000
370.870;    2.100;-1102.000; -923.000
371.001;  136.900; -378.000; -467.000
371.132;  -70.550; -754.000; -735.000
371.263;   -1.375;  -42.000; -148.000
371.394; -129.550; -841.000; -748.000
371.525;   43.925;  345.000;  225.000
371.657;  -72.125; -808.000; -670.000
371.788;   81.275;  103.000;  199.000
371.919;  224.350; -384.000; -304.000
372.050; 4368.525;  -91.000; -156.000
372.181; 1324.525; -188.000; -294.000
372.311;  484.725;   42.000; -127.000
372.442;   67.175; -457.000; -451.000
372.573;   -3.375; -444.000; -340.000
372.704; -111.875;-1008.000; -980.000
372.835;  123.650; -228.000; -289.000
372.966;  -59.225; -646.000; -554.000
373.097;  -57.725; -575.000; -711.000
373.228;  -11.200; -717.000; -542.000
373.359;  208.125; -824.000; -536.000
373.490; 1164.425; -881.000; -727.000
373.620; 1489.825;-1001.000; -803.000
373.751; 2264.250; -332.000; -396.000
373.882; 1023.525; -663.000; -733.000
374.013;  116.225; -449.000; -262.000
374.143;  -15.625; -581.000; -659.000
374.274;  -89.575; -987.000; -908.000
374.405;  225.575; -388.000; -276.000
374.536;  585.725; -526.000; -387.000
374.666; 1481.225; -759.000; -807.000
374.797;  315.500; -817.000; -868.000
374.928; 1133.600; -710.000; -560.000
375.058; 1131.025; -535.000; -500.000
375.189;  116.025;  -59.000;  -93.000
375.320;  -80.075; -928.000;-1034.000
375.450;  -24.350; -625.000; -616.000
375.581;  -43.025; -526.000; -436.000
375.712;  -14.375; -574.000; -250.000
375.842;  402.525; -438.000; -415.000
375.973;  292.800; -554.000; -513.000
376.103;   -2.525; -665.000; -648.000
376.234;  -78.950; -531.000; -552.000
376.364;  -11.725; -944.000; -867.000
376.495;  381.975;  925.000;  529.000
376.625;   47.250; -472.000; -485.000
376.756;  113.700; -709.000; -678.000
376.886;  -44.225;-1178.000;-1026.000
377.017;   21.225;-1048.000;-1061.000
377.147;  249.125; -786.000; -782.000
377.278;   75.450;  174.000;  228.000
377.408; -131.325; -801.000; -815.000
377.538;  -98.100; -707.000; -693.000
377.669;  -56.550; -537.000; -613.000
377.799;  -62.375; -645.000; -635.000
377.929;  -19.525; -610.000; -428.000
378.060; -112.425; -781.000; -847.000
378.190;  -50.250; -726.000; -531.000
378.320;  -22.125; -401.000; -406.000
378.451;    2.725; -131.000;  -22.000
378.581;   21.550;  -67.000; -110.000
378.711;  184.750; 1035.000;  866.000
378.841;    2.275; -533.000; -675.000
378.972;  -56.525; -871.000; -751.000
379.102;   25.775; -652.000; -579.000
379.232;  -15.500; -126.000;  -73.000
379.362;  -80.900;-1001.000; -885.000
379.492;   47.525; -373.000; -424.000
379.623;  140.975;    0.000;  111.000
379.753;  -81.075;-1107.000; -974.000
379.883;  256.575;   59.000;  156.000
380.013;   39.950;-1081.000;-1017.000
380.143;  -89.975;-1097.000;-1056.000
380.273;  -77.725; -985.000; -861.000
380.403;   11.925; -344.000; -257.000
380.533;    9.625; -651.000; -664.000
380.663;  109.800;  173.000;  128.000
380.793;  -67.550;-1027.000;-1074.000
380.923;   -8.975; -103.000;  -34.000
381.053;  -84.250; -613.000; -623.000
381.183;  -17.500; -106.000; -248.000
381.313;   80.375; -656.000; -470.000
381.443;   74.450; -692.000; -473.000
381.573;  279.950; -402.000; -409.000
381.703;  409.750;-1249.000;-1095.000
381.833; -104.000;-1454.000;-1336.000
381.963;  137.925; -134.000;  -87.000
382.093; 1655.000; -925.000; -909.000
382.223;  527.675; -713.000; -602.000
382.353;    6.275; -801.000; -608.000
382.482;  521.575;-1091.000; -964.000
382.612;  949.300; -872.000; -644.000
382.742;  536.450; -695.000; -622.000
382.872;  362.000; -565.000; -551.000
383.002;   99.800;  347.000; -132.000
383.131;    2.075; -226.000; -160.000
383.261;  -39.575; -706.000; -768.000
383.391;  290.825; -552.000; -377.000
383.521; 2560.425;  451.000;  263.000
383.650;  562.850; -947.000; -904.000
383.780;  -34.800; -783.000; -656.000
383.910;  112.475;  880.000;  802.000
384.039;   63.600; -794.000; -656.000
384.169;  299.725;-1205.000;-1017.000
384.299;   25.000; -650.000; -662.000
384.428;  -66.925; -764.000; -680.000
384.558;  -17.325; -308.000; -275.000
384.687;  -29.725; -414.000; -334.000
384.817;   39.575;   75.000;   -2.000
384.947;   50.375; -234.000; -141.000
385.076;  344.325;  982.000;  912.000
385.206;  133.525;  369.000;  480.000
385.335;    4.875; -549.000; -417.000
385.465;  -57.850; -655.000; -663.000
385.594;  193.125;  -53.000;  -44.000
385.724;  590.550; -868.000; -838.000
385.853;  177.600; -296.000; -270.000
385.982; 1769.950; -743.000; -787.000
386.112; 2680.575;-1052.000; -871.000
386.241;  192.850; -307.000; -312.000
386.371;   37.950; -174.000;  -87.000
386.500;   36.150; -825.000; -789.000
386.629;   37.875; -874.000; -817.000
386.759;   63.725;  -43.000;   68.000
386.888;    8.400; -170.000; -250.000
387.017;  -55.100; -648.000; -620.000
387.147;  -54.875; -771.000; -798.000
387.276;   35.950; -410.000; -397.000
387.405;   45.850; -398.000; -342.000
387.535;  -34.750; -452.000; -361.000
387.664;  -46.350; -692.000; -620.000
387.793;  100.825; -198.000; -113.000
387.922;  673.050;  255.000;  200.000
388.052;   75.175; -576.000; -423.000
388.181;   70.600; -342.000; -472.000
388.310;   80.050; -889.000; -710.000
388.439;   -0.300; -749.000; -742.000
388.568;  253.400;  365.000;  244.000
388.697; 1349.200; -756.000; -653.000
388.826;  284.850; -768.000; -666.000
388.956;   85.575; -285.000; -307.000
389.085;  -24.775; -347.000; -287.000
389.214;  -90.600; -842.000; -872.000
389.343;  -45.150; -645.000; -413.000
389.472;  354.925;  126.000;  149.000
389.601;  492.100;   91.000;    0.000
389.730;   43.550; -568.000; -687.000
389.859;   94.300;  226.000;   46.000
389.988;  271.700; -423.000; -408.000
390.117;  197.175; -168.000; -146.000
390.246;   19.650; -331.000; -320.000
390.375;  158.950; -673.000; -626.000
390.504;  -46.900; -703.000; -621.000
390.633;  -83.250; -672.000; -726.000
390.761;  -52.100; -732.000; -645.000
390.890;   49.200;   -4.000; -130.000
391.019;   -4.075; -421.000; -441.000
391.148; -120.025; -826.000; -855.000
391.277;  -44.525; -576.000; -493.000
391.406;  -48.425; -821.000; -805.000
391.534;   30.600;  574.000; -301.000
391.663;  -48.125; -583.000; -645.000
391.792;  -62.175; -673.000; -701.000
391.921;  151.400;   -3.000;   15.000
392.050;  288.850; -287.000; -228.000
392.178;   -0.550;-1206.000;-1061.000
392.307;  215.000; -758.000; -712.000
392.436;  117.925; -427.000; -641.000
392.564;   27.800;  166.000;   -6.000
392.693;  -85.750; -860.000; -682.000
392.822;  315.800; -529.000; -534.000
392.950;  148.550; -880.000; -714.000
393.079;  438.900; -188.000; -328.000
393.208;   64.375; -488.000; -511.000
393.336;   -5.625; -170.000; -145.000
393.465;  -40.575; -317.000; -199.000
393.593;   11.050;   62.000;   79.000
393.722; -141.375;-1121.000; -916.000
393.850;  -33.975; -188.000;  -61.000
393.979; -159.700; -926.000; -805.000
394.107;  -60.575; -517.000; -537.000
394.236;   -2.875; -570.000; -507.000
394.364;  223.975;  383.000;  206.000
394.493;  319.225; -911.000; -767.000
394.621;  -19.950; -955.000; -916.000
394.750;  594.125; -873.000; -923.000
394.878; 2508.925; -247.000; -149.000
395.007; 3395.050; -721.000; -807.000
395.135;  258.150; -790.000; -721.000
395.263;  -88.750;-1038.000;-1040.000
395.392;   19.100;  -25.000; -107.000
395.520; -129.425; -818.000; -679.000
395.648;  -68.575; -865.000; -915.000
395.777;    0.025; -366.000; -405.000
395.905;  -54.600; -449.000; -564.000
396.033;   18.400;  217.000;  172.000
396.162;  569.525; -399.000; -453.000
396.290;  500.450;  -17.000;   -2.000
396.418;  139.725; -555.000; -514.000
396.546;  -62.675; -571.000; -466.000
396.674;  -90.050; -850.000; -878.000
396.803;   12.475;  -72.000;  -23.000
396.931;  139.950; -179.000; -199.000
397.059;  118.325;-1026.000; -989.000
397.187;  -93.125;-1026.000; -975.000
397.315; -132.475; -884.000; -649.000
397.443;  -85.625; -592.000; -443.000
397.572;  -86.775; -578.000; -424.000
397.700;   24.950; -607.000; -614.000
397.828;   22.275;  120.000;  -90.000
397.956;  -44.075; -508.000; -478.000
398.084;  -77.350; -767.000; -626.000
398.212;   46.100;  137.000;  124.000
398.340;   24.350;  -56.000;  159.000
398.468;   69.225; -390.000; -169.000
398.596; -126.250; -993.000; -953.000
398.724; -116.025; -762.000; -767.000
398.852; -152.750;-1024.000; -976.000
398.980;  -56.150; -560.000; -560.000
399.108;  -28.775; -982.000; -735.000
399.236;   63.325;   13.000;    8.000
399.363;   24.825;  222.000;  196.000
399.491;  -54.950; -404.000; -398.000
399.619; -125.425; -829.000; -800.000
399.747;  -78.225; -859.000; -771.000
399.875;   98.150;  220.000;  234.000
400.003;  -46.800; -359.000; -284.000
400.130;  -91.450; -421.000; -341.000
400.258;  -30.350;  -83.000;   38.000
400.386;  -70.175; -352.000; -168.000
400.514;  -11.225; -526.000; -587.000
400.641;  -65.825; -928.000; -802.000
400.769; -125.850; -979.000; -888.000
400.897; -103.925; -838.000; -793.000
401.025;    6.925; -166.000; -152.000
401.152;    8.900;  220.000;   38.000
401.280;  -88.025; -430.000; -429.000
401.408; -106.625; -712.000; -576.000
401.535;  -96.125; -735.000; -758.000
401.663; -177.500;-1134.000;-1054.000
401.790;  -85.600; -514.000; -525.000
401.918;   38.525;  436.000;  405.000
402.046;   -9.475;  134.000;  122.000
402.173;  -30.550;  -18.000;    7.000
402.301;  -53.225; -519.000; -397.000
402.428;   39.475;  528.000;  383.000
402.556; -135.450;-1188.000; -913.000
402.683;  -20.625;  -20.000;   -1.000
402.811;  -24.075;  -37.000; -206.000
402.938;   -5.200;   20.000;   27.000
403.066;  287.050; -574.000; -558.000
403.193;  413.700;  299.000;  239.000
403.321;  352.525; -396.000; -574.000
403.448;  393.300;   83.000;   27.000
403.575;  180.525;  -90.000;  -46.000
403.703;  -86.675; -732.000; -557.000
403.830;  -52.650; -531.000; -496.000
403.957; -139.675;-1117.000;-1023.000
404.085;   22.300;  -61.000; -172.000
404.212;  109.925;  -50.000;   63.000
404.339;  230.175; -566.000; -306.000
404.467; 4863.400; -612.000; -524.000
404.594; 3542.875; -287.000; -227.000
404.721;  951.425; -869.000; -764.000
404.848;   91.025; -113.000; -202.000
404.976;  -93.475; -856.000; -783.000
405.103;  -16.850;  -14.000;  -82.000
405.230;    7.525;  190.000;  226.000
405.357;   47.550;  117.000;   44.000
405.484;  236.625;  -49.000;    5.000
405.612;   43.950; -548.000; -563.000
405.739;  -47.675; -488.000; -243.000
405.866;   97.925;  669.000;  385.000
405.993;  -43.850; -398.000; -102.000
406.120; -136.075; -801.000; -887.000
406.247;  -52.775; -323.000; -342.000
406.374;  562.775;  540.000;  629.000
406.501;  194.225; -632.000; -702.000
406.628;  -65.900; -621.000; -589.000
406.755;  -77.225; -803.000; -620.000
406.882;  -23.975; -228.000; -277.000
407.009; -101.200; -719.000; -628.000
407.136;   93.000; -480.000; -401.000
407.263;  220.225; -939.000; -829.000
407.390;  -58.150; -692.000; -614.000
407.517; -154.575;-1139.000;-1187.000
407.644;  -58.925; -332.000; -256.000
407.771;  -70.075; -249.000; -287.000
407.898;   19.175;  168.000;  328.000
408.025;  -57.175; -421.000; -313.000
408.151;    7.225;   82.000;  153.000
408.278;  -57.400; -267.000; -216.000
408.405; -100.325; -931.000; -899.000
408.532;  -46.750; -549.000; -542.000
408.659; -108.700; -677.000; -648.000
408.785; -193.125;-1298.000;-1170.000
408.912;  -64.000; -412.000; -296.000
409.039; -114.925; -610.000; -686.000
409.166; -104.725; -591.000; -555.000
409.292; -108.325; -571.000; -534.000
409.419; -127.675; -665.000; -649.000
409.546;  -91.075; -431.000; -192.000
409.672; -106.800; -713.000; -545.000
409.799;  -27.275;  -36.000;   34.000
409.926;  -29.025; -180.000; -179.000
410.052; -177.875;-1127.000;-1091.000
410.179;  -54.500; -368.000; -392.000
410.305;  -85.400; -375.000; -493.000
410.432;  -39.600; -220.000; -333.000
410.558;  -80.150; -305.000; -380.000
410.685; -113.900; -688.000; -431.000
410.812;  -99.675; -409.000; -588.000
410.938; -123.600; -964.000; -808.000
411.065;  -95.250; -671.000; -645.000
411.191;   -9.800; -189.000; -174.000
411.317; -110.300; -823.000; -742.000
411.444;  -55.600; -317.000; -246.000
411.570;  -73.125; -339.000; -294.000
411.697; -128.250; -758.000; -752.000
411.823; -172.400; -989.000; -999.000
411.949;  -25.200;  -56.000;   17.000
412.076; -116.450; -539.000; -519.000
412.202; -109.150; -758.000; -757.000
412.329; -124.075; -798.000; -752.000
412.455; -113.175; -821.000; -657.000
412.581;  -13.725;  -15.000;  172.000
412.707;  -48.200; -540.000; -457.000
412.834;   22.350;  156.000;  219.000
412.960;  -84.525; -785.000; -784.000
413.086;  -97.350; -743.000; -701.000
413.212;  197.725;  604.000;  578.000
413.339;  -40.075; -685.000; -701.000
413.465;   33.200; -364.000; -310.000
413.591;  -67.300; -757.000; -474.000
413.717;  -44.650; -358.000; -366.000
413.843; -124.125; -839.000; -861.000
413.969;  -51.675;  -47.000; -292.000
414.096; -102.725; -679.000; -679.000
414.222;  -11.000;  -33.000;   85.000
414.348;   -1.900; -652.000; -385.000
414.474;  142.450;   38.000;  -52.000
414.600;   -6.425; -126.000; -144.000
414.726;  -18.125;  -96.000;  -55.000
414.852;  -58.175; -365.000; -342.000
414.978;   33.150;  104.000;  -18.000
415.104;   28.650;   38.000;   80.000
415.230;   28.025; -329.000; -330.000
415.356;   39.450; -409.000; -514.000
415.482;  201.225;   13.000;  -35.000
415.608;  243.800; -247.000; -323.000
415.734;  883.600;   67.000;   38.000
415.860;18154.025; -875.000; -767.000
415.986;12948.875; -685.000; -607.000
416.111; 1085.975; -798.000; -652.000
416.237;  218.450; -424.000; -571.000
416.363;  948.350; -765.000; -733.000
416.489; 3540.775; -324.000; -251.000
416.615;  345.950; -707.000; -742.000
416.741;  -27.525; -677.000; -784.000
416.866;  -91.050; -673.000; -736.000
416.992; -129.125; -801.000; -818.000
417.118;  -27.500;  -41.000;  -80.000
417.244;  -54.675; -798.000; -531.000
417.369;  -79.550; -801.000; -612.000
417.495;   11.225; -325.000; -254.000
417.621;  -65.800;-1015.000; -803.000
417.746;   -7.325; -579.000; -572.000
417.872;   58.250; -254.000; -144.000
417.998;   21.700; -515.000; -530.000
418.123;  907.475;-1073.000; -845.000
418.249; 4642.475; -512.000; -601.000
418.374;  609.950; -916.000; -824.000
418.500;   83.300; -383.000; -482.000
418.626;  107.475;   70.000;  -59.000
418.751;  111.725; -549.000; -448.000
418.877;  175.350; -637.000; -643.000
419.002; 1571.225; -688.000; -560.000
419.128;10771.550; -930.000; -721.000
419.253; 2534.350; -967.000; -837.000
419.379;  319.075; -391.000; -338.000
419.504;  342.525;  325.000;  415.000
419.629;  437.550; -393.000; -212.000
419.755; 2917.975; -317.000; -254.000
419.880;17262.150;  -98.000;   67.000
420.006; 9813.175; -280.000; -221.000
420.131;25745.300; -662.000; -775.000
420.256; 3685.325; -315.000; -316.000
420.382;  484.350; -665.000; -687.000
420.507;   43.475; -649.000; -778.000
420.632;  183.350; -337.000; -339.000
420.758;  361.800; -251.000; -425.000
420.883;  -74.175; -876.000; -672.000
421.008;  -82.425; -775.000; -619.000
421.133;  -91.225; -509.000; -467.000
421.259;  -34.175; -325.000; -259.000
421.384;  -97.725; -834.000; -693.000
421.509;   -7.025;-1052.000; -862.000
421.634; 1643.225; -936.000; -820.000
421.759;  725.900; -359.000; -327.000
421.885;  -35.950; -717.000; -656.000
422.010;  -57.350; -673.000; -542.000
422.135; -156.975; -695.000; -727.000
422.260;   40.225;  340.000;  280.000
422.385;  -30.325;   12.000;  -98.000
422.510;   19.550;  151.000;  -26.000
422.635;   25.750;  -87.000;  -43.000
422.760;  121.825; -766.000; -791.000
422.885;   45.450;  -57.000;  -80.000
423.010;  -40.975; -112.000; -169.000
423.135;  -95.200; -481.000; -561.000
423.260;   -4.175; -150.000; -245.000
423.385;   76.450;  476.000;  222.000
423.510;   41.850;   71.000;  -22.000
423.635;   93.975;  133.000;   45.000
423.760;   64.375;  383.000;  328.000
423.885;   58.400;  336.000;  391.000
424.010;   21.700;  -68.000;  -13.000
424.135;  -20.325;    5.000;  -33.000
424.259;  -88.650; -654.000; -457.000
424.384;  -70.925; -279.000; -272.000
424.509;  -13.675; -260.000; -186.000
424.634; -105.000; -761.000; -623.000
424.759;  -24.575; -688.000; -544.000
424.883;  -36.800; -506.000; -527.000
425.008;  159.525; -502.000; -410.000
425.133; 1761.750; -679.000; -653.000
425.258;  779.825; -517.000; -381.000
425.382; 1206.050; -867.000; -774.000
425.507; 3116.600; -487.000; -543.000
425.632;  480.875; -802.000; -663.000
425.756;  395.325; -256.000; -146.000
425.881; 5228.250; -831.000; -857.000
426.006;13703.375; -604.000; -355.000
426.130; 2199.800; -696.000; -508.000
426.255;  279.450; -611.000; -491.000
426.379;  115.225; -189.000; -577.000
426.504;  341.425;  660.000;  544.000
426.629; 3656.525; -519.000; -466.000
426.753; 2498.775;   64.000;  -46.000
426.878;  277.875; -252.000; -288.000
427.002;  115.200; -651.000; -668.000
427.127; 1432.450;  -35.000; -158.000
427.251; 9794.050;  372.000;  401.000
427.375; 2794.225; -191.000; -173.000
427.500; 2670.450; -616.000; -610.000
427.624;  912.050; -234.000; -400.000
427.749;  122.925; -216.000; -225.000
427.873;  -16.550; -499.000; -412.000
427.997;  -38.525; -222.000; -230.000
428.122;   85.950;  795.000;  703.000
428.246;   92.250;  433.000;  434.000
428.371; -123.675; -869.000; -773.000
428.495;  -94.925; -624.000; -646.000
428.619;  -27.125; -186.000; -117.000
428.743;   37.800;   65.000;  132.000
428.868;   52.300; -732.000; -643.000
428.992; 1712.650; -219.000; -326.000
429.116;  721.025; -329.000; -357.000
429.240;  343.275;  419.000;  426.000
429.365;   -2.400; -454.000; -574.000
429.489;  -21.400; -638.000; -647.000
429.613;   35.375; -236.000; -177.000
429.737;   38.325; -563.000; -432.000
429.861;  259.150; -247.000; -133.000
429.985; 4872.525; -425.000; -305.000
430.109; 5290.650; -770.000; -908.000
430.234;  609.200;   76.000;  -50.000
430.358;   50.925; -250.000; -160.000
430.482;  -78.900; -672.000; -564.000
430.606;  -51.275; -655.000; -375.000
430.730;   50.325; -437.000; -388.000
430.854;  224.850; -909.000; -835.000
430.978;  -36.200; -795.000; -764.000
431.102;  -69.175; -499.000; -422.000
431.226;  -91.775; -874.000; -815.000
431.350;   41.950;  345.000;  422.000
431.474;  -47.825; -661.000; -373.000
431.597; -135.900;-1060.000; -848.000
431.721;  -69.025; -276.000; -267.000
431.845; -139.250; -704.000; -472.000
431.969;  -72.575; -304.000; -349.000
432.093;  -99.375; -395.000; -317.000
432.217;  -22.775;   32.000;   82.000
432.341;  -87.225; -523.000; -518.000
432.464;   16.275;   96.000;   40.000
432.588;  294.675; -401.000; -329.000
432.712;  151.250;  -52.000;  -52.000
432.836;   47.650;  213.000;  263.000
432.959;  -19.450; -372.000; -311.000
433.083;   66.175;   11.000;    2.000
433.207;  333.150;  285.000;  930.000
433.330; 4303.350; -391.000; -200.000
433.454; 5191.600; -654.000; -638.000
433.578; 3078.825;  583.000;  278.000
433.701;  576.925; -623.000; -675.000
433.825;  192.475; -292.000; -299.000
433.949;  306.025;   28.000;  -72.000
434.072;  123.775; -410.000; -323.000
434.196;   -8.300; -309.000; -117.000
434.319; 3801.750;25482.000;25124.000
434.443;  741.525; -656.000; -603.000
434.566; 2335.550;  281.000;   62.000
434.690;  365.225; -637.000; -383.000
434.813;   48.075; -251.000; -173.000
434.937;  -81.825; -569.000; -696.000
435.060;   -4.075; -423.000; -332.000
435.184;  512.750; -492.000; -217.000
435.307;  272.025;  159.000;  102.000
435.431;    7.625;  -40.000;   24.000
435.554;  -74.500; -399.000; -240.000
435.677;  -88.225; -350.000; -258.000
435.801;  -43.750;  -25.000;   49.000
435.924;   17.800;    1.000;  -67.000
436.048;  -86.225;-1019.000; -732.000
436.171;  -58.825; -240.000;  -66.000
436.294;  -24.750; -248.000; -229.000
436.417;   45.375; -963.000; -849.000
436.541; -102.100; -814.000; -840.000
436.664;  -46.350; -242.000; -316.000
436.787;  -32.975;   13.000;  113.000
436.910; -108.725; -792.000; -422.000
437.034;   15.400;  142.000;  143.000
437.157;  110.650;  -11.000;    0.000
437.280;  -22.175; -392.000; -292.000
437.403;  -57.075; -982.000; -869.000
437.526;  984.275; -903.000; -865.000
437.649; 3281.475; -505.000; -332.000
437.772;  518.375; -692.000; -540.000
437.896;  168.225;  700.000;  544.000
438.019;  -98.975; -758.000; -503.000
438.142;  -67.050; -596.000; -506.000
438.265;   17.225; -639.000; -670.000
438.388;  764.900; -520.000; -410.000
438.511;  170.000; -597.000; -394.000
438.634;  -27.550; -247.000; -125.000
438.757; -126.525; -693.000; -619.000
438.880;   -6.725;  -34.000;  -57.000
439.003;  -81.575; -417.000; -437.000
439.126;  -65.450; -287.000; -167.000
439.248;  -55.500;  -98.000; -139.000
439.371;  -43.100;    9.000;  -53.000
439.494;   18.825;  510.000;  439.000
439.617;  -54.575;   65.000;  -88.000
439.740; -161.025; -968.000; -816.000
439.863; -137.275; -755.000; -595.000
439.986; -121.525; -476.000; -431.000
440.108;  -46.825; -161.000; -112.000
440.231; -170.900; -950.000; -836.000
440.354;  -38.100;  -64.000; -150.000
440.477;   81.375; -566.000; -542.000
440.599;   35.300; -200.000; -225.000
440.722; -119.925; -709.000; -586.000
440.845;   78.925;  751.000;  928.000
440.968; -112.125; -415.000; -311.000
441.090;  -65.675; -199.000;  -33.000
441.213; -181.375;-1021.000; -825.000
441.336;  -54.325; -159.000;   -5.000
441.458;  -80.950; -549.000; -396.000
441.581;  -77.175; -628.000; -629.000
441.703;  -70.850; -152.000;   13.000
441.826; -102.725; -557.000; -400.000
441.948;  -55.500;   56.000;   51.000
442.071;   34.525;  555.000;  424.000
442.193; -106.950; -531.000; -485.000
442.316;   14.175;  152.000;   97.000
442.438;   26.650; -233.000;  -10.000
442.561;   89.350;  272.000;  262.000
442.683;  809.625; -809.000; -522.000
442.806; 1637.350;   -8.000;   74.000
442.928;   88.500; -859.000; -604.000
443.051;  -44.275; -577.000; -373.000
443.173;  -93.475; -341.000; -339.000
443.295;  -86.400; -263.000; -371.000
443.418;  -67.050; -321.000;  -29.000
443.540;    4.350; -106.000;   -4.000
443.662; -113.650; -563.000; -465.000
443.785;    0.600;  335.000;  199.000
443.907;  -97.075; -362.000; -208.000
444.029; -133.200; -767.000; -494.000
444.152; -144.750; -644.000; -554.000
444.274;  -31.050;  -18.000;  -24.000
444.396; -108.500; -461.000; -221.000
444.518; -135.125; -691.000; -454.000
444.640;  -97.900; -268.000; -111.000
444.763;   -7.325;  388.000;  249.000
444.885; -129.000; -432.000; -392.000
445.007;  -37.425;   35.000;   86.000
445.129; -124.550; -610.000; -515.000
445.251; -102.150; -372.000; -439.000
445.373; -121.125; -537.000; -386.000
445.495;    1.050;  242.000;  350.000
445.617;   53.025;  853.000;  753.000
445.739;  -67.900; -215.000;  -97.000
445.861;  -13.000; -245.000; -112.000
445.984;  -29.450; -267.000; -101.000
446.105;  280.300; -418.000; -251.000
446.227;  811.375; -176.000;  -19.000
446.349;   38.925; -358.000; -249.000
446.471; -100.650; -615.000; -448.000
446.593;  -50.400; -316.000;   19.000
446.715;   -3.400;  -67.000;   41.000
446.837;   63.625;  697.000;  832.000
446.959; -101.475; -457.000; -478.000
447.081; -132.325; -628.000; -518.000
447.203;   55.125;  862.000;  834.000
447.325;  -84.475; -270.000;   42.000
447.446;   -6.925;  286.000;  530.000
447.568; -141.950; -921.000; -803.000
447.690;  -76.125; -236.000; -245.000
447.812; -137.150; -798.000; -519.000
447.933;  -25.200;  155.000;  127.000
448.055;  -62.775; -306.000; -261.000
448.177;  204.050;   31.000;   79.000
448.299;  152.600; -935.000; -727.000
448.420;   37.575;  -25.000;  159.000
448.542;  -53.825;   -3.000;   33.000
448.664;  -18.425;  109.000;  322.000
448.785;  -39.425;  265.000;   83.000
448.907;  -64.825; -614.000; -353.000
449.028;   -8.100; -771.000; -471.000
449.150;   84.900;  492.000;  589.000
449.272; -182.700;-1044.000; -913.000
449.393;   31.775;  612.000;  694.000
449.515; -156.350; -634.000; -581.000
449.636;  -47.975; -264.000; -155.000
449.758;   73.800;  763.000;  622.000
449.879;  -79.750; -498.000; -396.000
450.001;  -78.125; -149.000;  -49.000
450.122;  -32.550;  -95.000;  162.000
450.244;  -23.150;   37.000;  364.000
450.365;  -92.650; -495.000; -301.000
450.486;  -51.000;   80.000;  268.000
450.608;    7.250;  393.000;  326.000
450.729;   56.875;  578.000;  645.000
450.850;  -22.650; -574.000; -466.000
450.972;  578.625; -552.000; -389.000
451.093; 4014.900;  190.000;  588.000
451.214; 1690.200; -516.000; -337.000
451.336;  307.975;  773.000;  579.000
451.457;   61.725;  264.000;  393.000
451.578;  -39.250; -118.000;  -74.000
451.699; -129.250; -546.000; -540.000
451.821;  -69.375; -284.000;  -50.000
451.942;    8.350;  278.000;  285.000
452.063;   41.675;  228.000;  419.000
452.184;  461.875;  -54.000;  -49.000
452.305;  940.575;  103.000;  170.000
452.427;   67.650; -549.000; -301.000
452.548;  -26.850;   23.000;   79.000
452.669;  -41.525; -257.000;  -89.000
452.790;  -55.300;    3.000;  -18.000
452.911;    1.325;  195.000;  259.000
453.032;  -80.525; -289.000;  -60.000
453.153;  -24.875;  -29.000;   81.000
453.274;   80.650;  737.000;  868.000
453.395;  -33.850;  -51.000;  175.000
453.516;  138.850; 1317.000; 1388.000
453.637;  -55.100; -205.000; -150.000
453.758;  -44.125;   15.000;   69.000
453.879; -127.725; -462.000; -250.000
454.000;   94.850; 1086.000;  948.000
454.121; -102.350; -554.000; -326.000
454.242; -118.100; -599.000; -383.000
454.362;  -66.000;  -99.000;  114.000
454.483;  -22.200; -309.000; -229.000
454.604;   82.125;  512.000;  580.000
454.725; -126.025; -627.000; -555.000
454.846; -136.925; -474.000; -406.000
454.967;  -14.025;  230.000;  539.000
455.087;  -50.550;  179.000;  153.000
455.208;   25.825;  554.000;  856.000
455.329;  -50.125;  -22.000;   82.000
455.450;   24.250;  473.000;  633.000
455.570;  -89.700; -234.000; -211.000
455.691;  -25.950;  201.000;  407.000
455.812;  -98.150; -270.000;  -92.000
455.932;  -57.525;  107.000;  -97.000
456.053;  -83.100;   36.000;   24.000
456.173; -111.525; -433.000; -355.000
456.294; -132.225; -476.000; -303.000
456.415;  -56.325;  -73.000;   70.000
456.535;  -32.350;  297.000;  273.000
456.656;  -48.750;  132.000;  240.000
456.776;  -67.100;    3.000;  298.000
456.897;   -3.525;  308.000;  513.000
457.017;  -80.275; -153.000;   -3.000
457.138; -100.800; -402.000; -249.000
457.258;  -24.050;  263.000;  224.000
457.379;  -14.775;  509.000;  521.000
457.499;  -25.050;  443.000;  432.000
457.620; -122.900; -407.000; -231.000
457.740;  -99.500; -132.000;  -11.000
457.860;  -45.400;   87.000;   44.000
457.981;  -52.425;  132.000;  124.000
458.101;  -64.600;  -89.000;   40.000
458.221;  -10.900;  336.000;  402.000
458.342;  -65.525;   -4.000;  -37.000
458.462;   12.875;  617.000;  352.000
458.582;  -59.475; -302.000; -294.000
458.703;   -7.825;  303.000;  154.000
458.823;  -33.075;   22.000;  163.000
458.943;   15.775;  341.000;  467.000
459.063;   -9.775; 1124.000;  192.000
459.183;  -28.550;  328.000;  313.000
459.304;   15.775;  315.000;  517.000
459.424;  -74.750; -246.000;  -89.000
459.544;  286.025;  388.000;  764.000
459.664;  724.450;  499.000;  506.000
459.784;  275.250; 1004.000; 1175.000
459.904;   59.050;  867.000;  744.000
460.024;   84.150;  867.000;  684.000
460.144;   12.475;  449.000;  554.000
460.264;    6.400;  515.000;  327.000
460.385; -100.250; -145.000; -119.000
460.505;   38.200;  905.000;  858.000
460.625;  -87.100;  -17.000;  -68.000
460.745;  -16.900;  396.000;  541.000
460.864;  -45.225;  153.000;  469.000
460.984;   23.950;  499.000;  573.000
461.104;  166.700; 1656.000; 1775.000
461.224;   27.775;  657.000;  650.000
461.344;   -9.925;  431.000;  360.000
461.464;  -32.050;  258.000;  513.000
461.584;   -1.925;  283.000;  466.000
461.704;  -15.100;   58.000;  108.000
461.824;  -53.400;  238.000;  259.000
461.943;  -29.950;  191.000;  130.000
462.063;  -77.500;    2.000;  324.000
462.183;   38.175;  639.000;  717.000
462.303;  105.200; 1678.000; 1230.000
462.422;   31.700;  781.000;  840.000
462.542;  -41.000;  271.000;  391.000
462.662;   38.650;  353.000;  380.000
462.782;  232.400;  833.000;  572.000
462.901;  424.250;  545.000;  717.000
463.021;  268.325; 1702.000; 1638.000
463.141;  -10.875;  337.000;  770.000
463.260;  -13.825;  614.000;  474.000
463.380;   24.750;  902.000;  884.000
463.499;  -51.100;  342.000;  332.000
463.619;  -31.350;  581.000;  559.000
463.738;  112.375; 1644.000;  903.000
463.858;   18.750;  657.000;  811.000
463.978;  -25.250;  542.000;  396.000
464.097;   45.000;  921.000; 1114.000
464.217;  111.875; 1196.000; 1143.000
464.336;  100.725; 1068.000; 1130.000
464.455;  -45.125;  328.000;  659.000
464.575;   59.875;  597.000;  602.000
464.694;  184.125; 1204.000; 1179.000
464.814;  117.425; 1190.000; 1138.000
464.933;   74.325; 1095.000; 1027.000
465.052;  109.200; 1412.000; 1054.000
465.172;   94.150;  922.000;  799.000
465.291;  155.300; 1376.000; 1320.000
465.410;   27.225;  462.000;  735.000
465.530;   80.050; 1355.000; 1310.000
465.649;   74.550; 1209.000; 1273.000
465.768;  146.125; 1673.000; 1508.000
465.888;   50.750;  941.000; 1174.000
466.007;   96.625; 1335.000; 1440.000
466.126;    2.550;  721.000;  641.000
466.245;   39.875; 1176.000; 1187.000
466.364;   31.550;  950.000; 1060.000
466.484;   64.500; 1024.000; 1213.000
466.603;   58.125; 1101.000; 1222.000
466.722;  141.875; 1490.000; 1769.000
466.841;   84.450; 1151.000; 1401.000
466.960;   45.725; 1069.000;  972.000
467.079;  132.450; 1971.000; 1786.000
467.198;   46.300; 1238.000; 1181.000
467.317;   81.525; 1768.000; 1162.000
467.436;   76.900; 1709.000; 1261.000
467.555;  129.775; 1796.000; 1746.000
467.674;   62.425; 1227.000; 1329.000
467.793;   54.650; 1376.000; 1374.000
467.912;   84.375; 1658.000; 1539.000
468.031;  132.100; 2038.000; 1930.000
468.150;  151.050; 1842.000; 1837.000
468.269;  206.525; 2313.000; 2090.000
468.388;  184.600; 2168.000; 2339.000
468.507;  257.425; 2884.000; 2903.000
468.626;  240.275; 2555.000; 2541.000
468.744;  150.000; 2018.000; 2174.000
468.863;  205.675; 2312.000; 2523.000
468.982;   83.050; 1503.000; 1555.000
469.101;  230.300; 2788.000; 2692.000
469.220;  159.075; 2333.000; 2176.000
469.338;  263.175; 2935.000; 3051.000
469.457;  182.525; 2719.000; 2545.000
469.576;  372.450; 3953.000; 3784.000
469.695;  244.400; 2877.000; 3066.000
469.813;  434.350; 4148.000; 4192.000
469.932;  416.775; 4255.000; 4485.000
470.051;  431.850; 4075.000; 4161.000
470.169;  805.150; 4470.000; 4338.000
470.288; 1350.950; 4700.000; 4809.000
470.406;  795.475; 5059.000; 5194.000
470.525;  623.950; 6101.000; 5787.000
470.644;  655.200; 6847.000; 6794.000
470.762;  810.150; 8397.000; 7873.000
470.881;  904.825; 8651.000; 8464.000
470.999; 1020.700; 9685.000; 9151.000
471.118; 1097.650;11174.000;10711.000

