
Integration time [ms]: 200.000
Averaging Nr. [scans]: 10
Smoothing Nr. [pixels]: 0
Data measured with spectrometer [name]: 2101012U2
Wave   ;Sample   ;Dark     ;Reference
[nm]   ;[counts] ;[counts] ;[counts] 

197.733;  144.600;  516.000;  404.000
197.879; -172.800; -610.000; -634.000
198.025; -104.200; -475.000; -420.000
198.171; -198.000; -602.000; -612.000
198.317;  -66.900; -401.000; -316.000
198.463; -123.900; -655.000; -404.000
198.609;   84.400;  181.000; -137.000
198.755; -173.200; -644.000; -410.000
198.901; -139.300; -505.000; -424.000
199.047; -159.700; -615.000; -488.000
199.193;  -88.100; -230.000; -468.000
199.339;  -88.200; -222.000; -369.000
199.485;   85.800;  330.000;  271.000
199.631;   36.000;  227.000;  310.000
199.777; -108.300; -466.000; -398.000
199.923; -144.900; -610.000; -424.000
200.069;   14.400; -141.000;  -58.000
200.215;   88.300;  128.000;  453.000
200.361;  116.900;  243.000;  477.000
200.507; -151.100; -600.000; -373.000
200.653;  -93.600; -371.000; -194.000
200.798;  -59.000; -215.000; -125.000
200.944;  -14.500; -146.000;  -41.000
201.090;   81.300;   61.000;  222.000
201.236;   -8.900; -116.000; -158.000
201.382;  266.500;  874.000;  903.000
201.528;   45.900;  -58.000;  -48.000
201.674;  -73.400; -386.000; -293.000
201.819; -163.000; -540.000; -439.000
201.965; -153.800; -699.000; -447.000
202.111;  -51.400; -273.000; -226.000
202.257;  -70.800; -250.000; -238.000
202.402;   16.100;   13.000;  -36.000
202.548;  -75.800; -169.000; -116.000
202.694;  185.500;  410.000; -183.000
202.840; -149.400; -603.000; -531.000
202.985; -148.300; -681.000; -639.000
203.131; -244.200; -832.000; -666.000
203.277;  -40.600; -199.000; -262.000
203.423; -109.300; -434.000; -520.000
203.568;  -96.200; -462.000; -237.000
203.714; -122.400; -535.000; -542.000
203.860; -149.500; -682.000; -641.000
204.005;   31.200;  112.000;  167.000
204.151;  162.200;  561.000;  556.000
204.296;  -87.600; -354.000; -221.000
204.442; -168.900; -600.000; -547.000
204.588; -136.300; -592.000; -579.000
204.733;   30.600;  178.000;  168.000
204.879; -264.800;-1018.000; -822.000
205.025;   12.300;  -99.000;  126.000
205.170;    9.000;  -17.000;   94.000
205.316;  167.600;  438.000;  661.000
205.461; -148.300; -698.000; -554.000
205.607;  182.900;  609.000;  665.000
205.752; -174.900; -626.000; -551.000
205.898; -106.300; -501.000; -391.000
206.043; -129.200; -578.000; -506.000
206.189;  -71.300; -243.000; -285.000
206.334;  160.600;  554.000;  606.000
206.480;  196.800;  409.000;  239.000
206.625; -171.500; -529.000; -552.000
206.771; -108.200; -451.000; -373.000
206.916;  -90.700; -210.000; -537.000
207.062; -148.200; -545.000; -591.000
207.207; -127.100; -546.000; -443.000
207.353;   97.200;  185.000;  460.000
207.498;   25.000;  196.000;   85.000
207.643;  -81.500; -501.000; -370.000
207.789; -281.000;-1069.000; -910.000
207.934; -195.000; -665.000; -713.000
208.080;  -76.000; -154.000;   66.000
208.225;  -26.200;  -22.000;  -57.000
208.370; -172.900; -727.000; -619.000
208.516; -161.200; -741.000; -487.000
208.661;  -59.300; -127.000;  -69.000
208.806;  -11.100; -165.000; -171.000
208.952; -251.200;-1044.000; -731.000
209.097;  198.200;  378.000;  349.000
209.242;  -98.800; -307.000; -382.000
209.387;  108.600;  392.000;  350.000
209.533; -106.000; -321.000; -350.000
209.678;  154.400;  472.000;  543.000
209.823; -124.300; -408.000; -310.000
209.969; -198.800; -860.000; -757.000
210.114; -239.800; -907.000; -719.000
210.259; -259.500; -939.000; -889.000
210.404;  -12.200; -171.000;  103.000
210.549;   49.100;  108.000;    3.000
210.695;   -5.700;   -3.000;  -95.000
210.840;   87.600;   94.000;   67.000
210.985; -119.100; -484.000; -303.000
211.130;  156.400;  268.000;  406.000
211.275;   61.200;  207.000;  199.000
211.420; -105.800; -300.000; -289.000
211.566; -149.200; -536.000; -489.000
211.711;   55.200;  218.000;  157.000
211.856; -138.400; -545.000; -519.000
212.001;   19.000;  151.000;   44.000
212.146;    1.100;  153.000;   49.000
212.291;  -43.900; -210.000; -186.000
212.436;  -39.800; -280.000;   -6.000
212.581; -171.600; -685.000; -653.000
212.726; -180.300; -487.000; -538.000
212.871; -117.600; -552.000; -217.000
213.016; -334.200;-1172.000;-1029.000
213.161;  150.600;  406.000;  291.000
213.306; -157.300; -435.000; -577.000
213.451; -181.000; -778.000; -689.000
213.596; -117.300; -455.000; -347.000
213.741;  -87.300; -448.000; -538.000
213.886; -151.300; -498.000; -517.000
214.031;  -47.600; -294.000; -124.000
214.176; -109.300; -408.000; -341.000
214.321;  -19.900; -296.000; -157.000
214.466;  -42.300; -163.000;  -43.000
214.611;    8.500;  -61.000;  -10.000
214.756; -247.900; -948.000; -858.000
214.901;  -60.600; -388.000; -226.000
215.046; -249.700; -797.000; -825.000
215.191;   25.200;  128.000;   35.000
215.336;  -33.200; -157.000;  -19.000
215.480; -110.300; -684.000; -505.000
215.625;  -39.900; -175.000;  -19.000
215.770; -185.300; -757.000; -662.000
215.915;  -20.700;   -5.000;  -97.000
216.060;   20.000; -113.000;  -21.000
216.205; -249.100; -731.000; -779.000
216.349; -144.100; -470.000; -533.000
216.494; -254.200; -939.000; -867.000
216.639; -245.600; -823.000; -888.000
216.784; -174.000; -577.000; -525.000
216.929;  134.400;  392.000;  281.000
217.073;  -46.000; -244.000;  -31.000
217.218;   34.500;   78.000;  -47.000
217.363; -195.300; -656.000; -618.000
217.507; -167.600; -623.000; -588.000
217.652; -263.200; -845.000; -874.000
217.797; -199.400; -708.000; -659.000
217.942; -246.700; -856.000; -720.000
218.086;  146.900;  608.000;  539.000
218.231;  -56.300; -174.000;  -26.000
218.376;  -65.900; -337.000; -229.000
218.520;   25.100;  -41.000;   96.000
218.665;  -48.000; -338.000; -204.000
218.810;  -83.600; -275.000; -233.000
218.954;   60.700;  201.000;   35.000
219.099; -235.700; -713.000; -963.000
219.243; -132.500; -589.000; -554.000
219.388;  -79.700; -264.000; -136.000
219.532;  -43.200; -116.000; -116.000
219.677; -176.300; -564.000; -521.000
219.822;   31.100;   33.000;   89.000
219.966;   17.400;   17.000;  -99.000
220.111;  -68.000; -328.000;  -40.000
220.255; -203.100; -797.000; -750.000
220.400;   -9.500; -180.000; -146.000
220.544; -155.600; -516.000; -450.000
220.689; -102.000; -422.000; -451.000
220.833;  -32.600; -123.000;  -58.000
220.978;  -82.300; -393.000; -563.000
221.122;   60.000;  319.000;  307.000
221.267; -225.100; -906.000; -837.000
221.411; -121.800; -478.000; -394.000
221.555;    0.000; -104.000;  -23.000
221.700; -112.500; -329.000; -222.000
221.844;   43.500;  255.000;  272.000
221.989; -105.800; -328.000; -311.000
222.133;  -69.000; -289.000; -307.000
222.277;  -24.200;    5.000;   78.000
222.422;   53.900;  227.000;  113.000
222.566;  -55.900; -381.000; -214.000
222.711; -117.100; -414.000; -479.000
222.855; -158.100; -643.000; -586.000
222.999; -182.600; -642.000; -717.000
223.144;  -50.300; -195.000; -194.000
223.288;  100.700;  423.000;  251.000
223.432;   37.900;  184.000;  230.000
223.576;   43.300;  152.000;  -21.000
223.721;  116.500;  364.000;  273.000
223.865;  -86.900; -472.000; -475.000
224.009;  534.000; 1673.000; 1631.000
224.153; -182.100; -660.000; -671.000
224.298; -162.500; -531.000; -489.000
224.442;    4.700;  -74.000;  -33.000
224.586;  -17.800; -169.000; -106.000
224.730; -215.200; -858.000; -670.000
224.875; -229.300; -739.000; -688.000
225.019;   53.100;  102.000;  188.000
225.163;  105.700;  208.000;  341.000
225.307;   39.500;   97.000;  -91.000
225.451;   83.000;  360.000;  481.000
225.595;   88.500;  264.000;  176.000
225.739;  -30.200; -170.000;  -94.000
225.884;   18.900;   86.000;    5.000
226.028; -187.900; -760.000; -626.000
226.172;  -66.100; -260.000; -273.000
226.316; -240.900; -941.000; -902.000
226.460; -144.400; -645.000; -493.000
226.604; -107.000; -406.000; -400.000
226.748; -207.400; -836.000; -733.000
226.892;  -49.900; -227.000; -181.000
227.036;  -95.200; -537.000; -447.000
227.180; -118.400; -551.000; -375.000
227.324; -132.200; -561.000; -580.000
227.468; -249.900; -819.000; -717.000
227.612;   17.900;  242.000;  -28.000
227.756; -194.600; -845.000; -698.000
227.900;  170.100;  342.000;  441.000
228.044; -117.900; -509.000; -290.000
228.188;  155.500;  448.000;  568.000
228.332; -176.800; -546.000; -472.000
228.476;  -46.000; -223.000; -149.000
228.620;  -65.800; -210.000; -150.000
228.764;  144.600;  431.000;  349.000
228.908;  -53.000; -155.000;   30.000
229.052; -105.500; -615.000; -528.000
229.195;    0.300; -172.000;   13.000
229.339;  -56.500; -235.000; -305.000
229.483;  -54.500;    5.000; -162.000
229.627;  -41.700; -156.000;  139.000
229.771;  -86.200; -218.000; -294.000
229.915;   55.300;  230.000;   79.000
230.059; -167.200; -648.000; -663.000
230.202; -106.800; -370.000; -317.000
230.346;  -56.500; -107.000;  107.000
230.490; -113.500; -489.000; -521.000
230.634; -224.000; -736.000; -553.000
230.777;  151.700;  478.000;  509.000
230.921; -132.500; -450.000; -359.000
231.065;  -68.800; -246.000; -286.000
231.209;   42.700;  261.000;  265.000
231.352;   28.300;   54.000;   40.000
231.496;   48.200;  568.000;  188.000
231.640; -167.500; -693.000; -621.000
231.783;  148.200;  546.000;  525.000
231.927;  -59.800; -294.000; -365.000
232.071; -277.500; -962.000; -736.000
232.214; -223.300; -980.000; -764.000
232.358; -213.200; -683.000; -599.000
232.502;   -2.100;  -19.000;    7.000
232.645; -280.900;-1090.000; -927.000
232.789;  -33.200; -257.000; -218.000
232.933;  -99.200; -407.000; -224.000
233.076; -239.800;-1038.000; -897.000
233.220; -221.400; -752.000; -777.000
233.363; -144.600; -669.000; -477.000
233.507;  145.700;  371.000;  129.000
233.650; -197.700; -764.000; -834.000
233.794;   69.900;  438.000;  461.000
233.938; -134.600; -530.000; -362.000
234.081;   -6.700;  -93.000;   31.000
234.225; -140.000; -631.000; -539.000
234.368; -215.100; -773.000; -723.000
234.512;  -64.000; -385.000; -299.000
234.655; -191.500; -582.000; -555.000
234.798; -141.200; -493.000; -466.000
234.942; -271.600; -884.000;-1002.000
235.085; -144.200; -651.000; -443.000
235.229; -139.100; -405.000; -410.000
235.372;  -80.700; -247.000; -191.000
235.516;  -99.500; -397.000; -321.000
235.659;   44.000;   92.000;  121.000
235.802;  -19.500;  -38.000;  -22.000
235.946;   80.600;  335.000;  215.000
236.089;   73.400;  126.000;  250.000
236.233;  118.500;  275.000;  298.000
236.376;  -98.300; -235.000; -378.000
236.519;  -67.400; -297.000; -319.000
236.663;  -37.000; -215.000; -117.000
236.806; -265.700;-1029.000; -999.000
236.949;  125.600;  543.000;  431.000
237.092;  121.700;  412.000;  391.000
237.236; -125.100; -589.000; -502.000
237.379;  175.900;  352.000;  428.000
237.522; -243.200; -879.000; -768.000
237.666;  -31.500; -271.000;   18.000
237.809; -258.000; -851.000; -823.000
237.952;  125.100;  469.000;  271.000
238.095; -105.300; -447.000; -442.000
238.238;  195.300;  688.000;  700.000
238.382;   46.400;  166.000;  103.000
238.525; -138.700; -598.000; -511.000
238.668; -310.200;-1060.000; -985.000
238.811; -166.900; -638.000; -643.000
238.954; -119.700; -483.000; -334.000
239.097;  188.500;  617.000;  664.000
239.241;   61.100;  394.000;  326.000
239.384;  -30.000; -254.000; -214.000
239.527; -111.800; -424.000; -224.000
239.670; -308.000; -994.000;-1091.000
239.813; -218.200; -696.000; -658.000
239.956;  123.000;  579.000;  473.000
240.099; -228.500; -778.000; -725.000
240.242;  130.500;  428.000;  432.000
240.385;  122.100;  466.000;  450.000
240.528; -140.300; -706.000; -473.000
240.671;   37.400;  189.000;  134.000
240.814;  -65.800; -441.000; -158.000
240.957; -198.800; -767.000; -578.000
241.100; -163.100; -779.000; -755.000
241.243; -289.500;-1234.000; -893.000
241.386; -112.700; -508.000; -379.000
241.529; -199.000; -735.000; -547.000
241.672; -100.200; -566.000; -495.000
241.815; -212.800; -832.000; -808.000
241.958;  -24.300; -125.000; -182.000
242.101; -150.900; -545.000; -390.000
242.244;  -98.700; -270.000; -325.000
242.387;  -65.700; -304.000; -246.000
242.530;   88.500;  470.000;  134.000
242.673;  -63.200; -381.000; -309.000
242.815; -255.900; -925.000; -899.000
242.958; -154.500; -482.000; -381.000
243.101;   45.400;  132.000;  187.000
243.244; -146.600; -564.000; -521.000
243.387; -110.300; -313.000; -316.000
243.530; -178.200; -657.000; -674.000
243.672;    5.200;   43.000;  -92.000
243.815; -103.200; -355.000; -283.000
243.958;   -8.100;   98.000;  -26.000
244.101;   27.200;   59.000;  -16.000
244.243;  -21.700;  -47.000;  101.000
244.386; -235.600; -761.000; -630.000
244.529;  -41.300; -132.000; -139.000
244.672; -335.000;-1154.000; -951.000
244.814; -217.500; -621.000; -794.000
244.957; -109.600; -380.000; -304.000
245.100; -166.700; -489.000; -489.000
245.242; -113.600; -387.000; -374.000
245.385;   15.700;  -59.000;  -39.000
245.528; -231.900; -871.000; -705.000
245.670;  217.200;  612.000;  634.000
245.813; -193.600; -599.000; -547.000
245.956;  -54.600; -324.000; -275.000
246.098; -155.700; -508.000; -650.000
246.241;  -10.800;  194.000;   48.000
246.383;  -34.200; -119.000;  -73.000
246.526; -134.600; -454.000; -525.000
246.669; -240.100; -889.000; -780.000
246.811;   47.000;  172.000;   -1.000
246.954; -139.000; -512.000; -426.000
247.096;   -3.900;  -84.000;   -6.000
247.239; -154.900; -482.000; -445.000
247.381; -120.500; -647.000; -488.000
247.524;  174.200;  645.000;  679.000
247.666;  -12.100;   58.000;   11.000
247.809; -246.000; -887.000; -691.000
247.951;  -19.700;  -75.000;  138.000
248.094;   66.400;  432.000;  308.000
248.236; -334.700;-1262.000;-1238.000
248.378;   -2.200; -356.000;  -81.000
248.521;  -38.500; -334.000; -337.000
248.663;  -95.100; -236.000; -267.000
248.806;  -43.800; -300.000; -266.000
248.948; -180.600; -886.000; -763.000
249.090; -111.100; -428.000; -398.000
249.233;  -65.200; -344.000; -381.000
249.375; -112.400; -474.000; -451.000
249.518;  -22.100;  -83.000; -133.000
249.660;    7.100; -103.000;    3.000
249.802; -323.800;-1303.000;-1189.000
249.945; -112.600; -612.000; -540.000
250.087; -237.900; -834.000; -768.000
250.229;  -96.600; -362.000; -480.000
250.371; -155.800; -494.000; -439.000
250.514; -101.500; -310.000; -244.000
250.656;    8.600;   69.000;  102.000
250.798; -217.000; -849.000; -800.000
250.940;  -99.400; -322.000; -322.000
251.083;  -59.100; -335.000; -111.000
251.225;  122.400;  338.000;  310.000
251.367;  -61.300; -274.000; -373.000
251.509;  -72.800; -265.000; -210.000
251.651; -204.900; -731.000; -671.000
251.794;  119.100;  538.000;  632.000
251.936; -203.200; -821.000; -747.000
252.078; -148.400; -540.000; -461.000
252.220; -119.800; -645.000; -477.000
252.362;  158.300;  344.000;  462.000
252.504; -108.000; -677.000; -584.000
252.646; -248.100; -875.000; -722.000
252.788;   -6.900;   14.000; -128.000
252.931;  -80.300; -257.000; -253.000
253.073;  -84.500; -376.000; -317.000
253.215;    0.700;  141.000;  122.000
253.357;  -46.000;   82.000; -153.000
253.499; -108.300; -374.000; -234.000
253.641; -176.400; -749.000; -594.000
253.783; -185.500; -609.000; -527.000
253.925; -170.600; -586.000; -591.000
254.067; -213.800; -744.000; -667.000
254.209;  -45.300; -391.000; -259.000
254.351; -291.700; -865.000; -883.000
254.493; -129.300; -441.000; -417.000
254.635; -218.000; -936.000; -818.000
254.777; -173.100; -752.000; -687.000
254.918; -168.100; -512.000; -430.000
255.060; -135.800; -551.000; -395.000
255.202; -108.800; -473.000; -261.000
255.344; -150.100; -658.000; -455.000
255.486; -147.600; -471.000; -406.000
255.628; -220.600; -780.000; -781.000
255.770; -178.400; -676.000; -536.000
255.912; -136.800; -559.000; -468.000
256.053; -175.400; -730.000; -508.000
256.195;  333.800; 1008.000;  903.000
256.337; -205.100; -861.000; -595.000
256.479;  128.100;  532.000;  416.000
256.621; -107.100; -394.000; -212.000
256.762; -210.300; -789.000; -742.000
256.904;  111.200;  485.000;  487.000
257.046; -102.300; -381.000; -271.000
257.188;  -82.700; -351.000; -264.000
257.329; -128.200; -525.000; -464.000
257.471; -250.000; -939.000; -807.000
257.613; -115.900; -584.000; -498.000
257.755; -324.400;-1073.000; -982.000
257.896;   79.800;  286.000;  392.000
258.038; -134.500; -403.000; -352.000
258.180;  -66.000; -354.000; -279.000
258.321; -192.400; -581.000; -457.000
258.463;   -0.400;  -71.000;  133.000
258.605; -177.700; -562.000; -570.000
258.746; -213.600; -886.000; -772.000
258.888; -293.600;-1026.000;-1020.000
259.029;   51.200;  121.000;   -8.000
259.171; -158.500; -614.000; -550.000
259.313;   32.600;  -49.000;  -47.000
259.454; -141.000; -536.000; -414.000
259.596;  -98.100; -483.000; -390.000
259.737; -127.800; -590.000; -474.000
259.879;   83.200;  217.000;  311.000
260.020;  214.600;  901.000;  636.000
260.162;  -20.000; -146.000; -253.000
260.303; -233.300; -768.000; -687.000
260.445; -158.800; -609.000; -613.000
260.586;   85.000;  392.000;  157.000
260.728;  -68.000; -360.000; -248.000
260.869; -153.700; -350.000; -343.000
261.011;  209.800;  706.000;  537.000
261.152; -109.100; -479.000; -319.000
261.293; -145.200; -576.000; -595.000
261.435;  -61.100; -219.000; -184.000
261.576;  -96.300; -455.000; -325.000
261.718;  127.600;  420.000;  470.000
261.859; -241.800; -940.000; -949.000
262.000; -232.700; -951.000;-1016.000
262.142;  -17.500;  -52.000;  -60.000
262.283; -218.800; -808.000; -691.000
262.424; -164.000; -666.000; -625.000
262.566; -306.300;-1161.000; -983.000
262.707; -223.600; -840.000; -830.000
262.848; -238.500; -769.000; -726.000
262.990;  -81.000; -362.000; -345.000
263.131;  187.400;  650.000;  681.000
263.272;  -22.400;  -61.000;  -41.000
263.413; -177.800; -589.000; -561.000
263.555; -171.400; -669.000; -143.000
263.696; -178.900; -550.000; -641.000
263.837;  -94.300; -449.000; -551.000
263.978;   -1.000;   -5.000;  -77.000
264.119;  -87.800; -283.000; -264.000
264.261; -227.200; -847.000; -630.000
264.402;   35.100;   33.000;   40.000
264.543; -136.800; -509.000; -524.000
264.684;   -3.800;   61.000;  -50.000
264.825; -127.100; -816.000; -538.000
264.966;   19.100;  -84.000;  -67.000
265.107; -214.300; -646.000; -670.000
265.248; -230.300; -825.000; -812.000
265.390;  -13.900;  152.000;   -9.000
265.531;  -17.100; -238.000; -107.000
265.672; -176.900; -557.000; -630.000
265.813;  139.600;  563.000;  439.000
265.954; -308.400; -959.000; -940.000
266.095;  -30.900; -372.000; -322.000
266.236; -180.300; -686.000; -548.000
266.377;  -57.500; -243.000; -297.000
266.518; -134.300; -619.000; -547.000
266.659;   83.400;  170.000;  268.000
266.800;    6.400;   83.000;   85.000
266.941; -133.700; -487.000; -478.000
267.082;   38.700;  354.000;   99.000
267.223; -106.900; -344.000; -273.000
267.364; -211.200; -892.000; -686.000
267.504;   -9.900;    3.000;  135.000
267.645;   18.900;  160.000;   67.000
267.786;  -20.000; -147.000;  -86.000
267.927; -135.300; -473.000; -379.000
268.068;   -1.700; -186.000;  -61.000
268.209;  -79.200; -175.000; -413.000
268.350; -122.200; -388.000; -532.000
268.490; -140.500; -648.000; -521.000
268.631;  117.600;  127.000;  225.000
268.772; -212.100; -874.000; -647.000
268.913;  -91.500; -328.000; -476.000
269.054;  -29.000; -117.000;   12.000
269.194;  -80.000; -418.000; -402.000
269.335; -287.200;-1137.000;-1074.000
269.476;   12.700;   33.000;  -35.000
269.617;  -91.900; -347.000; -392.000
269.757; -174.500; -713.000; -646.000
269.898; -213.000; -856.000; -613.000
270.039;  -94.600; -415.000; -405.000
270.180; -270.600; -952.000; -816.000
270.320;  -31.700; -190.000; -250.000
270.461;  -85.800; -277.000; -249.000
270.602;   -6.000; -186.000; -156.000
270.742; -241.900; -868.000; -943.000
270.883; -123.800; -442.000; -390.000
271.023;  -99.500; -358.000; -357.000
271.164; -118.400; -607.000; -528.000
271.305; -221.300; -666.000; -654.000
271.445; -171.500; -722.000; -683.000
271.586; -131.300; -462.000; -283.000
271.726;  -85.200; -397.000; -322.000
271.867; -122.200; -594.000; -534.000
272.008;  274.800; -473.000; -285.000
272.148;  234.500;  462.000;  468.000
272.289;   48.300; -113.000; -181.000
272.429;   37.800;   19.000;  185.000
272.570; -219.900; -633.000; -737.000
272.710; -200.200; -825.000; -775.000
272.851;  -27.300;  113.000; -130.000
272.991; -353.800;-1173.000;-1077.000
273.131;  -99.700; -419.000; -459.000
273.272; -186.400; -683.000; -723.000
273.412;   24.500; -143.000;  -31.000
273.553; -116.100; -488.000; -507.000
273.693;  278.400;  913.000;  858.000
273.834; -189.100; -894.000; -692.000
273.974; -155.200; -664.000; -615.000
274.114; -189.400; -772.000; -560.000
274.255;  150.300;  414.000;  373.000
274.395;    2.600; -180.000; -125.000
274.535;   95.400;  199.000;  350.000
274.676;   78.600;  225.000;   94.000
274.816;   32.900;  110.000;   34.000
274.956; -195.800; -624.000; -690.000
275.097; -137.300;-1014.000; -922.000
275.237; -216.400; -913.000; -803.000
275.377; -179.700; -778.000; -689.000
275.517; -294.100; -878.000; -937.000
275.658; -133.200; -590.000; -555.000
275.798; -112.000; -606.000; -413.000
275.938;   84.100;  215.000;  323.000
276.078; -162.600; -626.000; -395.000
276.218;    2.100;   99.000;  104.000
276.359; -249.600;-1026.000;-1024.000
276.499; -129.900; -605.000; -446.000
276.639;  -40.900; -305.000; -151.000
276.779;  -93.000; -475.000; -357.000
276.919; -222.500; -783.000; -624.000
277.059;  -46.100; -261.000; -212.000
277.199;  -60.100; -357.000; -259.000
277.340;  110.000;  287.000;  175.000
277.480; -212.300; -840.000; -693.000
277.620;   98.600;  192.000;   16.000
277.760; -388.400;-1533.000;-1294.000
277.900;   17.900;  113.000;   33.000
278.040;   51.700;  137.000;  159.000
278.180;   83.500;  270.000;  170.000
278.320;    4.600;   21.000;   56.000
278.460; -116.500; -443.000; -469.000
278.600; -156.300; -708.000; -598.000
278.740;  119.800;  448.000;  224.000
278.880; -161.800; -768.000; -791.000
279.020;   40.400; -194.000; -144.000
279.160; -169.100; -672.000; -595.000
279.300; -241.500; -926.000; -873.000
279.440; -149.800; -709.000; -622.000
279.579;  -63.700;-1014.000; -929.000
279.719;  -93.900; -410.000; -394.000
279.859;   98.800;   -4.000;   41.000
279.999;   35.100; -208.000;  101.000
280.139;  -30.400; -435.000; -387.000
280.279; -132.800; -708.000; -745.000
280.419;  -15.700; -229.000; -147.000
280.559;  -57.300; -259.000; -180.000
280.698; -152.900; -790.000; -639.000
280.838; -199.300; -778.000; -800.000
280.978; -206.400; -846.000; -790.000
281.118; -197.600; -811.000; -704.000
281.257;   53.100;   24.000;    6.000
281.397; -234.200;-1094.000; -960.000
281.537; -166.400; -599.000; -712.000
281.677;  -45.100; -150.000; -101.000
281.816; -166.600; -700.000; -630.000
281.956;  -45.600; -193.000; -257.000
282.096; -100.300; -539.000; -396.000
282.235; -217.000; -672.000; -638.000
282.375;    6.700; -243.000;  -98.000
282.515; -206.900; -715.000; -707.000
282.654;   51.600;   29.000;  106.000
282.794;   79.100;  388.000;  244.000
282.934;  -96.800; -530.000; -491.000
283.073; -243.500;-1030.000; -857.000
283.213;  -83.500; -460.000; -467.000
283.353;  -77.100; -408.000; -349.000
283.492;  -66.400; -264.000; -296.000
283.632;  -75.600; -254.000; -168.000
283.771; -197.100; -859.000; -730.000
283.911; -113.500; -369.000; -260.000
284.050; -204.300; -794.000; -748.000
284.190; -310.600;-1229.000;-1096.000
284.329; -279.800;-1055.000; -964.000
284.469; -133.900; -516.000; -591.000
284.608; -122.000; -559.000; -598.000
284.748; -157.100; -614.000; -570.000
284.887;   34.400;  -87.000;  -20.000
285.027; -239.300; -844.000; -892.000
285.166;  -22.600; -192.000; -249.000
285.306;    6.500; -116.000;  -33.000
285.445;  -99.500; -229.000; -343.000
285.584; -169.300; -630.000; -494.000
285.724;  -67.200; -282.000; -322.000
285.863; -220.500; -857.000; -507.000
286.002;  -55.100; -366.000; -276.000
286.142; -195.400; -715.000; -622.000
286.281; -147.800; -525.000; -493.000
286.420; -167.600; -554.000; -417.000
286.560;  221.900;  653.000;  623.000
286.699; -273.400; -958.000; -912.000
286.838; -150.400; -590.000; -591.000
286.978; -161.400; -533.000; -537.000
287.117; -244.300;-1085.000; -950.000
287.256;  -51.000; -228.000; -211.000
287.395;  -82.500; -197.000; -378.000
287.535;  -69.700; -370.000; -298.000
287.674; -131.400; -509.000; -484.000
287.813;  122.400;  661.000;  533.000
287.952; -225.300;-1010.000; -871.000
288.091; -305.800;-1049.000; -915.000
288.231;   37.100;   13.000;   15.000
288.370; -349.800;-1217.000;-1200.000
288.509; -167.400; -728.000; -645.000
288.648; -186.200; -770.000; -548.000
288.787;  -20.700; -243.000;  -87.000
288.926; -149.100; -454.000; -475.000
289.065;  280.200;  859.000;  672.000
289.204; -106.100; -377.000; -217.000
289.344; -189.700; -791.000; -690.000
289.483;   63.600;  416.000;  304.000
289.622;  -50.900; -291.000; -149.000
289.761;    4.700; -309.000; -166.000
289.900; -222.200; -785.000; -626.000
290.039;  -28.600;  -12.000;  -95.000
290.178;  -32.900; -274.000; -180.000
290.317; -156.300; -618.000; -479.000
290.456; -104.100; -463.000; -451.000
290.595; -295.100; -961.000; -833.000
290.734; -276.000; -904.000; -891.000
290.873; -146.000; -456.000; -420.000
291.011; -224.400; -833.000; -843.000
291.150; -177.100; -770.000; -682.000
291.289;  -33.300; -343.000; -110.000
291.428; -182.600; -599.000; -480.000
291.567;  -96.600; -370.000; -442.000
291.706;   41.200;  109.000;  154.000
291.845; -164.700; -597.000; -505.000
291.984; -326.400;-1234.000;-1061.000
292.122;  167.800;  602.000;  582.000
292.261;   98.500;  620.000;  463.000
292.400;   37.600; -144.000;  211.000
292.539; -238.300; -959.000; -813.000
292.678;  -66.400; -325.000; -300.000
292.816; -312.900;-1136.000; -965.000
292.955; -186.600; -844.000; -684.000
293.094;   28.200; -173.000; -337.000
293.233;  -86.600; -556.000; -400.000
293.371;  -49.200; -225.000;  -84.000
293.510; -215.300; -866.000; -780.000
293.649; -259.300; -959.000; -924.000
293.787; -150.500;-1083.000;-1012.000
293.926;   -5.400; -113.000;  -32.000
294.065;  -51.300; -379.000; -290.000
294.203;  101.000;  298.000;  406.000
294.342;   71.500;   74.000;  156.000
294.481;13734.900;51180.000; -836.000
294.619;  -20.100; -425.000; -582.000
294.758; -301.600;-1230.000;-1137.000
294.896;  119.500; -125.000;    5.000
295.035; -248.300;-1040.000;-1006.000
295.174; -213.800;-1082.000; -954.000
295.312;  -72.100; -323.000; -203.000
295.451;  -39.800; -307.000; -428.000
295.589; -101.800; -389.000; -518.000
295.728;   60.500; -292.000; -165.000
295.866;   14.600;  -36.000;  -51.000
296.005; -115.100; -584.000; -341.000
296.143; -146.900; -558.000; -596.000
296.282; -209.100; -957.000; -881.000
296.420; -169.900; -657.000; -557.000
296.559; -179.700; -892.000; -633.000
296.697;   -0.400; -847.000; -665.000
296.835;   32.300;-1141.000;-1002.000
296.974;  124.200;  -23.000;   39.000
297.112;   23.600; -443.000; -504.000
297.251; -158.800; -815.000; -755.000
297.389;  144.500; -576.000; -438.000
297.527;   88.100; -145.000;  -83.000
297.666;  -87.300; -486.000; -438.000
297.804;  -75.200; -404.000; -264.000
297.942;   -8.000; -136.000; -161.000
298.081;    1.300; -183.000;   63.000
298.219;  111.000;  -17.000;  -19.000
298.357;   67.300; -144.000;  -71.000
298.495;   17.500; -810.000; -812.000
298.634;  130.500;  245.000;  219.000
298.772;   84.600; -220.000; -338.000
298.910;  -57.700; -309.000; -182.000
299.048;   -3.500; -130.000; -153.000
299.187;  -51.900; -350.000; -250.000
299.325;   66.900;   52.000;  122.000
299.463;   64.300; -389.000; -299.000
299.601;  186.400; -327.000; -271.000
299.739; -217.200; -908.000; -883.000
299.877; -159.600; -791.000; -703.000
300.016; -138.000;-1095.000; -935.000
300.154;  266.400;  -19.000; -161.000
300.292;   57.400; -428.000; -348.000
300.430;   51.900; -408.000; -291.000
300.568; -224.200; -940.000; -874.000
300.706; -100.900; -366.000; -469.000
300.844; -201.600;-1108.000; -979.000
300.982;  221.300;  246.000;  282.000
301.120; -237.300; -965.000; -866.000
301.258; -132.800; -812.000; -705.000
301.396;   64.400;  104.000;  -41.000
301.534;   94.400; -218.000; -293.000
301.672;  -19.000; -664.000; -521.000
301.810;   16.700; -613.000; -545.000
301.948;  240.500;   53.000;  149.000
302.086;  924.800; -250.000;  -32.000
302.224; 1493.200; -610.000; -585.000
302.362;   16.800; -558.000; -622.000
302.500;  -95.700; -923.000; -893.000
302.638;  204.100;  128.000;  245.000
302.776;   19.400; -352.000; -408.000
302.913;  103.100;  447.000;  236.000
303.051;  -17.900;  -86.000;  -23.000
303.189;   90.800;   90.000;  118.000
303.327;  -33.100; -341.000; -256.000
303.465; -153.300; -832.000; -588.000
303.603; -161.700; -805.000; -604.000
303.740;  208.100;  417.000;  241.000
303.878;   -6.800; -800.000; -759.000
304.016; -180.100; -915.000; -790.000
304.154; -265.300;-1123.000;-1152.000
304.291;  -55.200; -505.000; -554.000
304.429;   61.200;  102.000;   74.000
304.567; -266.300; -908.000; -893.000
304.705; -137.100; -408.000; -515.000
304.842;  163.700; -616.000; -540.000
304.980;  144.000;  215.000;   35.000
305.118;   80.200; -367.000; -365.000
305.255; -168.000; -945.000; -927.000
305.393;  132.100;  178.000;  239.000
305.531; -212.800;-1173.000; -956.000
305.668; -117.300; -663.000; -582.000
305.806;  157.900; -358.000; -439.000
305.943;  118.000; -629.000; -637.000
306.081;   87.100; -378.000; -267.000
306.219; -169.000; -863.000; -748.000
306.356;   24.100;  158.000;   27.000
306.494;  248.200;  981.000;  761.000
306.631;   26.800;  -11.000;  -55.000
306.769;  -12.400; -613.000; -485.000
306.906;  -16.600; -284.000; -258.000
307.044;  -89.000; -473.000; -488.000
307.181;  -79.700; -410.000; -332.000
307.319;  137.600;  112.000;   87.000
307.456; -337.000;-1191.000;-1153.000
307.594; -203.200; -980.000; -727.000
307.731;    0.600; -371.000; -164.000
307.868;  -11.900;  -15.000;   20.000
308.006; -259.800; -961.000; -847.000
308.143; -127.900; -618.000; -330.000
308.281;  367.000;  -37.000; -254.000
308.418;    0.500; -748.000; -640.000
308.555; -129.700; -400.000; -250.000
308.693; -104.100; -577.000; -573.000
308.830; -173.500; -712.000; -657.000
308.967;    4.800; -215.000;  -95.000
309.105;  -40.500; -507.000; -396.000
309.242;  113.300; -468.000; -367.000
309.379;  684.400; -577.000; -655.000
309.517; -108.300; -936.000; -948.000
309.654; -229.900; -910.000; -734.000
309.791;  -98.100; -662.000; -580.000
309.928; -200.300; -977.000; -914.000
310.065;  367.200;  819.000;  697.000
310.203;  -53.000; -825.000; -850.000
310.340;  -28.400; -465.000; -321.000
310.477; -137.700; -412.000; -516.000
310.614;  -73.100; -383.000; -473.000
310.751; -126.100; -427.000; -518.000
310.889;   -4.300;    1.000;   11.000
311.026; -280.100;-1161.000; -939.000
311.163;  -70.700; -386.000; -380.000
311.300; -124.600; -512.000; -479.000
311.437; -116.500; -658.000; -619.000
311.574; -301.500;-1226.000; -985.000
311.711; -111.100; -595.000; -433.000
311.848;  -52.100; -380.000; -388.000
311.985;   57.700;  270.000;   93.000
312.122; -215.700; -932.000; -762.000
312.259; -236.400; -941.000; -994.000
312.396; -145.700; -508.000; -551.000
312.533; -126.600; -812.000; -790.000
312.670; -238.500;-1070.000; -898.000
312.807;  -51.500; -352.000; -367.000
312.944; -113.100; -513.000; -611.000
313.081;  -53.100; -150.000; -415.000
313.218; -216.800;-1111.000; -867.000
313.355;   13.700; -531.000; -449.000
313.492;    6.600; -455.000; -292.000
313.629;  298.100;  815.000;  735.000
313.766; -285.600;-1176.000;-1008.000
313.902;    2.200; -186.000;   21.000
314.039;  -86.700; -372.000; -289.000
314.176;   84.000;  286.000;  192.000
314.313; -133.400; -569.000; -473.000
314.450; -138.600; -788.000; -684.000
314.587;  -85.500; -468.000; -480.000
314.723;   39.300;  -78.000;  130.000
314.860;   87.500;  318.000;  332.000
314.997;  106.200;  223.000;  142.000
315.134;  -61.300; -385.000; -368.000
315.270;  -62.900; -480.000; -496.000
315.407; -247.100;-1094.000; -967.000
315.544; -107.300; -657.000; -538.000
315.681; -136.400; -681.000; -565.000
315.817;   91.800; -133.000; -176.000
315.954;   30.200; -613.000; -392.000
316.091; -238.000;-1045.000;-1023.000
316.227;  -29.000;  -71.000; -179.000
316.364;   19.600;   23.000;    6.000
316.500;  -58.400; -113.000; -300.000
316.637;  -67.300; -181.000; -302.000
316.774; -121.800; -625.000; -358.000
316.910; -148.400; -598.000; -629.000
317.047; -130.700; -487.000; -351.000
317.183;  -91.600; -435.000; -566.000
317.320;    9.500; -367.000; -321.000
317.456; -131.300; -733.000; -805.000
317.593; -134.000; -598.000; -641.000
317.729;   37.100;  168.000;  -67.000
317.866; -419.800;-1434.000;-1285.000
318.002; -165.900; -708.000; -948.000
318.139; -205.300; -883.000; -867.000
318.275; -196.800;-1003.000; -738.000
318.412; -129.200; -517.000; -336.000
318.548;  -61.600; -751.000; -720.000
318.685; -187.800; -985.000; -888.000
318.821; -172.700; -762.000; -735.000
318.957;  -40.800;   34.000;  -23.000
319.094;  113.200;  297.000;  154.000
319.230; -117.100; -756.000; -742.000
319.367;  172.000; -471.000; -520.000
319.503;   71.500; -538.000; -436.000
319.639; -177.900; -877.000; -793.000
319.775; -119.100; -750.000; -685.000
319.912;  -59.000; -424.000; -519.000
320.048; -169.100;-1184.000;-1184.000
320.184;  192.600;   59.000;   70.000
320.321; -114.200; -497.000; -467.000
320.457;  181.400;  475.000;  662.000
320.593;  -96.100; -375.000; -382.000
320.729; -158.800; -732.000; -734.000
320.866; -146.400; -577.000; -635.000
321.002; -143.700; -759.000; -809.000
321.138;    1.300; -135.000; -211.000
321.274;  135.200; -148.000; -115.000
321.410;  -23.400; -585.000; -353.000
321.546;  -92.500;-1011.000; -911.000
321.683;  138.500;  400.000;  185.000
321.819;   18.700;  -48.000; -117.000
321.955; -208.100; -743.000; -722.000
322.091;  -76.400; -585.000; -540.000
322.227;  -31.100; -382.000; -202.000
322.363;  -14.600; -320.000; -215.000
322.499;  -72.800; -343.000; -331.000
322.635;  363.800;  636.000;  443.000
322.771;   64.800; -139.000;   12.000
322.907;  228.500;  129.000;  327.000
323.043;  -15.700; -115.000; -206.000
323.179;  -48.100; -394.000; -363.000
323.315;   -0.700; -401.000; -371.000
323.451;  144.300; -328.000; -236.000
323.587;   92.000;  -60.000;  -77.000
323.723;  -10.600; -682.000; -601.000
323.859;  -28.100; -258.000;  -76.000
323.995;  -75.600; -467.000; -409.000
324.131; -214.400; -967.000; -892.000
324.267;  -14.600; -254.000; -276.000
324.402; -245.800; -960.000; -983.000
324.538;  -13.800; -279.000; -104.000
324.674;   77.200;  164.000;   77.000
324.810;  251.500;  226.000;  308.000
324.946;   -6.100; -810.000; -658.000
325.082; -114.500; -568.000; -475.000
325.217;   10.900;  -62.000;   16.000
325.353; -192.100; -764.000; -659.000
325.489; -156.300; -540.000; -506.000
325.625; -130.100; -579.000; -525.000
325.760;  168.100;  517.000;  376.000
325.896;  -37.900; -515.000; -702.000
326.032;  -70.400; -403.000; -352.000
326.168;  -95.300; -462.000; -369.000
326.303;  -99.700; -352.000; -461.000
326.439;   12.000; -336.000; -276.000
326.575;   24.600; -190.000;  -29.000
326.710;   10.300; -156.000;  -30.000
326.846;    3.300;  146.000;  103.000
326.982; -168.200; -530.000; -548.000
327.117; -147.100; -481.000; -442.000
327.253; -131.500; -745.000; -742.000
327.388; -265.100;-1137.000;-1153.000
327.524; -108.000; -811.000; -578.000
327.659;  -17.900;  -58.000;  -22.000
327.795;   24.500;   69.000;   45.000
327.931; -158.600; -723.000; -499.000
328.066;  -39.700; -417.000; -276.000
328.202;    9.500;   12.000; -129.000
328.337;  263.400;  957.000;  713.000
328.473;   22.700;  -12.000;  -74.000
328.608;   -0.400; -256.000; -267.000
328.743; -182.700; -799.000; -664.000
328.879;   92.400;  214.000;  114.000
329.014; -105.400; -102.000; -122.000
329.150; -152.600; -358.000; -483.000
329.285; -133.700; -465.000; -466.000
329.421;  -88.000; -548.000; -246.000
329.556;   -2.200;  -36.000;   85.000
329.691; -171.200; -633.000; -615.000
329.827; -126.000; -626.000; -480.000
329.962;  -16.400;  131.000; -301.000
330.097; -136.900; -673.000; -585.000
330.233;  -81.800; -410.000; -223.000
330.368; -223.600; -839.000; -628.000
330.503;  -13.100;    3.000;   98.000
330.638;   15.700;  -93.000; -125.000
330.774; -130.800; -609.000; -530.000
330.909;  -36.700; -434.000; -244.000
331.044; -170.200; -714.000; -708.000
331.179; -353.300;-1217.000;-1109.000
331.315;   62.600;   77.000;   20.000
331.450;   57.300;  157.000;  285.000
331.585; -175.900; -805.000; -706.000
331.720; -170.800; -510.000; -460.000
331.855;   33.900;  -35.000; -102.000
331.990;  521.700;   62.000;  138.000
332.126;  305.500; -110.000;   71.000
332.261;  -17.400; -379.000; -265.000
332.396;    0.400; -135.000; -242.000
332.531; -183.700;-1074.000;-1031.000
332.666;  135.100; -519.000; -363.000
332.801; -190.700; -726.000; -807.000
332.936;   -4.800; -192.000; -122.000
333.071; -291.400; -870.000; -817.000
333.206;  102.400;  307.000;  379.000
333.341;   88.500;  344.000;  418.000
333.476; -165.000; -627.000; -623.000
333.611;  -61.000; -251.000; -173.000
333.746;  -44.400; -381.000; -464.000
333.881; -234.100; -973.000; -935.000
334.016; -240.500; -936.000; -917.000
334.151; -218.600; -746.000; -702.000
334.286;   76.900;  152.000;  186.000
334.421;   12.200; -125.000; -178.000
334.556; -147.600; -611.000; -567.000
334.690; -177.300; -631.000; -577.000
334.825;  139.800;  381.000;   83.000
334.960; -132.700; -285.000; -413.000
335.095;   52.300;  135.000;  -91.000
335.230; -177.600; -722.000; -738.000
335.365; -246.300;-1084.000; -990.000
335.499; -285.100;-1108.000;-1037.000
335.634;   79.900;    9.000;  534.000
335.769; -211.600; -755.000; -720.000
335.904; -117.500; -603.000; -561.000
336.038; -100.800; -735.000; -657.000
336.173; -232.100;-1206.000;-1194.000
336.308;   40.200; -116.000; -189.000
336.443;   49.800; -544.000; -634.000
336.577; -155.700; -936.000; -787.000
336.712;  138.700;   -4.000;  -12.000
336.847;  -94.200; -724.000; -607.000
336.981;   76.300; -272.000; -208.000
337.116;  513.100;  615.000;  501.000
337.250;  255.400; -434.000; -421.000
337.385;  496.200; -297.000; -208.000
337.520;  196.600; -632.000; -603.000
337.654;  -56.500; -215.000; -126.000
337.789; -224.400; -989.000; -933.000
337.923;  -30.400; -104.000; -205.000
338.058; -155.000; -673.000; -738.000
338.192;  -69.500; -611.000; -488.000
338.327;   10.000;  -18.000; -155.000
338.461; -109.100; -299.000; -469.000
338.596; -172.700; -780.000; -638.000
338.730; -177.200; -767.000; -803.000
338.865;  199.800;  -46.000; -140.000
338.999;  -61.800; -846.000; -702.000
339.134;  -24.100; -634.000; -536.000
339.268;   18.200; -741.000; -603.000
339.403;  663.200; -740.000; -775.000
339.537;  221.300; -894.000; -820.000
339.671; -197.900; -829.000; -813.000
339.806;  -62.300; -556.000; -512.000
339.940;   62.400; -261.000; -235.000
340.074; -172.500; -685.000; -510.000
340.209;  -73.800; -351.000; -230.000
340.343; -144.000; -517.000; -573.000
340.477;  350.500;  998.000; 1036.000
340.612; -105.400;-1033.000; -900.000
340.746;  276.800; -199.000; -243.000
340.880; -149.300; -924.000; -785.000
341.014;  -11.500;  -45.000; -154.000
341.149; -210.800; -756.000; -718.000
341.283; -209.000; -839.000; -754.000
341.417; -192.400;-1124.000; -938.000
341.551;  150.200; -768.000; -708.000
341.685;  -56.100; -633.000; -611.000
341.820;  -97.100; -562.000; -493.000
341.954;  -77.200; -218.000; -349.000
342.088; -265.900;-1102.000;-1019.000
342.222;  150.100;  565.000;  618.000
342.356; -104.800; -395.000; -335.000
342.490; -181.100; -880.000; -841.000
342.624;  -39.500; -339.000; -242.000
342.758;   -7.200; -364.000; -312.000
342.892;  -83.900; -710.000; -585.000
343.026;  -47.100;  -58.000; -116.000
343.160; -105.500; -426.000; -376.000
343.294; -136.700; -474.000; -337.000
343.428;  -40.200; -488.000; -448.000
343.562;  -14.700; -172.000;  -23.000
343.696;  -24.200; -385.000; -314.000
343.830;  -53.300; -362.000; -356.000
343.964;   38.500; -231.000; -168.000
344.098; 1359.700;  199.000;   70.000
344.232; 1216.100; -266.000; -127.000
344.366;  170.200; -567.000; -453.000
344.500;   82.000; -665.000; -744.000
344.634;   42.000; -324.000; -164.000
344.768;  -19.300; -531.000; -341.000
344.902;   73.100;  278.000;  256.000
345.035; -101.400; -556.000; -496.000
345.169; -216.900; -933.000; -656.000
345.303;  -28.800; -308.000; -482.000
345.437; -151.500; -826.000; -717.000
345.571; -130.400; -675.000; -594.000
345.704; -112.500; -309.000; -532.000
345.838;    1.400; -331.000; -284.000
345.972;  -60.700; -543.000; -495.000
346.106;  346.300; -179.000; -190.000
346.239;  725.700; -312.000; -243.000
346.373;   17.300; -343.000; -302.000
346.507; -274.900; -950.000; -962.000
346.640;  255.700;  -30.000;   13.000
346.774; -115.600; -650.000; -797.000
346.908;   -2.800; -138.000;  -11.000
347.041; -143.800; -646.000; -593.000
347.175;   58.400;  259.000;   27.000
347.309; -151.000; -698.000; -628.000
347.442; -201.300; -883.000; -732.000
347.576;  528.400;  670.000;  668.000
347.709;  340.500; -123.000;  -52.000
347.843; -192.600; -933.000; -825.000
347.976;  109.800;  235.000;  294.000
348.110; -351.100;-1268.000;-1186.000
348.243; -197.100; -679.000; -772.000
348.377;   19.800;  -26.000;   60.000
348.510;  148.700;  403.000;  540.000
348.644;  -44.600;  -37.000; -159.000
348.777;   55.700;  180.000;  191.000
348.911;  -32.400; -142.000; -112.000
349.044;  326.600;  471.000;  448.000
349.178;  187.200;-1069.000;-1006.000
349.311;  234.600;  141.000;  255.000
349.444;  -11.900; -927.000; -813.000
349.578;  -28.800; -347.000; -200.000
349.711; -174.200; -959.000; -862.000
349.845;  -57.100; -661.000; -591.000
349.978; -300.600;-1224.000;-1137.000
350.111; -122.800; -546.000; -612.000
350.244; -168.100; -596.000; -700.000
350.378;    7.700; -392.000; -393.000
350.511;  -79.700; -393.000; -426.000
350.644; -180.900; -808.000; -806.000
350.778;   62.600;  168.000;  104.000
350.911;   55.600;  134.000;  140.000
351.044; -192.300; -685.000; -615.000
351.177;  -49.500; -321.000; -281.000
351.310;  -15.500;    3.000; -131.000
351.444; -159.800; -888.000; -788.000
351.577;  256.600;  140.000;   90.000
351.710;  234.500;  593.000;  417.000
351.843;  -23.200; -165.000;  -77.000
351.976;   66.200;  149.000;  -79.000
352.109; -154.200; -621.000; -612.000
352.242;  -27.400; -464.000; -419.000
352.376; -120.800; -580.000; -636.000
352.509;  253.800; -437.000; -356.000
352.642;  -29.100; -654.000; -604.000
352.775;  106.000; -141.000;  -98.000
352.908; -241.100; -933.000; -904.000
353.041; -178.800; -814.000; -824.000
353.174;  -77.900; -551.000; -424.000
353.307; -151.700; -753.000; -764.000
353.440;  151.800;  541.000;  453.000
353.573; -204.000; -957.000;-1008.000
353.706;  -97.000; -384.000; -558.000
353.839;   -9.900; -264.000; -220.000
353.971; -168.100; -657.000; -512.000
354.104; -135.700; -896.000; -835.000
354.237;  -88.400; -627.000; -662.000
354.370; -135.300; -846.000; -879.000
354.503; -330.800;-1231.000;-1308.000
354.636;  -32.000; -529.000; -348.000
354.769; -239.500; -937.000; -860.000
354.902;   10.800; -230.000; -139.000
355.034;  -10.600; -164.000; -220.000
355.167;    6.600; -262.000; -162.000
355.300; -207.500;-1061.000; -880.000
355.433; 1912.000;  -71.000;  -14.000
355.565; 2910.600; -402.000; -384.000
355.698;  740.000; -356.000; -296.000
355.831;  -32.200; -882.000; -801.000
355.964;  135.900; -285.000; -170.000
356.096; -181.800; -856.000; -843.000
356.229;  -20.800; -523.000; -530.000
356.362;  648.900; -373.000; -266.000
356.494; 1172.700; -229.000; -162.000
356.627;  844.400;  269.000;  377.000
356.760; 1273.900;  120.000;   53.000
356.892; 1844.400; -286.000; -601.000
357.025; 1061.100;  403.000;  389.000
357.157;  949.800; -167.000; -179.000
357.290; 1333.400; -856.000; -713.000
357.423;  363.000; -667.000; -556.000
357.555;  197.600; -217.000; -228.000
357.688;  175.900; -483.000; -364.000
357.820;  667.000; -870.000; -877.000
357.953; 5949.300; -563.000; -589.000
358.085; 1251.300; -632.000; -612.000
358.218; 1646.600;-1131.000; -932.000
358.350;  335.800;  -58.000;  312.000
358.483; -247.700;-1300.000;-1187.000
358.615; -104.300;-1182.000;-1078.000
358.747; -153.900;-1187.000;-1058.000
358.880;   24.300; -810.000; -744.000
359.012;   14.300; -376.000; -202.000
359.145;  -42.200; -480.000; -511.000
359.277;   75.900; -962.000; -913.000
359.409; 4972.300;  536.000;  231.000
359.542; 1218.700; -738.000; -688.000
359.674;  137.600;   46.000;   13.000
359.806; -104.400; -565.000; -438.000
359.939;  -32.700; -617.000; -516.000
360.071;   10.400; -583.000; -579.000
360.203;  -23.000; -411.000; -364.000
360.335;  110.200;  164.000;  -16.000
360.468;  349.800; -249.000; -307.000
360.600; 4079.800; -547.000; -454.000
360.732; 5440.400; -546.000; -423.000
360.864;  716.600;-1216.000;-1044.000
360.996;  449.600; -516.000; -554.000
361.129;   28.100; -389.000; -598.000
361.261;   85.900;  110.000; -113.000
361.393;  -53.100; -252.000; -214.000
361.525;   79.100;   94.000;  244.000
361.657;  -85.000; -821.000; -703.000
361.789;   31.800; -139.000; -155.000
361.921;  309.900; -642.000; -593.000
362.053;  470.500;  524.000;  541.000
362.185;  102.100;  288.000;   72.000
362.318; -138.800; -709.000; -705.000
362.450;  268.000;  294.000;  444.000
362.582;   94.500; -913.000; -870.000
362.714;  -35.000; -353.000; -332.000
362.846; -143.600; -606.000; -490.000
362.978; -259.500; -941.000; -811.000
363.109;   65.000; -161.000; -260.000
363.241;  696.400; -739.000; -749.000
363.373;  829.800; -649.000; -564.000
363.505; 1343.500; -186.000;  -91.000
363.637;  298.400; -787.000; -601.000
363.769; -247.500;-1067.000;-1080.000
363.901;  -95.600; -596.000; -654.000
364.033; -224.200;-1103.000;-1062.000
364.165;    2.900; -283.000; -283.000
364.296;  173.000; -316.000; -177.000
364.428;  156.600;-1344.000;-1220.000
364.560; -120.000; -679.000; -661.000
364.692;  -84.700; -738.000; -835.000
364.824;  361.900; -588.000; -456.000
364.955;  847.500; -402.000; -564.000
365.087; 1871.000;-1097.000; -852.000
365.219;   54.500; -686.000; -816.000
365.351;  -97.600; -526.000; -572.000
365.482;  140.600;  300.000;  240.000
365.614;  -65.700; -402.000; -314.000
365.746; -172.600; -729.000; -752.000
365.877; -174.500; -706.000; -672.000
366.009;  551.800;  -35.000;  -62.000
366.141; -158.900;-1249.000;-1134.000
366.272; -196.700; -803.000; -719.000
366.404; -222.600;-1005.000; -874.000
366.535;   60.400; -139.000;  -12.000
366.667; -154.400; -644.000; -649.000
366.799;  131.900;  353.000;  203.000
366.930; -231.900; -862.000; -996.000
367.062;  264.200; -639.000; -613.000
367.193;  282.900; -872.000; -842.000
367.325; -104.000; -580.000; -684.000
367.456;   67.400; -246.000;   31.000
367.588;  316.500; -371.000; -318.000
367.719;  100.600;  -44.000;  -45.000
367.851;  -24.300; -222.000; -241.000
367.982; -108.600; -875.000; -732.000
368.113;  193.200; -475.000; -358.000
368.245; -235.000; -960.000; -841.000
368.376;   -7.800; -254.000; -302.000
368.508;  -42.700; -188.000; -263.000
368.639; -255.400;-1166.000;-1034.000
368.770;  -38.400; -670.000; -589.000
368.902; -126.900; -836.000; -926.000
369.033; -215.400; -906.000; -855.000
369.164;  -70.000; -720.000; -653.000
369.296; -157.500; -452.000; -601.000
369.427;   42.700; -209.000; -144.000
369.558;  -69.400; -593.000; -377.000
369.689; -123.900; -721.000; -569.000
369.821; -219.800; -951.000; -845.000
369.952;   40.000;   42.000; -108.000
370.083;  -69.900; -229.000; -108.000
370.214; -144.500; -735.000; -650.000
370.345;   22.300;   65.000;   81.000
370.477; -176.600; -810.000; -790.000
370.608;  385.900; -328.000; -264.000
370.739; -166.300;-1233.000;-1292.000
370.870; -110.600;-1102.000; -923.000
371.001;  159.400; -378.000; -467.000
371.132; -118.800; -754.000; -735.000
371.263;  -14.000;  -42.000; -148.000
371.394; -237.200; -841.000; -748.000
371.525;  129.600;  345.000;  225.000
371.657; -164.300; -808.000; -670.000
371.788;  163.800;  103.000;  199.000
371.919;  292.500; -384.000; -304.000
372.050; 5751.800;  -91.000; -156.000
372.181; 1564.300; -188.000; -294.000
372.311;  582.700;   42.000; -127.000
372.442;   30.100; -457.000; -451.000
372.573;  -24.200; -444.000; -340.000
372.704; -234.000;-1008.000; -980.000
372.835;  164.200; -228.000; -289.000
372.966; -105.900; -646.000; -554.000
373.097; -153.900; -575.000; -711.000
373.228;  -27.200; -717.000; -542.000
373.359;  171.300; -824.000; -536.000
373.490; 1486.900; -881.000; -727.000
373.620; 1768.200;-1001.000; -803.000
373.751; 2758.300; -332.000; -396.000
373.882; 1172.100; -663.000; -733.000
374.013;  112.400; -449.000; -262.000
374.143;  -83.200; -581.000; -659.000
374.274; -190.100; -987.000; -908.000
374.405;  306.600; -388.000; -276.000
374.536;  702.600; -526.000; -387.000
374.666; 1677.000; -759.000; -807.000
374.797;  291.000; -817.000; -868.000
374.928; 1339.900; -710.000; -560.000
375.058; 1337.200; -535.000; -500.000
375.189;  130.600;  -59.000;  -93.000
375.320; -188.600; -928.000;-1034.000
375.450;  -55.700; -625.000; -616.000
375.581;  -74.600; -526.000; -436.000
375.712;   -9.100; -574.000; -250.000
375.842;  531.200; -438.000; -415.000
375.973;  335.100; -554.000; -513.000
376.103;  -69.100; -665.000; -648.000
376.234; -109.000; -531.000; -552.000
376.364;  -82.900; -944.000; -867.000
376.495;  564.600;  925.000;  529.000
376.625;  -32.300; -472.000; -485.000
376.756;  105.000; -709.000; -678.000
376.886; -189.300;-1178.000;-1026.000
377.017;  123.500;-1048.000;-1061.000
377.147;  683.300; -786.000; -782.000
377.278;  177.000;  174.000;  228.000
377.408; -204.500; -801.000; -815.000
377.538; -159.900; -707.000; -693.000
377.669; -134.300; -537.000; -613.000
377.799; -163.900; -645.000; -635.000
377.929; -106.100; -610.000; -428.000
378.060; -227.400; -781.000; -847.000
378.190;  -72.600; -726.000; -531.000
378.320;  -75.100; -401.000; -406.000
378.451;   19.700; -131.000;  -22.000
378.581;   41.100;  -67.000; -110.000
378.711;  302.200; 1035.000;  866.000
378.841;  -44.900; -533.000; -675.000
378.972; -173.900; -871.000; -751.000
379.102;  -35.000; -652.000; -579.000
379.232;  -31.300; -126.000;  -73.000
379.362; -219.900;-1001.000; -885.000
379.492;   22.200; -373.000; -424.000
379.623;  227.300;    0.000;  111.000
379.753; -210.000;-1107.000; -974.000
379.883;  383.800;   59.000;  156.000
380.013;  -37.600;-1081.000;-1017.000
380.143; -186.500;-1097.000;-1056.000
380.273; -192.500; -985.000; -861.000
380.403;   13.200; -344.000; -257.000
380.533;  -51.200; -651.000; -664.000
380.663;  153.400;  173.000;  128.000
380.793; -206.900;-1027.000;-1074.000
380.923;   -8.700; -103.000;  -34.000
381.053; -147.600; -613.000; -623.000
381.183;    2.000; -106.000; -248.000
381.313;   30.000; -656.000; -470.000
381.443;   52.100; -692.000; -473.000
381.573;  287.000; -402.000; -409.000
381.703;  377.400;-1249.000;-1095.000
381.833; -291.500;-1454.000;-1336.000
381.963;  198.200; -134.000;  -87.000
382.093; 2334.500; -925.000; -909.000
382.223;  633.200; -713.000; -602.000
382.353;  -20.700; -801.000; -608.000
382.482;  538.400;-1091.000; -964.000
382.612; 1233.600; -872.000; -644.000
382.742;  672.200; -695.000; -622.000
382.872;  405.200; -565.000; -551.000
383.002;  156.700;  347.000; -132.000
383.131;    0.200; -226.000; -160.000
383.261;  -75.000; -706.000; -768.000
383.391;  524.400; -552.000; -377.000
383.521; 6295.500;  451.000;  263.000
383.650; 1392.000; -947.000; -904.000
383.780;    2.100; -783.000; -656.000
383.910;  270.900;  880.000;  802.000
384.039;   39.900; -794.000; -656.000
384.169;  298.000;-1205.000;-1017.000
384.299;  -49.100; -650.000; -662.000
384.428; -175.700; -764.000; -680.000
384.558;  -50.400; -308.000; -275.000
384.687;  -64.300; -414.000; -334.000
384.817;   64.600;   75.000;   -2.000
384.947;   57.400; -234.000; -141.000
385.076;  548.700;  982.000;  912.000
385.206;  234.800;  369.000;  480.000
385.335;  -54.700; -549.000; -417.000
385.465; -130.100; -655.000; -663.000
385.594;  260.300;  -53.000;  -44.000
385.724;  627.900; -868.000; -838.000
385.853;  184.900; -296.000; -270.000
385.982; 2168.700; -743.000; -787.000
386.112; 3183.000;-1052.000; -871.000
386.241;  238.200; -307.000; -312.000
386.371;   45.100; -174.000;  -87.000
386.500;   -3.500; -825.000; -789.000
386.629;   32.500; -874.000; -817.000
386.759;  150.900;  -43.000;   68.000
386.888;   38.700; -170.000; -250.000
387.017; -134.200; -648.000; -620.000
387.147; -134.400; -771.000; -798.000
387.276;    9.700; -410.000; -397.000
387.405;   -7.800; -398.000; -342.000
387.535;  -42.900; -452.000; -361.000
387.664;  -94.300; -692.000; -620.000
387.793;  114.300; -198.000; -113.000
387.922;  851.600;  255.000;  200.000
388.052;   20.900; -576.000; -423.000
388.181;   32.500; -342.000; -472.000
388.310;  -40.100; -889.000; -710.000
388.439;  -86.700; -749.000; -742.000
388.568;  290.700;  365.000;  244.000
388.697; 1568.200; -756.000; -653.000
388.826;  275.300; -768.000; -666.000
388.956;   71.900; -285.000; -307.000
389.085;  -63.000; -347.000; -287.000
389.214; -179.800; -842.000; -872.000
389.343;  -71.800; -645.000; -413.000
389.472;  796.900;  126.000;  149.000
389.601;  942.300;   91.000;    0.000
389.730;   22.200; -568.000; -687.000
389.859;  167.600;  226.000;   46.000
389.988;  319.100; -423.000; -408.000
390.117;  244.500; -168.000; -146.000
390.246;   17.600; -331.000; -320.000
390.375;  106.200; -673.000; -626.000
390.504;  -99.800; -703.000; -621.000
390.633; -174.600; -672.000; -726.000
390.761; -102.100; -732.000; -645.000
390.890;   71.900;   -4.000; -130.000
391.019;  -42.600; -421.000; -441.000
391.148; -243.400; -826.000; -855.000
391.277; -114.400; -576.000; -493.000
391.406; -164.900; -821.000; -805.000
391.534;   69.900;  574.000; -301.000
391.663;  -85.100; -583.000; -645.000
391.792; -146.000; -673.000; -701.000
391.921;  193.100;   -3.000;   15.000
392.050;  293.300; -287.000; -228.000
392.178; -136.600;-1206.000;-1061.000
392.307;  202.300; -758.000; -712.000
392.436;   80.800; -427.000; -641.000
392.564;   65.200;  166.000;   -6.000
392.693; -173.000; -860.000; -682.000
392.822;  349.800; -529.000; -534.000
392.950;  118.200; -880.000; -714.000
393.079;  517.600; -188.000; -328.000
393.208;    2.600; -488.000; -511.000
393.336;   29.700; -170.000; -145.000
393.465;  -47.900; -317.000; -199.000
393.593;   74.300;   62.000;   79.000
393.722; -266.400;-1121.000; -916.000
393.850;   -7.200; -188.000;  -61.000
393.979; -282.200; -926.000; -805.000
394.107;  -74.100; -517.000; -537.000
394.236;  -21.200; -570.000; -507.000
394.364;  497.300;  383.000;  206.000
394.493;  727.800; -911.000; -767.000
394.621;   -8.100; -955.000; -916.000
394.750; 1490.300; -873.000; -923.000
394.878; 5929.000; -247.000; -149.000
395.007; 7563.700; -721.000; -807.000
395.135;  549.400; -790.000; -721.000
395.263; -183.600;-1038.000;-1040.000
395.392;   61.800;  -25.000; -107.000
395.520; -277.800; -818.000; -679.000
395.648; -154.400; -865.000; -915.000
395.777;  -17.700; -366.000; -405.000
395.905;  -65.000; -449.000; -564.000
396.033;  119.300;  217.000;  172.000
396.162; 1320.100; -399.000; -453.000
396.290; 1116.600;  -17.000;   -2.000
396.418;  187.700; -555.000; -514.000
396.546; -136.400; -571.000; -466.000
396.674; -153.100; -850.000; -878.000
396.803;   47.600;  -72.000;  -23.000
396.931;  171.700; -179.000; -199.000
397.059;   16.100;-1026.000; -989.000
397.187; -218.700;-1026.000; -975.000
397.315; -220.400; -884.000; -649.000
397.443; -154.900; -592.000; -443.000
397.572; -148.100; -578.000; -424.000
397.700;  -43.000; -607.000; -614.000
397.828;   66.900;  120.000;  -90.000
397.956;  -31.700; -508.000; -478.000
398.084; -101.300; -767.000; -626.000
398.212;   90.500;  137.000;  124.000
398.340;   40.900;  -56.000;  159.000
398.468;   43.800; -390.000; -169.000
398.596; -249.400; -993.000; -953.000
398.724; -197.200; -762.000; -767.000
398.852; -267.200;-1024.000; -976.000
398.980;  -88.800; -560.000; -560.000
399.108;  -94.500; -982.000; -735.000
399.236;  124.000;   13.000;    8.000
399.363;   94.200;  222.000;  196.000
399.491;  -98.100; -404.000; -398.000
399.619; -205.800; -829.000; -800.000
399.747; -192.900; -859.000; -771.000
399.875;  192.700;  220.000;  234.000
400.003;  -84.500; -359.000; -284.000
400.130; -153.400; -421.000; -341.000
400.258;  -17.000;  -83.000;   38.000
400.386; -102.100; -352.000; -168.000
400.514;  -51.800; -526.000; -587.000
400.641; -193.900; -928.000; -802.000
400.769; -281.400; -979.000; -888.000
400.897; -163.800; -838.000; -793.000
401.025;    6.600; -166.000; -152.000
401.152;   41.500;  220.000;   38.000
401.280; -136.500; -430.000; -429.000
401.408; -205.800; -712.000; -576.000
401.535; -194.500; -735.000; -758.000
401.663; -348.300;-1134.000;-1054.000
401.790; -121.800; -514.000; -525.000
401.918;  145.800;  436.000;  405.000
402.046;    6.200;  134.000;  122.000
402.173;  -27.500;  -18.000;    7.000
402.301;  -80.400; -519.000; -397.000
402.428;  156.500;  528.000;  383.000
402.556; -257.300;-1188.000; -913.000
402.683;  -12.500;  -20.000;   -1.000
402.811;   30.100;  -37.000; -206.000
402.938;   20.000;   20.000;   27.000
403.066;  322.900; -574.000; -558.000
403.193;  552.300;  299.000;  239.000
403.321;  383.000; -396.000; -574.000
403.448;  534.000;   83.000;   27.000
403.575;  233.300;  -90.000;  -46.000
403.703; -157.300; -732.000; -557.000
403.830;  -84.500; -531.000; -496.000
403.957; -226.000;-1117.000;-1023.000
404.085;   78.100;  -61.000; -172.000
404.212;  235.900;  -50.000;   63.000
404.339;  577.200; -566.000; -306.000
404.467;11666.700; -612.000; -524.000
404.594; 6844.200; -287.000; -227.000
404.721; 1507.600; -869.000; -764.000
404.848;  177.700; -113.000; -202.000
404.976; -200.200; -856.000; -783.000
405.103;   48.200;  -14.000;  -82.000
405.230;   38.000;  190.000;  226.000
405.357;  118.800;  117.000;   44.000
405.484;  635.000;  -49.000;    5.000
405.612;   87.000; -548.000; -563.000
405.739;  -71.400; -488.000; -243.000
405.866;  228.400;  669.000;  385.000
405.993;  -61.900; -398.000; -102.000
406.120; -224.800; -801.000; -887.000
406.247;  -81.200; -323.000; -342.000
406.374;  806.000;  540.000;  629.000
406.501;  154.200; -632.000; -702.000
406.628; -112.900; -621.000; -589.000
406.755; -174.200; -803.000; -620.000
406.882;  -23.200; -228.000; -277.000
407.009; -147.100; -719.000; -628.000
407.136;   81.600; -480.000; -401.000
407.263;  193.900; -939.000; -829.000
407.390; -132.300; -692.000; -614.000
407.517; -296.500;-1139.000;-1187.000
407.644;  -93.800; -332.000; -256.000
407.771;  -69.700; -249.000; -287.000
407.898;   80.200;  168.000;  328.000
408.025; -110.600; -421.000; -313.000
408.151;   14.400;   82.000;  153.000
408.278;  -97.100; -267.000; -216.000
408.405; -186.000; -931.000; -899.000
408.532; -126.300; -549.000; -542.000
408.659; -202.000; -677.000; -648.000
408.785; -343.000;-1298.000;-1170.000
408.912;  -68.800; -412.000; -296.000
409.039; -155.700; -610.000; -686.000
409.166; -153.700; -591.000; -555.000
409.292; -179.300; -571.000; -534.000
409.419; -185.100; -665.000; -649.000
409.546; -132.100; -431.000; -192.000
409.672; -147.600; -713.000; -545.000
409.799;    0.700;  -36.000;   34.000
409.926;  -47.400; -180.000; -179.000
410.052; -313.200;-1127.000;-1091.000
410.179;  -83.600; -368.000; -392.000
410.305; -158.000; -375.000; -493.000
410.432;  -26.900; -220.000; -333.000
410.558; -116.900; -305.000; -380.000
410.685; -162.700; -688.000; -431.000
410.812; -161.300; -409.000; -588.000
410.938; -241.900; -964.000; -808.000
411.065; -136.200; -671.000; -645.000
411.191;    0.600; -189.000; -174.000
411.317; -204.800; -823.000; -742.000
411.444;  -81.700; -317.000; -246.000
411.570; -110.500; -339.000; -294.000
411.697; -206.300; -758.000; -752.000
411.823; -324.200; -989.000; -999.000
411.949;  -28.700;  -56.000;   17.000
412.076; -184.400; -539.000; -519.000
412.202; -181.200; -758.000; -757.000
412.329; -213.900; -798.000; -752.000
412.455; -189.900; -821.000; -657.000
412.581;   12.500;  -15.000;  172.000
412.707;  -86.900; -540.000; -457.000
412.834;   65.700;  156.000;  219.000
412.960; -150.900; -785.000; -784.000
413.086; -173.100; -743.000; -701.000
413.212;  335.100;  604.000;  578.000
413.339; -136.800; -685.000; -701.000
413.465;   29.700; -364.000; -310.000
413.591; -159.100; -757.000; -474.000
413.717;  -62.200; -358.000; -366.000
413.843; -257.000; -839.000; -861.000
413.969;  -45.900;  -47.000; -292.000
414.096; -163.800; -679.000; -679.000
414.222;   54.700;  -33.000;   85.000
414.348;  -44.600; -652.000; -385.000
414.474;  152.300;   38.000;  -52.000
414.600;   10.800; -126.000; -144.000
414.726;   13.800;  -96.000;  -55.000
414.852;  -61.400; -365.000; -342.000
414.978;  144.200;  104.000;  -18.000
415.104;  130.100;   38.000;   80.000
415.230;   38.100; -329.000; -330.000
415.356;   87.200; -409.000; -514.000
415.482;  406.400;   13.000;  -35.000
415.608;  600.700; -247.000; -323.000
415.734; 2044.000;   67.000;   38.000
415.860;40341.900; -875.000; -767.000
415.986;26525.000; -685.000; -607.000
416.111; 2185.800; -798.000; -652.000
416.237;  489.600; -424.000; -571.000
416.363; 2476.900; -765.000; -733.000
416.489; 8143.200; -324.000; -251.000
416.615;  809.000; -707.000; -742.000
416.741;   34.200; -677.000; -784.000
416.866; -131.500; -673.000; -736.000
416.992; -201.900; -801.000; -818.000
417.118;   -1.200;  -41.000;  -80.000
417.244; -104.700; -798.000; -531.000
417.369; -148.600; -801.000; -612.000
417.495;   27.000; -325.000; -254.000
417.621; -130.400;-1015.000; -803.000
417.746;   62.000; -579.000; -572.000
417.872;  148.800; -254.000; -144.000
417.998;  145.300; -515.000; -530.000
418.123; 2294.700;-1073.000; -845.000
418.249;10503.500; -512.000; -601.000
418.374; 1352.700; -916.000; -824.000
418.500;  250.600; -383.000; -482.000
418.626;  260.200;   70.000;  -59.000
418.751;  219.500; -549.000; -448.000
418.877;  419.700; -637.000; -643.000
419.002; 3963.900; -688.000; -560.000
419.128;25050.000; -930.000; -721.000
419.253; 5459.800; -967.000; -837.000
419.379;  800.300; -391.000; -338.000
419.504;  813.100;  325.000;  415.000
419.629; 1103.400; -393.000; -212.000
419.755; 7811.300; -317.000; -254.000
419.880;41684.100;  -98.000;   67.000
420.006;22981.800; -280.000; -221.000
420.131;55526.600; -662.000; -775.000
420.256; 7189.200; -315.000; -316.000
420.382; 1050.200; -665.000; -687.000
420.507;  139.600; -649.000; -778.000
420.632;  231.700; -337.000; -339.000
420.758;  330.700; -251.000; -425.000
420.883; -145.400; -876.000; -672.000
421.008; -130.900; -775.000; -619.000
421.133; -132.100; -509.000; -467.000
421.259;  -43.100; -325.000; -259.000
421.384; -215.600; -834.000; -693.000
421.509;  -92.600;-1052.000; -862.000
421.634; 1648.400; -936.000; -820.000
421.759;  651.700; -359.000; -327.000
421.885;  -92.000; -717.000; -656.000
422.010;  -87.100; -673.000; -542.000
422.135; -236.700; -695.000; -727.000
422.260;  143.300;  340.000;  280.000
422.385;  -21.300;   12.000;  -98.000
422.510;  107.800;  151.000;  -26.000
422.635;   72.300;  -87.000;  -43.000
422.760;  177.600; -766.000; -791.000
422.885;  154.400;  -57.000;  -80.000
423.010;    2.300; -112.000; -169.000
423.135; -116.500; -481.000; -561.000
423.260;  -11.800; -150.000; -245.000
423.385;  159.200;  476.000;  222.000
423.510;  120.500;   71.000;  -22.000
423.635;  174.700;  133.000;   45.000
423.760;  158.600;  383.000;  328.000
423.885;  175.700;  336.000;  391.000
424.010;   83.900;  -68.000;  -13.000
424.135;    0.000;    5.000;  -33.000
424.259; -106.700; -654.000; -457.000
424.384;  -83.800; -279.000; -272.000
424.509;   -9.500; -260.000; -186.000
424.634; -144.100; -761.000; -623.000
424.759;    0.900; -688.000; -544.000
424.883;   49.700; -506.000; -527.000
425.008;  361.900; -502.000; -410.000
425.133; 4063.900; -679.000; -653.000
425.258; 1707.700; -517.000; -381.000
425.382; 1760.100; -867.000; -774.000
425.507; 3913.900; -487.000; -543.000
425.632;  665.500; -802.000; -663.000
425.756;  902.000; -256.000; -146.000
425.881;14382.400; -831.000; -857.000
426.006;34585.400; -604.000; -355.000
426.130; 4772.400; -696.000; -508.000
426.255;  683.600; -611.000; -491.000
426.379;  310.400; -189.000; -577.000
426.504;  845.200;  660.000;  544.000
426.629; 8316.500; -519.000; -466.000
426.753; 5149.200;   64.000;  -46.000
426.878;  618.100; -252.000; -288.000
427.002;  308.800; -651.000; -668.000
427.127; 3387.000;  -35.000; -158.000
427.251;22762.700;  372.000;  401.000
427.375; 5647.300; -191.000; -173.000
427.500; 3791.300; -616.000; -610.000
427.624; 1119.100; -234.000; -400.000
427.749;  180.200; -216.000; -225.000
427.873;  -45.500; -499.000; -412.000
427.997;  -38.800; -222.000; -230.000
428.122;  221.700;  795.000;  703.000
428.246;  172.200;  433.000;  434.000
428.371; -222.100; -869.000; -773.000
428.495; -155.100; -624.000; -646.000
428.619;   -6.800; -186.000; -117.000
428.743;  107.500;   65.000;  132.000
428.868;   35.500; -732.000; -643.000
428.992; 2290.200; -219.000; -326.000
429.116;  826.700; -329.000; -357.000
429.240;  438.400;  419.000;  426.000
429.365;    7.200; -454.000; -574.000
429.489;  -54.600; -638.000; -647.000
429.613;   71.600; -236.000; -177.000
429.737;   97.100; -563.000; -432.000
429.861;  552.500; -247.000; -133.000
429.985;11631.200; -425.000; -305.000
430.109;11433.000; -770.000; -908.000
430.234; 1342.700;   76.000;  -50.000
430.358;  166.500; -250.000; -160.000
430.482;  -91.300; -672.000; -564.000
430.606;  -71.100; -655.000; -375.000
430.730;   42.900; -437.000; -388.000
430.854;  188.000; -909.000; -835.000
430.978; -100.500; -795.000; -764.000
431.102;  -99.600; -499.000; -422.000
431.226; -190.000; -874.000; -815.000
431.350;  113.700;  345.000;  422.000
431.474; -124.400; -661.000; -373.000
431.597; -271.900;-1060.000; -848.000
431.721;  -92.800; -276.000; -267.000
431.845; -206.700; -704.000; -472.000
431.969;  -96.700; -304.000; -349.000
432.093; -124.300; -395.000; -317.000
432.217;   31.500;   32.000;   82.000
432.341; -125.700; -523.000; -518.000
432.464;   92.300;   96.000;   40.000
432.588;  334.600; -401.000; -329.000
432.712;  202.200;  -52.000;  -52.000
432.836;  157.800;  213.000;  263.000
432.959;   46.600; -372.000; -311.000
433.083;  220.800;   11.000;    2.000
433.207;  857.700;  285.000;  930.000
433.330;10725.900; -391.000; -200.000
433.454;11921.000; -654.000; -638.000
433.578; 6978.400;  583.000;  278.000
433.701; 1179.000; -623.000; -675.000
433.825;  261.800; -292.000; -299.000
433.949;  305.200;   28.000;  -72.000
434.072;   94.500; -410.000; -323.000
434.196;    4.600; -309.000; -117.000
434.319; 7930.000;25482.000;25124.000
434.443; 1486.300; -656.000; -603.000
434.566; 5206.000;  281.000;   62.000
434.690;  788.600; -637.000; -383.000
434.813;  140.000; -251.000; -173.000
434.937;  -75.800; -569.000; -696.000
435.060;  -73.300; -423.000; -332.000
435.184;  440.200; -492.000; -217.000
435.307;  247.600;  159.000;  102.000
435.431;   21.900;  -40.000;   24.000
435.554; -108.800; -399.000; -240.000
435.677; -108.200; -350.000; -258.000
435.801;  -25.100;  -25.000;   49.000
435.924;   52.300;    1.000;  -67.000
436.048; -228.600;-1019.000; -732.000
436.171;  -83.800; -240.000;  -66.000
436.294;  -15.400; -248.000; -229.000
436.417;  227.300; -963.000; -849.000
436.541; -140.700; -814.000; -840.000
436.664;  -50.600; -242.000; -316.000
436.787;   11.800;   13.000;  113.000
436.910; -185.200; -792.000; -422.000
437.034;   25.100;  142.000;  143.000
437.157;  120.000;  -11.000;    0.000
437.280;  -69.500; -392.000; -292.000
437.403; -160.000; -982.000; -869.000
437.526;  924.600; -903.000; -865.000
437.649; 3041.800; -505.000; -332.000
437.772;  305.600; -692.000; -540.000
437.896;  253.200;  700.000;  544.000
438.019; -184.500; -758.000; -503.000
438.142; -131.600; -596.000; -506.000
438.265;    2.100; -639.000; -670.000
438.388;  897.400; -520.000; -410.000
438.511;   87.700; -597.000; -394.000
438.634;  -56.300; -247.000; -125.000
438.757; -232.500; -693.000; -619.000
438.880;    9.100;  -34.000;  -57.000
439.003;  -97.000; -417.000; -437.000
439.126;  -67.300; -287.000; -167.000
439.248;  -92.600;  -98.000; -139.000
439.371;  -21.200;    9.000;  -53.000
439.494;  119.200;  510.000;  439.000
439.617;  -45.300;   65.000;  -88.000
439.740; -324.200; -968.000; -816.000
439.863; -249.800; -755.000; -595.000
439.986; -182.000; -476.000; -431.000
440.108;  -66.900; -161.000; -112.000
440.231; -260.900; -950.000; -836.000
440.354;  -33.700;  -64.000; -150.000
440.477;   54.900; -566.000; -542.000
440.599;   23.000; -200.000; -225.000
440.722; -198.000; -709.000; -586.000
440.845;  223.200;  751.000;  928.000
440.968; -147.600; -415.000; -311.000
441.090;  -78.100; -199.000;  -33.000
441.213; -305.400;-1021.000; -825.000
441.336;  -51.800; -159.000;   -5.000
441.458; -143.200; -549.000; -396.000
441.581; -127.800; -628.000; -629.000
441.703;  -79.400; -152.000;   13.000
441.826; -185.400; -557.000; -400.000
441.948;   -6.200;   56.000;   51.000
442.071;  142.600;  555.000;  424.000
442.193; -190.400; -531.000; -485.000
442.316;   79.900;  152.000;   97.000
442.438;  125.500; -233.000;  -10.000
442.561;  154.400;  272.000;  262.000
442.683;  786.800; -809.000; -522.000
442.806; 1586.100;   -8.000;   74.000
442.928;  -49.000; -859.000; -604.000
443.051;  -91.500; -577.000; -373.000
443.173; -148.100; -341.000; -339.000
443.295; -132.700; -263.000; -371.000
443.418; -113.400; -321.000;  -29.000
443.540;   45.100; -106.000;   -4.000
443.662; -207.100; -563.000; -465.000
443.785;   48.100;  335.000;  199.000
443.907; -154.500; -362.000; -208.000
444.029; -220.000; -767.000; -494.000
444.152; -232.400; -644.000; -554.000
444.274;   12.000;  -18.000;  -24.000
444.396; -198.300; -461.000; -221.000
444.518; -214.800; -691.000; -454.000
444.640; -169.300; -268.000; -111.000
444.763;   20.000;  388.000;  249.000
444.885; -179.100; -432.000; -392.000
445.007;   -8.500;   35.000;   86.000
445.129; -203.800; -610.000; -515.000
445.251; -154.200; -372.000; -439.000
445.373; -209.400; -537.000; -386.000
445.495;   40.800;  242.000;  350.000
445.617;  174.900;  853.000;  753.000
445.739;  -93.700; -215.000;  -97.000
445.861;  -21.900; -245.000; -112.000
445.984;  -64.300; -267.000; -101.000
446.105;  315.600; -418.000; -251.000
446.227;  929.600; -176.000;  -19.000
446.349;  -50.500; -358.000; -249.000
446.471; -182.900; -615.000; -448.000
446.593;  -44.100; -316.000;   19.000
446.715;   38.900;  -67.000;   41.000
446.837;  200.200;  697.000;  832.000
446.959; -165.300; -457.000; -478.000
447.081; -225.200; -628.000; -518.000
447.203;  181.600;  862.000;  834.000
447.325;  -77.800; -270.000;   42.000
447.446;   43.700;  286.000;  530.000
447.568; -280.000; -921.000; -803.000
447.690; -105.200; -236.000; -245.000
447.812; -258.500; -798.000; -519.000
447.933;   19.300;  155.000;  127.000
448.055;  -62.400; -306.000; -261.000
448.177;  292.600;   31.000;   79.000
448.299;   35.600; -935.000; -727.000
448.420;   89.900;  -25.000;  159.000
448.542;  -60.600;   -3.000;   33.000
448.664;   15.200;  109.000;  322.000
448.785;  -12.600;  265.000;   83.000
448.907;  -84.300; -614.000; -353.000
449.028;  -48.300; -771.000; -471.000
449.150;  169.300;  492.000;  589.000
449.272; -332.000;-1044.000; -913.000
449.393;  129.800;  612.000;  694.000
449.515; -229.600; -634.000; -581.000
449.636;  -56.800; -264.000; -155.000
449.758;  246.800;  763.000;  622.000
449.879; -130.400; -498.000; -396.000
450.001; -135.600; -149.000;  -49.000
450.122;   -8.300;  -95.000;  162.000
450.244;   36.700;   37.000;  364.000
450.365; -128.400; -495.000; -301.000
450.486;    6.500;   80.000;  268.000
450.608;   76.500;  393.000;  326.000
450.729;  212.500;  578.000;  645.000
450.850;   40.100; -574.000; -466.000
450.972; 1722.800; -552.000; -389.000
451.093;10202.700;  190.000;  588.000
451.214; 3764.700; -516.000; -337.000
451.336;  798.200;  773.000;  579.000
451.457;  184.600;  264.000;  393.000
451.578;  -31.100; -118.000;  -74.000
451.699; -209.800; -546.000; -540.000
451.821;  -88.100; -284.000;  -50.000
451.942;   25.400;  278.000;  285.000
452.063;  137.500;  228.000;  419.000
452.184; 1291.400;  -54.000;  -49.000
452.305; 2136.200;  103.000;  170.000
452.427;  267.500; -549.000; -301.000
452.548;    3.600;   23.000;   79.000
452.669;  -72.900; -257.000;  -89.000
452.790;  -20.700;    3.000;  -18.000
452.911;   42.400;  195.000;  259.000
453.032;  -79.000; -289.000;  -60.000
453.153;  -11.300;  -29.000;   81.000
453.274;  226.800;  737.000;  868.000
453.395;  -20.400;  -51.000;  175.000
453.516;  319.600; 1317.000; 1388.000
453.637;  -87.800; -205.000; -150.000
453.758;  -69.600;   15.000;   69.000
453.879; -188.500; -462.000; -250.000
454.000;  226.400; 1086.000;  948.000
454.121; -200.800; -554.000; -326.000
454.242; -184.800; -599.000; -383.000
454.362;  -46.100;  -99.000;  114.000
454.483;  -10.100; -309.000; -229.000
454.604;  134.800;  512.000;  580.000
454.725; -215.300; -627.000; -555.000
454.846; -203.400; -474.000; -406.000
454.967;   -3.200;  230.000;  539.000
455.087;  -27.100;  179.000;  153.000
455.208;   94.600;  554.000;  856.000
455.329;  -48.200;  -22.000;   82.000
455.450;  155.400;  473.000;  633.000
455.570; -143.500; -234.000; -211.000
455.691;   -2.700;  201.000;  407.000
455.812; -149.300; -270.000;  -92.000
455.932;  -52.200;  107.000;  -97.000
456.053; -124.700;   36.000;   24.000
456.173; -148.300; -433.000; -355.000
456.294; -198.700; -476.000; -303.000
456.415;  -80.000;  -73.000;   70.000
456.535;  -15.200;  297.000;  273.000
456.656;   -4.600;  132.000;  240.000
456.776;  -81.300;    3.000;  298.000
456.897;   81.500;  308.000;  513.000
457.017;  -99.000; -153.000;   -3.000
457.138; -138.500; -402.000; -249.000
457.258;    9.300;  263.000;  224.000
457.379;   37.000;  509.000;  521.000
457.499;   46.800;  443.000;  432.000
457.620; -202.600; -407.000; -231.000
457.740; -145.900; -132.000;  -11.000
457.860;  -45.000;   87.000;   44.000
457.981;  -65.700;  132.000;  124.000
458.101;  -96.700;  -89.000;   40.000
458.221;   34.200;  336.000;  402.000
458.342;  -47.900;   -4.000;  -37.000
458.462;  113.400;  617.000;  352.000
458.582;  -26.100; -302.000; -294.000
458.703;   99.900;  303.000;  154.000
458.823;    5.000;   22.000;  163.000
458.943;   97.800;  341.000;  467.000
459.063;   39.700; 1124.000;  192.000
459.183;   10.000;  328.000;  313.000
459.304;   48.500;  315.000;  517.000
459.424;  -73.000; -246.000;  -89.000
459.544;  800.100;  388.000;  764.000
459.664; 1767.700;  499.000;  506.000
459.784;  620.200; 1004.000; 1175.000
459.904;  170.900;  867.000;  744.000
460.024;  210.000;  867.000;  684.000
460.144;   53.200;  449.000;  554.000
460.264;   40.100;  515.000;  327.000
460.385; -121.400; -145.000; -119.000
460.505;  164.400;  905.000;  858.000
460.625; -125.000;  -17.000;  -68.000
460.745;   -1.000;  396.000;  541.000
460.864;  -18.100;  153.000;  469.000
460.984;   64.600;  499.000;  573.000
461.104;  375.600; 1656.000; 1775.000
461.224;  126.100;  657.000;  650.000
461.344;    1.300;  431.000;  360.000
461.464;  -18.200;  258.000;  513.000
461.584;   16.800;  283.000;  466.000
461.704;  -33.000;   58.000;  108.000
461.824;  -14.300;  238.000;  259.000
461.943;  -18.100;  191.000;  130.000
462.063; -127.600;    2.000;  324.000
462.183;  150.100;  639.000;  717.000
462.303;  280.500; 1678.000; 1230.000
462.422;  142.400;  781.000;  840.000
462.542;  -38.700;  271.000;  391.000
462.662;  131.100;  353.000;  380.000
462.782;  603.900;  833.000;  572.000
462.901; 1014.800;  545.000;  717.000
463.021;  566.300; 1702.000; 1638.000
463.141;   39.200;  337.000;  770.000
463.260;   36.400;  614.000;  474.000
463.380;  135.600;  902.000;  884.000
463.499;   17.600;  342.000;  332.000
463.619;   -6.800;  581.000;  559.000
463.738;  258.900; 1644.000;  903.000
463.858;   64.200;  657.000;  811.000
463.978;   25.200;  542.000;  396.000
464.097;  166.800;  921.000; 1114.000
464.217;  306.600; 1196.000; 1143.000
464.336;  307.500; 1068.000; 1130.000
464.455;   31.400;  328.000;  659.000
464.575;  115.700;  597.000;  602.000
464.694;  392.900; 1204.000; 1179.000
464.814;  303.200; 1190.000; 1138.000
464.933;  234.700; 1095.000; 1027.000
465.052;  293.000; 1412.000; 1054.000
465.172;  213.300;  922.000;  799.000
465.291;  354.200; 1376.000; 1320.000
465.410;   71.600;  462.000;  735.000
465.530;  283.500; 1355.000; 1310.000
465.649;  208.700; 1209.000; 1273.000
465.768;  387.300; 1673.000; 1508.000
465.888;  195.500;  941.000; 1174.000
466.007;  252.900; 1335.000; 1440.000
466.126;   90.300;  721.000;  641.000
466.245;  145.200; 1176.000; 1187.000
466.364;   77.600;  950.000; 1060.000
466.484;  177.800; 1024.000; 1213.000
466.603;  118.900; 1101.000; 1222.000
466.722;  291.500; 1490.000; 1769.000
466.841;  205.500; 1151.000; 1401.000
466.960;  128.100; 1069.000;  972.000
467.079;  333.700; 1971.000; 1786.000
467.198;  189.700; 1238.000; 1181.000
467.317;  231.300; 1768.000; 1162.000
467.436;  224.000; 1709.000; 1261.000
467.555;  307.100; 1796.000; 1746.000
467.674;  241.300; 1227.000; 1329.000
467.793;  140.000; 1376.000; 1374.000
467.912;  249.700; 1658.000; 1539.000
468.031;  340.500; 2038.000; 1930.000
468.150;  361.000; 1842.000; 1837.000
468.269;  468.000; 2313.000; 2090.000
468.388;  439.300; 2168.000; 2339.000
468.507;  575.500; 2884.000; 2903.000
468.626;  612.000; 2555.000; 2541.000
468.744;  346.500; 2018.000; 2174.000
468.863;  499.300; 2312.000; 2523.000
468.982;  262.200; 1503.000; 1555.000
469.101;  494.500; 2788.000; 2692.000
469.220;  342.000; 2333.000; 2176.000
469.338;  592.500; 2935.000; 3051.000
469.457;  489.000; 2719.000; 2545.000
469.576;  777.200; 3953.000; 3784.000
469.695;  561.100; 2877.000; 3066.000
469.813;  941.800; 4148.000; 4192.000
469.932;  905.300; 4255.000; 4485.000
470.051;  949.500; 4075.000; 4161.000
470.169; 1869.900; 4470.000; 4338.000
470.288; 3073.600; 4700.000; 4809.000
470.406; 1751.500; 5059.000; 5194.000
470.525; 1387.800; 6101.000; 5787.000
470.644; 1411.300; 6847.000; 6794.000
470.762; 1754.000; 8397.000; 7873.000
470.881; 1913.600; 8651.000; 8464.000
470.999; 2201.800; 9685.000; 9151.000
471.118; 2306.800;11174.000;10711.000

