
Integration time [ms]: 200.000
Averaging Nr. [scans]: 10
Smoothing Nr. [pixels]: 0
Data measured with spectrometer [name]: 2101012U2
Wave   ;Sample   ;Dark     ;Reference
[nm]   ;[counts] ;[counts] ;[counts] 

197.733;   75.500;  516.000;  404.000
197.879; -178.500; -610.000; -634.000
198.025;  -98.700; -475.000; -420.000
198.171; -171.400; -602.000; -612.000
198.317;  -77.700; -401.000; -316.000
198.463; -143.300; -655.000; -404.000
198.609;   57.000;  181.000; -137.000
198.755; -165.100; -644.000; -410.000
198.901; -129.300; -505.000; -424.000
199.047; -169.300; -615.000; -488.000
199.193;  -77.500; -230.000; -468.000
199.339;  -93.300; -222.000; -369.000
199.485;   83.700;  330.000;  271.000
199.631;    6.000;  227.000;  310.000
199.777;  -99.400; -466.000; -398.000
199.923; -109.800; -610.000; -424.000
200.069;    3.800; -141.000;  -58.000
200.215;   96.500;  128.000;  453.000
200.361;   98.800;  243.000;  477.000
200.507; -132.800; -600.000; -373.000
200.653;  -42.700; -371.000; -194.000
200.798;  -96.500; -215.000; -125.000
200.944;   -0.300; -146.000;  -41.000
201.090;   97.000;   61.000;  222.000
201.236;   19.100; -116.000; -158.000
201.382;  265.000;  874.000;  903.000
201.528;   10.200;  -58.000;  -48.000
201.674;  -57.500; -386.000; -293.000
201.819; -152.000; -540.000; -439.000
201.965; -186.100; -699.000; -447.000
202.111;  -66.000; -273.000; -226.000
202.257; -115.000; -250.000; -238.000
202.402;    4.000;   13.000;  -36.000
202.548;  -94.900; -169.000; -116.000
202.694;  173.200;  410.000; -183.000
202.840; -151.400; -603.000; -531.000
202.985; -167.300; -681.000; -639.000
203.131; -213.600; -832.000; -666.000
203.277;  -62.200; -199.000; -262.000
203.423; -103.800; -434.000; -520.000
203.568;  -81.000; -462.000; -237.000
203.714; -155.700; -535.000; -542.000
203.860; -193.600; -682.000; -641.000
204.005;   21.200;  112.000;  167.000
204.151;  154.700;  561.000;  556.000
204.296; -103.000; -354.000; -221.000
204.442; -158.600; -600.000; -547.000
204.588; -151.600; -592.000; -579.000
204.733;   45.600;  178.000;  168.000
204.879; -276.100;-1018.000; -822.000
205.025;   16.200;  -99.000;  126.000
205.170;  -14.800;  -17.000;   94.000
205.316;  167.300;  438.000;  661.000
205.461; -185.100; -698.000; -554.000
205.607;  162.700;  609.000;  665.000
205.752; -165.600; -626.000; -551.000
205.898; -131.600; -501.000; -391.000
206.043;  -94.300; -578.000; -506.000
206.189;  -66.600; -243.000; -285.000
206.334;  185.500;  554.000;  606.000
206.480;  184.400;  409.000;  239.000
206.625; -168.800; -529.000; -552.000
206.771;  -90.200; -451.000; -373.000
206.916;  -50.000; -210.000; -537.000
207.062; -131.000; -545.000; -591.000
207.207; -135.100; -546.000; -443.000
207.353;  116.000;  185.000;  460.000
207.498;   19.500;  196.000;   85.000
207.643;  -99.000; -501.000; -370.000
207.789; -266.000;-1069.000; -910.000
207.934; -181.000; -665.000; -713.000
208.080;  -49.000; -154.000;   66.000
208.225;  -21.200;  -22.000;  -57.000
208.370; -183.500; -727.000; -619.000
208.516; -165.600; -741.000; -487.000
208.661;  -49.600; -127.000;  -69.000
208.806;  -55.300; -165.000; -171.000
208.952; -249.000;-1044.000; -731.000
209.097;  131.100;  378.000;  349.000
209.242;  -99.100; -307.000; -382.000
209.387;  131.200;  392.000;  350.000
209.533;  -85.600; -321.000; -350.000
209.678;  187.300;  472.000;  543.000
209.823; -126.300; -408.000; -310.000
209.969; -213.500; -860.000; -757.000
210.114; -230.500; -907.000; -719.000
210.259; -229.800; -939.000; -889.000
210.404;  -10.200; -171.000;  103.000
210.549;   29.000;  108.000;    3.000
210.695;  -40.800;   -3.000;  -95.000
210.840;   71.500;   94.000;   67.000
210.985; -137.900; -484.000; -303.000
211.130;  150.700;  268.000;  406.000
211.275;    4.900;  207.000;  199.000
211.420;  -97.800; -300.000; -289.000
211.566; -152.000; -536.000; -489.000
211.711;   57.600;  218.000;  157.000
211.856; -134.500; -545.000; -519.000
212.001;   33.000;  151.000;   44.000
212.146;   25.900;  153.000;   49.000
212.291;  -44.100; -210.000; -186.000
212.436;  -67.500; -280.000;   -6.000
212.581; -179.000; -685.000; -653.000
212.726; -152.800; -487.000; -538.000
212.871;  -63.600; -552.000; -217.000
213.016; -304.200;-1172.000;-1029.000
213.161;  119.500;  406.000;  291.000
213.306; -141.300; -435.000; -577.000
213.451; -190.100; -778.000; -689.000
213.596;  -99.000; -455.000; -347.000
213.741; -133.100; -448.000; -538.000
213.886; -148.100; -498.000; -517.000
214.031;  -25.300; -294.000; -124.000
214.176; -108.000; -408.000; -341.000
214.321;  -44.300; -296.000; -157.000
214.466;  -51.500; -163.000;  -43.000
214.611;  -11.700;  -61.000;  -10.000
214.756; -255.400; -948.000; -858.000
214.901;  -65.500; -388.000; -226.000
215.046; -224.000; -797.000; -825.000
215.191;   27.200;  128.000;   35.000
215.336;  -42.000; -157.000;  -19.000
215.480; -121.000; -684.000; -505.000
215.625;  -25.000; -175.000;  -19.000
215.770; -149.500; -757.000; -662.000
215.915;  -16.600;   -5.000;  -97.000
216.060;   -6.300; -113.000;  -21.000
216.205; -232.100; -731.000; -779.000
216.349; -154.900; -470.000; -533.000
216.494; -270.600; -939.000; -867.000
216.639; -229.100; -823.000; -888.000
216.784; -190.600; -577.000; -525.000
216.929;   97.800;  392.000;  281.000
217.073;   -7.700; -244.000;  -31.000
217.218;   29.100;   78.000;  -47.000
217.363; -166.600; -656.000; -618.000
217.507; -148.200; -623.000; -588.000
217.652; -237.500; -845.000; -874.000
217.797; -168.300; -708.000; -659.000
217.942; -252.600; -856.000; -720.000
218.086;  151.800;  608.000;  539.000
218.231;  -62.800; -174.000;  -26.000
218.376;  -67.000; -337.000; -229.000
218.520;  -12.000;  -41.000;   96.000
218.665;  -71.200; -338.000; -204.000
218.810;  -77.900; -275.000; -233.000
218.954;   70.700;  201.000;   35.000
219.099; -216.300; -713.000; -963.000
219.243; -134.700; -589.000; -554.000
219.388;  -72.700; -264.000; -136.000
219.532;    6.300; -116.000; -116.000
219.677; -183.600; -564.000; -521.000
219.822;  -10.200;   33.000;   89.000
219.966;  -21.600;   17.000;  -99.000
220.111;  -70.200; -328.000;  -40.000
220.255; -203.300; -797.000; -750.000
220.400;  -35.100; -180.000; -146.000
220.544; -112.300; -516.000; -450.000
220.689; -114.700; -422.000; -451.000
220.833;  -42.300; -123.000;  -58.000
220.978;  -78.900; -393.000; -563.000
221.122;   29.700;  319.000;  307.000
221.267; -220.300; -906.000; -837.000
221.411; -138.800; -478.000; -394.000
221.555;  -47.600; -104.000;  -23.000
221.700;  -81.900; -329.000; -222.000
221.844;   67.800;  255.000;  272.000
221.989; -107.200; -328.000; -311.000
222.133;  -62.900; -289.000; -307.000
222.277;    0.400;    5.000;   78.000
222.422;   43.400;  227.000;  113.000
222.566;  -87.300; -381.000; -214.000
222.711; -113.200; -414.000; -479.000
222.855; -151.800; -643.000; -586.000
222.999; -177.100; -642.000; -717.000
223.144;  -70.200; -195.000; -194.000
223.288;  115.000;  423.000;  251.000
223.432;   15.400;  184.000;  230.000
223.576;   44.300;  152.000;  -21.000
223.721;   94.200;  364.000;  273.000
223.865; -125.000; -472.000; -475.000
224.009;  468.700; 1673.000; 1631.000
224.153; -153.800; -660.000; -671.000
224.298; -153.700; -531.000; -489.000
224.442;  -30.600;  -74.000;  -33.000
224.586;    0.200; -169.000; -106.000
224.730; -211.300; -858.000; -670.000
224.875; -223.700; -739.000; -688.000
225.019;   16.600;  102.000;  188.000
225.163;  138.300;  208.000;  341.000
225.307;   25.800;   97.000;  -91.000
225.451;   97.700;  360.000;  481.000
225.595;   71.200;  264.000;  176.000
225.739;    4.700; -170.000;  -94.000
225.884;   35.800;   86.000;    5.000
226.028; -182.700; -760.000; -626.000
226.172;  -60.800; -260.000; -273.000
226.316; -244.500; -941.000; -902.000
226.460; -128.800; -645.000; -493.000
226.604;  -90.400; -406.000; -400.000
226.748; -194.900; -836.000; -733.000
226.892;  -56.100; -227.000; -181.000
227.036;  -91.800; -537.000; -447.000
227.180; -107.300; -551.000; -375.000
227.324; -135.600; -561.000; -580.000
227.468; -226.800; -819.000; -717.000
227.612;   40.500;  242.000;  -28.000
227.756; -214.100; -845.000; -698.000
227.900;  108.000;  342.000;  441.000
228.044; -126.200; -509.000; -290.000
228.188;  108.200;  448.000;  568.000
228.332; -192.300; -546.000; -472.000
228.476;  -55.700; -223.000; -149.000
228.620;  -39.400; -210.000; -150.000
228.764;  144.700;  431.000;  349.000
228.908;  -28.400; -155.000;   30.000
229.052; -119.300; -615.000; -528.000
229.195;  -21.800; -172.000;   13.000
229.339;  -47.700; -235.000; -305.000
229.483;  -62.200;    5.000; -162.000
229.627;   -9.700; -156.000;  139.000
229.771;  -74.900; -218.000; -294.000
229.915;   39.600;  230.000;   79.000
230.059; -188.800; -648.000; -663.000
230.202;  -79.800; -370.000; -317.000
230.346;  -42.100; -107.000;  107.000
230.490; -117.700; -489.000; -521.000
230.634; -211.900; -736.000; -553.000
230.777;  148.800;  478.000;  509.000
230.921; -105.200; -450.000; -359.000
231.065;  -79.800; -246.000; -286.000
231.209;   53.200;  261.000;  265.000
231.352;   47.100;   54.000;   40.000
231.496;   36.600;  568.000;  188.000
231.640; -170.900; -693.000; -621.000
231.783;  114.700;  546.000;  525.000
231.927;  -93.000; -294.000; -365.000
232.071; -261.400; -962.000; -736.000
232.214; -231.900; -980.000; -764.000
232.358; -203.000; -683.000; -599.000
232.502;   -9.900;  -19.000;    7.000
232.645; -290.000;-1090.000; -927.000
232.789;  -32.300; -257.000; -218.000
232.933; -101.700; -407.000; -224.000
233.076; -279.200;-1038.000; -897.000
233.220; -230.200; -752.000; -777.000
233.363; -122.100; -669.000; -477.000
233.507;  101.200;  371.000;  129.000
233.650; -192.500; -764.000; -834.000
233.794;  119.200;  438.000;  461.000
233.938; -121.300; -530.000; -362.000
234.081;  -29.400;  -93.000;   31.000
234.225; -132.500; -631.000; -539.000
234.368; -226.100; -773.000; -723.000
234.512;  -81.100; -385.000; -299.000
234.655; -191.300; -582.000; -555.000
234.798; -121.900; -493.000; -466.000
234.942; -244.100; -884.000;-1002.000
235.085; -128.600; -651.000; -443.000
235.229; -148.400; -405.000; -410.000
235.372;  -71.200; -247.000; -191.000
235.516; -113.700; -397.000; -321.000
235.659;   57.500;   92.000;  121.000
235.802;  -14.000;  -38.000;  -22.000
235.946;   26.100;  335.000;  215.000
236.089;    7.300;  126.000;  250.000
236.233;  107.000;  275.000;  298.000
236.376;  -94.000; -235.000; -378.000
236.519;  -89.600; -297.000; -319.000
236.663;  -56.500; -215.000; -117.000
236.806; -272.500;-1029.000; -999.000
236.949;   90.400;  543.000;  431.000
237.092;  126.500;  412.000;  391.000
237.236; -187.000; -589.000; -502.000
237.379;  153.100;  352.000;  428.000
237.522; -235.500; -879.000; -768.000
237.666;  -37.700; -271.000;   18.000
237.809; -249.500; -851.000; -823.000
237.952;   81.000;  469.000;  271.000
238.095; -153.300; -447.000; -442.000
238.238;  181.100;  688.000;  700.000
238.382;    1.800;  166.000;  103.000
238.525; -116.700; -598.000; -511.000
238.668; -281.000;-1060.000; -985.000
238.811; -192.100; -638.000; -643.000
238.954; -128.100; -483.000; -334.000
239.097;  190.000;  617.000;  664.000
239.241;   26.500;  394.000;  326.000
239.384;  -62.600; -254.000; -214.000
239.527; -131.400; -424.000; -224.000
239.670; -283.500; -994.000;-1091.000
239.813; -214.400; -696.000; -658.000
239.956;  174.700;  579.000;  473.000
240.099; -226.300; -778.000; -725.000
240.242;  142.000;  428.000;  432.000
240.385;   88.800;  466.000;  450.000
240.528; -116.100; -706.000; -473.000
240.671;   26.900;  189.000;  134.000
240.814;  -94.500; -441.000; -158.000
240.957; -185.300; -767.000; -578.000
241.100; -150.700; -779.000; -755.000
241.243; -283.300;-1234.000; -893.000
241.386; -140.400; -508.000; -379.000
241.529; -172.300; -735.000; -547.000
241.672; -126.400; -566.000; -495.000
241.815; -235.800; -832.000; -808.000
241.958;  -58.300; -125.000; -182.000
242.101; -181.900; -545.000; -390.000
242.244;  -87.600; -270.000; -325.000
242.387;  -90.500; -304.000; -246.000
242.530;  142.300;  470.000;  134.000
242.673;  -95.500; -381.000; -309.000
242.815; -218.800; -925.000; -899.000
242.958; -123.700; -482.000; -381.000
243.101;   33.300;  132.000;  187.000
243.244; -188.100; -564.000; -521.000
243.387;  -83.000; -313.000; -316.000
243.530; -184.200; -657.000; -674.000
243.672;  -13.800;   43.000;  -92.000
243.815; -107.600; -355.000; -283.000
243.958;    9.500;   98.000;  -26.000
244.101;   -3.300;   59.000;  -16.000
244.243;  -15.800;  -47.000;  101.000
244.386; -233.500; -761.000; -630.000
244.529;  -43.100; -132.000; -139.000
244.672; -295.900;-1154.000; -951.000
244.814; -208.500; -621.000; -794.000
244.957;  -74.100; -380.000; -304.000
245.100; -130.800; -489.000; -489.000
245.242; -110.800; -387.000; -374.000
245.385;    1.800;  -59.000;  -39.000
245.528; -219.900; -871.000; -705.000
245.670;  162.400;  612.000;  634.000
245.813; -169.600; -599.000; -547.000
245.956;  -57.700; -324.000; -275.000
246.098; -132.100; -508.000; -650.000
246.241;   26.400;  194.000;   48.000
246.383;  -21.200; -119.000;  -73.000
246.526; -155.700; -454.000; -525.000
246.669; -231.400; -889.000; -780.000
246.811;   59.500;  172.000;   -1.000
246.954; -118.900; -512.000; -426.000
247.096;  -29.300;  -84.000;   -6.000
247.239; -139.200; -482.000; -445.000
247.381; -143.000; -647.000; -488.000
247.524;  158.300;  645.000;  679.000
247.666;    3.000;   58.000;   11.000
247.809; -228.000; -887.000; -691.000
247.951;  -25.400;  -75.000;  138.000
248.094;   63.700;  432.000;  308.000
248.236; -314.500;-1262.000;-1238.000
248.378;  -64.800; -356.000;  -81.000
248.521; -114.500; -334.000; -337.000
248.663;  -84.400; -236.000; -267.000
248.806;  -78.600; -300.000; -266.000
248.948; -249.700; -886.000; -763.000
249.090; -120.800; -428.000; -398.000
249.233; -149.200; -344.000; -381.000
249.375; -103.000; -474.000; -451.000
249.518;  -53.200;  -83.000; -133.000
249.660;  -22.800; -103.000;    3.000
249.802; -351.500;-1303.000;-1189.000
249.945; -142.900; -612.000; -540.000
250.087; -235.300; -834.000; -768.000
250.229; -113.100; -362.000; -480.000
250.371; -151.800; -494.000; -439.000
250.514;  -98.300; -310.000; -244.000
250.656; -116.300;   69.000;  102.000
250.798; -219.600; -849.000; -800.000
250.940; -117.100; -322.000; -322.000
251.083;  -57.700; -335.000; -111.000
251.225;  112.800;  338.000;  310.000
251.367;  -95.900; -274.000; -373.000
251.509;  -33.100; -265.000; -210.000
251.651; -186.200; -731.000; -671.000
251.794;  165.200;  538.000;  632.000
251.936; -212.000; -821.000; -747.000
252.078; -162.500; -540.000; -461.000
252.220; -132.000; -645.000; -477.000
252.362;  114.500;  344.000;  462.000
252.504; -189.300; -677.000; -584.000
252.646; -228.700; -875.000; -722.000
252.788;  -33.800;   14.000; -128.000
252.931; -105.800; -257.000; -253.000
253.073;  -97.300; -376.000; -317.000
253.215;   -7.400;  141.000;  122.000
253.357;  -13.600;   82.000; -153.000
253.499;  -81.600; -374.000; -234.000
253.641; -191.800; -749.000; -594.000
253.783; -179.100; -609.000; -527.000
253.925; -185.800; -586.000; -591.000
254.067; -216.300; -744.000; -667.000
254.209; -100.000; -391.000; -259.000
254.351; -308.700; -865.000; -883.000
254.493; -128.600; -441.000; -417.000
254.635; -220.100; -936.000; -818.000
254.777; -173.800; -752.000; -687.000
254.918; -155.000; -512.000; -430.000
255.060; -112.100; -551.000; -395.000
255.202; -144.600; -473.000; -261.000
255.344; -165.200; -658.000; -455.000
255.486; -147.000; -471.000; -406.000
255.628; -201.800; -780.000; -781.000
255.770; -155.000; -676.000; -536.000
255.912; -134.300; -559.000; -468.000
256.053; -194.200; -730.000; -508.000
256.195;  336.800; 1008.000;  903.000
256.337; -182.100; -861.000; -595.000
256.479;  145.200;  532.000;  416.000
256.621;  -75.800; -394.000; -212.000
256.762; -167.400; -789.000; -742.000
256.904;  111.600;  485.000;  487.000
257.046;  -89.600; -381.000; -271.000
257.188;  -77.200; -351.000; -264.000
257.329; -146.500; -525.000; -464.000
257.471; -256.600; -939.000; -807.000
257.613; -134.900; -584.000; -498.000
257.755; -316.200;-1073.000; -982.000
257.896;   47.900;  286.000;  392.000
258.038; -141.500; -403.000; -352.000
258.180;  -95.600; -354.000; -279.000
258.321; -175.100; -581.000; -457.000
258.463;  -22.800;  -71.000;  133.000
258.605; -214.400; -562.000; -570.000
258.746; -210.200; -886.000; -772.000
258.888; -308.300;-1026.000;-1020.000
259.029;   38.100;  121.000;   -8.000
259.171; -188.300; -614.000; -550.000
259.313;  -16.600;  -49.000;  -47.000
259.454; -152.100; -536.000; -414.000
259.596;  -85.600; -483.000; -390.000
259.737; -167.700; -590.000; -474.000
259.879;   53.500;  217.000;  311.000
260.020;  183.300;  901.000;  636.000
260.162;  -49.800; -146.000; -253.000
260.303; -233.700; -768.000; -687.000
260.445; -162.500; -609.000; -613.000
260.586;   80.100;  392.000;  157.000
260.728;  -61.900; -360.000; -248.000
260.869; -125.800; -350.000; -343.000
261.011;  184.300;  706.000;  537.000
261.152; -145.700; -479.000; -319.000
261.293; -154.800; -576.000; -595.000
261.435;  -60.700; -219.000; -184.000
261.576;  -89.700; -455.000; -325.000
261.718;   98.700;  420.000;  470.000
261.859; -242.300; -940.000; -949.000
262.000; -260.000; -951.000;-1016.000
262.142;  -24.900;  -52.000;  -60.000
262.283; -227.800; -808.000; -691.000
262.424; -166.100; -666.000; -625.000
262.566; -304.300;-1161.000; -983.000
262.707; -235.100; -840.000; -830.000
262.848; -243.000; -769.000; -726.000
262.990;  -96.400; -362.000; -345.000
263.131;  151.400;  650.000;  681.000
263.272;    5.500;  -61.000;  -41.000
263.413; -190.900; -589.000; -561.000
263.555; -130.000; -669.000; -143.000
263.696; -186.400; -550.000; -641.000
263.837; -112.600; -449.000; -551.000
263.978;  -13.600;   -5.000;  -77.000
264.119;  -85.200; -283.000; -264.000
264.261; -222.500; -847.000; -630.000
264.402;    4.400;   33.000;   40.000
264.543; -140.300; -509.000; -524.000
264.684;   -9.400;   61.000;  -50.000
264.825; -174.000; -816.000; -538.000
264.966;   -4.400;  -84.000;  -67.000
265.107; -247.400; -646.000; -670.000
265.248; -232.800; -825.000; -812.000
265.390;  -15.800;  152.000;   -9.000
265.531;  -68.300; -238.000; -107.000
265.672; -173.500; -557.000; -630.000
265.813;  134.700;  563.000;  439.000
265.954; -282.000; -959.000; -940.000
266.095;  -43.500; -372.000; -322.000
266.236; -201.400; -686.000; -548.000
266.377;  -86.900; -243.000; -297.000
266.518; -131.800; -619.000; -547.000
266.659;   56.200;  170.000;  268.000
266.800;   30.400;   83.000;   85.000
266.941; -146.300; -487.000; -478.000
267.082;   29.500;  354.000;   99.000
267.223; -103.200; -344.000; -273.000
267.364; -233.600; -892.000; -686.000
267.504;   12.800;    3.000;  135.000
267.645;  -20.800;  160.000;   67.000
267.786;  -60.300; -147.000;  -86.000
267.927; -164.900; -473.000; -379.000
268.068;  -30.300; -186.000;  -61.000
268.209;  -93.700; -175.000; -413.000
268.350;  -79.200; -388.000; -532.000
268.490; -128.300; -648.000; -521.000
268.631;   72.100;  127.000;  225.000
268.772; -214.400; -874.000; -647.000
268.913;  -80.500; -328.000; -476.000
269.054;  -56.800; -117.000;   12.000
269.194;  -77.200; -418.000; -402.000
269.335; -319.200;-1137.000;-1074.000
269.476;  -35.300;   33.000;  -35.000
269.617; -101.000; -347.000; -392.000
269.757; -198.200; -713.000; -646.000
269.898; -228.800; -856.000; -613.000
270.039; -128.100; -415.000; -405.000
270.180; -274.400; -952.000; -816.000
270.320;  -36.600; -190.000; -250.000
270.461;  -88.800; -277.000; -249.000
270.602;  -25.100; -186.000; -156.000
270.742; -259.100; -868.000; -943.000
270.883; -126.300; -442.000; -390.000
271.023; -153.200; -358.000; -357.000
271.164; -141.100; -607.000; -528.000
271.305; -201.100; -666.000; -654.000
271.445; -174.300; -722.000; -683.000
271.586; -157.300; -462.000; -283.000
271.726; -120.600; -397.000; -322.000
271.867; -179.500; -594.000; -534.000
272.008;  -52.400; -473.000; -285.000
272.148;  105.400;  462.000;  468.000
272.289;  -23.400; -113.000; -181.000
272.429;   -0.600;   19.000;  185.000
272.570; -204.700; -633.000; -737.000
272.710; -236.700; -825.000; -775.000
272.851;  -36.400;  113.000; -130.000
272.991; -329.600;-1173.000;-1077.000
273.131; -127.700; -419.000; -459.000
273.272; -205.900; -683.000; -723.000
273.412;  -56.800; -143.000;  -31.000
273.553; -156.000; -488.000; -507.000
273.693;  252.100;  913.000;  858.000
273.834; -283.800; -894.000; -692.000
273.974; -123.900; -664.000; -615.000
274.114; -228.000; -772.000; -560.000
274.255;  123.000;  414.000;  373.000
274.395;  -75.300; -180.000; -125.000
274.535;   50.500;  199.000;  350.000
274.676;   68.900;  225.000;   94.000
274.816;    3.700;  110.000;   34.000
274.956; -186.300; -624.000; -690.000
275.097; -248.300;-1014.000; -922.000
275.237; -269.300; -913.000; -803.000
275.377; -194.700; -778.000; -689.000
275.517; -323.700; -878.000; -937.000
275.658; -153.100; -590.000; -555.000
275.798; -178.800; -606.000; -413.000
275.938;   42.200;  215.000;  323.000
276.078; -225.800; -626.000; -395.000
276.218;  -21.200;   99.000;  104.000
276.359; -303.200;-1026.000;-1024.000
276.499; -135.400; -605.000; -446.000
276.639;  -59.800; -305.000; -151.000
276.779; -103.600; -475.000; -357.000
276.919; -205.100; -783.000; -624.000
277.059;  -23.100; -261.000; -212.000
277.199; -118.200; -357.000; -259.000
277.340;   86.600;  287.000;  175.000
277.480; -229.900; -840.000; -693.000
277.620;   61.500;  192.000;   16.000
277.760; -406.400;-1533.000;-1294.000
277.900;    2.600;  113.000;   33.000
278.040;   -2.300;  137.000;  159.000
278.180;   72.400;  270.000;  170.000
278.320;  -26.700;   21.000;   56.000
278.460; -138.400; -443.000; -469.000
278.600; -203.100; -708.000; -598.000
278.740;  125.200;  448.000;  224.000
278.880; -256.000; -768.000; -791.000
279.020;  -68.100; -194.000; -144.000
279.160; -194.000; -672.000; -595.000
279.300; -230.200; -926.000; -873.000
279.440; -186.300; -709.000; -622.000
279.579; -263.800;-1014.000; -929.000
279.719; -145.300; -410.000; -394.000
279.859;   29.000;   -4.000;   41.000
279.999;  -48.000; -208.000;  101.000
280.139;  -89.700; -435.000; -387.000
280.279; -197.300; -708.000; -745.000
280.419;  -29.700; -229.000; -147.000
280.559; -104.900; -259.000; -180.000
280.698; -192.300; -790.000; -639.000
280.838; -234.700; -778.000; -800.000
280.978; -211.500; -846.000; -790.000
281.118; -225.700; -811.000; -704.000
281.257;   29.800;   24.000;    6.000
281.397; -321.400;-1094.000; -960.000
281.537; -195.700; -599.000; -712.000
281.677;  -40.400; -150.000; -101.000
281.816; -215.700; -700.000; -630.000
281.956;  -69.700; -193.000; -257.000
282.096; -117.200; -539.000; -396.000
282.235; -235.700; -672.000; -638.000
282.375;  -55.400; -243.000;  -98.000
282.515; -207.500; -715.000; -707.000
282.654;   21.600;   29.000;  106.000
282.794;   71.600;  388.000;  244.000
282.934; -117.700; -530.000; -491.000
283.073; -273.300;-1030.000; -857.000
283.213; -117.200; -460.000; -467.000
283.353; -122.800; -408.000; -349.000
283.492;  -52.500; -264.000; -296.000
283.632;  -94.700; -254.000; -168.000
283.771; -200.400; -859.000; -730.000
283.911; -102.500; -369.000; -260.000
284.050; -214.200; -794.000; -748.000
284.190; -294.900;-1229.000;-1096.000
284.329; -292.900;-1055.000; -964.000
284.469; -207.400; -516.000; -591.000
284.608; -123.400; -559.000; -598.000
284.748; -161.900; -614.000; -570.000
284.887;  -10.100;  -87.000;  -20.000
285.027; -257.300; -844.000; -892.000
285.166;  -54.800; -192.000; -249.000
285.306;  -40.500; -116.000;  -33.000
285.445;  -57.700; -229.000; -343.000
285.584; -204.400; -630.000; -494.000
285.724;  -76.700; -282.000; -322.000
285.863; -256.900; -857.000; -507.000
286.002; -131.400; -366.000; -276.000
286.142; -225.000; -715.000; -622.000
286.281; -142.600; -525.000; -493.000
286.420; -179.400; -554.000; -417.000
286.560;  203.200;  653.000;  623.000
286.699; -284.600; -958.000; -912.000
286.838; -163.000; -590.000; -591.000
286.978; -189.900; -533.000; -537.000
287.117; -261.900;-1085.000; -950.000
287.256;  -74.200; -228.000; -211.000
287.395;  -98.400; -197.000; -378.000
287.535; -112.300; -370.000; -298.000
287.674; -140.300; -509.000; -484.000
287.813;  128.300;  661.000;  533.000
287.952; -279.300;-1010.000; -871.000
288.091; -325.600;-1049.000; -915.000
288.231;    1.100;   13.000;   15.000
288.370; -343.100;-1217.000;-1200.000
288.509; -192.200; -728.000; -645.000
288.648; -184.500; -770.000; -548.000
288.787;  -63.800; -243.000;  -87.000
288.926; -138.900; -454.000; -475.000
289.065;  204.000;  859.000;  672.000
289.204;  -97.200; -377.000; -217.000
289.344; -214.900; -791.000; -690.000
289.483;   40.900;  416.000;  304.000
289.622;  -50.000; -291.000; -149.000
289.761;  -37.500; -309.000; -166.000
289.900; -218.600; -785.000; -626.000
290.039;  -18.000;  -12.000;  -95.000
290.178;  -78.100; -274.000; -180.000
290.317; -176.100; -618.000; -479.000
290.456; -142.900; -463.000; -451.000
290.595; -272.700; -961.000; -833.000
290.734; -284.700; -904.000; -891.000
290.873; -127.600; -456.000; -420.000
291.011; -232.000; -833.000; -843.000
291.150; -217.200; -770.000; -682.000
291.289;  -70.200; -343.000; -110.000
291.428; -211.500; -599.000; -480.000
291.567; -142.600; -370.000; -442.000
291.706;    2.700;  109.000;  154.000
291.845; -160.100; -597.000; -505.000
291.984; -356.000;-1234.000;-1061.000
292.122;  142.900;  602.000;  582.000
292.261;   70.300;  620.000;  463.000
292.400;   11.000; -144.000;  211.000
292.539; -243.600; -959.000; -813.000
292.678;  -55.200; -325.000; -300.000
292.816; -345.700;-1136.000; -965.000
292.955; -231.100; -844.000; -684.000
293.094;  -72.500; -173.000; -337.000
293.233; -115.400; -556.000; -400.000
293.371;  -70.000; -225.000;  -84.000
293.510; -199.300; -866.000; -780.000
293.649; -281.100; -959.000; -924.000
293.787; -283.600;-1083.000;-1012.000
293.926;  -40.000; -113.000;  -32.000
294.065;  -96.900; -379.000; -290.000
294.203;   75.800;  298.000;  406.000
294.342;   16.400;   74.000;  156.000
294.481;12863.000;51180.000; -836.000
294.619;  -53.600; -425.000; -582.000
294.758; -324.000;-1230.000;-1137.000
294.896;  -11.400; -125.000;    5.000
295.035; -308.100;-1040.000;-1006.000
295.174; -261.000;-1082.000; -954.000
295.312; -111.100; -323.000; -203.000
295.451; -102.200; -307.000; -428.000
295.589; -156.000; -389.000; -518.000
295.728;  -20.500; -292.000; -165.000
295.866;  -33.200;  -36.000;  -51.000
296.005; -156.100; -584.000; -341.000
296.143; -198.800; -558.000; -596.000
296.282; -235.500; -957.000; -881.000
296.420; -182.200; -657.000; -557.000
296.559; -244.200; -892.000; -633.000
296.697; -192.000; -847.000; -665.000
296.835; -303.600;-1141.000;-1002.000
296.974;    9.200;  -23.000;   39.000
297.112; -140.600; -443.000; -504.000
297.251; -228.700; -815.000; -755.000
297.389; -179.800; -576.000; -438.000
297.527;  -56.800; -145.000;  -83.000
297.666; -164.800; -486.000; -438.000
297.804; -129.700; -404.000; -264.000
297.942;  -25.000; -136.000; -161.000
298.081;  -41.600; -183.000;   63.000
298.219;  -58.600;  -17.000;  -19.000
298.357;  -87.400; -144.000;  -71.000
298.495; -237.700; -810.000; -812.000
298.634;   -4.300;  245.000;  219.000
298.772;  -79.600; -220.000; -338.000
298.910; -135.500; -309.000; -182.000
299.048;  -15.100; -130.000; -153.000
299.187;  -99.200; -350.000; -250.000
299.325;    1.900;   52.000;  122.000
299.463; -108.800; -389.000; -299.000
299.601;  -80.600; -327.000; -271.000
299.739; -274.400; -908.000; -883.000
299.877; -197.000; -791.000; -703.000
300.016; -306.500;-1095.000; -935.000
300.154;  -19.000;  -19.000; -161.000
300.292; -147.800; -428.000; -348.000
300.430;  -91.000; -408.000; -291.000
300.568; -261.100; -940.000; -874.000
300.706; -151.900; -366.000; -469.000
300.844; -330.600;-1108.000; -979.000
300.982;   86.800;  246.000;  282.000
301.120; -283.100; -965.000; -866.000
301.258; -179.900; -812.000; -705.000
301.396;   23.300;  104.000;  -41.000
301.534;  -91.700; -218.000; -293.000
301.672; -182.600; -664.000; -521.000
301.810; -187.600; -613.000; -545.000
301.948;    1.100;   53.000;  149.000
302.086;  -57.400; -250.000;  -32.000
302.224; -183.900; -610.000; -585.000
302.362; -157.000; -558.000; -622.000
302.500; -266.400; -923.000; -893.000
302.638;   -0.600;  128.000;  245.000
302.776;  -79.600; -352.000; -408.000
302.913;   46.400;  447.000;  236.000
303.051;  -74.200;  -86.000;  -23.000
303.189;   33.600;   90.000;  118.000
303.327; -110.300; -341.000; -256.000
303.465; -185.100; -832.000; -588.000
303.603; -219.600; -805.000; -604.000
303.740;   76.500;  417.000;  241.000
303.878; -233.700; -800.000; -759.000
304.016; -200.500; -915.000; -790.000
304.154; -369.900;-1123.000;-1152.000
304.291; -129.300; -505.000; -554.000
304.429;  -12.800;  102.000;   74.000
304.567; -280.600; -908.000; -893.000
304.705; -153.200; -408.000; -515.000
304.842; -170.500; -616.000; -540.000
304.980;    4.700;  215.000;   35.000
305.118; -108.200; -367.000; -365.000
305.255; -299.200; -945.000; -927.000
305.393;   65.500;  178.000;  239.000
305.531; -273.300;-1173.000; -956.000
305.668; -198.300; -663.000; -582.000
305.806; -135.300; -358.000; -439.000
305.943; -159.200; -629.000; -637.000
306.081;  -73.700; -378.000; -267.000
306.219; -228.400; -863.000; -748.000
306.356;  -18.800;  158.000;   27.000
306.494;  194.100;  981.000;  761.000
306.631;  -33.500;  -11.000;  -55.000
306.769; -127.800; -613.000; -485.000
306.906; -158.700; -284.000; -258.000
307.044; -122.100; -473.000; -488.000
307.181; -159.300; -410.000; -332.000
307.319;   25.400;  112.000;   87.000
307.456; -362.000;-1191.000;-1153.000
307.594; -259.100; -980.000; -727.000
307.731;  -89.800; -371.000; -164.000
307.868;   -1.700;  -15.000;   20.000
308.006; -289.200; -961.000; -847.000
308.143; -154.600; -618.000; -330.000
308.281;  -68.200;  -37.000; -254.000
308.418; -198.200; -748.000; -640.000
308.555; -179.000; -400.000; -250.000
308.693; -153.300; -577.000; -573.000
308.830; -236.700; -712.000; -657.000
308.967;  -58.700; -215.000;  -95.000
309.105; -173.500; -507.000; -396.000
309.242; -116.300; -468.000; -367.000
309.379; -174.700; -577.000; -655.000
309.517; -245.800; -936.000; -948.000
309.654; -251.000; -910.000; -734.000
309.791; -160.400; -662.000; -580.000
309.928; -291.900; -977.000; -914.000
310.065;  142.600;  819.000;  697.000
310.203; -261.600; -825.000; -850.000
310.340; -126.100; -465.000; -321.000
310.477; -179.200; -412.000; -516.000
310.614; -114.000; -383.000; -473.000
310.751; -177.700; -427.000; -518.000
310.889;  -19.500;    1.000;   11.000
311.026; -284.800;-1161.000; -939.000
311.163; -107.600; -386.000; -380.000
311.300; -188.000; -512.000; -479.000
311.437; -154.600; -658.000; -619.000
311.574; -323.900;-1226.000; -985.000
311.711; -146.300; -595.000; -433.000
311.848; -126.400; -380.000; -388.000
311.985;   28.700;  270.000;   93.000
312.122; -271.500; -932.000; -762.000
312.259; -262.200; -941.000; -994.000
312.396; -187.300; -508.000; -551.000
312.533; -200.300; -812.000; -790.000
312.670; -312.800;-1070.000; -898.000
312.807; -115.500; -352.000; -367.000
312.944; -194.800; -513.000; -611.000
313.081;  -88.600; -150.000; -415.000
313.218; -305.900;-1111.000; -867.000
313.355; -126.200; -531.000; -449.000
313.492; -130.900; -455.000; -292.000
313.629;  174.400;  815.000;  735.000
313.766; -371.100;-1176.000;-1008.000
313.902;  -34.700; -186.000;   21.000
314.039; -104.300; -372.000; -289.000
314.176;   19.500;  286.000;  192.000
314.313; -176.200; -569.000; -473.000
314.450; -196.000; -788.000; -684.000
314.587; -196.200; -468.000; -480.000
314.723;  -26.900;  -78.000;  130.000
314.860;   19.300;  318.000;  332.000
314.997;   23.800;  223.000;  142.000
315.134; -146.900; -385.000; -368.000
315.270; -142.200; -480.000; -496.000
315.407; -313.700;-1094.000; -967.000
315.544; -150.400; -657.000; -538.000
315.681; -200.900; -681.000; -565.000
315.817;  -48.000; -133.000; -176.000
315.954; -179.800; -613.000; -392.000
316.091; -314.800;-1045.000;-1023.000
316.227;  -74.500;  -71.000; -179.000
316.364;    0.400;   23.000;    6.000
316.500;  -86.200; -113.000; -300.000
316.637; -103.300; -181.000; -302.000
316.774; -174.000; -625.000; -358.000
316.910; -211.000; -598.000; -629.000
317.047; -179.800; -487.000; -351.000
317.183; -163.800; -435.000; -566.000
317.320; -100.200; -367.000; -321.000
317.456; -234.300; -733.000; -805.000
317.593; -177.800; -598.000; -641.000
317.729;    7.900;  168.000;  -67.000
317.866; -406.800;-1434.000;-1285.000
318.002; -188.400; -708.000; -948.000
318.139; -273.300; -883.000; -867.000
318.275; -263.100;-1003.000; -738.000
318.412; -155.400; -517.000; -336.000
318.548; -193.900; -751.000; -720.000
318.685; -288.000; -985.000; -888.000
318.821; -233.100; -762.000; -735.000
318.957;  -63.700;   34.000;  -23.000
319.094;   59.900;  297.000;  154.000
319.230; -239.000; -756.000; -742.000
319.367; -121.200; -471.000; -520.000
319.503; -161.100; -538.000; -436.000
319.639; -170.800; -877.000; -793.000
319.775; -224.100; -750.000; -685.000
319.912; -124.600; -424.000; -519.000
320.048; -370.000;-1184.000;-1184.000
320.184;    9.200;   59.000;   70.000
320.321; -143.300; -497.000; -467.000
320.457;   97.100;  475.000;  662.000
320.593; -140.500; -375.000; -382.000
320.729; -236.300; -732.000; -734.000
320.866; -194.800; -577.000; -635.000
321.002; -237.400; -759.000; -809.000
321.138; -103.100; -135.000; -211.000
321.274;  -14.900; -148.000; -115.000
321.410; -160.100; -585.000; -353.000
321.546; -286.000;-1011.000; -911.000
321.683;   27.000;  400.000;  185.000
321.819;  -25.700;  -48.000; -117.000
321.955; -247.700; -743.000; -722.000
322.091; -165.700; -585.000; -540.000
322.227;  -68.200; -382.000; -202.000
322.363; -100.500; -320.000; -215.000
322.499;  -93.500; -343.000; -331.000
322.635;  150.800;  636.000;  443.000
322.771;  -46.800; -139.000;   12.000
322.907;   98.100;  129.000;  327.000
323.043; -105.100; -115.000; -206.000
323.179;  -98.300; -394.000; -363.000
323.315; -148.400; -401.000; -371.000
323.451;  -72.700; -328.000; -236.000
323.587;  -81.600;  -60.000;  -77.000
323.723; -189.000; -682.000; -601.000
323.859; -107.200; -258.000;  -76.000
323.995; -134.300; -467.000; -409.000
324.131; -281.300; -967.000; -892.000
324.267;  -79.300; -254.000; -276.000
324.402; -281.400; -960.000; -983.000
324.538;  -88.700; -279.000; -104.000
324.674;    5.800;  164.000;   77.000
324.810;   -4.400;  226.000;  308.000
324.946; -129.000; -810.000; -658.000
325.082; -164.100; -568.000; -475.000
325.217;  -17.600;  -62.000;   16.000
325.353; -201.800; -764.000; -659.000
325.489; -185.700; -540.000; -506.000
325.625; -152.800; -579.000; -525.000
325.760;   64.000;  517.000;  376.000
325.896; -170.800; -515.000; -702.000
326.032; -165.200; -403.000; -352.000
326.168; -120.900; -462.000; -369.000
326.303; -131.000; -352.000; -461.000
326.439;  -48.600; -336.000; -276.000
326.575;  -41.400; -190.000;  -29.000
326.710;  -27.800; -156.000;  -30.000
326.846;  -21.800;  146.000;  103.000
326.982; -190.300; -530.000; -548.000
327.117; -138.600; -481.000; -442.000
327.253; -199.500; -745.000; -742.000
327.388; -312.400;-1137.000;-1153.000
327.524; -205.000; -811.000; -578.000
327.659;  -73.800;  -58.000;  -22.000
327.795;  -20.600;   69.000;   45.000
327.931; -205.600; -723.000; -499.000
328.066;  -55.100; -417.000; -276.000
328.202;  -21.700;   12.000; -129.000
328.337;  196.000;  957.000;  713.000
328.473;  -21.900;  -12.000;  -74.000
328.608;  -55.800; -256.000; -267.000
328.743; -259.300; -799.000; -664.000
328.879;   75.900;  214.000;  114.000
329.014; -129.700; -102.000; -122.000
329.150; -167.100; -358.000; -483.000
329.285; -171.500; -465.000; -466.000
329.421;  -95.600; -548.000; -246.000
329.556;  -51.000;  -36.000;   85.000
329.691; -193.200; -633.000; -615.000
329.827; -164.700; -626.000; -480.000
329.962;  -79.900;  131.000; -301.000
330.097; -209.900; -673.000; -585.000
330.233;  -94.300; -410.000; -223.000
330.368; -251.800; -839.000; -628.000
330.503;  -15.000;    3.000;   98.000
330.638;  -30.400;  -93.000; -125.000
330.774; -171.200; -609.000; -530.000
330.909; -121.100; -434.000; -244.000
331.044; -211.500; -714.000; -708.000
331.179; -344.600;-1217.000;-1109.000
331.315;   -2.600;   77.000;   20.000
331.450;   -4.100;  157.000;  285.000
331.585; -196.700; -805.000; -706.000
331.720; -207.200; -510.000; -460.000
331.855;  -39.600;  -35.000; -102.000
331.990;  -20.600;   62.000;  138.000
332.126;   -9.800; -110.000;   71.000
332.261; -150.500; -379.000; -265.000
332.396;  -70.300; -135.000; -242.000
332.531; -336.000;-1074.000;-1031.000
332.666; -124.700; -519.000; -363.000
332.801; -228.600; -726.000; -807.000
332.936;  -35.100; -192.000; -122.000
333.071; -286.800; -870.000; -817.000
333.206;   52.000;  307.000;  379.000
333.341;   59.400;  344.000;  418.000
333.476; -183.700; -627.000; -623.000
333.611;  -66.800; -251.000; -173.000
333.746;  -76.800; -381.000; -464.000
333.881; -267.000; -973.000; -935.000
334.016; -264.900; -936.000; -917.000
334.151; -267.100; -746.000; -702.000
334.286;    4.300;  152.000;  186.000
334.421;  -43.500; -125.000; -178.000
334.556; -161.300; -611.000; -567.000
334.690; -215.700; -631.000; -577.000
334.825;  101.300;  381.000;   83.000
334.960; -165.400; -285.000; -413.000
335.095;  -10.600;  135.000;  -91.000
335.230; -244.600; -722.000; -738.000
335.365; -327.700;-1084.000; -990.000
335.499; -327.500;-1108.000;-1037.000
335.634;  -12.400;    9.000;  534.000
335.769; -250.400; -755.000; -720.000
335.904; -167.900; -603.000; -561.000
336.038; -241.600; -735.000; -657.000
336.173; -330.800;-1206.000;-1194.000
336.308;  -82.200; -116.000; -189.000
336.443; -192.900; -544.000; -634.000
336.577; -271.500; -936.000; -787.000
336.712;  -17.400;   -4.000;  -12.000
336.847; -223.800; -724.000; -607.000
336.981; -117.100; -272.000; -208.000
337.116;  101.600;  615.000;  501.000
337.250; -159.900; -434.000; -421.000
337.385; -111.700; -297.000; -208.000
337.520; -184.000; -632.000; -603.000
337.654; -118.900; -215.000; -126.000
337.789; -296.400; -989.000; -933.000
337.923;  -83.800; -104.000; -205.000
338.058; -238.500; -673.000; -738.000
338.192; -211.400; -611.000; -488.000
338.327;  -50.700;  -18.000; -155.000
338.461; -188.800; -299.000; -469.000
338.596; -197.400; -780.000; -638.000
338.730; -262.000; -767.000; -803.000
338.865;  -17.800;  -46.000; -140.000
338.999; -249.500; -846.000; -702.000
339.134; -184.200; -634.000; -536.000
339.268; -212.200; -741.000; -603.000
339.403; -226.900; -740.000; -775.000
339.537; -240.000; -894.000; -820.000
339.671; -264.600; -829.000; -813.000
339.806; -218.400; -556.000; -512.000
339.940;  -62.000; -261.000; -235.000
340.074; -221.900; -685.000; -510.000
340.209;  -43.700; -351.000; -230.000
340.343; -196.300; -517.000; -573.000
340.477;  271.200;  998.000; 1036.000
340.612; -294.500;-1033.000; -900.000
340.746; -114.900; -199.000; -243.000
340.880; -270.900; -924.000; -785.000
341.014;  -14.400;  -45.000; -154.000
341.149; -226.900; -756.000; -718.000
341.283; -219.500; -839.000; -754.000
341.417; -292.200;-1124.000; -938.000
341.551; -226.000; -768.000; -708.000
341.685; -212.600; -633.000; -611.000
341.820; -182.400; -562.000; -493.000
341.954; -148.600; -218.000; -349.000
342.088; -301.000;-1102.000;-1019.000
342.222;   58.900;  565.000;  618.000
342.356; -143.600; -395.000; -335.000
342.490; -257.300; -880.000; -841.000
342.624;  -80.400; -339.000; -242.000
342.758; -148.400; -364.000; -312.000
342.892; -212.200; -710.000; -585.000
343.026;  -72.200;  -58.000; -116.000
343.160; -112.700; -426.000; -376.000
343.294; -172.400; -474.000; -337.000
343.428; -158.100; -488.000; -448.000
343.562;  -73.300; -172.000;  -23.000
343.696;  -78.000; -385.000; -314.000
343.830;  -96.600; -362.000; -356.000
343.964;  -57.500; -231.000; -168.000
344.098;  -46.100;  199.000;   70.000
344.232;  -70.200; -266.000; -127.000
344.366; -188.100; -567.000; -453.000
344.500; -207.100; -665.000; -744.000
344.634; -120.000; -324.000; -164.000
344.768; -133.200; -531.000; -341.000
344.902;   29.500;  278.000;  256.000
345.035; -139.800; -556.000; -496.000
345.169; -283.200; -933.000; -656.000
345.303; -186.400; -308.000; -482.000
345.437; -246.800; -826.000; -717.000
345.571; -168.900; -675.000; -594.000
345.704; -151.300; -309.000; -532.000
345.838; -113.300; -331.000; -284.000
345.972; -203.700; -543.000; -495.000
346.106;  -20.300; -179.000; -190.000
346.239;  -87.500; -312.000; -243.000
346.373; -124.500; -343.000; -302.000
346.507; -328.700; -950.000; -962.000
346.640;  -42.000;  -30.000;   13.000
346.774; -215.600; -650.000; -797.000
346.908;  -59.600; -138.000;  -11.000
347.041; -209.600; -646.000; -593.000
347.175;   25.800;  259.000;   27.000
347.309; -253.500; -698.000; -628.000
347.442; -255.600; -883.000; -732.000
347.576;  132.900;  670.000;  668.000
347.709;  -52.300; -123.000;  -52.000
347.843; -302.700; -933.000; -825.000
347.976;   35.800;  235.000;  294.000
348.110; -372.500;-1268.000;-1186.000
348.243; -188.500; -679.000; -772.000
348.377;  -27.300;  -26.000;   60.000
348.510;   84.700;  403.000;  540.000
348.644; -117.200;  -37.000; -159.000
348.777;    0.700;  180.000;  191.000
348.911;  -69.900; -142.000; -112.000
349.044;  102.000;  471.000;  448.000
349.178; -338.900;-1069.000;-1006.000
349.311;   49.800;  141.000;  255.000
349.444; -289.900; -927.000; -813.000
349.578; -100.500; -347.000; -200.000
349.711; -276.600; -959.000; -862.000
349.845; -176.900; -661.000; -591.000
349.978; -326.300;-1224.000;-1137.000
350.111; -178.400; -546.000; -612.000
350.244; -216.200; -596.000; -700.000
350.378; -125.800; -392.000; -393.000
350.511; -166.800; -393.000; -426.000
350.644; -238.800; -808.000; -806.000
350.778;  -42.600;  168.000;  104.000
350.911;   23.300;  134.000;  140.000
351.044; -211.700; -685.000; -615.000
351.177;  -89.000; -321.000; -281.000
351.310;  -23.200;    3.000; -131.000
351.444; -265.000; -888.000; -788.000
351.577;    1.000;  140.000;   90.000
351.710;  156.800;  593.000;  417.000
351.843;  -87.900; -165.000;  -77.000
351.976;  -25.800;  149.000;  -79.000
352.109; -223.700; -621.000; -612.000
352.242; -129.100; -464.000; -419.000
352.376; -201.600; -580.000; -636.000
352.509; -131.800; -437.000; -356.000
352.642; -309.900; -654.000; -604.000
352.775;  -28.400; -141.000;  -98.000
352.908; -310.100; -933.000; -904.000
353.041; -205.400; -814.000; -824.000
353.174; -149.200; -551.000; -424.000
353.307; -203.700; -753.000; -764.000
353.440;  103.500;  541.000;  453.000
353.573; -294.800; -957.000;-1008.000
353.706; -169.500; -384.000; -558.000
353.839;  -74.500; -264.000; -220.000
353.971; -190.800; -657.000; -512.000
354.104; -253.000; -896.000; -835.000
354.237; -222.600; -627.000; -662.000
354.370; -212.900; -846.000; -879.000
354.503; -398.100;-1231.000;-1308.000
354.636; -126.200; -529.000; -348.000
354.769; -297.200; -937.000; -860.000
354.902;  -96.200; -230.000; -139.000
355.034;  -92.600; -164.000; -220.000
355.167; -103.800; -262.000; -162.000
355.300; -301.100;-1061.000; -880.000
355.433;  -43.100;  -71.000;  -14.000
355.565; -164.300; -402.000; -384.000
355.698; -104.000; -356.000; -296.000
355.831; -267.400; -882.000; -801.000
355.964;  -80.900; -285.000; -170.000
356.096; -283.900; -856.000; -843.000
356.229; -195.400; -523.000; -530.000
356.362; -125.200; -373.000; -266.000
356.494;  -66.200; -229.000; -162.000
356.627;   28.700;  269.000;  377.000
356.760;    6.400;  120.000;   53.000
356.892; -222.900; -286.000; -601.000
357.025;  106.500;  403.000;  389.000
357.157;  -51.400; -167.000; -179.000
357.290; -248.100; -856.000; -713.000
357.423; -204.000; -667.000; -556.000
357.555;  -70.400; -217.000; -228.000
357.688; -187.000; -483.000; -364.000
357.820; -264.700; -870.000; -877.000
357.953; -211.700; -563.000; -589.000
358.085; -202.800; -632.000; -612.000
358.218; -319.600;-1131.000; -932.000
358.350;  -34.100;  -58.000;  312.000
358.483; -352.400;-1300.000;-1187.000
358.615; -305.100;-1182.000;-1078.000
358.747; -365.600;-1187.000;-1058.000
358.880; -250.200; -810.000; -744.000
359.012; -138.000; -376.000; -202.000
359.145; -179.000; -480.000; -511.000
359.277; -292.200; -962.000; -913.000
359.409;  102.700;  536.000;  231.000
359.542; -236.000; -738.000; -688.000
359.674;    9.400;   46.000;   13.000
359.806; -182.400; -565.000; -438.000
359.939; -175.600; -617.000; -516.000
360.071; -189.500; -583.000; -579.000
360.203; -134.200; -411.000; -364.000
360.335;   -7.200;  164.000;  -16.000
360.468;  -69.600; -249.000; -307.000
360.600; -191.200; -547.000; -454.000
360.732; -197.100; -546.000; -423.000
360.864; -359.600;-1216.000;-1044.000
360.996; -135.600; -516.000; -554.000
361.129; -177.600; -389.000; -598.000
361.261;  -57.600;  110.000; -113.000
361.393;  -99.700; -252.000; -214.000
361.525;    8.700;   94.000;  244.000
361.657; -254.200; -821.000; -703.000
361.789;  -39.800; -139.000; -155.000
361.921; -208.400; -642.000; -593.000
362.053;  131.200;  524.000;  541.000
362.185;   34.300;  288.000;   72.000
362.318; -207.700; -709.000; -705.000
362.450;   82.900;  294.000;  444.000
362.582; -278.400; -913.000; -870.000
362.714; -126.600; -353.000; -332.000
362.846; -196.800; -606.000; -490.000
362.978; -296.600; -941.000; -811.000
363.109;  -99.400; -161.000; -260.000
363.241; -267.300; -739.000; -749.000
363.373; -188.900; -649.000; -564.000
363.505;  -48.500; -186.000;  -91.000
363.637; -204.500; -787.000; -601.000
363.769; -325.900;-1067.000;-1080.000
363.901; -172.200; -596.000; -654.000
364.033; -344.200;-1103.000;-1062.000
364.165;  -80.400; -283.000; -283.000
364.296; -114.800; -316.000; -177.000
364.428; -385.900;-1344.000;-1220.000
364.560; -218.300; -679.000; -661.000
364.692; -185.700; -738.000; -835.000
364.824; -180.200; -588.000; -456.000
364.955; -108.400; -402.000; -564.000
365.087; -304.200;-1097.000; -852.000
365.219; -228.500; -686.000; -816.000
365.351; -199.800; -526.000; -572.000
365.482;   39.100;  300.000;  240.000
365.614; -100.800; -402.000; -314.000
365.746; -219.500; -729.000; -752.000
365.877; -250.100; -706.000; -672.000
366.009;  -75.400;  -35.000;  -62.000
366.141; -364.800;-1249.000;-1134.000
366.272; -208.900; -803.000; -719.000
366.404; -285.600;-1005.000; -874.000
366.535;  -40.600; -139.000;  -12.000
366.667; -225.100; -644.000; -649.000
366.799;   66.500;  353.000;  203.000
366.930; -289.800; -862.000; -996.000
367.062; -171.700; -639.000; -613.000
367.193; -276.300; -872.000; -842.000
367.325; -182.100; -580.000; -684.000
367.456;  -94.600; -246.000;   31.000
367.588;  -79.500; -371.000; -318.000
367.719;  -70.000;  -44.000;  -45.000
367.851; -103.100; -222.000; -241.000
367.982; -270.400; -875.000; -732.000
368.113; -156.700; -475.000; -358.000
368.245; -287.700; -960.000; -841.000
368.376; -115.300; -254.000; -302.000
368.508;  -93.000; -188.000; -263.000
368.639; -334.100;-1166.000;-1034.000
368.770; -223.900; -670.000; -589.000
368.902; -245.600; -836.000; -926.000
369.033; -267.600; -906.000; -855.000
369.164; -217.800; -720.000; -653.000
369.296; -227.500; -452.000; -601.000
369.427;  -80.600; -209.000; -144.000
369.558; -171.500; -593.000; -377.000
369.689; -177.500; -721.000; -569.000
369.821; -278.700; -951.000; -845.000
369.952;  -27.800;   42.000; -108.000
370.083; -119.900; -229.000; -108.000
370.214; -195.100; -735.000; -650.000
370.345;  -18.000;   65.000;   81.000
370.477; -269.000; -810.000; -790.000
370.608; -106.800; -328.000; -264.000
370.739; -360.300;-1233.000;-1292.000
370.870; -295.600;-1102.000; -923.000
371.001; -121.700; -378.000; -467.000
371.132; -212.100; -754.000; -735.000
371.263;  -30.900;  -42.000; -148.000
371.394; -256.200; -841.000; -748.000
371.525;   33.600;  345.000;  225.000
371.657; -273.700; -808.000; -670.000
371.788;   49.600;  103.000;  199.000
371.919; -145.600; -384.000; -304.000
372.050;  -52.500;  -91.000; -156.000
372.181;  -61.600; -188.000; -294.000
372.311;  -12.600;   42.000; -127.000
372.442; -150.400; -457.000; -451.000
372.573;  -94.200; -444.000; -340.000
372.704; -325.200;-1008.000; -980.000
372.835;  -92.700; -228.000; -289.000
372.966; -200.700; -646.000; -554.000
373.097; -240.600; -575.000; -711.000
373.228; -225.100; -717.000; -542.000
373.359; -212.500; -824.000; -536.000
373.490; -273.000; -881.000; -727.000
373.620; -272.700;-1001.000; -803.000
373.751; -177.100; -332.000; -396.000
373.882; -192.700; -663.000; -733.000
374.013; -123.300; -449.000; -262.000
374.143; -196.300; -581.000; -659.000
374.274; -302.200; -987.000; -908.000
374.405; -119.900; -388.000; -276.000
374.536; -137.300; -526.000; -387.000
374.666; -244.200; -759.000; -807.000
374.797; -276.300; -817.000; -868.000
374.928; -199.400; -710.000; -560.000
375.058; -204.100; -535.000; -500.000
375.189;  -82.400;  -59.000;  -93.000
375.320; -310.200; -928.000;-1034.000
375.450; -155.200; -625.000; -616.000
375.581; -167.700; -526.000; -436.000
375.712;  -90.900; -574.000; -250.000
375.842; -162.600; -438.000; -415.000
375.973; -174.600; -554.000; -513.000
376.103; -229.700; -665.000; -648.000
376.234; -187.200; -531.000; -552.000
376.364; -292.100; -944.000; -867.000
376.495;  174.000;  925.000;  529.000
376.625; -180.500; -472.000; -485.000
376.756; -201.100; -709.000; -678.000
376.886; -343.500;-1178.000;-1026.000
377.017; -318.600;-1048.000;-1061.000
377.147; -269.400; -786.000; -782.000
377.278;   43.000;  174.000;  228.000
377.408; -243.300; -801.000; -815.000
377.538; -215.600; -707.000; -693.000
377.669; -199.100; -537.000; -613.000
377.799; -223.700; -645.000; -635.000
377.929; -189.800; -610.000; -428.000
378.060; -250.300; -781.000; -847.000
378.190; -217.100; -726.000; -531.000
378.320; -156.700; -401.000; -406.000
378.451;  -53.400; -131.000;  -22.000
378.581;  -36.900;  -67.000; -110.000
378.711;  173.100; 1035.000;  866.000
378.841; -196.700; -533.000; -675.000
378.972; -300.300; -871.000; -751.000
379.102; -190.200; -652.000; -579.000
379.232; -106.800; -126.000;  -73.000
379.362; -267.100;-1001.000; -885.000
379.492; -198.200; -373.000; -424.000
379.623;   -8.600;    0.000;  111.000
379.753; -314.000;-1107.000; -974.000
379.883;   18.300;   59.000;  156.000
380.013; -330.200;-1081.000;-1017.000
380.143; -305.300;-1097.000;-1056.000
380.273; -304.000; -985.000; -861.000
380.403;  -77.400; -344.000; -257.000
380.533; -268.400; -651.000; -664.000
380.663;   26.600;  173.000;  128.000
380.793; -343.500;-1027.000;-1074.000
380.923;  -66.200; -103.000;  -34.000
381.053; -205.100; -613.000; -623.000
381.183;  -87.900; -106.000; -248.000
381.313; -209.400; -656.000; -470.000
381.443; -151.800; -692.000; -473.000
381.573; -157.300; -402.000; -409.000
381.703; -341.500;-1249.000;-1095.000
381.833; -398.500;-1454.000;-1336.000
381.963;  -43.900; -134.000;  -87.000
382.093; -298.800; -925.000; -909.000
382.223; -167.600; -713.000; -602.000
382.353; -241.100; -801.000; -608.000
382.482; -315.600;-1091.000; -964.000
382.612; -237.600; -872.000; -644.000
382.742; -214.900; -695.000; -622.000
382.872; -169.500; -565.000; -551.000
383.002;   -4.500;  347.000; -132.000
383.131; -161.600; -226.000; -160.000
383.261; -229.000; -706.000; -768.000
383.391; -188.600; -552.000; -377.000
383.521;   80.200;  451.000;  263.000
383.650; -310.000; -947.000; -904.000
383.780; -220.200; -783.000; -656.000
383.910;  165.600;  880.000;  802.000
384.039; -256.800; -794.000; -656.000
384.169; -371.300;-1205.000;-1017.000
384.299; -198.900; -650.000; -662.000
384.428; -242.700; -764.000; -680.000
384.558; -112.300; -308.000; -275.000
384.687; -155.800; -414.000; -334.000
384.817;    1.200;   75.000;   -2.000
384.947;  -96.000; -234.000; -141.000
385.076;  240.900;  982.000;  912.000
385.206;   70.900;  369.000;  480.000
385.335; -146.400; -549.000; -417.000
385.465; -240.700; -655.000; -663.000
385.594;  -21.800;  -53.000;  -44.000
385.724; -258.600; -868.000; -838.000
385.853; -114.500; -296.000; -270.000
385.982; -276.600; -743.000; -787.000
386.112; -294.300;-1052.000; -871.000
386.241; -111.800; -307.000; -312.000
386.371; -117.800; -174.000;  -87.000
386.500; -292.700; -825.000; -789.000
386.629; -223.600; -874.000; -817.000
386.759;  -64.700;  -43.000;   68.000
386.888;  -34.800; -170.000; -250.000
387.017; -190.600; -648.000; -620.000
387.147; -243.300; -771.000; -798.000
387.276; -189.600; -410.000; -397.000
387.405; -145.200; -398.000; -342.000
387.535; -197.800; -452.000; -361.000
387.664; -225.300; -692.000; -620.000
387.793;  -82.800; -198.000; -113.000
387.922;   21.100;  255.000;  200.000
388.052; -173.000; -576.000; -423.000
388.181; -129.600; -342.000; -472.000
388.310; -310.100; -889.000; -710.000
388.439; -267.900; -749.000; -742.000
388.568;  -22.100;  365.000;  244.000
388.697; -212.400; -756.000; -653.000
388.826; -196.300; -768.000; -666.000
388.956; -121.900; -285.000; -307.000
389.085; -141.000; -347.000; -287.000
389.214; -231.000; -842.000; -872.000
389.343; -205.900; -645.000; -413.000
389.472;   55.000;  126.000;  149.000
389.601;  -45.400;   91.000;    0.000
389.730; -174.100; -568.000; -687.000
389.859;   20.300;  226.000;   46.000
389.988; -143.000; -423.000; -408.000
390.117;  -79.500; -168.000; -146.000
390.246; -103.400; -331.000; -320.000
390.375; -255.400; -673.000; -626.000
390.504; -178.100; -703.000; -621.000
390.633; -255.100; -672.000; -726.000
390.761; -233.700; -732.000; -645.000
390.890;  -75.800;   -4.000; -130.000
391.019; -161.600; -421.000; -441.000
391.148; -276.500; -826.000; -855.000
391.277; -175.100; -576.000; -493.000
391.406; -275.000; -821.000; -805.000
391.534;  -16.500;  574.000; -301.000
391.663; -214.500; -583.000; -645.000
391.792; -221.600; -673.000; -701.000
391.921;  -34.700;   -3.000;   15.000
392.050; -115.700; -287.000; -228.000
392.178; -352.300;-1206.000;-1061.000
392.307; -248.200; -758.000; -712.000
392.436; -232.700; -427.000; -641.000
392.564;   10.400;  166.000;   -6.000
392.693; -267.800; -860.000; -682.000
392.822; -186.400; -529.000; -534.000
392.950; -254.900; -880.000; -714.000
393.079; -121.500; -188.000; -328.000
393.208; -194.900; -488.000; -511.000
393.336;  -64.000; -170.000; -145.000
393.465;  -90.400; -317.000; -199.000
393.593;   -4.900;   62.000;   79.000
393.722; -335.800;-1121.000; -916.000
393.850;  -65.100; -188.000;  -61.000
393.979; -303.700; -926.000; -805.000
394.107; -171.100; -517.000; -537.000
394.236; -169.300; -570.000; -507.000
394.364;   55.600;  383.000;  206.000
394.493; -253.500; -911.000; -767.000
394.621; -263.000; -955.000; -916.000
394.750; -285.900; -873.000; -923.000
394.878; -119.800; -247.000; -149.000
395.007; -241.200; -721.000; -807.000
395.135; -229.700; -790.000; -721.000
395.263; -304.700;-1038.000;-1040.000
395.392;  -25.300;  -25.000; -107.000
395.520; -186.900; -818.000; -679.000
395.648; -297.700; -865.000; -915.000
395.777; -167.600; -366.000; -405.000
395.905; -167.100; -449.000; -564.000
396.033;  -28.000;  217.000;  172.000
396.162; -120.700; -399.000; -453.000
396.290;  -69.200;  -17.000;   -2.000
396.418; -190.000; -555.000; -514.000
396.546; -237.900; -571.000; -466.000
396.674; -287.700; -850.000; -878.000
396.803;  -44.300;  -72.000;  -23.000
396.931;  -90.100; -179.000; -199.000
397.059; -328.500;-1026.000; -989.000
397.187; -253.300;-1026.000; -975.000
397.315; -253.700; -884.000; -649.000
397.443; -219.700; -592.000; -443.000
397.572; -183.400; -578.000; -424.000
397.700; -216.900; -607.000; -614.000
397.828;  -65.100;  120.000;  -90.000
397.956; -167.600; -508.000; -478.000
398.084; -261.800; -767.000; -626.000
398.212;   -3.900;  137.000;  124.000
398.340;  -30.300;  -56.000;  159.000
398.468; -100.400; -390.000; -169.000
398.596; -313.400; -993.000; -953.000
398.724; -242.000; -762.000; -767.000
398.852; -315.600;-1024.000; -976.000
398.980; -173.900; -560.000; -560.000
399.108; -240.800; -982.000; -735.000
399.236;  -19.400;   13.000;    8.000
399.363;    5.100;  222.000;  196.000
399.491; -184.300; -404.000; -398.000
399.619; -267.800; -829.000; -800.000
399.747; -279.600; -859.000; -771.000
399.875;   19.300;  220.000;  234.000
400.003; -118.200; -359.000; -284.000
400.130; -189.300; -421.000; -341.000
400.258;  -49.800;  -83.000;   38.000
400.386; -114.400; -352.000; -168.000
400.514; -168.800; -526.000; -587.000
400.641; -318.500; -928.000; -802.000
400.769; -294.800; -979.000; -888.000
400.897; -252.600; -838.000; -793.000
401.025;  -62.000; -166.000; -152.000
401.152;    0.600;  220.000;   38.000
401.280; -158.800; -430.000; -429.000
401.408; -211.600; -712.000; -576.000
401.535; -211.100; -735.000; -758.000
401.663; -372.700;-1134.000;-1054.000
401.790; -183.700; -514.000; -525.000
401.918;   80.500;  436.000;  405.000
402.046;  -27.800;  134.000;  122.000
402.173;  -72.300;  -18.000;    7.000
402.301; -146.300; -519.000; -397.000
402.428;   66.900;  528.000;  383.000
402.556; -314.500;-1188.000; -913.000
402.683;  -80.300;  -20.000;   -1.000
402.811;  -51.200;  -37.000; -206.000
402.938;  -49.200;   20.000;   27.000
403.066; -191.500; -574.000; -558.000
403.193;   -6.700;  299.000;  239.000
403.321; -153.100; -396.000; -574.000
403.448;  -18.800;   83.000;   27.000
403.575;  -47.600;  -90.000;  -46.000
403.703; -271.500; -732.000; -557.000
403.830; -177.700; -531.000; -496.000
403.957; -338.300;-1117.000;-1023.000
404.085; -112.200;  -61.000; -172.000
404.212;  -40.700;  -50.000;   63.000
404.339; -127.500; -566.000; -306.000
404.467; -164.000; -612.000; -524.000
404.594;  -95.100; -287.000; -227.000
404.721; -256.300; -869.000; -764.000
404.848;  -52.300; -113.000; -202.000
404.976; -287.700; -856.000; -783.000
405.103;  -50.000;  -14.000;  -82.000
405.230;  -26.400;  190.000;  226.000
405.357;  -16.800;  117.000;   44.000
405.484;  -79.900;  -49.000;    5.000
405.612; -201.700; -548.000; -563.000
405.739; -149.400; -488.000; -243.000
405.866;  126.600;  669.000;  385.000
405.993; -127.200; -398.000; -102.000
406.120; -271.900; -801.000; -887.000
406.247; -130.000; -323.000; -342.000
406.374;  120.100;  540.000;  629.000
406.501; -205.300; -632.000; -702.000
406.628; -174.300; -621.000; -589.000
406.755; -250.800; -803.000; -620.000
406.882;  -99.500; -228.000; -277.000
407.009; -209.300; -719.000; -628.000
407.136;  -94.800; -480.000; -401.000
407.263; -284.300; -939.000; -829.000
407.390; -214.800; -692.000; -614.000
407.517; -370.100;-1139.000;-1187.000
407.644; -152.100; -332.000; -256.000
407.771; -169.500; -249.000; -287.000
407.898;   10.300;  168.000;  328.000
408.025; -187.200; -421.000; -313.000
408.151;  -33.300;   82.000;  153.000
408.278; -157.400; -267.000; -216.000
408.405; -250.300; -931.000; -899.000
408.532; -202.300; -549.000; -542.000
408.659; -218.300; -677.000; -648.000
408.785; -363.600;-1298.000;-1170.000
408.912; -111.100; -412.000; -296.000
409.039; -196.900; -610.000; -686.000
409.166; -193.100; -591.000; -555.000
409.292; -207.700; -571.000; -534.000
409.419; -220.700; -665.000; -649.000
409.546; -160.200; -431.000; -192.000
409.672; -230.600; -713.000; -545.000
409.799;  -91.300;  -36.000;   34.000
409.926;  -97.600; -180.000; -179.000
410.052; -364.700;-1127.000;-1091.000
410.179; -114.100; -368.000; -392.000
410.305; -159.000; -375.000; -493.000
410.432; -115.400; -220.000; -333.000
410.558; -159.200; -305.000; -380.000
410.685; -193.600; -688.000; -431.000
410.812; -191.800; -409.000; -588.000
410.938; -263.000; -964.000; -808.000
411.065; -223.600; -671.000; -645.000
411.191;  -63.700; -189.000; -174.000
411.317; -268.700; -823.000; -742.000
411.444; -107.300; -317.000; -246.000
411.570; -112.800; -339.000; -294.000
411.697; -223.200; -758.000; -752.000
411.823; -355.300; -989.000; -999.000
411.949;  -64.500;  -56.000;   17.000
412.076; -232.300; -539.000; -519.000
412.202; -218.800; -758.000; -757.000
412.329; -240.400; -798.000; -752.000
412.455; -240.700; -821.000; -657.000
412.581;  -30.700;  -15.000;  172.000
412.707; -198.800; -540.000; -457.000
412.834;   16.800;  156.000;  219.000
412.960; -241.800; -785.000; -784.000
413.086; -270.900; -743.000; -701.000
413.212;  103.700;  604.000;  578.000
413.339; -263.000; -685.000; -701.000
413.465; -166.200; -364.000; -310.000
413.591; -264.700; -757.000; -474.000
413.717; -153.600; -358.000; -366.000
413.843; -282.300; -839.000; -861.000
413.969; -156.100;  -47.000; -292.000
414.096; -234.200; -679.000; -679.000
414.222;  -46.100;  -33.000;   85.000
414.348; -210.200; -652.000; -385.000
414.474;  -45.900;   38.000;  -52.000
414.600; -111.700; -126.000; -144.000
414.726;  -91.500;  -96.000;  -55.000
414.852; -167.200; -365.000; -342.000
414.978;  -28.500;  104.000;  -18.000
415.104;  -63.000;   38.000;   80.000
415.230; -146.400; -329.000; -330.000
415.356; -207.400; -409.000; -514.000
415.482;  -90.200;   13.000;  -35.000
415.608; -143.600; -247.000; -323.000
415.734;  -18.100;   67.000;   38.000
415.860; -270.000; -875.000; -767.000
415.986; -256.300; -685.000; -607.000
416.111; -260.500; -798.000; -652.000
416.237; -155.100; -424.000; -571.000
416.363; -267.100; -765.000; -733.000
416.489; -122.600; -324.000; -251.000
416.615; -284.800; -707.000; -742.000
416.741; -240.400; -677.000; -784.000
416.866; -237.500; -673.000; -736.000
416.992; -287.600; -801.000; -818.000
417.118; -121.400;  -41.000;  -80.000
417.244; -239.500; -798.000; -531.000
417.369; -247.300; -801.000; -612.000
417.495; -134.300; -325.000; -254.000
417.621; -341.000;-1015.000; -803.000
417.746; -190.600; -579.000; -572.000
417.872;  -64.000; -254.000; -144.000
417.998; -157.800; -515.000; -530.000
418.123; -287.600;-1073.000; -845.000
418.249; -178.800; -512.000; -601.000
418.374; -295.500; -916.000; -824.000
418.500; -148.500; -383.000; -482.000
418.626;  -28.900;   70.000;  -59.000
418.751; -199.300; -549.000; -448.000
418.877; -271.500; -637.000; -643.000
419.002; -151.500; -688.000; -560.000
419.128; -304.500; -930.000; -721.000
419.253; -274.900; -967.000; -837.000
419.379; -202.000; -391.000; -338.000
419.504;   27.300;  325.000;  415.000
419.629; -140.600; -393.000; -212.000
419.755;  -81.200; -317.000; -254.000
419.880; -125.100;  -98.000;   67.000
420.006; -115.400; -280.000; -221.000
420.131; -248.600; -662.000; -775.000
420.256; -148.900; -315.000; -316.000
420.382; -263.400; -665.000; -687.000
420.507; -232.100; -649.000; -778.000
420.632; -167.600; -337.000; -339.000
420.758; -122.600; -251.000; -425.000
420.883; -276.900; -876.000; -672.000
421.008; -221.800; -775.000; -619.000
421.133; -173.800; -509.000; -467.000
421.259; -135.100; -325.000; -259.000
421.384; -266.800; -834.000; -693.000
421.509; -260.200;-1052.000; -862.000
421.634; -311.300; -936.000; -820.000
421.759; -152.200; -359.000; -327.000
421.885; -238.900; -717.000; -656.000
422.010; -188.400; -673.000; -542.000
422.135; -324.000; -695.000; -727.000
422.260;   36.800;  340.000;  280.000
422.385; -106.800;   12.000;  -98.000
422.510;  -16.200;  151.000;  -26.000
422.635;  -91.500;  -87.000;  -43.000
422.760; -237.800; -766.000; -791.000
422.885;  -71.700;  -57.000;  -80.000
423.010;  -75.200; -112.000; -169.000
423.135; -202.500; -481.000; -561.000
423.260; -107.500; -150.000; -245.000
423.385;   23.600;  476.000;  222.000
423.510;  -19.600;   71.000;  -22.000
423.635;  -58.700;  133.000;   45.000
423.760;   51.400;  383.000;  328.000
423.885;    6.500;  336.000;  391.000
424.010;  -75.400;  -68.000;  -13.000
424.135;  -69.300;    5.000;  -33.000
424.259; -171.600; -654.000; -457.000
424.384; -172.700; -279.000; -272.000
424.509;  -87.800; -260.000; -186.000
424.634; -269.200; -761.000; -623.000
424.759; -207.100; -688.000; -544.000
424.883; -174.100; -506.000; -527.000
425.008; -176.700; -502.000; -410.000
425.133; -248.500; -679.000; -653.000
425.258; -173.200; -517.000; -381.000
425.382; -250.600; -867.000; -774.000
425.507; -201.200; -487.000; -543.000
425.632; -287.600; -802.000; -663.000
425.756; -120.700; -256.000; -146.000
425.881; -224.600; -831.000; -857.000
426.006; -177.600; -604.000; -355.000
426.130; -259.100; -696.000; -508.000
426.255; -193.700; -611.000; -491.000
426.379; -105.100; -189.000; -577.000
426.504;  118.200;  660.000;  544.000
426.629; -251.000; -519.000; -466.000
426.753;  -87.700;   64.000;  -46.000
426.878; -141.800; -252.000; -288.000
427.002; -294.900; -651.000; -668.000
427.127; -108.400;  -35.000; -158.000
427.251;   48.100;  372.000;  401.000
427.375; -138.500; -191.000; -173.000
427.500; -209.200; -616.000; -610.000
427.624; -156.800; -234.000; -400.000
427.749; -131.100; -216.000; -225.000
427.873; -223.900; -499.000; -412.000
427.997; -104.500; -222.000; -230.000
428.122;  144.200;  795.000;  703.000
428.246;   42.100;  433.000;  434.000
428.371; -297.100; -869.000; -773.000
428.495; -224.100; -624.000; -646.000
428.619;  -96.900; -186.000; -117.000
428.743;   -1.000;   65.000;  132.000
428.868; -240.500; -732.000; -643.000
428.992; -131.700; -219.000; -326.000
429.116; -167.000; -329.000; -357.000
429.240;   41.900;  419.000;  426.000
429.365; -208.600; -454.000; -574.000
429.489; -230.200; -638.000; -647.000
429.613; -124.500; -236.000; -177.000
429.737; -196.100; -563.000; -432.000
429.861; -148.800; -247.000; -133.000
429.985; -159.100; -425.000; -305.000
430.109; -330.500; -770.000; -908.000
430.234;    1.000;   76.000;  -50.000
430.358; -116.400; -250.000; -160.000
430.482; -255.000; -672.000; -564.000
430.606; -235.400; -655.000; -375.000
430.730; -166.700; -437.000; -388.000
430.854; -311.800; -909.000; -835.000
430.978; -280.200; -795.000; -764.000
431.102; -211.700; -499.000; -422.000
431.226; -270.300; -874.000; -815.000
431.350;   33.100;  345.000;  422.000
431.474; -164.100; -661.000; -373.000
431.597; -320.300;-1060.000; -848.000
431.721; -133.200; -276.000; -267.000
431.845; -257.900; -704.000; -472.000
431.969; -129.600; -304.000; -349.000
432.093; -181.800; -395.000; -317.000
432.217;  -24.400;   32.000;   82.000
432.341; -211.300; -523.000; -518.000
432.464;  -61.700;   96.000;   40.000
432.588; -214.300; -401.000; -329.000
432.712; -101.400;  -52.000;  -52.000
432.836;   -1.900;  213.000;  263.000
432.959; -157.000; -372.000; -311.000
433.083;  -85.800;   11.000;    2.000
433.207;   68.100;  285.000;  930.000
433.330; -122.700; -391.000; -200.000
433.454; -211.700; -654.000; -638.000
433.578;   79.700;  583.000;  278.000
433.701; -236.800; -623.000; -675.000
433.825; -179.300; -292.000; -299.000
433.949;  -81.700;   28.000;  -72.000
434.072; -167.800; -410.000; -323.000
434.196; -110.400; -309.000; -117.000
434.319; 7449.300;25482.000;25124.000
434.443; -218.300; -656.000; -603.000
434.566;  -19.700;  281.000;   62.000
434.690; -187.300; -637.000; -383.000
434.813; -119.300; -251.000; -173.000
434.937; -218.900; -569.000; -696.000
435.060; -192.400; -423.000; -332.000
435.184; -146.300; -492.000; -217.000
435.307;  -77.600;  159.000;  102.000
435.431;  -34.900;  -40.000;   24.000
435.554; -152.500; -399.000; -240.000
435.677; -144.300; -350.000; -258.000
435.801;  -61.100;  -25.000;   49.000
435.924;  -65.600;    1.000;  -67.000
436.048; -306.400;-1019.000; -732.000
436.171; -127.900; -240.000;  -66.000
436.294; -132.300; -248.000; -229.000
436.417; -280.900; -963.000; -849.000
436.541; -300.500; -814.000; -840.000
436.664;  -96.200; -242.000; -316.000
436.787;  -67.700;   13.000;  113.000
436.910; -239.100; -792.000; -422.000
437.034;  -15.700;  142.000;  143.000
437.157;  -23.300;  -11.000;    0.000
437.280; -184.400; -392.000; -292.000
437.403; -330.600; -982.000; -869.000
437.526; -323.700; -903.000; -865.000
437.649; -165.800; -505.000; -332.000
437.772; -251.000; -692.000; -540.000
437.896;  136.400;  700.000;  544.000
438.019; -253.400; -758.000; -503.000
438.142; -202.700; -596.000; -506.000
438.265; -231.500; -639.000; -670.000
438.388; -175.900; -520.000; -410.000
438.511; -220.300; -597.000; -394.000
438.634; -158.100; -247.000; -125.000
438.757; -263.400; -693.000; -619.000
438.880; -103.800;  -34.000;  -57.000
439.003; -182.000; -417.000; -437.000
439.126; -114.700; -287.000; -167.000
439.248; -118.300;  -98.000; -139.000
439.371;  -30.100;    9.000;  -53.000
439.494;   93.900;  510.000;  439.000
439.617;  -47.800;   65.000;  -88.000
439.740; -306.400; -968.000; -816.000
439.863; -241.600; -755.000; -595.000
439.986; -214.600; -476.000; -431.000
440.108; -109.500; -161.000; -112.000
440.231; -361.900; -950.000; -836.000
440.354;  -75.600;  -64.000; -150.000
440.477; -237.300; -566.000; -542.000
440.599; -140.300; -200.000; -225.000
440.722; -246.100; -709.000; -586.000
440.845;  109.500;  751.000;  928.000
440.968; -206.200; -415.000; -311.000
441.090;  -69.300; -199.000;  -33.000
441.213; -307.100;-1021.000; -825.000
441.336;  -60.600; -159.000;   -5.000
441.458; -181.200; -549.000; -396.000
441.581; -259.500; -628.000; -629.000
441.703; -132.200; -152.000;   13.000
441.826; -178.500; -557.000; -400.000
441.948;  -55.800;   56.000;   51.000
442.071;   99.100;  555.000;  424.000
442.193; -235.100; -531.000; -485.000
442.316;  -53.900;  152.000;   97.000
442.438; -156.600; -233.000;  -10.000
442.561;   -2.300;  272.000;  262.000
442.683; -249.100; -809.000; -522.000
442.806;  -61.900;   -8.000;   74.000
442.928; -294.800; -859.000; -604.000
443.051; -222.800; -577.000; -373.000
443.173; -184.300; -341.000; -339.000
443.295; -170.600; -263.000; -371.000
443.418; -168.600; -321.000;  -29.000
443.540;  -83.600; -106.000;   -4.000
443.662; -249.400; -563.000; -465.000
443.785;  -12.200;  335.000;  199.000
443.907; -212.900; -362.000; -208.000
444.029; -207.400; -767.000; -494.000
444.152; -267.400; -644.000; -554.000
444.274;  -62.400;  -18.000;  -24.000
444.396; -194.700; -461.000; -221.000
444.518; -216.700; -691.000; -454.000
444.640; -186.800; -268.000; -111.000
444.763;  -15.700;  388.000;  249.000
444.885; -200.100; -432.000; -392.000
445.007;  -36.900;   35.000;   86.000
445.129; -216.400; -610.000; -515.000
445.251; -129.800; -372.000; -439.000
445.373; -243.700; -537.000; -386.000
445.495;   23.500;  242.000;  350.000
445.617;   98.800;  853.000;  753.000
445.739; -156.100; -215.000;  -97.000
445.861; -102.900; -245.000; -112.000
445.984; -135.600; -267.000; -101.000
446.105; -174.900; -418.000; -251.000
446.227;  -88.900; -176.000;  -19.000
446.349; -188.100; -358.000; -249.000
446.471; -235.800; -615.000; -448.000
446.593; -135.600; -316.000;   19.000
446.715; -100.000;  -67.000;   41.000
446.837;  108.100;  697.000;  832.000
446.959; -166.700; -457.000; -478.000
447.081; -265.400; -628.000; -518.000
447.203;  143.100;  862.000;  834.000
447.325; -148.100; -270.000;   42.000
447.446;   -0.800;  286.000;  530.000
447.568; -347.300; -921.000; -803.000
447.690; -149.100; -236.000; -245.000
447.812; -279.600; -798.000; -519.000
447.933;  -56.100;  155.000;  127.000
448.055; -118.900; -306.000; -261.000
448.177;  -29.300;   31.000;   79.000
448.299; -344.900; -935.000; -727.000
448.420;  -27.800;  -25.000;  159.000
448.542;  -79.500;   -3.000;   33.000
448.664;  -34.000;  109.000;  322.000
448.785;  -63.900;  265.000;   83.000
448.907; -203.400; -614.000; -353.000
449.028; -252.800; -771.000; -471.000
449.150;  102.300;  492.000;  589.000
449.272; -335.200;-1044.000; -913.000
449.393;   85.500;  612.000;  694.000
449.515; -282.400; -634.000; -581.000
449.636; -126.100; -264.000; -155.000
449.758;   61.500;  763.000;  622.000
449.879; -171.800; -498.000; -396.000
450.001; -154.900; -149.000;  -49.000
450.122;  -80.000;  -95.000;  162.000
450.244;  -48.500;   37.000;  364.000
450.365; -192.800; -495.000; -301.000
450.486; -120.500;   80.000;  268.000
450.608;  -45.800;  393.000;  326.000
450.729;   79.100;  578.000;  645.000
450.850; -188.900; -574.000; -466.000
450.972; -255.300; -552.000; -389.000
451.093;   12.500;  190.000;  588.000
451.214; -213.500; -516.000; -337.000
451.336;  155.900;  773.000;  579.000
451.457;   -0.200;  264.000;  393.000
451.578; -128.300; -118.000;  -74.000
451.699; -229.500; -546.000; -540.000
451.821; -116.400; -284.000;  -50.000
451.942;  -11.100;  278.000;  285.000
452.063;   22.100;  228.000;  419.000
452.184; -168.400;  -54.000;  -49.000
452.305;   14.700;  103.000;  170.000
452.427; -189.500; -549.000; -301.000
452.548; -103.200;   23.000;   79.000
452.669; -143.500; -257.000;  -89.000
452.790; -118.100;    3.000;  -18.000
452.911;  -49.800;  195.000;  259.000
453.032; -127.700; -289.000;  -60.000
453.153; -107.200;  -29.000;   81.000
453.274;  160.300;  737.000;  868.000
453.395;  -84.000;  -51.000;  175.000
453.516;  255.000; 1317.000; 1388.000
453.637; -167.000; -205.000; -150.000
453.758;  -93.000;   15.000;   69.000
453.879; -203.500; -462.000; -250.000
454.000;  194.800; 1086.000;  948.000
454.121; -239.800; -554.000; -326.000
454.242; -211.600; -599.000; -383.000
454.362; -103.300;  -99.000;  114.000
454.483; -158.800; -309.000; -229.000
454.604;   -3.300;  512.000;  580.000
454.725; -251.800; -627.000; -555.000
454.846; -197.100; -474.000; -406.000
454.967;   -7.800;  230.000;  539.000
455.087;  -56.900;  179.000;  153.000
455.208;   70.200;  554.000;  856.000
455.329;  -98.300;  -22.000;   82.000
455.450;   59.400;  473.000;  633.000
455.570; -180.900; -234.000; -211.000
455.691;  -75.800;  201.000;  407.000
455.812; -165.000; -270.000;  -92.000
455.932;  -74.100;  107.000;  -97.000
456.053;  -99.400;   36.000;   24.000
456.173; -188.400; -433.000; -355.000
456.294; -185.600; -476.000; -303.000
456.415;  -67.000;  -73.000;   70.000
456.535;  -43.600;  297.000;  273.000
456.656;  -52.600;  132.000;  240.000
456.776;  -98.300;    3.000;  298.000
456.897;    7.300;  308.000;  513.000
457.017; -126.000; -153.000;   -3.000
457.138; -179.600; -402.000; -249.000
457.258;  -37.800;  263.000;  224.000
457.379;   11.700;  509.000;  521.000
457.499;   -4.400;  443.000;  432.000
457.620; -226.100; -407.000; -231.000
457.740; -163.800; -132.000;  -11.000
457.860;  -70.700;   87.000;   44.000
457.981;  -75.600;  132.000;  124.000
458.101; -131.100;  -89.000;   40.000
458.221;  -23.200;  336.000;  402.000
458.342;  -77.700;   -4.000;  -37.000
458.462;   13.700;  617.000;  352.000
458.582; -183.200; -302.000; -294.000
458.703;  -93.300;  303.000;  154.000
458.823;  -76.000;   22.000;  163.000
458.943;  -11.200;  341.000;  467.000
459.063; -109.400; 1124.000;  192.000
459.183;  -41.300;  328.000;  313.000
459.304;   29.200;  315.000;  517.000
459.424; -140.000; -246.000;  -89.000
459.544;   65.300;  388.000;  764.000
459.664;   27.500;  499.000;  506.000
459.784;  188.900; 1004.000; 1175.000
459.904;   84.400;  867.000;  744.000
460.024;  125.100;  867.000;  684.000
460.144;   42.900;  449.000;  554.000
460.264;   42.900;  515.000;  327.000
460.385; -122.800; -145.000; -119.000
460.505;  122.700;  905.000;  858.000
460.625; -144.400;  -17.000;  -68.000
460.745;   45.100;  396.000;  541.000
460.864;  -84.400;  153.000;  469.000
460.984;   17.300;  499.000;  573.000
461.104;  266.900; 1656.000; 1775.000
461.224;   92.800;  657.000;  650.000
461.344;  -41.100;  431.000;  360.000
461.464;  -44.100;  258.000;  513.000
461.584;  -37.700;  283.000;  466.000
461.704;  -81.900;   58.000;  108.000
461.824;  -50.800;  238.000;  259.000
461.943;  -39.200;  191.000;  130.000
462.063; -108.100;    2.000;  324.000
462.183;   93.800;  639.000;  717.000
462.303;  183.800; 1678.000; 1230.000
462.422;  125.500;  781.000;  840.000
462.542;  -45.400;  271.000;  391.000
462.662;   -9.800;  353.000;  380.000
462.782;   27.700;  833.000;  572.000
462.901;   69.100;  545.000;  717.000
463.021;  325.200; 1702.000; 1638.000
463.141;  -10.800;  337.000;  770.000
463.260;   35.800;  614.000;  474.000
463.380;   80.300;  902.000;  884.000
463.499;  -51.000;  342.000;  332.000
463.619;  -28.100;  581.000;  559.000
463.738;  295.900; 1644.000;  903.000
463.858;  103.200;  657.000;  811.000
463.978;  -41.100;  542.000;  396.000
464.097;  139.200;  921.000; 1114.000
464.217;  162.600; 1196.000; 1143.000
464.336;  190.400; 1068.000; 1130.000
464.455;  -59.600;  328.000;  659.000
464.575;   46.300;  597.000;  602.000
464.694;  175.300; 1204.000; 1179.000
464.814;  100.000; 1190.000; 1138.000
464.933;  140.500; 1095.000; 1027.000
465.052;  209.000; 1412.000; 1054.000
465.172;   91.500;  922.000;  799.000
465.291;  228.600; 1376.000; 1320.000
465.410;   43.300;  462.000;  735.000
465.530;  208.100; 1355.000; 1310.000
465.649;  174.100; 1209.000; 1273.000
465.768;  305.700; 1673.000; 1508.000
465.888;  133.200;  941.000; 1174.000
466.007;  203.900; 1335.000; 1440.000
466.126;   12.900;  721.000;  641.000
466.245;  154.300; 1176.000; 1187.000
466.364;   84.900;  950.000; 1060.000
466.484;  161.600; 1024.000; 1213.000
466.603;  109.700; 1101.000; 1222.000
466.722;  253.700; 1490.000; 1769.000
466.841;  157.100; 1151.000; 1401.000
466.960;  126.100; 1069.000;  972.000
467.079;  304.100; 1971.000; 1786.000
467.198;  166.500; 1238.000; 1181.000
467.317;  247.800; 1768.000; 1162.000
467.436;  183.400; 1709.000; 1261.000
467.555;  301.900; 1796.000; 1746.000
467.674;  210.700; 1227.000; 1329.000
467.793;  160.200; 1376.000; 1374.000
467.912;  215.700; 1658.000; 1539.000
468.031;  299.200; 2038.000; 1930.000
468.150;  263.200; 1842.000; 1837.000
468.269;  374.000; 2313.000; 2090.000
468.388;  414.200; 2168.000; 2339.000
468.507;  555.400; 2884.000; 2903.000
468.626;  554.400; 2555.000; 2541.000
468.744;  350.500; 2018.000; 2174.000
468.863;  438.300; 2312.000; 2523.000
468.982;  225.500; 1503.000; 1555.000
469.101;  533.100; 2788.000; 2692.000
469.220;  366.300; 2333.000; 2176.000
469.338;  528.200; 2935.000; 3051.000
469.457;  421.200; 2719.000; 2545.000
469.576;  771.200; 3953.000; 3784.000
469.695;  497.300; 2877.000; 3066.000
469.813;  884.600; 4148.000; 4192.000
469.932;  774.000; 4255.000; 4485.000
470.051;  746.300; 4075.000; 4161.000
470.169;  827.300; 4470.000; 4338.000
470.288;  946.100; 4700.000; 4809.000
470.406; 1003.700; 5059.000; 5194.000
470.525; 1200.200; 6101.000; 5787.000
470.644; 1315.800; 6847.000; 6794.000
470.762; 1688.000; 8397.000; 7873.000
470.881; 1701.400; 8651.000; 8464.000
470.999; 1932.800; 9685.000; 9151.000
471.118; 2241.900;11174.000;10711.000

