
Integration time [ms]: 100.000
Averaging Nr. [scans]: 40
Smoothing Nr. [pixels]: 0
Data measured with spectrometer [name]: 2101012U2
Wave   ;Sample   ;Dark     ;Reference
[nm]   ;[counts] ;[counts] ;[counts] 

197.733;   57.025;  516.000;  404.000
197.879;  -87.500; -610.000; -634.000
198.025;  -44.375; -475.000; -420.000
198.171;  -58.975; -602.000; -612.000
198.317;  -24.050; -401.000; -316.000
198.463;  -61.650; -655.000; -404.000
198.609;   20.950;  181.000; -137.000
198.755;  -67.800; -644.000; -410.000
198.901;  -71.050; -505.000; -424.000
199.047;  -49.200; -615.000; -488.000
199.193;  -47.375; -230.000; -468.000
199.339;  -33.700; -222.000; -369.000
199.485;   47.225;  330.000;  271.000
199.631;   19.025;  227.000;  310.000
199.777;  -55.300; -466.000; -398.000
199.923;  -63.475; -610.000; -424.000
200.069;   -4.975; -141.000;  -58.000
200.215;   68.075;  128.000;  453.000
200.361;   41.675;  243.000;  477.000
200.507;  -43.425; -600.000; -373.000
200.653;  -26.975; -371.000; -194.000
200.798;  -26.150; -215.000; -125.000
200.944;   -3.450; -146.000;  -41.000
201.090;   41.450;   61.000;  222.000
201.236;   -8.275; -116.000; -158.000
201.382;  132.225;  874.000;  903.000
201.528;    9.425;  -58.000;  -48.000
201.674;  -55.350; -386.000; -293.000
201.819;  -53.350; -540.000; -439.000
201.965;  -68.025; -699.000; -447.000
202.111;  -23.625; -273.000; -226.000
202.257;  -27.275; -250.000; -238.000
202.402;   16.150;   13.000;  -36.000
202.548;  -24.525; -169.000; -116.000
202.694;   86.950;  410.000; -183.000
202.840;  -57.875; -603.000; -531.000
202.985;  -53.875; -681.000; -639.000
203.131;  -94.675; -832.000; -666.000
203.277;  -24.425; -199.000; -262.000
203.423;  -32.050; -434.000; -520.000
203.568;  -50.475; -462.000; -237.000
203.714;  -56.275; -535.000; -542.000
203.860;  -69.625; -682.000; -641.000
204.005;   33.850;  112.000;  167.000
204.151;   74.150;  561.000;  556.000
204.296;  -36.000; -354.000; -221.000
204.442;  -73.800; -600.000; -547.000
204.588;  -63.950; -592.000; -579.000
204.733;   35.750;  178.000;  168.000
204.879; -107.950;-1018.000; -822.000
205.025;   11.450;  -99.000;  126.000
205.170;    5.675;  -17.000;   94.000
205.316;   81.350;  438.000;  661.000
205.461;  -71.450; -698.000; -554.000
205.607;   78.950;  609.000;  665.000
205.752;  -68.225; -626.000; -551.000
205.898;  -42.950; -501.000; -391.000
206.043;  -68.400; -578.000; -506.000
206.189;  -34.725; -243.000; -285.000
206.334;   72.800;  554.000;  606.000
206.480;   89.475;  409.000;  239.000
206.625;  -69.750; -529.000; -552.000
206.771;  -37.975; -451.000; -373.000
206.916;  -15.725; -210.000; -537.000
207.062;  -76.750; -545.000; -591.000
207.207;  -62.150; -546.000; -443.000
207.353;   47.050;  185.000;  460.000
207.498;   24.500;  196.000;   85.000
207.643;  -49.375; -501.000; -370.000
207.789; -126.525;-1069.000; -910.000
207.934;  -77.225; -665.000; -713.000
208.080;  -26.925; -154.000;   66.000
208.225;   -7.875;  -22.000;  -57.000
208.370;  -77.000; -727.000; -619.000
208.516;  -73.375; -741.000; -487.000
208.661;  -23.175; -127.000;  -69.000
208.806;  -11.450; -165.000; -171.000
208.952; -113.650;-1044.000; -731.000
209.097;   64.375;  378.000;  349.000
209.242;  -47.175; -307.000; -382.000
209.387;   59.675;  392.000;  350.000
209.533;  -36.025; -321.000; -350.000
209.678;   91.150;  472.000;  543.000
209.823;  -46.900; -408.000; -310.000
209.969;  -92.550; -860.000; -757.000
210.114;  -96.875; -907.000; -719.000
210.259; -104.925; -939.000; -889.000
210.404;   11.900; -171.000;  103.000
210.549;   19.850;  108.000;    3.000
210.695;  -16.125;   -3.000;  -95.000
210.840;   32.700;   94.000;   67.000
210.985;  -69.250; -484.000; -303.000
211.130;   65.350;  268.000;  406.000
211.275;   13.675;  207.000;  199.000
211.420;  -47.475; -300.000; -289.000
211.566;  -51.450; -536.000; -489.000
211.711;   24.425;  218.000;  157.000
211.856;  -58.625; -545.000; -519.000
212.001;    5.725;  151.000;   44.000
212.146;   33.450;  153.000;   49.000
212.291;   -7.025; -210.000; -186.000
212.436;  -17.650; -280.000;   -6.000
212.581;  -81.700; -685.000; -653.000
212.726;  -77.825; -487.000; -538.000
212.871;  -53.500; -552.000; -217.000
213.016; -147.550;-1172.000;-1029.000
213.161;   66.200;  406.000;  291.000
213.306;  -65.500; -435.000; -577.000
213.451;  -91.400; -778.000; -689.000
213.596;  -31.275; -455.000; -347.000
213.741;  -47.550; -448.000; -538.000
213.886;  -67.825; -498.000; -517.000
214.031;  -22.525; -294.000; -124.000
214.176;  -44.825; -408.000; -341.000
214.321;  -13.550; -296.000; -157.000
214.466;  -19.750; -163.000;  -43.000
214.611;   -6.850;  -61.000;  -10.000
214.756; -115.025; -948.000; -858.000
214.901;  -20.075; -388.000; -226.000
215.046; -114.375; -797.000; -825.000
215.191;   17.200;  128.000;   35.000
215.336;  -16.800; -157.000;  -19.000
215.480;  -65.325; -684.000; -505.000
215.625;   -6.600; -175.000;  -19.000
215.770;  -87.225; -757.000; -662.000
215.915;    4.775;   -5.000;  -97.000
216.060;  -15.825; -113.000;  -21.000
216.205; -104.725; -731.000; -779.000
216.349;  -80.950; -470.000; -533.000
216.494; -121.575; -939.000; -867.000
216.639; -105.225; -823.000; -888.000
216.784;  -82.550; -577.000; -525.000
216.929;   50.475;  392.000;  281.000
217.073;   -7.600; -244.000;  -31.000
217.218;   24.925;   78.000;  -47.000
217.363;  -70.700; -656.000; -618.000
217.507;  -79.500; -623.000; -588.000
217.652; -112.800; -845.000; -874.000
217.797;  -87.950; -708.000; -659.000
217.942; -103.250; -856.000; -720.000
218.086;   88.450;  608.000;  539.000
218.231;   -1.800; -174.000;  -26.000
218.376;  -28.650; -337.000; -229.000
218.520;   14.100;  -41.000;   96.000
218.665;  -30.075; -338.000; -204.000
218.810;  -38.275; -275.000; -233.000
218.954;    7.650;  201.000;   35.000
219.099; -101.975; -713.000; -963.000
219.243;  -62.450; -589.000; -554.000
219.388;  -21.225; -264.000; -136.000
219.532;  -16.700; -116.000; -116.000
219.677;  -72.125; -564.000; -521.000
219.822;    0.375;   33.000;   89.000
219.966;    7.125;   17.000;  -99.000
220.111;  -25.875; -328.000;  -40.000
220.255;  -86.400; -797.000; -750.000
220.400;  -17.200; -180.000; -146.000
220.544;  -62.150; -516.000; -450.000
220.689;  -58.975; -422.000; -451.000
220.833;   -8.000; -123.000;  -58.000
220.978;  -43.775; -393.000; -563.000
221.122;   18.925;  319.000;  307.000
221.267; -106.075; -906.000; -837.000
221.411;  -62.275; -478.000; -394.000
221.555;   -5.975; -104.000;  -23.000
221.700;  -36.525; -329.000; -222.000
221.844;   52.600;  255.000;  272.000
221.989;  -40.250; -328.000; -311.000
222.133;  -38.175; -289.000; -307.000
222.277;  -12.575;    5.000;   78.000
222.422;   23.600;  227.000;  113.000
222.566;  -31.450; -381.000; -214.000
222.711;  -45.750; -414.000; -479.000
222.855;  -72.900; -643.000; -586.000
222.999;  -75.525; -642.000; -717.000
223.144;  -17.100; -195.000; -194.000
223.288;   70.775;  423.000;  251.000
223.432;   27.300;  184.000;  230.000
223.576;   28.700;  152.000;  -21.000
223.721;   45.850;  364.000;  273.000
223.865;  -56.500; -472.000; -475.000
224.009;  243.575; 1673.000; 1631.000
224.153;  -75.750; -660.000; -671.000
224.298;  -53.875; -531.000; -489.000
224.442;  -16.000;  -74.000;  -33.000
224.586;  -11.425; -169.000; -106.000
224.730;  -87.775; -858.000; -670.000
224.875; -101.525; -739.000; -688.000
225.019;   11.250;  102.000;  188.000
225.163;   55.000;  208.000;  341.000
225.307;   14.025;   97.000;  -91.000
225.451;   32.800;  360.000;  481.000
225.595;   33.925;  264.000;  176.000
225.739;    2.050; -170.000;  -94.000
225.884;   -7.300;   86.000;    5.000
226.028;  -84.575; -760.000; -626.000
226.172;  -38.900; -260.000; -273.000
226.316;  -89.275; -941.000; -902.000
226.460;  -67.750; -645.000; -493.000
226.604;  -56.450; -406.000; -400.000
226.748; -102.425; -836.000; -733.000
226.892;  -36.000; -227.000; -181.000
227.036;  -53.925; -537.000; -447.000
227.180;  -57.800; -551.000; -375.000
227.324;  -69.475; -561.000; -580.000
227.468;  -96.650; -819.000; -717.000
227.612;    4.150;  242.000;  -28.000
227.756;  -95.150; -845.000; -698.000
227.900;   65.675;  342.000;  441.000
228.044;  -44.850; -509.000; -290.000
228.188;   57.450;  448.000;  568.000
228.332;  -71.300; -546.000; -472.000
228.476;  -21.175; -223.000; -149.000
228.620;  -21.575; -210.000; -150.000
228.764;   68.850;  431.000;  349.000
228.908;    3.400; -155.000;   30.000
229.052;  -50.275; -615.000; -528.000
229.195;  -14.075; -172.000;   13.000
229.339;  -36.175; -235.000; -305.000
229.483;  -15.050;    5.000; -162.000
229.627;    2.600; -156.000;  139.000
229.771;  -34.025; -218.000; -294.000
229.915;    7.075;  230.000;   79.000
230.059;  -82.425; -648.000; -663.000
230.202;  -47.100; -370.000; -317.000
230.346;   -7.700; -107.000;  107.000
230.490;  -59.300; -489.000; -521.000
230.634; -101.100; -736.000; -553.000
230.777;   72.775;  478.000;  509.000
230.921;  -50.700; -450.000; -359.000
231.065;  -28.700; -246.000; -286.000
231.209;   34.725;  261.000;  265.000
231.352;   30.475;   54.000;   40.000
231.496;   11.450;  568.000;  188.000
231.640;  -70.800; -693.000; -621.000
231.783;   57.850;  546.000;  525.000
231.927;  -41.725; -294.000; -365.000
232.071; -103.350; -962.000; -736.000
232.214; -117.325; -980.000; -764.000
232.358;  -97.200; -683.000; -599.000
232.502;   12.350;  -19.000;    7.000
232.645; -132.900;-1090.000; -927.000
232.789;  -21.700; -257.000; -218.000
232.933;  -32.575; -407.000; -224.000
233.076; -127.750;-1038.000; -897.000
233.220;  -90.750; -752.000; -777.000
233.363;  -78.100; -669.000; -477.000
233.507;   63.150;  371.000;  129.000
233.650;  -85.350; -764.000; -834.000
233.794;   51.225;  438.000;  461.000
233.938;  -56.800; -530.000; -362.000
234.081;  -11.925;  -93.000;   31.000
234.225;  -78.275; -631.000; -539.000
234.368; -114.475; -773.000; -723.000
234.512;  -29.250; -385.000; -299.000
234.655;  -84.525; -582.000; -555.000
234.798;  -60.350; -493.000; -466.000
234.942; -110.200; -884.000;-1002.000
235.085;  -75.650; -651.000; -443.000
235.229;  -64.125; -405.000; -410.000
235.372;  -41.700; -247.000; -191.000
235.516;  -51.300; -397.000; -321.000
235.659;   11.825;   92.000;  121.000
235.802;  -19.950;  -38.000;  -22.000
235.946;   32.825;  335.000;  215.000
236.089;   26.800;  126.000;  250.000
236.233;   44.025;  275.000;  298.000
236.376;  -39.075; -235.000; -378.000
236.519;  -48.100; -297.000; -319.000
236.663;  -12.525; -215.000; -117.000
236.806; -124.875;-1029.000; -999.000
236.949;   53.100;  543.000;  431.000
237.092;   61.175;  412.000;  391.000
237.236;  -78.300; -589.000; -502.000
237.379;   67.875;  352.000;  428.000
237.522; -108.000; -879.000; -768.000
237.666;  -12.700; -271.000;   18.000
237.809; -120.675; -851.000; -823.000
237.952;   44.050;  469.000;  271.000
238.095;  -54.975; -447.000; -442.000
238.238;   74.450;  688.000;  700.000
238.382;   12.700;  166.000;  103.000
238.525;  -60.125; -598.000; -511.000
238.668; -135.825;-1060.000; -985.000
238.811;  -82.925; -638.000; -643.000
238.954;  -61.525; -483.000; -334.000
239.097;   82.400;  617.000;  664.000
239.241;   34.200;  394.000;  326.000
239.384;  -33.850; -254.000; -214.000
239.527;  -60.325; -424.000; -224.000
239.670; -148.775; -994.000;-1091.000
239.813;  -94.875; -696.000; -658.000
239.956;   73.775;  579.000;  473.000
240.099; -101.075; -778.000; -725.000
240.242;   55.375;  428.000;  432.000
240.385;   46.200;  466.000;  450.000
240.528;  -62.350; -706.000; -473.000
240.671;   35.050;  189.000;  134.000
240.814;  -34.925; -441.000; -158.000
240.957;  -90.525; -767.000; -578.000
241.100;  -87.125; -779.000; -755.000
241.243; -133.750;-1234.000; -893.000
241.386;  -50.750; -508.000; -379.000
241.529;  -74.725; -735.000; -547.000
241.672;  -64.175; -566.000; -495.000
241.815; -101.600; -832.000; -808.000
241.958;  -25.300; -125.000; -182.000
242.101;  -67.325; -545.000; -390.000
242.244;  -33.050; -270.000; -325.000
242.387;  -45.600; -304.000; -246.000
242.530;   43.950;  470.000;  134.000
242.673;  -41.450; -381.000; -309.000
242.815; -127.500; -925.000; -899.000
242.958;  -59.950; -482.000; -381.000
243.101;   18.425;  132.000;  187.000
243.244;  -76.775; -564.000; -521.000
243.387;  -40.275; -313.000; -316.000
243.530;  -86.600; -657.000; -674.000
243.672;   10.200;   43.000;  -92.000
243.815;  -42.850; -355.000; -283.000
243.958;   -4.300;   98.000;  -26.000
244.101;    9.550;   59.000;  -16.000
244.243;  -28.900;  -47.000;  101.000
244.386; -104.450; -761.000; -630.000
244.529;  -19.750; -132.000; -139.000
244.672; -146.325;-1154.000; -951.000
244.814;  -84.900; -621.000; -794.000
244.957;  -29.275; -380.000; -304.000
245.100;  -73.550; -489.000; -489.000
245.242;  -55.625; -387.000; -374.000
245.385;  -13.575;  -59.000;  -39.000
245.528; -106.475; -871.000; -705.000
245.670;   86.750;  612.000;  634.000
245.813;  -74.125; -599.000; -547.000
245.956;  -26.475; -324.000; -275.000
246.098;  -75.375; -508.000; -650.000
246.241;    5.500;  194.000;   48.000
246.383;  -11.400; -119.000;  -73.000
246.526;  -80.800; -454.000; -525.000
246.669; -105.650; -889.000; -780.000
246.811;   13.350;  172.000;   -1.000
246.954;  -62.050; -512.000; -426.000
247.096;  -21.375;  -84.000;   -6.000
247.239;  -63.625; -482.000; -445.000
247.381;  -51.675; -647.000; -488.000
247.524;   79.525;  645.000;  679.000
247.666;  -17.475;   58.000;   11.000
247.809; -109.200; -887.000; -691.000
247.951;   -5.475;  -75.000;  138.000
248.094;   40.300;  432.000;  308.000
248.236; -151.100;-1262.000;-1238.000
248.378;    7.200; -356.000;  -81.000
248.521;  -24.725; -334.000; -337.000
248.663;  -42.950; -236.000; -267.000
248.806;  -26.150; -300.000; -266.000
248.948;  -83.575; -886.000; -763.000
249.090;  -43.375; -428.000; -398.000
249.233;  -37.000; -344.000; -381.000
249.375;  -59.150; -474.000; -451.000
249.518;   -8.400;  -83.000; -133.000
249.660;   -6.600; -103.000;    3.000
249.802; -165.225;-1303.000;-1189.000
249.945;  -70.275; -612.000; -540.000
250.087; -121.375; -834.000; -768.000
250.229;  -54.200; -362.000; -480.000
250.371;  -66.450; -494.000; -439.000
250.514;  -40.050; -310.000; -244.000
250.656;  -15.525;   69.000;  102.000
250.798; -111.325; -849.000; -800.000
250.940;  -64.550; -322.000; -322.000
251.083;  -24.125; -335.000; -111.000
251.225;   69.550;  338.000;  310.000
251.367;  -42.425; -274.000; -373.000
251.509;  -21.400; -265.000; -210.000
251.651;  -92.700; -731.000; -671.000
251.794;   47.625;  538.000;  632.000
251.936;  -96.175; -821.000; -747.000
252.078;  -73.475; -540.000; -461.000
252.220;  -64.200; -645.000; -477.000
252.362;  102.975;  344.000;  462.000
252.504;  -60.550; -677.000; -584.000
252.646;  -97.850; -875.000; -722.000
252.788;    3.975;   14.000; -128.000
252.931;  -28.500; -257.000; -253.000
253.073;  -39.800; -376.000; -317.000
253.215;  -16.800;  141.000;  122.000
253.357;  -16.050;   82.000; -153.000
253.499;  -44.300; -374.000; -234.000
253.641;  -70.700; -749.000; -594.000
253.783;  -82.400; -609.000; -527.000
253.925;  -80.500; -586.000; -591.000
254.067;  -99.325; -744.000; -667.000
254.209;  -24.175; -391.000; -259.000
254.351; -134.600; -865.000; -883.000
254.493;  -64.800; -441.000; -417.000
254.635; -112.600; -936.000; -818.000
254.777;  -75.275; -752.000; -687.000
254.918;  -53.625; -512.000; -430.000
255.060;  -47.900; -551.000; -395.000
255.202;  -47.150; -473.000; -261.000
255.344;  -82.400; -658.000; -455.000
255.486;  -71.925; -471.000; -406.000
255.628; -100.550; -780.000; -781.000
255.770; -109.875; -676.000; -536.000
255.912;  -58.875; -559.000; -468.000
256.053;  -82.125; -730.000; -508.000
256.195;  159.125; 1008.000;  903.000
256.337;  -92.600; -861.000; -595.000
256.479;   77.375;  532.000;  416.000
256.621;  -41.475; -394.000; -212.000
256.762;  -83.025; -789.000; -742.000
256.904;   59.775;  485.000;  487.000
257.046;  -30.675; -381.000; -271.000
257.188;  -36.550; -351.000; -264.000
257.329;  -80.150; -525.000; -464.000
257.471;  -96.025; -939.000; -807.000
257.613;  -55.850; -584.000; -498.000
257.755; -137.700;-1073.000; -982.000
257.896;   34.900;  286.000;  392.000
258.038;  -63.200; -403.000; -352.000
258.180;  -38.175; -354.000; -279.000
258.321;  -86.600; -581.000; -457.000
258.463;  -16.950;  -71.000;  133.000
258.605;  -85.950; -562.000; -570.000
258.746; -101.425; -886.000; -772.000
258.888; -144.750;-1026.000;-1020.000
259.029;   14.175;  121.000;   -8.000
259.171;  -70.650; -614.000; -550.000
259.313;   -8.175;  -49.000;  -47.000
259.454;  -74.650; -536.000; -414.000
259.596;  -56.475; -483.000; -390.000
259.737;  -85.525; -590.000; -474.000
259.879;   47.800;  217.000;  311.000
260.020;  101.275;  901.000;  636.000
260.162;  -21.675; -146.000; -253.000
260.303; -109.350; -768.000; -687.000
260.445;  -88.450; -609.000; -613.000
260.586;   26.875;  392.000;  157.000
260.728;  -42.825; -360.000; -248.000
260.869; -102.875; -350.000; -343.000
261.011;   72.050;  706.000;  537.000
261.152;  -41.875; -479.000; -319.000
261.293;  -83.450; -576.000; -595.000
261.435;  -20.825; -219.000; -184.000
261.576;  -52.475; -455.000; -325.000
261.718;   61.350;  420.000;  470.000
261.859; -112.800; -940.000; -949.000
262.000; -111.825; -951.000;-1016.000
262.142;  -17.300;  -52.000;  -60.000
262.283;  -89.950; -808.000; -691.000
262.424;  -86.100; -666.000; -625.000
262.566; -145.450;-1161.000; -983.000
262.707; -100.200; -840.000; -830.000
262.848; -117.625; -769.000; -726.000
262.990;  -57.425; -362.000; -345.000
263.131;   75.275;  650.000;  681.000
263.272;  -20.425;  -61.000;  -41.000
263.413;  -83.325; -589.000; -561.000
263.555;  -67.450; -669.000; -143.000
263.696;  -82.675; -550.000; -641.000
263.837;  -45.950; -449.000; -551.000
263.978;    3.750;   -5.000;  -77.000
264.119;  -36.500; -283.000; -264.000
264.261; -104.975; -847.000; -630.000
264.402;  -14.650;   33.000;   40.000
264.543;  -60.450; -509.000; -524.000
264.684;   -7.875;   61.000;  -50.000
264.825;  -53.225; -816.000; -538.000
264.966;   -6.200;  -84.000;  -67.000
265.107; -101.225; -646.000; -670.000
265.248; -117.825; -825.000; -812.000
265.390;   -1.425;  152.000;   -9.000
265.531;  -29.350; -238.000; -107.000
265.672;  -76.025; -557.000; -630.000
265.813;   46.375;  563.000;  439.000
265.954; -142.050; -959.000; -940.000
266.095;  -12.800; -372.000; -322.000
266.236;  -88.350; -686.000; -548.000
266.377;  -46.975; -243.000; -297.000
266.518;  -66.225; -619.000; -547.000
266.659;   36.100;  170.000;  268.000
266.800;   20.075;   83.000;   85.000
266.941;  -66.500; -487.000; -478.000
267.082;   21.875;  354.000;   99.000
267.223;  -43.550; -344.000; -273.000
267.364;  -94.650; -892.000; -686.000
267.504;  -16.875;    3.000;  135.000
267.645;   -4.475;  160.000;   67.000
267.786;  -34.525; -147.000;  -86.000
267.927;  -61.300; -473.000; -379.000
268.068;  -24.575; -186.000;  -61.000
268.209;  -45.075; -175.000; -413.000
268.350;  -65.175; -388.000; -532.000
268.490;  -74.350; -648.000; -521.000
268.631;   25.500;  127.000;  225.000
268.772; -105.125; -874.000; -647.000
268.913;  -41.625; -328.000; -476.000
269.054;   -8.525; -117.000;   12.000
269.194;  -51.700; -418.000; -402.000
269.335; -163.050;-1137.000;-1074.000
269.476;  -19.850;   33.000;  -35.000
269.617;  -38.850; -347.000; -392.000
269.757;  -75.675; -713.000; -646.000
269.898; -102.925; -856.000; -613.000
270.039;  -58.400; -415.000; -405.000
270.180; -127.150; -952.000; -816.000
270.320;  -15.300; -190.000; -250.000
270.461;  -35.425; -277.000; -249.000
270.602;  -25.175; -186.000; -156.000
270.742; -119.150; -868.000; -943.000
270.883;  -60.050; -442.000; -390.000
271.023;  -47.100; -358.000; -357.000
271.164;  -77.975; -607.000; -528.000
271.305;  -91.875; -666.000; -654.000
271.445;  -89.750; -722.000; -683.000
271.586;  -66.000; -462.000; -283.000
271.726;  -52.700; -397.000; -322.000
271.867;  -36.875; -594.000; -534.000
272.008;  189.200; -473.000; -285.000
272.148;  139.650;  462.000;  468.000
272.289;    9.100; -113.000; -181.000
272.429;   34.700;   19.000;  185.000
272.570; -103.000; -633.000; -737.000
272.710; -101.225; -825.000; -775.000
272.851;  -16.950;  113.000; -130.000
272.991; -153.700;-1173.000;-1077.000
273.131;  -67.575; -419.000; -459.000
273.272;  -98.250; -683.000; -723.000
273.412;    9.950; -143.000;  -31.000
273.553;  -43.700; -488.000; -507.000
273.693;  135.900;  913.000;  858.000
273.834;  -75.225; -894.000; -692.000
273.974;  -76.750; -664.000; -615.000
274.114;  -85.400; -772.000; -560.000
274.255;   84.200;  414.000;  373.000
274.395;    9.750; -180.000; -125.000
274.535;   33.575;  199.000;  350.000
274.676;   19.050;  225.000;   94.000
274.816;   -6.250;  110.000;   34.000
274.956;  -67.200; -624.000; -690.000
275.097;  -51.025;-1014.000; -922.000
275.237;  -90.825; -913.000; -803.000
275.377;  -95.300; -778.000; -689.000
275.517; -133.975; -878.000; -937.000
275.658;  -58.575; -590.000; -555.000
275.798;  -67.250; -606.000; -413.000
275.938;   19.275;  215.000;  323.000
276.078;  -89.775; -626.000; -395.000
276.218;   -4.675;   99.000;  104.000
276.359; -140.025;-1026.000;-1024.000
276.499;  -65.525; -605.000; -446.000
276.639;  -31.750; -305.000; -151.000
276.779;  -40.625; -475.000; -357.000
276.919;  -98.150; -783.000; -624.000
277.059;  -20.675; -261.000; -212.000
277.199;  -36.275; -357.000; -259.000
277.340;   40.000;  287.000;  175.000
277.480;  -96.025; -840.000; -693.000
277.620;   13.150;  192.000;   16.000
277.760; -179.675;-1533.000;-1294.000
277.900;   20.825;  113.000;   33.000
278.040;   34.200;  137.000;  159.000
278.180;   41.150;  270.000;  170.000
278.320;    0.600;   21.000;   56.000
278.460;  -78.925; -443.000; -469.000
278.600;  -84.275; -708.000; -598.000
278.740;   54.075;  448.000;  224.000
278.880;  -39.375; -768.000; -791.000
279.020;   -9.375; -194.000; -144.000
279.160;  -89.175; -672.000; -595.000
279.300; -118.100; -926.000; -873.000
279.440;  -85.875; -709.000; -622.000
279.579;   -6.575;-1014.000; -929.000
279.719;  -45.800; -410.000; -394.000
279.859;   73.125;   -4.000;   41.000
279.999;   27.400; -208.000;  101.000
280.139;   -5.200; -435.000; -387.000
280.279;  -66.175; -708.000; -745.000
280.419;  -18.725; -229.000; -147.000
280.559;  -37.875; -259.000; -180.000
280.698;  -74.300; -790.000; -639.000
280.838;  -97.800; -778.000; -800.000
280.978;  -98.475; -846.000; -790.000
281.118; -103.075; -811.000; -704.000
281.257;   -2.900;   24.000;    6.000
281.397; -107.000;-1094.000; -960.000
281.537;  -81.500; -599.000; -712.000
281.677;  -20.350; -150.000; -101.000
281.816;  -86.750; -700.000; -630.000
281.956;  -28.325; -193.000; -257.000
282.096;  -72.125; -539.000; -396.000
282.235;  -97.775; -672.000; -638.000
282.375;  -19.650; -243.000;  -98.000
282.515;  -77.975; -715.000; -707.000
282.654;   35.175;   29.000;  106.000
282.794;   35.575;  388.000;  244.000
282.934;  -63.525; -530.000; -491.000
283.073; -132.500;-1030.000; -857.000
283.213;  -55.475; -460.000; -467.000
283.353;  -23.925; -408.000; -349.000
283.492;  -25.300; -264.000; -296.000
283.632;  -42.250; -254.000; -168.000
283.771;  -93.400; -859.000; -730.000
283.911;  -45.450; -369.000; -260.000
284.050; -113.225; -794.000; -748.000
284.190; -152.500;-1229.000;-1096.000
284.329; -141.275;-1055.000; -964.000
284.469;  -54.600; -516.000; -591.000
284.608;  -57.100; -559.000; -598.000
284.748;  -68.875; -614.000; -570.000
284.887;   -9.025;  -87.000;  -20.000
285.027; -121.100; -844.000; -892.000
285.166;  -22.200; -192.000; -249.000
285.306;    9.900; -116.000;  -33.000
285.445;  -43.150; -229.000; -343.000
285.584;  -95.825; -630.000; -494.000
285.724;  -47.625; -282.000; -322.000
285.863;  -99.100; -857.000; -507.000
286.002;  -60.075; -366.000; -276.000
286.142; -105.100; -715.000; -622.000
286.281;  -68.825; -525.000; -493.000
286.420;  -70.625; -554.000; -417.000
286.560;   96.675;  653.000;  623.000
286.699; -119.150; -958.000; -912.000
286.838;  -60.600; -590.000; -591.000
286.978;  -80.925; -533.000; -537.000
287.117; -125.350;-1085.000; -950.000
287.256;  -13.425; -228.000; -211.000
287.395;  -45.950; -197.000; -378.000
287.535;  -48.300; -370.000; -298.000
287.674;  -70.425; -509.000; -484.000
287.813;   71.175;  661.000;  533.000
287.952; -117.550;-1010.000; -871.000
288.091; -140.775;-1049.000; -915.000
288.231;   10.500;   13.000;   15.000
288.370; -149.950;-1217.000;-1200.000
288.509;  -83.925; -728.000; -645.000
288.648;  -90.800; -770.000; -548.000
288.787;  -33.100; -243.000;  -87.000
288.926;  -57.475; -454.000; -475.000
289.065;  115.025;  859.000;  672.000
289.204;  -46.450; -377.000; -217.000
289.344;  -90.750; -791.000; -690.000
289.483;   19.725;  416.000;  304.000
289.622;  -19.500; -291.000; -149.000
289.761;  -12.000; -309.000; -166.000
289.900; -111.950; -785.000; -626.000
290.039;   -3.575;  -12.000;  -95.000
290.178;  -48.575; -274.000; -180.000
290.317;  -80.150; -618.000; -479.000
290.456;  -59.550; -463.000; -451.000
290.595; -113.775; -961.000; -833.000
290.734; -129.625; -904.000; -891.000
290.873;  -70.700; -456.000; -420.000
291.011; -115.425; -833.000; -843.000
291.150;  -97.425; -770.000; -682.000
291.289;  -10.200; -343.000; -110.000
291.428;  -92.475; -599.000; -480.000
291.567;  -45.125; -370.000; -442.000
291.706;   -5.625;  109.000;  154.000
291.845;  -78.275; -597.000; -505.000
291.984; -157.825;-1234.000;-1061.000
292.122;   62.650;  602.000;  582.000
292.261;   38.875;  620.000;  463.000
292.400;    5.050; -144.000;  211.000
292.539; -112.525; -959.000; -813.000
292.678;  -20.225; -325.000; -300.000
292.816; -155.025;-1136.000; -965.000
292.955;  -85.800; -844.000; -684.000
293.094;  -27.050; -173.000; -337.000
293.233;  -45.550; -556.000; -400.000
293.371;  -30.225; -225.000;  -84.000
293.510; -105.150; -866.000; -780.000
293.649; -118.325; -959.000; -924.000
293.787;  -41.300;-1083.000;-1012.000
293.926;  -11.025; -113.000;  -32.000
294.065;  -40.275; -379.000; -290.000
294.203;   43.725;  298.000;  406.000
294.342;   23.725;   74.000;  156.000
294.481; 5957.275;51180.000; -836.000
294.619;  -27.775; -425.000; -582.000
294.758; -131.450;-1230.000;-1137.000
294.896;   73.425; -125.000;    5.000
295.035; -110.775;-1040.000;-1006.000
295.174; -115.800;-1082.000; -954.000
295.312;  -41.125; -323.000; -203.000
295.451;   12.200; -307.000; -428.000
295.589;  -50.600; -389.000; -518.000
295.728;   16.575; -292.000; -165.000
295.866;   11.000;  -36.000;  -51.000
296.005;  -58.300; -584.000; -341.000
296.143;  -61.650; -558.000; -596.000
296.282; -102.400; -957.000; -881.000
296.420;  -92.750; -657.000; -557.000
296.559;  -78.275; -892.000; -633.000
296.697;   50.100; -847.000; -665.000
296.835;   64.100;-1141.000;-1002.000
296.974;   52.500;  -23.000;   39.000
297.112;   16.875; -443.000; -504.000
297.251;  -61.700; -815.000; -755.000
297.389;  107.225; -576.000; -438.000
297.527;   53.875; -145.000;  -83.000
297.666;  -52.575; -486.000; -438.000
297.804;  -26.500; -404.000; -264.000
297.942;    0.525; -136.000; -161.000
298.081;   22.225; -183.000;   63.000
298.219;   75.925;  -17.000;  -19.000
298.357;   75.725; -144.000;  -71.000
298.495;   48.900; -810.000; -812.000
298.634;   80.725;  245.000;  219.000
298.772;   56.425; -220.000; -338.000
298.910;  -34.775; -309.000; -182.000
299.048;   -8.325; -130.000; -153.000
299.187;  -25.450; -350.000; -250.000
299.325;   28.425;   52.000;  122.000
299.463;   69.875; -389.000; -299.000
299.601;  104.950; -327.000; -271.000
299.739;  -94.025; -908.000; -883.000
299.877;  -73.025; -791.000; -703.000
300.016;  -35.750;-1095.000; -935.000
300.154;  159.550;  -19.000; -161.000
300.292;   71.325; -428.000; -348.000
300.430;   35.800; -408.000; -291.000
300.568;  -83.425; -940.000; -874.000
300.706;  -37.250; -366.000; -469.000
300.844;  -73.150;-1108.000; -979.000
300.982;  128.575;  246.000;  282.000
301.120;  -95.825; -965.000; -866.000
301.258;  -64.300; -812.000; -705.000
301.396;   43.075;  104.000;  -41.000
301.534;   90.150; -218.000; -293.000
301.672;   -3.475; -664.000; -521.000
301.810;   57.775; -613.000; -545.000
301.948;  129.700;   53.000;  149.000
302.086;  678.975; -250.000;  -32.000
302.224;  997.100; -610.000; -585.000
302.362;   38.175; -558.000; -622.000
302.500;  -11.225; -923.000; -893.000
302.638;  102.325;  128.000;  245.000
302.776;    1.225; -352.000; -408.000
302.913;   37.025;  447.000;  236.000
303.051;   -4.775;  -86.000;  -23.000
303.189;   54.550;   90.000;  118.000
303.327;  -37.175; -341.000; -256.000
303.465;  -76.075; -832.000; -588.000
303.603;  -81.000; -805.000; -604.000
303.740;  107.600;  417.000;  241.000
303.878;   28.375; -800.000; -759.000
304.016;  -72.175; -915.000; -790.000
304.154; -130.700;-1123.000;-1152.000
304.291;  -17.825; -505.000; -554.000
304.429;   11.825;  102.000;   74.000
304.567; -115.100; -908.000; -893.000
304.705;  -48.650; -408.000; -515.000
304.842;  111.725; -616.000; -540.000
304.980;   60.075;  215.000;   35.000
305.118;   53.575; -367.000; -365.000
305.255;  -71.400; -945.000; -927.000
305.393;   57.950;  178.000;  239.000
305.531;  -85.925;-1173.000; -956.000
305.668;  -59.950; -663.000; -582.000
305.806;  127.075; -358.000; -439.000
305.943;  121.325; -629.000; -637.000
306.081;   71.975; -378.000; -267.000
306.219;  -92.700; -863.000; -748.000
306.356;   10.525;  158.000;   27.000
306.494;  112.025;  981.000;  761.000
306.631;    3.675;  -11.000;  -55.000
306.769;   -1.350; -613.000; -485.000
306.906;   -4.125; -284.000; -258.000
307.044;  -71.250; -473.000; -488.000
307.181;  -50.025; -410.000; -332.000
307.319;    9.675;  112.000;   87.000
307.456; -157.275;-1191.000;-1153.000
307.594; -107.675; -980.000; -727.000
307.731;  -14.350; -371.000; -164.000
307.868;  -22.375;  -15.000;   20.000
308.006; -114.800; -961.000; -847.000
308.143;  -63.550; -618.000; -330.000
308.281;  192.750;  -37.000; -254.000
308.418;   -6.650; -748.000; -640.000
308.555;  -63.025; -400.000; -250.000
308.693;  -81.575; -577.000; -573.000
308.830;  -94.050; -712.000; -657.000
308.967;   -1.125; -215.000;  -95.000
309.105;  -31.600; -507.000; -396.000
309.242;   43.450; -468.000; -367.000
309.379;  370.375; -577.000; -655.000
309.517;  -45.575; -936.000; -948.000
309.654;  -94.400; -910.000; -734.000
309.791;  -63.000; -662.000; -580.000
309.928; -109.125; -977.000; -914.000
310.065;  190.850;  819.000;  697.000
310.203;   21.250; -825.000; -850.000
310.340;   -0.775; -465.000; -321.000
310.477;  -64.400; -412.000; -516.000
310.614;  -68.325; -383.000; -473.000
310.751;  -65.900; -427.000; -518.000
310.889;  -16.525;    1.000;   11.000
311.026; -141.500;-1161.000; -939.000
311.163;  -57.625; -386.000; -380.000
311.300;  -67.850; -512.000; -479.000
311.437;  -81.575; -658.000; -619.000
311.574; -146.500;-1226.000; -985.000
311.711;  -65.200; -595.000; -433.000
311.848;  -32.575; -380.000; -388.000
311.985;   10.575;  270.000;   93.000
312.122; -108.950; -932.000; -762.000
312.259; -120.925; -941.000; -994.000
312.396;  -73.775; -508.000; -551.000
312.533;  -82.700; -812.000; -790.000
312.670; -116.075;-1070.000; -898.000
312.807;  -32.550; -352.000; -367.000
312.944;  -65.425; -513.000; -611.000
313.081;  -27.525; -150.000; -415.000
313.218;  -99.025;-1111.000; -867.000
313.355;   11.275; -531.000; -449.000
313.492;   14.475; -455.000; -292.000
313.629;  125.350;  815.000;  735.000
313.766; -145.250;-1176.000;-1008.000
313.902;  -12.750; -186.000;   21.000
314.039;  -49.550; -372.000; -289.000
314.176;   11.250;  286.000;  192.000
314.313;  -70.400; -569.000; -473.000
314.450;  -80.800; -788.000; -684.000
314.587;  -48.350; -468.000; -480.000
314.723;    8.125;  -78.000;  130.000
314.860;   36.625;  318.000;  332.000
314.997;   26.650;  223.000;  142.000
315.134;  -25.275; -385.000; -368.000
315.270;  -28.525; -480.000; -496.000
315.407; -123.425;-1094.000; -967.000
315.544;  -39.125; -657.000; -538.000
315.681;  -58.425; -681.000; -565.000
315.817;   29.900; -133.000; -176.000
315.954;   26.500; -613.000; -392.000
316.091; -123.675;-1045.000;-1023.000
316.227;  -28.100;  -71.000; -179.000
316.364;   -6.875;   23.000;    6.000
316.500;  -44.225; -113.000; -300.000
316.637;  -39.400; -181.000; -302.000
316.774;  -92.500; -625.000; -358.000
316.910;  -90.250; -598.000; -629.000
317.047;  -53.575; -487.000; -351.000
317.183;  -40.375; -435.000; -566.000
317.320;   -8.675; -367.000; -321.000
317.456;  -69.225; -733.000; -805.000
317.593;  -87.625; -598.000; -641.000
317.729;    0.400;  168.000;  -67.000
317.866; -184.650;-1434.000;-1285.000
318.002;  -79.425; -708.000; -948.000
318.139; -100.975; -883.000; -867.000
318.275; -106.975;-1003.000; -738.000
318.412;  -49.100; -517.000; -336.000
318.548;  -33.975; -751.000; -720.000
318.685;  -84.825; -985.000; -888.000
318.821;  -91.150; -762.000; -735.000
318.957;  -15.550;   34.000;  -23.000
319.094;   39.775;  297.000;  154.000
319.230;  -64.525; -756.000; -742.000
319.367;  146.900; -471.000; -520.000
319.503;   65.575; -538.000; -436.000
319.639; -101.825; -877.000; -793.000
319.775;  -41.350; -750.000; -685.000
319.912;  -40.600; -424.000; -519.000
320.048;  -81.200;-1184.000;-1184.000
320.184;   82.750;   59.000;   70.000
320.321;  -56.100; -497.000; -467.000
320.457;   68.975;  475.000;  662.000
320.593;  -56.375; -375.000; -382.000
320.729;  -97.500; -732.000; -734.000
320.866;  -61.900; -577.000; -635.000
321.002;  -73.975; -759.000; -809.000
321.138;   -3.350; -135.000; -211.000
321.274;   79.250; -148.000; -115.000
321.410;   -7.850; -585.000; -353.000
321.546;  -20.975;-1011.000; -911.000
321.683;   60.625;  400.000;  185.000
321.819;   13.375;  -48.000; -117.000
321.955;  -94.700; -743.000; -722.000
322.091;  -35.825; -585.000; -540.000
322.227;    4.050; -382.000; -202.000
322.363;   -4.575; -320.000; -215.000
322.499;  -33.925; -343.000; -331.000
322.635;  168.475;  636.000;  443.000
322.771;   32.575; -139.000;   12.000
322.907;   84.600;  129.000;  327.000
323.043;   -5.300; -115.000; -206.000
323.179;  -38.825; -394.000; -363.000
323.315;   42.325; -401.000; -371.000
323.451;   92.650; -328.000; -236.000
323.587;   67.750;  -60.000;  -77.000
323.723;   22.775; -682.000; -601.000
323.859;   -3.900; -258.000;  -76.000
323.995;  -33.675; -467.000; -409.000
324.131; -116.125; -967.000; -892.000
324.267;  -24.625; -254.000; -276.000
324.402; -113.750; -960.000; -983.000
324.538;   -8.600; -279.000; -104.000
324.674;   26.600;  164.000;   77.000
324.810;  131.100;  226.000;  308.000
324.946;    1.650; -810.000; -658.000
325.082;  -63.625; -568.000; -475.000
325.217;   -8.500;  -62.000;   16.000
325.353;  -99.600; -764.000; -659.000
325.489;  -78.875; -540.000; -506.000
325.625;  -77.000; -579.000; -525.000
325.760;   73.575;  517.000;  376.000
325.896;  -13.250; -515.000; -702.000
326.032;  -51.650; -403.000; -352.000
326.168;  -66.175; -462.000; -369.000
326.303;  -53.100; -352.000; -461.000
326.439;  -30.775; -336.000; -276.000
326.575;    1.650; -190.000;  -29.000
326.710;  -13.625; -156.000;  -30.000
326.846;    2.825;  146.000;  103.000
326.982;  -89.500; -530.000; -548.000
327.117;  -71.025; -481.000; -442.000
327.253;  -89.650; -745.000; -742.000
327.388; -150.500;-1137.000;-1153.000
327.524;  -38.100; -811.000; -578.000
327.659;  -21.800;  -58.000;  -22.000
327.795;  -14.075;   69.000;   45.000
327.931;  -84.775; -723.000; -499.000
328.066;  -35.100; -417.000; -276.000
328.202;  -27.575;   12.000; -129.000
328.337;  105.675;  957.000;  713.000
328.473;   28.875;  -12.000;  -74.000
328.608;  -29.825; -256.000; -267.000
328.743;  -61.550; -799.000; -664.000
328.879;   18.150;  214.000;  114.000
329.014;  -25.825; -102.000; -122.000
329.150;  -86.925; -358.000; -483.000
329.285;  -75.875; -465.000; -466.000
329.421;  -60.550; -548.000; -246.000
329.556;  -29.600;  -36.000;   85.000
329.691;  -97.600; -633.000; -615.000
329.827;  -82.025; -626.000; -480.000
329.962;  -36.825;  131.000; -301.000
330.097;  -81.875; -673.000; -585.000
330.233;  -48.200; -410.000; -223.000
330.368; -114.025; -839.000; -628.000
330.503;   -9.550;    3.000;   98.000
330.638;   11.375;  -93.000; -125.000
330.774;  -64.050; -609.000; -530.000
330.909;  -36.300; -434.000; -244.000
331.044;  -90.875; -714.000; -708.000
331.179; -161.925;-1217.000;-1109.000
331.315;    4.975;   77.000;   20.000
331.450;   15.000;  157.000;  285.000
331.585;  -86.775; -805.000; -706.000
331.720;  -87.200; -510.000; -460.000
331.855;    0.250;  -35.000; -102.000
331.990;  251.225;   62.000;  138.000
332.126;  132.050; -110.000;   71.000
332.261;  -12.250; -379.000; -265.000
332.396;   -9.100; -135.000; -242.000
332.531;  -86.300;-1074.000;-1031.000
332.666;   31.800; -519.000; -363.000
332.801;  -95.650; -726.000; -807.000
332.936;  -26.200; -192.000; -122.000
333.071; -142.000; -870.000; -817.000
333.206;   14.100;  307.000;  379.000
333.341;   31.875;  344.000;  418.000
333.476;  -88.150; -627.000; -623.000
333.611;  -37.950; -251.000; -173.000
333.746;  -46.650; -381.000; -464.000
333.881; -118.375; -973.000; -935.000
334.016; -128.575; -936.000; -917.000
334.151; -109.750; -746.000; -702.000
334.286;   23.150;  152.000;  186.000
334.421;  -17.200; -125.000; -178.000
334.556;  -79.175; -611.000; -567.000
334.690;  -76.550; -631.000; -577.000
334.825;   53.975;  381.000;   83.000
334.960;  -56.575; -285.000; -413.000
335.095;    2.025;  135.000;  -91.000
335.230;  -99.775; -722.000; -738.000
335.365; -129.150;-1084.000; -990.000
335.499; -117.625;-1108.000;-1037.000
335.634;   21.375;    9.000;  534.000
335.769;  -97.925; -755.000; -720.000
335.904;  -60.325; -603.000; -561.000
336.038;  -43.025; -735.000; -657.000
336.173; -100.875;-1206.000;-1194.000
336.308;   13.650; -116.000; -189.000
336.443;    7.175; -544.000; -634.000
336.577;  -62.675; -936.000; -787.000
336.712;   54.850;   -4.000;  -12.000
336.847;  -22.500; -724.000; -607.000
336.981;   57.800; -272.000; -208.000
337.116;  296.825;  615.000;  501.000
337.250;  154.400; -434.000; -421.000
337.385;  264.850; -297.000; -208.000
337.520;   73.250; -632.000; -603.000
337.654;  -24.425; -215.000; -126.000
337.789; -125.750; -989.000; -933.000
337.923;  -33.425; -104.000; -205.000
338.058;  -74.900; -673.000; -738.000
338.192;  -23.025; -611.000; -488.000
338.327;  -12.300;  -18.000; -155.000
338.461;  -49.525; -299.000; -469.000
338.596;  -69.625; -780.000; -638.000
338.730; -104.150; -767.000; -803.000
338.865;   90.725;  -46.000; -140.000
338.999;  -37.875; -846.000; -702.000
339.134;  -40.825; -634.000; -536.000
339.268;   23.650; -741.000; -603.000
339.403;  380.775; -740.000; -775.000
339.537;  121.825; -894.000; -820.000
339.671; -117.225; -829.000; -813.000
339.806;  -51.300; -556.000; -512.000
339.940;    7.700; -261.000; -235.000
340.074;  -78.350; -685.000; -510.000
340.209;  -57.925; -351.000; -230.000
340.343;  -71.525; -517.000; -573.000
340.477;  137.400;  998.000; 1036.000
340.612;  -54.050;-1033.000; -900.000
340.746;  132.575; -199.000; -243.000
340.880;  -58.700; -924.000; -785.000
341.014;  -20.800;  -45.000; -154.000
341.149; -103.000; -756.000; -718.000
341.283; -104.050; -839.000; -754.000
341.417;  -79.400;-1124.000; -938.000
341.551;  132.225; -768.000; -708.000
341.685;  -24.275; -633.000; -611.000
341.820;  -42.725; -562.000; -493.000
341.954;  -49.925; -218.000; -349.000
342.088; -145.000;-1102.000;-1019.000
342.222;   59.500;  565.000;  618.000
342.356;  -53.675; -395.000; -335.000
342.490;  -87.475; -880.000; -841.000
342.624;  -44.150; -339.000; -242.000
342.758;    7.400; -364.000; -312.000
342.892;  -69.700; -710.000; -585.000
343.026;  -35.800;  -58.000; -116.000
343.160;  -53.100; -426.000; -376.000
343.294;  -66.600; -474.000; -337.000
343.428;  -28.325; -488.000; -448.000
343.562;   -3.700; -172.000;  -23.000
343.696;  -25.875; -385.000; -314.000
343.830;  -17.475; -362.000; -356.000
343.964;    7.975; -231.000; -168.000
344.098;  954.200;  199.000;   70.000
344.232;  788.425; -266.000; -127.000
344.366;   93.575; -567.000; -453.000
344.500;   83.100; -665.000; -744.000
344.634;   19.050; -324.000; -164.000
344.768;   -7.450; -531.000; -341.000
344.902;   17.425;  278.000;  256.000
345.035;  -66.750; -556.000; -496.000
345.169; -126.250; -933.000; -656.000
345.303;  -17.475; -308.000; -482.000
345.437;  -59.800; -826.000; -717.000
345.571;  -59.825; -675.000; -594.000
345.704;  -53.000; -309.000; -532.000
345.838;  -16.100; -331.000; -284.000
345.972;  -24.125; -543.000; -495.000
346.106;  170.975; -179.000; -190.000
346.239;  422.975; -312.000; -243.000
346.373;   20.000; -343.000; -302.000
346.507; -120.975; -950.000; -962.000
346.640;  156.550;  -30.000;   13.000
346.774;  -40.425; -650.000; -797.000
346.908;  -12.300; -138.000;  -11.000
347.041;  -91.900; -646.000; -593.000
347.175;    9.625;  259.000;   27.000
347.309;  -55.025; -698.000; -628.000
347.442;  -91.425; -883.000; -732.000
347.576;  302.350;  670.000;  668.000
347.709;  203.100; -123.000;  -52.000
347.843;  -96.150; -933.000; -825.000
347.976;   24.875;  235.000;  294.000
348.110; -171.775;-1268.000;-1186.000
348.243; -104.125; -679.000; -772.000
348.377;   -0.025;  -26.000;   60.000
348.510;   41.250;  403.000;  540.000
348.644;  -30.400;  -37.000; -159.000
348.777;   -1.425;  180.000;  191.000
348.911;  -51.325; -142.000; -112.000
349.044;  171.700;  471.000;  448.000
349.178;  184.350;-1069.000;-1006.000
349.311;  115.950;  141.000;  255.000
349.444;   14.275; -927.000; -813.000
349.578;  -11.900; -347.000; -200.000
349.711;  -93.700; -959.000; -862.000
349.845;    2.550; -661.000; -591.000
349.978; -128.975;-1224.000;-1137.000
350.111;  -80.375; -546.000; -612.000
350.244;  -64.550; -596.000; -700.000
350.378;   16.750; -392.000; -393.000
350.511;  -54.900; -393.000; -426.000
350.644; -113.600; -808.000; -806.000
350.778;   17.050;  168.000;  104.000
350.911;    2.500;  134.000;  140.000
351.044;  -96.800; -685.000; -615.000
351.177;  -26.900; -321.000; -281.000
351.310;  -15.275;    3.000; -131.000
351.444;  -82.350; -888.000; -788.000
351.577;  136.300;  140.000;   90.000
351.710;   96.775;  593.000;  417.000
351.843;  -32.500; -165.000;  -77.000
351.976;   -0.175;  149.000;  -79.000
352.109;  -76.500; -621.000; -612.000
352.242;  -20.450; -464.000; -419.000
352.376;  -63.700; -580.000; -636.000
352.509;  184.925; -437.000; -356.000
352.642;   26.525; -654.000; -604.000
352.775;   55.400; -141.000;  -98.000
352.908;  -96.600; -933.000; -904.000
353.041; -104.450; -814.000; -824.000
353.174;  -62.625; -551.000; -424.000
353.307;  -87.950; -753.000; -764.000
353.440;   69.750;  541.000;  453.000
353.573; -100.125; -957.000;-1008.000
353.706;  -36.325; -384.000; -558.000
353.839;  -18.525; -264.000; -220.000
353.971;  -82.475; -657.000; -512.000
354.104;  -80.275; -896.000; -835.000
354.237;  -14.200; -627.000; -662.000
354.370;  -81.925; -846.000; -879.000
354.503; -180.875;-1231.000;-1308.000
354.636;  -48.425; -529.000; -348.000
354.769; -132.475; -937.000; -860.000
354.902;    2.100; -230.000; -139.000
355.034;  -23.500; -164.000; -220.000
355.167;  -21.925; -262.000; -162.000
355.300;  -88.950;-1061.000; -880.000
355.433;  971.250;  -71.000;  -14.000
355.565; 1515.650; -402.000; -384.000
355.698;  387.325; -356.000; -296.000
355.831;    3.300; -882.000; -801.000
355.964;   92.550; -285.000; -170.000
356.096;  -74.850; -856.000; -843.000
356.229;   16.775; -523.000; -530.000
356.362;  332.275; -373.000; -266.000
356.494;  588.075; -229.000; -162.000
356.627;  495.400;  269.000;  377.000
356.760;  683.750;  120.000;   53.000
356.892;  974.075; -286.000; -601.000
357.025;  690.925;  403.000;  389.000
357.157;  652.300; -167.000; -179.000
357.290;  676.425; -856.000; -713.000
357.423;  191.175; -667.000; -556.000
357.555;  112.250; -217.000; -228.000
357.688;  146.175; -483.000; -364.000
357.820;  480.000; -870.000; -877.000
357.953; 3884.450; -563.000; -589.000
358.085;  863.775; -632.000; -612.000
358.218; 1204.175;-1131.000; -932.000
358.350;  219.025;  -58.000;  312.000
358.483; -111.800;-1300.000;-1187.000
358.615;    6.050;-1182.000;-1078.000
358.747;  -34.775;-1187.000;-1058.000
358.880;   18.625; -810.000; -744.000
359.012;    8.850; -376.000; -202.000
359.145;  -40.800; -480.000; -511.000
359.277;   83.300; -962.000; -913.000
359.409; 3167.500;  536.000;  231.000
359.542;  875.350; -738.000; -688.000
359.674;   84.600;   46.000;   13.000
359.806;  -59.275; -565.000; -438.000
359.939;  -33.500; -617.000; -516.000
360.071;  -18.675; -583.000; -579.000
360.203;  -23.025; -411.000; -364.000
360.335;   50.525;  164.000;  -16.000
360.468;  200.775; -249.000; -307.000
360.600; 2557.225; -547.000; -454.000
360.732; 2896.050; -546.000; -423.000
360.864;  405.725;-1216.000;-1044.000
360.996;  290.775; -516.000; -554.000
361.129;   45.150; -389.000; -598.000
361.261;   19.400;  110.000; -113.000
361.393;  -29.150; -252.000; -214.000
361.525;   52.550;   94.000;  244.000
361.657;  -32.275; -821.000; -703.000
361.789;   13.700; -139.000; -155.000
361.921;  248.625; -642.000; -593.000
362.053;  276.450;  524.000;  541.000
362.185;   58.550;  288.000;   72.000
362.318;  -69.775; -709.000; -705.000
362.450;  121.825;  294.000;  444.000
362.582;  115.175; -913.000; -870.000
362.714;  -36.550; -353.000; -332.000
362.846;  -78.725; -606.000; -490.000
362.978; -138.350; -941.000; -811.000
363.109;   40.425; -161.000; -260.000
363.241;  476.250; -739.000; -749.000
363.373;  449.875; -649.000; -564.000
363.505;  672.325; -186.000;  -91.000
363.637;  161.250; -787.000; -601.000
363.769; -115.925;-1067.000;-1080.000
363.901;  -64.575; -596.000; -654.000
364.033; -110.625;-1103.000;-1062.000
364.165;   -4.650; -283.000; -283.000
364.296;   91.300; -316.000; -177.000
364.428;   61.475;-1344.000;-1220.000
364.560;  -60.200; -679.000; -661.000
364.692;  -51.425; -738.000; -835.000
364.824;  271.900; -588.000; -456.000
364.955;  455.950; -402.000; -564.000
365.087;  968.025;-1097.000; -852.000
365.219;   33.175; -686.000; -816.000
365.351;  -63.350; -526.000; -572.000
365.482;   49.700;  300.000;  240.000
365.614;  -43.250; -402.000; -314.000
365.746;  -88.025; -729.000; -752.000
365.877;  -86.000; -706.000; -672.000
366.009;  263.750;  -35.000;  -62.000
366.141;  -80.900;-1249.000;-1134.000
366.272; -105.300; -803.000; -719.000
366.404;  -93.275;-1005.000; -874.000
366.535;   -2.575; -139.000;  -12.000
366.667;  -93.575; -644.000; -649.000
366.799;   29.525;  353.000;  203.000
366.930; -112.800; -862.000; -996.000
367.062;  116.700; -639.000; -613.000
367.193;  159.550; -872.000; -842.000
367.325;  -60.475; -580.000; -684.000
367.456;   71.775; -246.000;   31.000
367.588;  160.450; -371.000; -318.000
367.719;   41.400;  -44.000;  -45.000
367.851;  -23.525; -222.000; -241.000
367.982;  -34.125; -875.000; -732.000
368.113;  109.150; -475.000; -358.000
368.245; -112.875; -960.000; -841.000
368.376;  -12.700; -254.000; -302.000
368.508;  -20.400; -188.000; -263.000
368.639; -141.150;-1166.000;-1034.000
368.770;   -8.375; -670.000; -589.000
368.902;  -61.775; -836.000; -926.000
369.033; -113.300; -906.000; -855.000
369.164;  -54.825; -720.000; -653.000
369.296;  -90.000; -452.000; -601.000
369.427;   -2.950; -209.000; -144.000
369.558;  -34.000; -593.000; -377.000
369.689;  -71.725; -721.000; -569.000
369.821; -115.400; -951.000; -845.000
369.952;  -22.700;   42.000; -108.000
370.083;  -57.150; -229.000; -108.000
370.214;  -92.800; -735.000; -650.000
370.345;  -12.300;   65.000;   81.000
370.477;  -69.225; -810.000; -790.000
370.608;  243.050; -328.000; -264.000
370.739;  -33.025;-1233.000;-1292.000
370.870;  -43.700;-1102.000; -923.000
371.001;   93.325; -378.000; -467.000
371.132;  -60.875; -754.000; -735.000
371.263;  -24.350;  -42.000; -148.000
371.394; -117.425; -841.000; -748.000
371.525;   25.350;  345.000;  225.000
371.657;  -74.850; -808.000; -670.000
371.788;   69.300;  103.000;  199.000
371.919;  195.475; -384.000; -304.000
372.050; 3738.875;  -91.000; -156.000
372.181; 1172.200; -188.000; -294.000
372.311;  388.625;   42.000; -127.000
372.442;   45.800; -457.000; -451.000
372.573;  -20.400; -444.000; -340.000
372.704; -109.575;-1008.000; -980.000
372.835;   87.475; -228.000; -289.000
372.966;  -51.200; -646.000; -554.000
373.097;  -65.975; -575.000; -711.000
373.228;  -35.625; -717.000; -542.000
373.359;  141.700; -824.000; -536.000
373.490;  986.125; -881.000; -727.000
373.620; 1257.150;-1001.000; -803.000
373.751; 1850.300; -332.000; -396.000
373.882;  865.600; -663.000; -733.000
374.013;   80.525; -449.000; -262.000
374.143;  -37.875; -581.000; -659.000
374.274; -106.225; -987.000; -908.000
374.405;  165.950; -388.000; -276.000
374.536;  471.825; -526.000; -387.000
374.666; 1196.500; -759.000; -807.000
374.797;  260.800; -817.000; -868.000
374.928;  912.000; -710.000; -560.000
375.058;  953.625; -535.000; -500.000
375.189;   77.825;  -59.000;  -93.000
375.320; -106.150; -928.000;-1034.000
375.450;  -29.825; -625.000; -616.000
375.581;  -45.875; -526.000; -436.000
375.712;  -44.150; -574.000; -250.000
375.842;  319.475; -438.000; -415.000
375.973;  245.575; -554.000; -513.000
376.103;  -30.075; -665.000; -648.000
376.234;  -80.375; -531.000; -552.000
376.364;  -30.325; -944.000; -867.000
376.495;  331.050;  925.000;  529.000
376.625;    9.375; -472.000; -485.000
376.756;   63.950; -709.000; -678.000
376.886;  -51.700;-1178.000;-1026.000
377.017;   57.600;-1048.000;-1061.000
377.147;  365.150; -786.000; -782.000
377.278;   72.600;  174.000;  228.000
377.408; -112.225; -801.000; -815.000
377.538; -118.150; -707.000; -693.000
377.669;  -73.275; -537.000; -613.000
377.799;  -84.350; -645.000; -635.000
377.929;  -54.950; -610.000; -428.000
378.060; -126.100; -781.000; -847.000
378.190;  -55.175; -726.000; -531.000
378.320;  -48.875; -401.000; -406.000
378.451;    2.675; -131.000;  -22.000
378.581;   -7.375;  -67.000; -110.000
378.711;  160.175; 1035.000;  866.000
378.841;  -14.175; -533.000; -675.000
378.972;  -56.950; -871.000; -751.000
379.102;   -2.225; -652.000; -579.000
379.232;  -20.325; -126.000;  -73.000
379.362; -102.400;-1001.000; -885.000
379.492;   22.975; -373.000; -424.000
379.623;  105.200;    0.000;  111.000
379.753; -105.075;-1107.000; -974.000
379.883;  203.750;   59.000;  156.000
380.013;   16.475;-1081.000;-1017.000
380.143; -106.125;-1097.000;-1056.000
380.273;  -94.650; -985.000; -861.000
380.403;  -10.325; -344.000; -257.000
380.533;    2.900; -651.000; -664.000
380.663;   86.900;  173.000;  128.000
380.793;  -76.525;-1027.000;-1074.000
380.923;  -33.750; -103.000;  -34.000
381.053;  -91.550; -613.000; -623.000
381.183;  -25.300; -106.000; -248.000
381.313;   41.950; -656.000; -470.000
381.443;   60.325; -692.000; -473.000
381.573;  214.825; -402.000; -409.000
381.703;  321.775;-1249.000;-1095.000
381.833; -123.500;-1454.000;-1336.000
381.963;  119.325; -134.000;  -87.000
382.093; 1478.575; -925.000; -909.000
382.223;  480.575; -713.000; -602.000
382.353;   -7.225; -801.000; -608.000
382.482;  391.850;-1091.000; -964.000
382.612;  816.350; -872.000; -644.000
382.742;  490.550; -695.000; -622.000
382.872;  313.050; -565.000; -551.000
383.002;   78.125;  347.000; -132.000
383.131;    7.975; -226.000; -160.000
383.261;  -30.175; -706.000; -768.000
383.391;  296.400; -552.000; -377.000
383.521; 3137.575;  451.000;  263.000
383.650;  809.475; -947.000; -904.000
383.780;   -8.775; -783.000; -656.000
383.910;  107.475;  880.000;  802.000
384.039;   30.500; -794.000; -656.000
384.169;  237.675;-1205.000;-1017.000
384.299;  -21.150; -650.000; -662.000
384.428;  -91.750; -764.000; -680.000
384.558;  -44.200; -308.000; -275.000
384.687;  -29.200; -414.000; -334.000
384.817;   10.175;   75.000;   -2.000
384.947;   24.175; -234.000; -141.000
385.076;  302.950;  982.000;  912.000
385.206;   91.925;  369.000;  480.000
385.335;  -35.300; -549.000; -417.000
385.465;  -69.750; -655.000; -663.000
385.594;  140.500;  -53.000;  -44.000
385.724;  453.275; -868.000; -838.000
385.853;  129.150; -296.000; -270.000
385.982; 1395.950; -743.000; -787.000
386.112; 2299.200;-1052.000; -871.000
386.241;  161.350; -307.000; -312.000
386.371;   19.025; -174.000;  -87.000
386.500;   11.725; -825.000; -789.000
386.629;   32.200; -874.000; -817.000
386.759;   72.625;  -43.000;   68.000
386.888;   -7.650; -170.000; -250.000
387.017;  -55.575; -648.000; -620.000
387.147;  -72.700; -771.000; -798.000
387.276;    1.825; -410.000; -397.000
387.405;   14.750; -398.000; -342.000
387.535;  -41.175; -452.000; -361.000
387.664;  -64.350; -692.000; -620.000
387.793;   65.650; -198.000; -113.000
387.922;  533.475;  255.000;  200.000
388.052;   39.725; -576.000; -423.000
388.181;    9.400; -342.000; -472.000
388.310;   -2.575; -889.000; -710.000
388.439;  -35.050; -749.000; -742.000
388.568;  198.450;  365.000;  244.000
388.697; 1116.125; -756.000; -653.000
388.826;  247.125; -768.000; -666.000
388.956;   65.650; -285.000; -307.000
389.085;  -28.025; -347.000; -287.000
389.214;  -99.750; -842.000; -872.000
389.343;  -60.250; -645.000; -413.000
389.472;  380.975;  126.000;  149.000
389.601;  547.425;   91.000;    0.000
389.730;   11.200; -568.000; -687.000
389.859;   60.150;  226.000;   46.000
389.988;  189.650; -423.000; -408.000
390.117;  156.650; -168.000; -146.000
390.246;    6.100; -331.000; -320.000
390.375;  109.750; -673.000; -626.000
390.504;  -59.050; -703.000; -621.000
390.633; -101.175; -672.000; -726.000
390.761;  -63.875; -732.000; -645.000
390.890;   21.100;   -4.000; -130.000
391.019;  -30.075; -421.000; -441.000
391.148; -129.775; -826.000; -855.000
391.277;  -69.050; -576.000; -493.000
391.406;  -79.625; -821.000; -805.000
391.534;   16.425;  574.000; -301.000
391.663;  -73.900; -583.000; -645.000
391.792;  -92.625; -673.000; -701.000
391.921;   98.725;   -3.000;   15.000
392.050;  190.400; -287.000; -228.000
392.178;  -21.225;-1206.000;-1061.000
392.307;  160.325; -758.000; -712.000
392.436;   88.250; -427.000; -641.000
392.564;   13.925;  166.000;   -6.000
392.693;  -80.650; -860.000; -682.000
392.822;  218.450; -529.000; -534.000
392.950;  104.825; -880.000; -714.000
393.079;  332.925; -188.000; -328.000
393.208;   37.625; -488.000; -511.000
393.336;  -11.975; -170.000; -145.000
393.465;  -37.750; -317.000; -199.000
393.593;   -4.950;   62.000;   79.000
393.722; -157.575;-1121.000; -916.000
393.850;  -20.125; -188.000;  -61.000
393.979; -151.275; -926.000; -805.000
394.107;  -55.625; -517.000; -537.000
394.236;  -17.775; -570.000; -507.000
394.364;  218.225;  383.000;  206.000
394.493;  414.375; -911.000; -767.000
394.621;    3.775; -955.000; -916.000
394.750;  710.775; -873.000; -923.000
394.878; 2914.425; -247.000; -149.000
395.007; 4182.325; -721.000; -807.000
395.135;  337.525; -790.000; -721.000
395.263;  -78.125;-1038.000;-1040.000
395.392;   -6.175;  -25.000; -107.000
395.520; -139.800; -818.000; -679.000
395.648;  -80.725; -865.000; -915.000
395.777;   -2.125; -366.000; -405.000
395.905;  -55.500; -449.000; -564.000
396.033;   17.250;  217.000;  172.000
396.162;  645.325; -399.000; -453.000
396.290;  583.900;  -17.000;   -2.000
396.418;  125.200; -555.000; -514.000
396.546;  -57.125; -571.000; -466.000
396.674;  -89.200; -850.000; -878.000
396.803;   17.600;  -72.000;  -23.000
396.931;   88.475; -179.000; -199.000
397.059;   42.075;-1026.000; -989.000
397.187; -110.375;-1026.000; -975.000
397.315; -112.175; -884.000; -649.000
397.443;  -97.475; -592.000; -443.000
397.572;  -80.375; -578.000; -424.000
397.700;  -24.575; -607.000; -614.000
397.828;   16.425;  120.000;  -90.000
397.956;  -43.475; -508.000; -478.000
398.084;  -68.575; -767.000; -626.000
398.212;   32.125;  137.000;  124.000
398.340;   12.850;  -56.000;  159.000
398.468;   40.425; -390.000; -169.000
398.596; -120.325; -993.000; -953.000
398.724; -113.475; -762.000; -767.000
398.852; -143.600;-1024.000; -976.000
398.980;  -68.275; -560.000; -560.000
399.108;  -41.275; -982.000; -735.000
399.236;   39.475;   13.000;    8.000
399.363;   13.475;  222.000;  196.000
399.491;  -67.825; -404.000; -398.000
399.619; -116.225; -829.000; -800.000
399.747;  -92.975; -859.000; -771.000
399.875;   83.250;  220.000;  234.000
400.003;  -53.350; -359.000; -284.000
400.130;  -87.625; -421.000; -341.000
400.258;  -41.325;  -83.000;   38.000
400.386;  -62.025; -352.000; -168.000
400.514;  -41.525; -526.000; -587.000
400.641;  -73.675; -928.000; -802.000
400.769; -138.725; -979.000; -888.000
400.897; -114.125; -838.000; -793.000
401.025;  -15.125; -166.000; -152.000
401.152;   -5.450;  220.000;   38.000
401.280;  -82.675; -430.000; -429.000
401.408; -106.275; -712.000; -576.000
401.535; -102.800; -735.000; -758.000
401.663; -190.700;-1134.000;-1054.000
401.790;  -87.375; -514.000; -525.000
401.918;   44.675;  436.000;  405.000
402.046;  -13.650;  134.000;  122.000
402.173;  -29.325;  -18.000;    7.000
402.301;  -78.575; -519.000; -397.000
402.428;   22.225;  528.000;  383.000
402.556; -134.325;-1188.000; -913.000
402.683;  -32.000;  -20.000;   -1.000
402.811;  -23.400;  -37.000; -206.000
402.938;  -12.575;   20.000;   27.000
403.066;  209.200; -574.000; -558.000
403.193;  358.450;  299.000;  239.000
403.321;  270.725; -396.000; -574.000
403.448;  341.825;   83.000;   27.000
403.575;  142.375;  -90.000;  -46.000
403.703;  -81.225; -732.000; -557.000
403.830;  -68.875; -531.000; -496.000
403.957; -125.750;-1117.000;-1023.000
404.085;   12.025;  -61.000; -172.000
404.212;  102.725;  -50.000;   63.000
404.339;  267.825; -566.000; -306.000
404.467; 5776.750; -612.000; -524.000
404.594; 4048.075; -287.000; -227.000
404.721; 1001.150; -869.000; -764.000
404.848;   91.775; -113.000; -202.000
404.976;  -95.325; -856.000; -783.000
405.103;  -16.675;  -14.000;  -82.000
405.230;    3.550;  190.000;  226.000
405.357;   20.425;  117.000;   44.000
405.484;  281.150;  -49.000;    5.000
405.612;   56.950; -548.000; -563.000
405.739;  -57.825; -488.000; -243.000
405.866;   75.475;  669.000;  385.000
405.993;  -46.925; -398.000; -102.000
406.120; -127.625; -801.000; -887.000
406.247;  -43.450; -323.000; -342.000
406.374;  450.000;  540.000;  629.000
406.501;  128.975; -632.000; -702.000
406.628;  -79.275; -621.000; -589.000
406.755;  -87.250; -803.000; -620.000
406.882;  -31.725; -228.000; -277.000
407.009;  -99.675; -719.000; -628.000
407.136;   47.000; -480.000; -401.000
407.263;  164.100; -939.000; -829.000
407.390;  -66.475; -692.000; -614.000
407.517; -155.650;-1139.000;-1187.000
407.644;  -60.100; -332.000; -256.000
407.771;  -69.175; -249.000; -287.000
407.898;   18.450;  168.000;  328.000
408.025;  -57.500; -421.000; -313.000
408.151;  -19.975;   82.000;  153.000
408.278;  -59.700; -267.000; -216.000
408.405; -109.775; -931.000; -899.000
408.532;  -65.475; -549.000; -542.000
408.659; -113.450; -677.000; -648.000
408.785; -194.500;-1298.000;-1170.000
408.912;  -66.575; -412.000; -296.000
409.039; -110.600; -610.000; -686.000
409.166; -101.550; -591.000; -555.000
409.292; -104.075; -571.000; -534.000
409.419; -121.950; -665.000; -649.000
409.546;  -85.775; -431.000; -192.000
409.672; -108.125; -713.000; -545.000
409.799;  -31.875;  -36.000;   34.000
409.926;  -46.975; -180.000; -179.000
410.052; -164.450;-1127.000;-1091.000
410.179;  -59.475; -368.000; -392.000
410.305;  -80.225; -375.000; -493.000
410.432;  -50.075; -220.000; -333.000
410.558;  -96.675; -305.000; -380.000
410.685; -100.875; -688.000; -431.000
410.812;  -91.875; -409.000; -588.000
410.938; -139.175; -964.000; -808.000
411.065;  -98.675; -671.000; -645.000
411.191;  -21.600; -189.000; -174.000
411.317; -109.825; -823.000; -742.000
411.444;  -70.625; -317.000; -246.000
411.570;  -71.100; -339.000; -294.000
411.697; -127.675; -758.000; -752.000
411.823; -152.075; -989.000; -999.000
411.949;  -35.025;  -56.000;   17.000
412.076; -112.825; -539.000; -519.000
412.202; -109.725; -758.000; -757.000
412.329; -118.200; -798.000; -752.000
412.455; -103.875; -821.000; -657.000
412.581;  -10.650;  -15.000;  172.000
412.707;  -66.375; -540.000; -457.000
412.834;   16.700;  156.000;  219.000
412.960;  -88.075; -785.000; -784.000
413.086;  -86.625; -743.000; -701.000
413.212;  139.100;  604.000;  578.000
413.339;  -55.475; -685.000; -701.000
413.465;  -14.075; -364.000; -310.000
413.591;  -80.975; -757.000; -474.000
413.717;  -67.225; -358.000; -366.000
413.843; -128.325; -839.000; -861.000
413.969;  -61.400;  -47.000; -292.000
414.096;  -87.925; -679.000; -679.000
414.222;   -7.775;  -33.000;   85.000
414.348;  -32.175; -652.000; -385.000
414.474;  105.575;   38.000;  -52.000
414.600;  -14.275; -126.000; -144.000
414.726;  -31.400;  -96.000;  -55.000
414.852;  -57.525; -365.000; -342.000
414.978;   29.575;  104.000;  -18.000
415.104;   48.700;   38.000;   80.000
415.230;   21.875; -329.000; -330.000
415.356;   42.700; -409.000; -514.000
415.482;  186.900;   13.000;  -35.000
415.608;  286.250; -247.000; -323.000
415.734;  971.900;   67.000;   38.000
415.860;19932.625; -875.000; -767.000
415.986;15684.675; -685.000; -607.000
416.111; 1406.475; -798.000; -652.000
416.237;  260.875; -424.000; -571.000
416.363; 1093.300; -765.000; -733.000
416.489; 4302.775; -324.000; -251.000
416.615;  519.725; -707.000; -742.000
416.741;  -15.500; -677.000; -784.000
416.866;  -84.575; -673.000; -736.000
416.992; -122.125; -801.000; -818.000
417.118;  -15.700;  -41.000;  -80.000
417.244;  -75.675; -798.000; -531.000
417.369;  -72.725; -801.000; -612.000
417.495;   -4.950; -325.000; -254.000
417.621;  -71.075;-1015.000; -803.000
417.746;    4.125; -579.000; -572.000
417.872;   46.775; -254.000; -144.000
417.998;   52.775; -515.000; -530.000
418.123; 1003.550;-1073.000; -845.000
418.249; 5567.825; -512.000; -601.000
418.374;  873.500; -916.000; -824.000
418.500;  128.425; -383.000; -482.000
418.626;  123.150;   70.000;  -59.000
418.751;  134.200; -549.000; -448.000
418.877;  222.200; -637.000; -643.000
419.002; 1713.125; -688.000; -560.000
419.128;12764.900; -930.000; -721.000
419.253; 3440.325; -967.000; -837.000
419.379;  442.125; -391.000; -338.000
419.504;  404.175;  325.000;  415.000
419.629;  535.575; -393.000; -212.000
419.755; 3389.675; -317.000; -254.000
419.880;21488.325;  -98.000;   67.000
420.006;11643.225; -280.000; -221.000
420.131;30607.075; -662.000; -775.000
420.256; 4799.975; -315.000; -316.000
420.382;  652.725; -665.000; -687.000
420.507;   84.925; -649.000; -778.000
420.632;  144.000; -337.000; -339.000
420.758;  251.225; -251.000; -425.000
420.883;  -65.150; -876.000; -672.000
421.008;  -99.875; -775.000; -619.000
421.133;  -91.050; -509.000; -467.000
421.259;  -41.750; -325.000; -259.000
421.384; -111.300; -834.000; -693.000
421.509;  -53.575;-1052.000; -862.000
421.634; 1156.300; -936.000; -820.000
421.759;  555.850; -359.000; -327.000
421.885;  -36.975; -717.000; -656.000
422.010;  -71.700; -673.000; -542.000
422.135; -144.075; -695.000; -727.000
422.260;   30.450;  340.000;  280.000
422.385;  -41.025;   12.000;  -98.000
422.510;    5.625;  151.000;  -26.000
422.635;    5.525;  -87.000;  -43.000
422.760;  106.475; -766.000; -791.000
422.885;   81.225;  -57.000;  -80.000
423.010;  -40.375; -112.000; -169.000
423.135;  -90.375; -481.000; -561.000
423.260;  -27.025; -150.000; -245.000
423.385;   70.250;  476.000;  222.000
423.510;   37.175;   71.000;  -22.000
423.635;   79.850;  133.000;   45.000
423.760;   49.250;  383.000;  328.000
423.885;   49.650;  336.000;  391.000
424.010;   14.475;  -68.000;  -13.000
424.135;  -27.800;    5.000;  -33.000
424.259;  -86.600; -654.000; -457.000
424.384;  -71.825; -279.000; -272.000
424.509;  -31.475; -260.000; -186.000
424.634;  -92.825; -761.000; -623.000
424.759;  -28.525; -688.000; -544.000
424.883;   -6.500; -506.000; -527.000
425.008;  168.300; -502.000; -410.000
425.133; 2015.750; -679.000; -653.000
425.258; 1035.525; -517.000; -381.000
425.382; 1039.800; -867.000; -774.000
425.507; 2774.075; -487.000; -543.000
425.632;  473.325; -802.000; -663.000
425.756;  450.425; -256.000; -146.000
425.881; 6247.425; -831.000; -857.000
426.006;18242.275; -604.000; -355.000
426.130; 3094.350; -696.000; -508.000
426.255;  403.625; -611.000; -491.000
426.379;  174.350; -189.000; -577.000
426.504;  379.025;  660.000;  544.000
426.629; 3987.050; -519.000; -466.000
426.753; 3006.900;   64.000;  -46.000
426.878;  353.625; -252.000; -288.000
427.002;  152.925; -651.000; -668.000
427.127; 1530.575;  -35.000; -158.000
427.251;11518.550;  372.000;  401.000
427.375; 3624.450; -191.000; -173.000
427.500; 2338.925; -616.000; -610.000
427.624;  894.950; -234.000; -400.000
427.749;   98.800; -216.000; -225.000
427.873;  -38.050; -499.000; -412.000
427.997;  -54.550; -222.000; -230.000
428.122;   73.625;  795.000;  703.000
428.246;   65.300;  433.000;  434.000
428.371; -109.525; -869.000; -773.000
428.495;  -97.800; -624.000; -646.000
428.619;  -25.175; -186.000; -117.000
428.743;   22.625;   65.000;  132.000
428.868;   21.750; -732.000; -643.000
428.992; 1436.425; -219.000; -326.000
429.116;  614.450; -329.000; -357.000
429.240;  286.300;  419.000;  426.000
429.365;  -15.850; -454.000; -574.000
429.489;  -45.075; -638.000; -647.000
429.613;   27.875; -236.000; -177.000
429.737;   33.500; -563.000; -432.000
429.861;  273.850; -247.000; -133.000
429.985; 5456.900; -425.000; -305.000
430.109; 6538.100; -770.000; -908.000
430.234;  798.475;   76.000;  -50.000
430.358;   90.825; -250.000; -160.000
430.482;  -46.275; -672.000; -564.000
430.606;  -57.600; -655.000; -375.000
430.730;    0.175; -437.000; -388.000
430.854;  158.700; -909.000; -835.000
430.978;  -70.475; -795.000; -764.000
431.102;  -84.250; -499.000; -422.000
431.226; -122.550; -874.000; -815.000
431.350;   31.900;  345.000;  422.000
431.474;  -75.575; -661.000; -373.000
431.597; -129.725;-1060.000; -848.000
431.721;  -96.525; -276.000; -267.000
431.845; -139.850; -704.000; -472.000
431.969;  -70.875; -304.000; -349.000
432.093;  -97.300; -395.000; -317.000
432.217;  -24.300;   32.000;   82.000
432.341;  -85.750; -523.000; -518.000
432.464;    9.275;   96.000;   40.000
432.588;  207.800; -401.000; -329.000
432.712;  117.200;  -52.000;  -52.000
432.836;   48.525;  213.000;  263.000
432.959;   -2.100; -372.000; -311.000
433.083;   95.600;   11.000;    2.000
433.207;  378.350;  285.000;  930.000
433.330; 4907.900; -391.000; -200.000
433.454; 6592.625; -654.000; -638.000
433.578; 3766.950;  583.000;  278.000
433.701;  750.000; -623.000; -675.000
433.825;  170.000; -292.000; -299.000
433.949;  177.375;   28.000;  -72.000
434.072;   70.500; -410.000; -323.000
434.196;   -1.000; -309.000; -117.000
434.319; 3579.050;25482.000;25124.000
434.443;  703.450; -656.000; -603.000
434.566; 2743.200;  281.000;   62.000
434.690;  511.925; -637.000; -383.000
434.813;   61.800; -251.000; -173.000
434.937;  -71.625; -569.000; -696.000
435.060;  -52.050; -423.000; -332.000
435.184;  302.350; -492.000; -217.000
435.307;  183.875;  159.000;  102.000
435.431;  -20.475;  -40.000;   24.000
435.554;  -77.475; -399.000; -240.000
435.677;  -89.625; -350.000; -258.000
435.801;  -43.275;  -25.000;   49.000
435.924;  -26.600;    1.000;  -67.000
436.048; -118.425;-1019.000; -732.000
436.171;  -70.700; -240.000;  -66.000
436.294;  -23.025; -248.000; -229.000
436.417;   85.875; -963.000; -849.000
436.541;  -69.250; -814.000; -840.000
436.664;  -56.550; -242.000; -316.000
436.787;  -23.825;   13.000;  113.000
436.910; -115.175; -792.000; -422.000
437.034;    9.800;  142.000;  143.000
437.157;   40.425;  -11.000;    0.000
437.280;  -36.475; -392.000; -292.000
437.403;  -80.150; -982.000; -869.000
437.526;  585.375; -903.000; -865.000
437.649; 2293.700; -505.000; -332.000
437.772;  392.550; -692.000; -540.000
437.896;  102.775;  700.000;  544.000
438.019;  -94.375; -758.000; -503.000
438.142;  -86.450; -596.000; -506.000
438.265;   -9.650; -639.000; -670.000
438.388;  604.775; -520.000; -410.000
438.511;  119.825; -597.000; -394.000
438.634;  -41.300; -247.000; -125.000
438.757; -121.075; -693.000; -619.000
438.880;  -21.150;  -34.000;  -57.000
439.003;  -74.350; -417.000; -437.000
439.126;  -76.325; -287.000; -167.000
439.248;  -54.525;  -98.000; -139.000
439.371;  -50.500;    9.000;  -53.000
439.494;   24.125;  510.000;  439.000
439.617;  -67.750;   65.000;  -88.000
439.740; -168.825; -968.000; -816.000
439.863; -154.725; -755.000; -595.000
439.986; -112.175; -476.000; -431.000
440.108;  -48.875; -161.000; -112.000
440.231; -154.625; -950.000; -836.000
440.354;  -27.350;  -64.000; -150.000
440.477;   44.225; -566.000; -542.000
440.599;    8.225; -200.000; -225.000
440.722; -111.600; -709.000; -586.000
440.845;   47.725;  751.000;  928.000
440.968;  -97.700; -415.000; -311.000
441.090;  -70.525; -199.000;  -33.000
441.213; -163.450;-1021.000; -825.000
441.336;  -57.625; -159.000;   -5.000
441.458;  -75.075; -549.000; -396.000
441.581;  -81.800; -628.000; -629.000
441.703;  -71.175; -152.000;   13.000
441.826; -110.575; -557.000; -400.000
441.948;  -38.400;   56.000;   51.000
442.071;   33.775;  555.000;  424.000
442.193; -110.125; -531.000; -485.000
442.316;   12.200;  152.000;   97.000
442.438;   37.850; -233.000;  -10.000
442.561;   60.725;  272.000;  262.000
442.683;  523.500; -809.000; -522.000
442.806; 1180.775;   -8.000;   74.000
442.928;   48.425; -859.000; -604.000
443.051;  -67.750; -577.000; -373.000
443.173;  -95.675; -341.000; -339.000
443.295;  -74.275; -263.000; -371.000
443.418;  -68.125; -321.000;  -29.000
443.540;    3.125; -106.000;   -4.000
443.662; -111.150; -563.000; -465.000
443.785;  -14.050;  335.000;  199.000
443.907; -104.050; -362.000; -208.000
444.029; -131.150; -767.000; -494.000
444.152; -131.275; -644.000; -554.000
444.274;  -42.775;  -18.000;  -24.000
444.396; -106.625; -461.000; -221.000
444.518; -125.125; -691.000; -454.000
444.640;  -80.875; -268.000; -111.000
444.763;  -25.175;  388.000;  249.000
444.885; -110.925; -432.000; -392.000
445.007;  -44.175;   35.000;   86.000
445.129; -119.100; -610.000; -515.000
445.251;  -93.375; -372.000; -439.000
445.373; -129.425; -537.000; -386.000
445.495;    3.750;  242.000;  350.000
445.617;   34.325;  853.000;  753.000
445.739;  -70.675; -215.000;  -97.000
445.861;  -26.025; -245.000; -112.000
445.984;  -27.425; -267.000; -101.000
446.105;  181.350; -418.000; -251.000
446.227;  612.625; -176.000;  -19.000
446.349;   17.750; -358.000; -249.000
446.471;  -99.700; -615.000; -448.000
446.593;  -58.750; -316.000;   19.000
446.715;   -9.075;  -67.000;   41.000
446.837;   62.350;  697.000;  832.000
446.959;  -92.450; -457.000; -478.000
447.081; -130.400; -628.000; -518.000
447.203;   39.825;  862.000;  834.000
447.325;  -90.575; -270.000;   42.000
447.446;   -3.625;  286.000;  530.000
447.568; -151.875; -921.000; -803.000
447.690;  -75.475; -236.000; -245.000
447.812; -148.200; -798.000; -519.000
447.933;  -36.075;  155.000;  127.000
448.055;  -61.425; -306.000; -261.000
448.177;  135.225;   31.000;   79.000
448.299;   96.025; -935.000; -727.000
448.420;   25.825;  -25.000;  159.000
448.542;  -52.000;   -3.000;   33.000
448.664;  -23.525;  109.000;  322.000
448.785;  -35.200;  265.000;   83.000
448.907;  -80.475; -614.000; -353.000
449.028;  -21.700; -771.000; -471.000
449.150;   56.675;  492.000;  589.000
449.272; -167.650;-1044.000; -913.000
449.393;   21.150;  612.000;  694.000
449.515; -136.775; -634.000; -581.000
449.636;  -59.025; -264.000; -155.000
449.758;   66.150;  763.000;  622.000
449.879;  -88.150; -498.000; -396.000
450.001;  -72.200; -149.000;  -49.000
450.122;  -42.100;  -95.000;  162.000
450.244;  -17.225;   37.000;  364.000
450.365;  -82.125; -495.000; -301.000
450.486;  -29.800;   80.000;  268.000
450.608;   14.625;  393.000;  326.000
450.729;   55.225;  578.000;  645.000
450.850;    7.750; -574.000; -466.000
450.972;  728.125; -552.000; -389.000
451.093; 4890.825;  190.000;  588.000
451.214; 2364.750; -516.000; -337.000
451.336;  429.075;  773.000;  579.000
451.457;   66.750;  264.000;  393.000
451.578;  -33.750; -118.000;  -74.000
451.699; -109.200; -546.000; -540.000
451.821;  -56.250; -284.000;  -50.000
451.942;   -9.350;  278.000;  285.000
452.063;   22.625;  228.000;  419.000
452.184;  537.675;  -54.000;  -49.000
452.305; 1123.250;  103.000;  170.000
452.427;  168.775; -549.000; -301.000
452.548;  -11.050;   23.000;   79.000
452.669;  -52.200; -257.000;  -89.000
452.790;  -42.225;    3.000;  -18.000
452.911;   -0.500;  195.000;  259.000
453.032;  -67.650; -289.000;  -60.000
453.153;  -54.425;  -29.000;   81.000
453.274;   73.175;  737.000;  868.000
453.395;  -54.475;  -51.000;  175.000
453.516;  126.525; 1317.000; 1388.000
453.637;  -66.175; -205.000; -150.000
453.758;  -58.575;   15.000;   69.000
453.879; -115.675; -462.000; -250.000
454.000;   74.275; 1086.000;  948.000
454.121; -107.350; -554.000; -326.000
454.242; -121.575; -599.000; -383.000
454.362;  -50.700;  -99.000;  114.000
454.483;  -35.875; -309.000; -229.000
454.604;   57.025;  512.000;  580.000
454.725; -107.100; -627.000; -555.000
454.846; -124.900; -474.000; -406.000
454.967;   -8.275;  230.000;  539.000
455.087;  -46.575;  179.000;  153.000
455.208;   19.350;  554.000;  856.000
455.329;  -51.125;  -22.000;   82.000
455.450;   28.425;  473.000;  633.000
455.570;  -72.025; -234.000; -211.000
455.691;  -46.925;  201.000;  407.000
455.812; -103.975; -270.000;  -92.000
455.932;  -53.400;  107.000;  -97.000
456.053;  -71.500;   36.000;   24.000
456.173; -126.425; -433.000; -355.000
456.294; -124.525; -476.000; -303.000
456.415;  -70.125;  -73.000;   70.000
456.535;  -29.875;  297.000;  273.000
456.656;  -39.475;  132.000;  240.000
456.776;  -80.400;    3.000;  298.000
456.897;   -7.975;  308.000;  513.000
457.017;  -69.500; -153.000;   -3.000
457.138; -112.900; -402.000; -249.000
457.258;  -23.525;  263.000;  224.000
457.379;  -17.225;  509.000;  521.000
457.499;  -24.800;  443.000;  432.000
457.620; -125.925; -407.000; -231.000
457.740;  -91.900; -132.000;  -11.000
457.860;  -61.325;   87.000;   44.000
457.981;  -54.225;  132.000;  124.000
458.101;  -82.725;  -89.000;   40.000
458.221;  -12.850;  336.000;  402.000
458.342;  -55.175;   -4.000;  -37.000
458.462;   24.975;  617.000;  352.000
458.582;  -27.650; -302.000; -294.000
458.703;   19.000;  303.000;  154.000
458.823;  -27.625;   22.000;  163.000
458.943;   28.000;  341.000;  467.000
459.063;  -19.450; 1124.000;  192.000
459.183;  -16.775;  328.000;  313.000
459.304;    8.775;  315.000;  517.000
459.424;  -45.700; -246.000;  -89.000
459.544;  313.175;  388.000;  764.000
459.664;  830.550;  499.000;  506.000
459.784;  331.975; 1004.000; 1175.000
459.904;   65.175;  867.000;  744.000
460.024;   54.200;  867.000;  684.000
460.144;   26.775;  449.000;  554.000
460.264;   -5.275;  515.000;  327.000
460.385;  -80.550; -145.000; -119.000
460.505;   35.400;  905.000;  858.000
460.625;  -84.325;  -17.000;  -68.000
460.745;  -31.300;  396.000;  541.000
460.864;  -53.800;  153.000;  469.000
460.984;   12.375;  499.000;  573.000
461.104;  141.425; 1656.000; 1775.000
461.224;   19.375;  657.000;  650.000
461.344;  -18.450;  431.000;  360.000
461.464;  -35.225;  258.000;  513.000
461.584;  -13.325;  283.000;  466.000
461.704;  -52.525;   58.000;  108.000
461.824;  -44.375;  238.000;  259.000
461.943;  -42.250;  191.000;  130.000
462.063;  -75.775;    2.000;  324.000
462.183;   28.175;  639.000;  717.000
462.303;   92.200; 1678.000; 1230.000
462.422;   31.700;  781.000;  840.000
462.542;  -20.725;  271.000;  391.000
462.662;   39.175;  353.000;  380.000
462.782;  236.575;  833.000;  572.000
462.901;  502.525;  545.000;  717.000
463.021;  303.325; 1702.000; 1638.000
463.141;   -6.850;  337.000;  770.000
463.260;   -1.025;  614.000;  474.000
463.380;    7.125;  902.000;  884.000
463.499;  -30.275;  342.000;  332.000
463.619;  -36.525;  581.000;  559.000
463.738;  110.800; 1644.000;  903.000
463.858;   19.350;  657.000;  811.000
463.978;  -27.750;  542.000;  396.000
464.097;   45.525;  921.000; 1114.000
464.217;  125.625; 1196.000; 1143.000
464.336;  110.250; 1068.000; 1130.000
464.455;  -24.825;  328.000;  659.000
464.575;   38.450;  597.000;  602.000
464.694;  176.725; 1204.000; 1179.000
464.814;  130.575; 1190.000; 1138.000
464.933;   77.425; 1095.000; 1027.000
465.052;   85.600; 1412.000; 1054.000
465.172;   87.175;  922.000;  799.000
465.291;  129.500; 1376.000; 1320.000
465.410;   20.200;  462.000;  735.000
465.530;   85.825; 1355.000; 1310.000
465.649;   68.775; 1209.000; 1273.000
465.768;  135.250; 1673.000; 1508.000
465.888;   53.475;  941.000; 1174.000
466.007;  114.925; 1335.000; 1440.000
466.126;   -9.300;  721.000;  641.000
466.245;   34.725; 1176.000; 1187.000
466.364;   16.350;  950.000; 1060.000
466.484;   59.800; 1024.000; 1213.000
466.603;   48.850; 1101.000; 1222.000
466.722;  126.900; 1490.000; 1769.000
466.841;   88.600; 1151.000; 1401.000
466.960;   42.225; 1069.000;  972.000
467.079;  134.275; 1971.000; 1786.000
467.198;   54.100; 1238.000; 1181.000
467.317;  100.850; 1768.000; 1162.000
467.436;   61.675; 1709.000; 1261.000
467.555;  125.100; 1796.000; 1746.000
467.674;   66.400; 1227.000; 1329.000
467.793;   43.025; 1376.000; 1374.000
467.912;   81.850; 1658.000; 1539.000
468.031;  138.925; 2038.000; 1930.000
468.150;  138.825; 1842.000; 1837.000
468.269;  196.850; 2313.000; 2090.000
468.388;  180.325; 2168.000; 2339.000
468.507;  264.275; 2884.000; 2903.000
468.626;  253.025; 2555.000; 2541.000
468.744;  151.525; 2018.000; 2174.000
468.863;  207.175; 2312.000; 2523.000
468.982;   79.250; 1503.000; 1555.000
469.101;  229.125; 2788.000; 2692.000
469.220;  169.050; 2333.000; 2176.000
469.338;  257.525; 2935.000; 3051.000
469.457;  215.925; 2719.000; 2545.000
469.576;  350.500; 3953.000; 3784.000
469.695;  236.650; 2877.000; 3066.000
469.813;  426.475; 4148.000; 4192.000
469.932;  416.250; 4255.000; 4485.000
470.051;  424.625; 4075.000; 4161.000
470.169;  839.225; 4470.000; 4338.000
470.288; 1480.375; 4700.000; 4809.000
470.406;  925.275; 5059.000; 5194.000
470.525;  627.425; 6101.000; 5787.000
470.644;  644.350; 6847.000; 6794.000
470.762;  800.375; 8397.000; 7873.000
470.881;  909.375; 8651.000; 8464.000
470.999; 1018.775; 9685.000; 9151.000
471.118; 1108.075;11174.000;10711.000

