
Integration time [ms]: 100.000
Averaging Nr. [scans]: 40
Smoothing Nr. [pixels]: 0
Data measured with spectrometer [name]: 2101012U2
Wave   ;Sample   ;Dark     ;Reference
[nm]   ;[counts] ;[counts] ;[counts] 

197.733;   67.825;  516.000;  404.000
197.879;  -92.075; -610.000; -634.000
198.025;  -48.725; -475.000; -420.000
198.171;  -86.825; -602.000; -612.000
198.317;  -31.000; -401.000; -316.000
198.463;  -57.825; -655.000; -404.000
198.609;   21.750;  181.000; -137.000
198.755;  -74.875; -644.000; -410.000
198.901;  -60.075; -505.000; -424.000
199.047;  -66.325; -615.000; -488.000
199.193;  -32.650; -230.000; -468.000
199.339;  -54.250; -222.000; -369.000
199.485;   24.300;  330.000;  271.000
199.631;   17.400;  227.000;  310.000
199.777;  -49.775; -466.000; -398.000
199.923;  -63.650; -610.000; -424.000
200.069;   -1.975; -141.000;  -58.000
200.215;   50.150;  128.000;  453.000
200.361;   46.775;  243.000;  477.000
200.507;  -60.975; -600.000; -373.000
200.653;  -26.525; -371.000; -194.000
200.798;  -43.275; -215.000; -125.000
200.944;   -3.075; -146.000;  -41.000
201.090;   29.275;   61.000;  222.000
201.236;    1.425; -116.000; -158.000
201.382;  119.575;  874.000;  903.000
201.528;    3.175;  -58.000;  -48.000
201.674;  -54.525; -386.000; -293.000
201.819;  -64.875; -540.000; -439.000
201.965;  -90.200; -699.000; -447.000
202.111;  -22.050; -273.000; -226.000
202.257;  -25.750; -250.000; -238.000
202.402;    6.475;   13.000;  -36.000
202.548;  -28.200; -169.000; -116.000
202.694;   82.425;  410.000; -183.000
202.840;  -73.875; -603.000; -531.000
202.985;  -76.225; -681.000; -639.000
203.131; -113.975; -832.000; -666.000
203.277;  -26.475; -199.000; -262.000
203.423;  -59.600; -434.000; -520.000
203.568;  -50.625; -462.000; -237.000
203.714;  -69.025; -535.000; -542.000
203.860;  -90.125; -682.000; -641.000
204.005;   23.025;  112.000;  167.000
204.151;   85.400;  561.000;  556.000
204.296;  -54.725; -354.000; -221.000
204.442;  -67.450; -600.000; -547.000
204.588;  -73.025; -592.000; -579.000
204.733;   16.400;  178.000;  168.000
204.879; -132.125;-1018.000; -822.000
205.025;    9.050;  -99.000;  126.000
205.170;  -16.900;  -17.000;   94.000
205.316;   81.425;  438.000;  661.000
205.461;  -94.850; -698.000; -554.000
205.607;   91.575;  609.000;  665.000
205.752;  -73.175; -626.000; -551.000
205.898;  -61.175; -501.000; -391.000
206.043;  -72.125; -578.000; -506.000
206.189;  -38.075; -243.000; -285.000
206.334;   73.975;  554.000;  606.000
206.480;   81.200;  409.000;  239.000
206.625;  -81.400; -529.000; -552.000
206.771;  -41.700; -451.000; -373.000
206.916;  -43.675; -210.000; -537.000
207.062;  -56.475; -545.000; -591.000
207.207;  -70.625; -546.000; -443.000
207.353;   58.075;  185.000;  460.000
207.498;   21.975;  196.000;   85.000
207.643;  -64.725; -501.000; -370.000
207.789; -139.500;-1069.000; -910.000
207.934; -101.825; -665.000; -713.000
208.080;  -28.300; -154.000;   66.000
208.225;  -11.425;  -22.000;  -57.000
208.370;  -95.425; -727.000; -619.000
208.516;  -81.050; -741.000; -487.000
208.661;  -40.075; -127.000;  -69.000
208.806;  -12.125; -165.000; -171.000
208.952; -136.325;-1044.000; -731.000
209.097;   74.525;  378.000;  349.000
209.242;  -58.225; -307.000; -382.000
209.387;   61.200;  392.000;  350.000
209.533;  -50.625; -321.000; -350.000
209.678;   89.475;  472.000;  543.000
209.823;  -70.150; -408.000; -310.000
209.969; -101.275; -860.000; -757.000
210.114; -123.250; -907.000; -719.000
210.259; -114.475; -939.000; -889.000
210.404;   -7.350; -171.000;  103.000
210.549;   11.750;  108.000;    3.000
210.695;  -22.825;   -3.000;  -95.000
210.840;   34.900;   94.000;   67.000
210.985;  -67.400; -484.000; -303.000
211.130;   61.750;  268.000;  406.000
211.275;   13.400;  207.000;  199.000
211.420;  -63.075; -300.000; -289.000
211.566;  -74.275; -536.000; -489.000
211.711;   25.650;  218.000;  157.000
211.856;  -65.325; -545.000; -519.000
212.001;   15.650;  151.000;   44.000
212.146;   15.800;  153.000;   49.000
212.291;  -24.050; -210.000; -186.000
212.436;  -37.675; -280.000;   -6.000
212.581;  -92.125; -685.000; -653.000
212.726;  -80.875; -487.000; -538.000
212.871;  -39.900; -552.000; -217.000
213.016; -155.225;-1172.000;-1029.000
213.161;   61.050;  406.000;  291.000
213.306;  -74.450; -435.000; -577.000
213.451;  -89.025; -778.000; -689.000
213.596;  -51.000; -455.000; -347.000
213.741;  -55.200; -448.000; -538.000
213.886;  -78.075; -498.000; -517.000
214.031;  -32.350; -294.000; -124.000
214.176;  -63.525; -408.000; -341.000
214.321;  -25.525; -296.000; -157.000
214.466;  -24.875; -163.000;  -43.000
214.611;   11.075;  -61.000;  -10.000
214.756; -126.450; -948.000; -858.000
214.901;  -25.600; -388.000; -226.000
215.046; -136.425; -797.000; -825.000
215.191;   14.425;  128.000;   35.000
215.336;  -13.375; -157.000;  -19.000
215.480;  -69.025; -684.000; -505.000
215.625;  -21.350; -175.000;  -19.000
215.770;  -90.725; -757.000; -662.000
215.915;  -12.550;   -5.000;  -97.000
216.060;  -12.075; -113.000;  -21.000
216.205; -104.725; -731.000; -779.000
216.349;  -68.125; -470.000; -533.000
216.494; -136.225; -939.000; -867.000
216.639; -132.950; -823.000; -888.000
216.784;  -97.725; -577.000; -525.000
216.929;   58.400;  392.000;  281.000
217.073;  -11.475; -244.000;  -31.000
217.218;    5.000;   78.000;  -47.000
217.363;  -89.300; -656.000; -618.000
217.507;  -85.100; -623.000; -588.000
217.652; -128.850; -845.000; -874.000
217.797;  -93.650; -708.000; -659.000
217.942; -111.100; -856.000; -720.000
218.086;   68.775;  608.000;  539.000
218.231;  -13.925; -174.000;  -26.000
218.376;  -28.625; -337.000; -229.000
218.520;   -6.100;  -41.000;   96.000
218.665;  -43.350; -338.000; -204.000
218.810;  -61.400; -275.000; -233.000
218.954;    5.300;  201.000;   35.000
219.099; -119.500; -713.000; -963.000
219.243;  -74.525; -589.000; -554.000
219.388;  -34.775; -264.000; -136.000
219.532;   -7.925; -116.000; -116.000
219.677;  -84.675; -564.000; -521.000
219.822;   -4.675;   33.000;   89.000
219.966;   -7.475;   17.000;  -99.000
220.111;  -39.875; -328.000;  -40.000
220.255; -100.200; -797.000; -750.000
220.400;  -24.075; -180.000; -146.000
220.544;  -76.475; -516.000; -450.000
220.689;  -50.425; -422.000; -451.000
220.833;  -25.075; -123.000;  -58.000
220.978;  -44.900; -393.000; -563.000
221.122;   16.625;  319.000;  307.000
221.267; -121.525; -906.000; -837.000
221.411;  -66.450; -478.000; -394.000
221.555;   -5.475; -104.000;  -23.000
221.700;  -61.600; -329.000; -222.000
221.844;   40.025;  255.000;  272.000
221.989;  -52.900; -328.000; -311.000
222.133;  -30.200; -289.000; -307.000
222.277;  -11.175;    5.000;   78.000
222.422;   29.025;  227.000;  113.000
222.566;  -26.800; -381.000; -214.000
222.711;  -50.525; -414.000; -479.000
222.855;  -88.375; -643.000; -586.000
222.999;  -86.000; -642.000; -717.000
223.144;  -27.275; -195.000; -194.000
223.288;   48.750;  423.000;  251.000
223.432;   22.050;  184.000;  230.000
223.576;   12.800;  152.000;  -21.000
223.721;   28.725;  364.000;  273.000
223.865;  -75.575; -472.000; -475.000
224.009;  261.625; 1673.000; 1631.000
224.153;  -82.975; -660.000; -671.000
224.298;  -68.825; -531.000; -489.000
224.442;  -12.000;  -74.000;  -33.000
224.586;  -16.925; -169.000; -106.000
224.730;  -91.050; -858.000; -670.000
224.875; -124.250; -739.000; -688.000
225.019;   22.525;  102.000;  188.000
225.163;   50.300;  208.000;  341.000
225.307;   14.700;   97.000;  -91.000
225.451;   50.225;  360.000;  481.000
225.595;   23.675;  264.000;  176.000
225.739;  -10.325; -170.000;  -94.000
225.884;    7.800;   86.000;    5.000
226.028; -100.975; -760.000; -626.000
226.172;  -47.600; -260.000; -273.000
226.316; -134.675; -941.000; -902.000
226.460;  -61.975; -645.000; -493.000
226.604;  -56.175; -406.000; -400.000
226.748; -117.725; -836.000; -733.000
226.892;  -31.550; -227.000; -181.000
227.036;  -47.225; -537.000; -447.000
227.180;  -57.450; -551.000; -375.000
227.324;  -68.450; -561.000; -580.000
227.468; -125.025; -819.000; -717.000
227.612;   10.075;  242.000;  -28.000
227.756;  -99.975; -845.000; -698.000
227.900;   59.525;  342.000;  441.000
228.044;  -51.075; -509.000; -290.000
228.188;   47.300;  448.000;  568.000
228.332;  -89.675; -546.000; -472.000
228.476;  -35.500; -223.000; -149.000
228.620;  -24.575; -210.000; -150.000
228.764;   64.725;  431.000;  349.000
228.908;  -23.800; -155.000;   30.000
229.052;  -57.775; -615.000; -528.000
229.195;  -22.925; -172.000;   13.000
229.339;  -29.025; -235.000; -305.000
229.483;  -31.400;    5.000; -162.000
229.627;    8.800; -156.000;  139.000
229.771;  -52.950; -218.000; -294.000
229.915;   11.800;  230.000;   79.000
230.059;  -99.500; -648.000; -663.000
230.202;  -40.500; -370.000; -317.000
230.346;  -23.800; -107.000;  107.000
230.490;  -66.150; -489.000; -521.000
230.634; -107.175; -736.000; -553.000
230.777;   70.025;  478.000;  509.000
230.921;  -67.600; -450.000; -359.000
231.065;  -61.250; -246.000; -286.000
231.209;   33.225;  261.000;  265.000
231.352;   25.875;   54.000;   40.000
231.496;   13.825;  568.000;  188.000
231.640;  -77.675; -693.000; -621.000
231.783;   63.100;  546.000;  525.000
231.927;  -42.050; -294.000; -365.000
232.071; -122.925; -962.000; -736.000
232.214; -113.100; -980.000; -764.000
232.358; -109.025; -683.000; -599.000
232.502;   24.025;  -19.000;    7.000
232.645; -138.350;-1090.000; -927.000
232.789;  -16.475; -257.000; -218.000
232.933;  -52.900; -407.000; -224.000
233.076; -136.250;-1038.000; -897.000
233.220; -110.175; -752.000; -777.000
233.363;  -81.000; -669.000; -477.000
233.507;   55.425;  371.000;  129.000
233.650; -102.500; -764.000; -834.000
233.794;   42.500;  438.000;  461.000
233.938;  -67.275; -530.000; -362.000
234.081;  -23.275;  -93.000;   31.000
234.225;  -77.875; -631.000; -539.000
234.368; -129.725; -773.000; -723.000
234.512;  -29.325; -385.000; -299.000
234.655;  -92.850; -582.000; -555.000
234.798;  -71.700; -493.000; -466.000
234.942; -137.150; -884.000;-1002.000
235.085;  -69.475; -651.000; -443.000
235.229;  -74.825; -405.000; -410.000
235.372;  -55.150; -247.000; -191.000
235.516;  -69.950; -397.000; -321.000
235.659;    0.700;   92.000;  121.000
235.802;  -24.025;  -38.000;  -22.000
235.946;   25.800;  335.000;  215.000
236.089;   18.250;  126.000;  250.000
236.233;   59.350;  275.000;  298.000
236.376;  -48.425; -235.000; -378.000
236.519;  -43.750; -297.000; -319.000
236.663;  -31.950; -215.000; -117.000
236.806; -139.725;-1029.000; -999.000
236.949;   49.725;  543.000;  431.000
237.092;   69.200;  412.000;  391.000
237.236;  -96.800; -589.000; -502.000
237.379;   67.925;  352.000;  428.000
237.522; -130.625; -879.000; -768.000
237.666;  -12.850; -271.000;   18.000
237.809; -134.350; -851.000; -823.000
237.952;   49.875;  469.000;  271.000
238.095;  -76.500; -447.000; -442.000
238.238;  102.125;  688.000;  700.000
238.382;   -9.200;  166.000;  103.000
238.525;  -68.200; -598.000; -511.000
238.668; -155.000;-1060.000; -985.000
238.811;  -92.375; -638.000; -643.000
238.954;  -72.550; -483.000; -334.000
239.097;   79.350;  617.000;  664.000
239.241;   13.475;  394.000;  326.000
239.384;  -42.325; -254.000; -214.000
239.527;  -61.750; -424.000; -224.000
239.670; -152.250; -994.000;-1091.000
239.813; -121.575; -696.000; -658.000
239.956;   75.450;  579.000;  473.000
240.099; -116.400; -778.000; -725.000
240.242;   62.350;  428.000;  432.000
240.385;   61.100;  466.000;  450.000
240.528;  -79.450; -706.000; -473.000
240.671;    7.900;  189.000;  134.000
240.814;  -45.450; -441.000; -158.000
240.957; -115.900; -767.000; -578.000
241.100;  -96.550; -779.000; -755.000
241.243; -149.725;-1234.000; -893.000
241.386;  -74.825; -508.000; -379.000
241.529;  -97.400; -735.000; -547.000
241.672;  -61.500; -566.000; -495.000
241.815; -146.450; -832.000; -808.000
241.958;  -29.025; -125.000; -182.000
242.101;  -82.525; -545.000; -390.000
242.244;  -45.700; -270.000; -325.000
242.387;  -31.875; -304.000; -246.000
242.530;   55.025;  470.000;  134.000
242.673;  -65.875; -381.000; -309.000
242.815; -123.525; -925.000; -899.000
242.958;  -60.125; -482.000; -381.000
243.101;   12.800;  132.000;  187.000
243.244;  -95.725; -564.000; -521.000
243.387;  -53.275; -313.000; -316.000
243.530; -104.675; -657.000; -674.000
243.672;   -1.350;   43.000;  -92.000
243.815;  -47.575; -355.000; -283.000
243.958;    4.550;   98.000;  -26.000
244.101;   -6.525;   59.000;  -16.000
244.243;  -16.950;  -47.000;  101.000
244.386; -118.900; -761.000; -630.000
244.529;  -25.925; -132.000; -139.000
244.672; -165.975;-1154.000; -951.000
244.814; -107.675; -621.000; -794.000
244.957;  -38.800; -380.000; -304.000
245.100;  -84.475; -489.000; -489.000
245.242;  -70.100; -387.000; -374.000
245.385;    2.650;  -59.000;  -39.000
245.528; -132.525; -871.000; -705.000
245.670;   91.800;  612.000;  634.000
245.813;  -96.000; -599.000; -547.000
245.956;  -37.250; -324.000; -275.000
246.098;  -68.925; -508.000; -650.000
246.241;   -4.475;  194.000;   48.000
246.383;  -17.775; -119.000;  -73.000
246.526;  -66.900; -454.000; -525.000
246.669; -125.700; -889.000; -780.000
246.811;   14.875;  172.000;   -1.000
246.954;  -65.225; -512.000; -426.000
247.096;  -21.825;  -84.000;   -6.000
247.239;  -64.550; -482.000; -445.000
247.381;  -72.875; -647.000; -488.000
247.524;   83.075;  645.000;  679.000
247.666;   -3.800;   58.000;   11.000
247.809; -130.950; -887.000; -691.000
247.951;  -12.275;  -75.000;  138.000
248.094;   28.350;  432.000;  308.000
248.236; -171.000;-1262.000;-1238.000
248.378;    2.100; -356.000;  -81.000
248.521;  -21.350; -334.000; -337.000
248.663;  -39.475; -236.000; -267.000
248.806;  -32.550; -300.000; -266.000
248.948; -119.575; -886.000; -763.000
249.090;  -58.825; -428.000; -398.000
249.233;  -60.800; -344.000; -381.000
249.375;  -61.575; -474.000; -451.000
249.518;  -26.350;  -83.000; -133.000
249.660;  -19.125; -103.000;    3.000
249.802; -178.200;-1303.000;-1189.000
249.945;  -76.500; -612.000; -540.000
250.087; -124.400; -834.000; -768.000
250.229;  -46.975; -362.000; -480.000
250.371;  -74.650; -494.000; -439.000
250.514;  -72.850; -310.000; -244.000
250.656;  -69.275;   69.000;  102.000
250.798; -123.850; -849.000; -800.000
250.940;  -57.350; -322.000; -322.000
251.083;  -27.150; -335.000; -111.000
251.225;   64.825;  338.000;  310.000
251.367;  -42.600; -274.000; -373.000
251.509;  -46.100; -265.000; -210.000
251.651;  -90.850; -731.000; -671.000
251.794;   67.850;  538.000;  632.000
251.936; -110.400; -821.000; -747.000
252.078;  -76.850; -540.000; -461.000
252.220;  -76.100; -645.000; -477.000
252.362;   64.475;  344.000;  462.000
252.504;  -75.800; -677.000; -584.000
252.646; -108.750; -875.000; -722.000
252.788;  -17.775;   14.000; -128.000
252.931;  -33.700; -257.000; -253.000
253.073;  -52.250; -376.000; -317.000
253.215;  -16.600;  141.000;  122.000
253.357;  -10.925;   82.000; -153.000
253.499;  -53.375; -374.000; -234.000
253.641;  -88.750; -749.000; -594.000
253.783;  -91.825; -609.000; -527.000
253.925;  -97.750; -586.000; -591.000
254.067; -109.175; -744.000; -667.000
254.209;  -24.475; -391.000; -259.000
254.351; -148.550; -865.000; -883.000
254.493;  -62.650; -441.000; -417.000
254.635; -131.975; -936.000; -818.000
254.777;  -90.575; -752.000; -687.000
254.918;  -84.475; -512.000; -430.000
255.060;  -54.950; -551.000; -395.000
255.202;  -66.325; -473.000; -261.000
255.344;  -90.350; -658.000; -455.000
255.486;  -82.550; -471.000; -406.000
255.628; -109.050; -780.000; -781.000
255.770;  -84.525; -676.000; -536.000
255.912;  -70.850; -559.000; -468.000
256.053;  -94.975; -730.000; -508.000
256.195;  166.600; 1008.000;  903.000
256.337; -112.250; -861.000; -595.000
256.479;   59.075;  532.000;  416.000
256.621;  -43.000; -394.000; -212.000
256.762;  -94.600; -789.000; -742.000
256.904;   45.725;  485.000;  487.000
257.046;  -49.675; -381.000; -271.000
257.188;  -48.150; -351.000; -264.000
257.329;  -80.000; -525.000; -464.000
257.471; -116.975; -939.000; -807.000
257.613;  -77.075; -584.000; -498.000
257.755; -152.825;-1073.000; -982.000
257.896;   42.125;  286.000;  392.000
258.038;  -71.050; -403.000; -352.000
258.180;  -47.675; -354.000; -279.000
258.321;  -95.025; -581.000; -457.000
258.463;  -10.975;  -71.000;  133.000
258.605;  -87.425; -562.000; -570.000
258.746;  -91.975; -886.000; -772.000
258.888; -162.700;-1026.000;-1020.000
259.029;    7.150;  121.000;   -8.000
259.171; -108.750; -614.000; -550.000
259.313;    5.875;  -49.000;  -47.000
259.454;  -81.875; -536.000; -414.000
259.596;  -59.350; -483.000; -390.000
259.737;  -86.125; -590.000; -474.000
259.879;   27.400;  217.000;  311.000
260.020;   77.525;  901.000;  636.000
260.162;  -29.425; -146.000; -253.000
260.303; -129.275; -768.000; -687.000
260.445;  -92.375; -609.000; -613.000
260.586;   14.975;  392.000;  157.000
260.728;  -42.975; -360.000; -248.000
260.869; -116.800; -350.000; -343.000
261.011;   80.650;  706.000;  537.000
261.152;  -64.600; -479.000; -319.000
261.293;  -85.600; -576.000; -595.000
261.435;  -43.975; -219.000; -184.000
261.576;  -65.675; -455.000; -325.000
261.718;   51.975;  420.000;  470.000
261.859; -137.950; -940.000; -949.000
262.000; -148.250; -951.000;-1016.000
262.142;  -16.125;  -52.000;  -60.000
262.283; -126.550; -808.000; -691.000
262.424;  -87.175; -666.000; -625.000
262.566; -159.750;-1161.000; -983.000
262.707; -113.700; -840.000; -830.000
262.848; -136.575; -769.000; -726.000
262.990;  -62.225; -362.000; -345.000
263.131;   80.400;  650.000;  681.000
263.272;   -4.550;  -61.000;  -41.000
263.413; -107.350; -589.000; -561.000
263.555;  -69.250; -669.000; -143.000
263.696;  -93.625; -550.000; -641.000
263.837;  -76.400; -449.000; -551.000
263.978;  -17.850;   -5.000;  -77.000
264.119;  -52.025; -283.000; -264.000
264.261; -124.750; -847.000; -630.000
264.402;  -10.950;   33.000;   40.000
264.543;  -83.700; -509.000; -524.000
264.684;   -0.725;   61.000;  -50.000
264.825;  -86.250; -816.000; -538.000
264.966;    0.925;  -84.000;  -67.000
265.107; -118.650; -646.000; -670.000
265.248; -119.100; -825.000; -812.000
265.390;   -0.975;  152.000;   -9.000
265.531;  -17.575; -238.000; -107.000
265.672; -105.500; -557.000; -630.000
265.813;   65.900;  563.000;  439.000
265.954; -153.575; -959.000; -940.000
266.095;  -16.325; -372.000; -322.000
266.236; -102.775; -686.000; -548.000
266.377;  -44.325; -243.000; -297.000
266.518;  -64.150; -619.000; -547.000
266.659;   34.500;  170.000;  268.000
266.800;   -5.750;   83.000;   85.000
266.941;  -74.800; -487.000; -478.000
267.082;   28.175;  354.000;   99.000
267.223;  -65.600; -344.000; -273.000
267.364; -121.075; -892.000; -686.000
267.504;  -18.250;    3.000;  135.000
267.645;    5.900;  160.000;   67.000
267.786;  -36.325; -147.000;  -86.000
267.927;  -97.025; -473.000; -379.000
268.068;  -16.425; -186.000;  -61.000
268.209;  -56.550; -175.000; -413.000
268.350;  -67.250; -388.000; -532.000
268.490;  -84.075; -648.000; -521.000
268.631;   40.275;  127.000;  225.000
268.772; -109.975; -874.000; -647.000
268.913;  -37.625; -328.000; -476.000
269.054;  -31.125; -117.000;   12.000
269.194;  -54.425; -418.000; -402.000
269.335; -166.250;-1137.000;-1074.000
269.476;  -15.600;   33.000;  -35.000
269.617;  -56.250; -347.000; -392.000
269.757;  -99.875; -713.000; -646.000
269.898; -109.300; -856.000; -613.000
270.039;  -62.900; -415.000; -405.000
270.180; -143.800; -952.000; -816.000
270.320;  -37.000; -190.000; -250.000
270.461;  -44.400; -277.000; -249.000
270.602;  -12.275; -186.000; -156.000
270.742; -119.725; -868.000; -943.000
270.883;  -59.750; -442.000; -390.000
271.023;  -70.450; -358.000; -357.000
271.164;  -84.475; -607.000; -528.000
271.305; -111.650; -666.000; -654.000
271.445;  -95.525; -722.000; -683.000
271.586;  -67.875; -462.000; -283.000
271.726;  -56.925; -397.000; -322.000
271.867;  -67.600; -594.000; -534.000
272.008;  156.250; -473.000; -285.000
272.148;  121.225;  462.000;  468.000
272.289;   14.450; -113.000; -181.000
272.429;   21.100;   19.000;  185.000
272.570;  -96.325; -633.000; -737.000
272.710; -111.150; -825.000; -775.000
272.851;  -40.025;  113.000; -130.000
272.991; -167.275;-1173.000;-1077.000
273.131;  -71.400; -419.000; -459.000
273.272; -108.300; -683.000; -723.000
273.412;    1.950; -143.000;  -31.000
273.553;  -56.075; -488.000; -507.000
273.693;  129.725;  913.000;  858.000
273.834; -100.700; -894.000; -692.000
273.974;  -84.500; -664.000; -615.000
274.114; -113.650; -772.000; -560.000
274.255;   62.500;  414.000;  373.000
274.395;  -10.625; -180.000; -125.000
274.535;   28.475;  199.000;  350.000
274.676;   25.225;  225.000;   94.000
274.816;   -9.175;  110.000;   34.000
274.956;  -96.750; -624.000; -690.000
275.097;  -57.675;-1014.000; -922.000
275.237; -122.875; -913.000; -803.000
275.377;  -97.200; -778.000; -689.000
275.517; -158.825; -878.000; -937.000
275.658;  -63.250; -590.000; -555.000
275.798;  -92.825; -606.000; -413.000
275.938;    8.075;  215.000;  323.000
276.078;  -88.075; -626.000; -395.000
276.218;    7.150;   99.000;  104.000
276.359;  -89.850;-1026.000;-1024.000
276.499;  -77.275; -605.000; -446.000
276.639;  -32.300; -305.000; -151.000
276.779;  -49.425; -475.000; -357.000
276.919; -120.425; -783.000; -624.000
277.059;  -27.275; -261.000; -212.000
277.199;  -47.300; -357.000; -259.000
277.340;   45.600;  287.000;  175.000
277.480; -118.000; -840.000; -693.000
277.620;   18.525;  192.000;   16.000
277.760; -216.400;-1533.000;-1294.000
277.900;   21.700;  113.000;   33.000
278.040;   12.300;  137.000;  159.000
278.180;   24.750;  270.000;  170.000
278.320;  -11.725;   21.000;   56.000
278.460;  -66.450; -443.000; -469.000
278.600;  -94.725; -708.000; -598.000
278.740;   40.175;  448.000;  224.000
278.880;  -84.650; -768.000; -791.000
279.020;  -21.050; -194.000; -144.000
279.160; -100.150; -672.000; -595.000
279.300; -114.175; -926.000; -873.000
279.440; -107.400; -709.000; -622.000
279.579;  -31.750;-1014.000; -929.000
279.719;  -67.575; -410.000; -394.000
279.859;   57.775;   -4.000;   41.000
279.999;   16.025; -208.000;  101.000
280.139;  -27.875; -435.000; -387.000
280.279;  -90.950; -708.000; -745.000
280.419;  -12.075; -229.000; -147.000
280.559;  -39.550; -259.000; -180.000
280.698; -101.175; -790.000; -639.000
280.838; -106.275; -778.000; -800.000
280.978; -104.700; -846.000; -790.000
281.118; -125.500; -811.000; -704.000
281.257;    2.600;   24.000;    6.000
281.397; -141.650;-1094.000; -960.000
281.537; -107.700; -599.000; -712.000
281.677;  -30.850; -150.000; -101.000
281.816; -115.650; -700.000; -630.000
281.956;  -48.425; -193.000; -257.000
282.096;  -81.375; -539.000; -396.000
282.235; -120.150; -672.000; -638.000
282.375;  -34.275; -243.000;  -98.000
282.515; -100.925; -715.000; -707.000
282.654;    5.200;   29.000;  106.000
282.794;   24.125;  388.000;  244.000
282.934;  -61.925; -530.000; -491.000
283.073; -156.300;-1030.000; -857.000
283.213;  -53.150; -460.000; -467.000
283.353;  -56.300; -408.000; -349.000
283.492;  -29.600; -264.000; -296.000
283.632;  -55.750; -254.000; -168.000
283.771; -103.975; -859.000; -730.000
283.911;  -77.525; -369.000; -260.000
284.050; -106.650; -794.000; -748.000
284.190; -173.450;-1229.000;-1096.000
284.329; -153.825;-1055.000; -964.000
284.469;  -84.075; -516.000; -591.000
284.608;  -68.900; -559.000; -598.000
284.748;  -84.925; -614.000; -570.000
284.887;   -5.950;  -87.000;  -20.000
285.027; -136.350; -844.000; -892.000
285.166;  -45.925; -192.000; -249.000
285.306;  -14.575; -116.000;  -33.000
285.445;  -35.900; -229.000; -343.000
285.584;  -95.475; -630.000; -494.000
285.724;  -49.700; -282.000; -322.000
285.863; -120.375; -857.000; -507.000
286.002;  -55.050; -366.000; -276.000
286.142; -110.375; -715.000; -622.000
286.281;  -77.825; -525.000; -493.000
286.420;  -94.150; -554.000; -417.000
286.560;   93.800;  653.000;  623.000
286.699; -144.675; -958.000; -912.000
286.838;  -90.075; -590.000; -591.000
286.978; -105.950; -533.000; -537.000
287.117; -147.050;-1085.000; -950.000
287.256;  -43.700; -228.000; -211.000
287.395;  -61.200; -197.000; -378.000
287.535;  -68.550; -370.000; -298.000
287.674;  -82.800; -509.000; -484.000
287.813;   37.875;  661.000;  533.000
287.952; -143.525;-1010.000; -871.000
288.091; -162.075;-1049.000; -915.000
288.231;   -1.300;   13.000;   15.000
288.370; -188.950;-1217.000;-1200.000
288.509;  -99.100; -728.000; -645.000
288.648; -102.675; -770.000; -548.000
288.787;  -34.525; -243.000;  -87.000
288.926;  -84.150; -454.000; -475.000
289.065;  110.375;  859.000;  672.000
289.204;  -53.200; -377.000; -217.000
289.344;  -97.550; -791.000; -690.000
289.483;   14.075;  416.000;  304.000
289.622;  -32.875; -291.000; -149.000
289.761;  -25.725; -309.000; -166.000
289.900; -109.675; -785.000; -626.000
290.039;  -10.725;  -12.000;  -95.000
290.178;  -40.525; -274.000; -180.000
290.317;  -98.400; -618.000; -479.000
290.456;  -74.600; -463.000; -451.000
290.595; -163.025; -961.000; -833.000
290.734; -138.550; -904.000; -891.000
290.873;  -72.100; -456.000; -420.000
291.011; -116.175; -833.000; -843.000
291.150; -111.550; -770.000; -682.000
291.289;  -38.075; -343.000; -110.000
291.428;  -97.750; -599.000; -480.000
291.567;  -64.075; -370.000; -442.000
291.706;  -14.550;  109.000;  154.000
291.845;  -99.625; -597.000; -505.000
291.984; -178.675;-1234.000;-1061.000
292.122;   63.400;  602.000;  582.000
292.261;   29.200;  620.000;  463.000
292.400;   -1.200; -144.000;  211.000
292.539; -138.375; -959.000; -813.000
292.678;  -28.225; -325.000; -300.000
292.816; -173.150;-1136.000; -965.000
292.955;  -99.950; -844.000; -684.000
293.094;  -38.625; -173.000; -337.000
293.233;  -63.200; -556.000; -400.000
293.371;  -30.950; -225.000;  -84.000
293.510; -114.875; -866.000; -780.000
293.649; -137.325; -959.000; -924.000
293.787;  -86.050;-1083.000;-1012.000
293.926;   -7.825; -113.000;  -32.000
294.065;  -48.400; -379.000; -290.000
294.203;   38.825;  298.000;  406.000
294.342;   25.625;   74.000;  156.000
294.481; 6460.850;51180.000; -836.000
294.619;  -28.425; -425.000; -582.000
294.758; -152.950;-1230.000;-1137.000
294.896;   56.075; -125.000;    5.000
295.035; -144.475;-1040.000;-1006.000
295.174; -127.900;-1082.000; -954.000
295.312;  -46.900; -323.000; -203.000
295.451;  -21.725; -307.000; -428.000
295.589;  -74.800; -389.000; -518.000
295.728;    7.975; -292.000; -165.000
295.866;  -16.675;  -36.000;  -51.000
296.005;  -69.925; -584.000; -341.000
296.143;  -76.375; -558.000; -596.000
296.282; -120.250; -957.000; -881.000
296.420;  -86.175; -657.000; -557.000
296.559;  -95.400; -892.000; -633.000
296.697;   -2.550; -847.000; -665.000
296.835;    6.800;-1141.000;-1002.000
296.974;   40.725;  -23.000;   39.000
297.112;  -14.875; -443.000; -504.000
297.251;  -77.050; -815.000; -755.000
297.389;   69.650; -576.000; -438.000
297.527;   25.775; -145.000;  -83.000
297.666;  -65.350; -486.000; -438.000
297.804;  -62.650; -404.000; -264.000
297.942;  -19.925; -136.000; -161.000
298.081;  -17.475; -183.000;   63.000
298.219;   46.800;  -17.000;  -19.000
298.357;   48.200; -144.000;  -71.000
298.495;    8.900; -810.000; -812.000
298.634;   67.175;  245.000;  219.000
298.772;   27.225; -220.000; -338.000
298.910;  -58.875; -309.000; -182.000
299.048;  -23.875; -130.000; -153.000
299.187;  -44.975; -350.000; -250.000
299.325;   14.525;   52.000;  122.000
299.463;   19.375; -389.000; -299.000
299.601;   67.225; -327.000; -271.000
299.739; -126.075; -908.000; -883.000
299.877; -100.275; -791.000; -703.000
300.016;  -59.150;-1095.000; -935.000
300.154;  126.725;  -19.000; -161.000
300.292;   30.425; -428.000; -348.000
300.430;    7.525; -408.000; -291.000
300.568; -119.925; -940.000; -874.000
300.706;  -45.500; -366.000; -469.000
300.844;  -88.325;-1108.000; -979.000
300.982;   94.550;  246.000;  282.000
301.120; -122.400; -965.000; -866.000
301.258;  -86.450; -812.000; -705.000
301.396;   13.350;  104.000;  -41.000
301.534;   52.825; -218.000; -293.000
301.672;  -46.150; -664.000; -521.000
301.810;   -3.375; -613.000; -545.000
301.948;   77.750;   53.000;  149.000
302.086;  503.350; -250.000;  -32.000
302.224;  812.825; -610.000; -585.000
302.362;   17.100; -558.000; -622.000
302.500;  -53.025; -923.000; -893.000
302.638;   92.500;  128.000;  245.000
302.776;  -16.725; -352.000; -408.000
302.913;   40.450;  447.000;  236.000
303.051;  -21.900;  -86.000;  -23.000
303.189;   50.700;   90.000;  118.000
303.327;  -46.775; -341.000; -256.000
303.465;  -94.725; -832.000; -588.000
303.603; -110.425; -805.000; -604.000
303.740;   83.575;  417.000;  241.000
303.878;   -6.775; -800.000; -759.000
304.016; -100.075; -915.000; -790.000
304.154; -147.075;-1123.000;-1152.000
304.291;  -45.425; -505.000; -554.000
304.429;   -3.025;  102.000;   74.000
304.567; -141.125; -908.000; -893.000
304.705;  -62.175; -408.000; -515.000
304.842;   69.825; -616.000; -540.000
304.980;   37.150;  215.000;   35.000
305.118;   12.050; -367.000; -365.000
305.255;  -82.375; -945.000; -927.000
305.393;   51.000;  178.000;  239.000
305.531; -122.650;-1173.000; -956.000
305.668;  -78.775; -663.000; -582.000
305.806;   69.900; -358.000; -439.000
305.943;   82.525; -629.000; -637.000
306.081;   33.875; -378.000; -267.000
306.219; -110.975; -863.000; -748.000
306.356;   -6.550;  158.000;   27.000
306.494;  107.275;  981.000;  761.000
306.631;  -19.500;  -11.000;  -55.000
306.769;    4.450; -613.000; -485.000
306.906;  -25.725; -284.000; -258.000
307.044;  -79.100; -473.000; -488.000
307.181;  -80.175; -410.000; -332.000
307.319;   15.300;  112.000;   87.000
307.456; -171.575;-1191.000;-1153.000
307.594; -121.400; -980.000; -727.000
307.731;  -19.325; -371.000; -164.000
307.868;   -8.050;  -15.000;   20.000
308.006; -156.800; -961.000; -847.000
308.143;  -81.475; -618.000; -330.000
308.281;   94.225;  -37.000; -254.000
308.418;  -50.150; -748.000; -640.000
308.555;  -84.925; -400.000; -250.000
308.693;  -78.350; -577.000; -573.000
308.830; -116.325; -712.000; -657.000
308.967;  -36.175; -215.000;  -95.000
309.105;  -70.925; -507.000; -396.000
309.242;   -6.975; -468.000; -367.000
309.379;  176.850; -577.000; -655.000
309.517;  -86.300; -936.000; -948.000
309.654; -124.300; -910.000; -734.000
309.791;  -81.000; -662.000; -580.000
309.928; -130.425; -977.000; -914.000
310.065;  160.600;  819.000;  697.000
310.203;  -35.900; -825.000; -850.000
310.340;  -17.725; -465.000; -321.000
310.477;  -99.350; -412.000; -516.000
310.614;  -73.125; -383.000; -473.000
310.751;  -94.850; -427.000; -518.000
310.889;  -26.225;    1.000;   11.000
311.026; -170.225;-1161.000; -939.000
311.163;  -56.850; -386.000; -380.000
311.300;  -94.650; -512.000; -479.000
311.437;  -96.850; -658.000; -619.000
311.574; -173.825;-1226.000; -985.000
311.711;  -69.475; -595.000; -433.000
311.848;  -57.700; -380.000; -388.000
311.985;   -1.550;  270.000;   93.000
312.122; -116.650; -932.000; -762.000
312.259; -130.300; -941.000; -994.000
312.396;  -93.100; -508.000; -551.000
312.533; -105.425; -812.000; -790.000
312.670; -153.200;-1070.000; -898.000
312.807;  -64.050; -352.000; -367.000
312.944;  -86.000; -513.000; -611.000
313.081;  -38.350; -150.000; -415.000
313.218; -119.025;-1111.000; -867.000
313.355;   -6.150; -531.000; -449.000
313.492;  -25.375; -455.000; -292.000
313.629;  128.225;  815.000;  735.000
313.766; -177.450;-1176.000;-1008.000
313.902;  -11.625; -186.000;   21.000
314.039;  -59.325; -372.000; -289.000
314.176;   29.700;  286.000;  192.000
314.313;  -84.100; -569.000; -473.000
314.450;  -87.675; -788.000; -684.000
314.587;  -63.950; -468.000; -480.000
314.723;   -6.375;  -78.000;  130.000
314.860;   17.425;  318.000;  332.000
314.997;   15.225;  223.000;  142.000
315.134;  -55.750; -385.000; -368.000
315.270;  -37.600; -480.000; -496.000
315.407; -135.475;-1094.000; -967.000
315.544;  -56.475; -657.000; -538.000
315.681;  -90.725; -681.000; -565.000
315.817;   24.100; -133.000; -176.000
315.954;   -0.550; -613.000; -392.000
316.091; -149.100;-1045.000;-1023.000
316.227;  -28.700;  -71.000; -179.000
316.364;  -10.450;   23.000;    6.000
316.500;  -57.900; -113.000; -300.000
316.637;  -55.750; -181.000; -302.000
316.774;  -97.625; -625.000; -358.000
316.910;  -99.000; -598.000; -629.000
317.047;  -88.675; -487.000; -351.000
317.183;  -80.650; -435.000; -566.000
317.320;  -19.800; -367.000; -321.000
317.456;  -80.100; -733.000; -805.000
317.593; -100.325; -598.000; -641.000
317.729;  -10.025;  168.000;  -67.000
317.866; -216.725;-1434.000;-1285.000
318.002;  -91.125; -708.000; -948.000
318.139; -125.950; -883.000; -867.000
318.275; -109.775;-1003.000; -738.000
318.412;  -80.375; -517.000; -336.000
318.548;  -54.875; -751.000; -720.000
318.685; -114.250; -985.000; -888.000
318.821; -100.575; -762.000; -735.000
318.957;  -17.250;   34.000;  -23.000
319.094;   29.075;  297.000;  154.000
319.230;  -89.175; -756.000; -742.000
319.367;   84.600; -471.000; -520.000
319.503;   29.275; -538.000; -436.000
319.639; -121.700; -877.000; -793.000
319.775;  -81.400; -750.000; -685.000
319.912;  -78.050; -424.000; -519.000
320.048; -107.800;-1184.000;-1184.000
320.184;   79.925;   59.000;   70.000
320.321;  -63.925; -497.000; -467.000
320.457;   70.575;  475.000;  662.000
320.593;  -76.800; -375.000; -382.000
320.729; -119.675; -732.000; -734.000
320.866;  -94.400; -577.000; -635.000
321.002;  -76.300; -759.000; -809.000
321.138;  -38.750; -135.000; -211.000
321.274;   65.150; -148.000; -115.000
321.410;  -43.775; -585.000; -353.000
321.546;  -50.575;-1011.000; -911.000
321.683;   41.650;  400.000;  185.000
321.819;    2.050;  -48.000; -117.000
321.955; -129.500; -743.000; -722.000
322.091;  -64.925; -585.000; -540.000
322.227;  -17.825; -382.000; -202.000
322.363;  -23.700; -320.000; -215.000
322.499;  -58.625; -343.000; -331.000
322.635;  141.975;  636.000;  443.000
322.771;    9.125; -139.000;   12.000
322.907;   85.425;  129.000;  327.000
323.043;  -30.425; -115.000; -206.000
323.179;  -46.325; -394.000; -363.000
323.315;  -15.700; -401.000; -371.000
323.451;   73.225; -328.000; -236.000
323.587;   36.450;  -60.000;  -77.000
323.723;   -3.950; -682.000; -601.000
323.859;  -34.200; -258.000;  -76.000
323.995;  -37.800; -467.000; -409.000
324.131; -121.900; -967.000; -892.000
324.267;  -49.700; -254.000; -276.000
324.402; -154.250; -960.000; -983.000
324.538;  -19.725; -279.000; -104.000
324.674;    7.525;  164.000;   77.000
324.810;   95.525;  226.000;  308.000
324.946;  -34.150; -810.000; -658.000
325.082;  -77.775; -568.000; -475.000
325.217;  -29.500;  -62.000;   16.000
325.353;  -98.550; -764.000; -659.000
325.489; -102.775; -540.000; -506.000
325.625;  -89.850; -579.000; -525.000
325.760;   51.600;  517.000;  376.000
325.896;  -25.250; -515.000; -702.000
326.032;  -63.825; -403.000; -352.000
326.168;  -62.150; -462.000; -369.000
326.303;  -73.950; -352.000; -461.000
326.439;  -17.100; -336.000; -276.000
326.575;   -6.450; -190.000;  -29.000
326.710;  -16.400; -156.000;  -30.000
326.846;   -9.450;  146.000;  103.000
326.982;  -92.250; -530.000; -548.000
327.117;  -86.125; -481.000; -442.000
327.253;  -95.150; -745.000; -742.000
327.388; -177.175;-1137.000;-1153.000
327.524;  -81.325; -811.000; -578.000
327.659;  -35.700;  -58.000;  -22.000
327.795;  -25.325;   69.000;   45.000
327.931;  -86.900; -723.000; -499.000
328.066;  -35.800; -417.000; -276.000
328.202;  -12.450;   12.000; -129.000
328.337;   90.800;  957.000;  713.000
328.473;   33.125;  -12.000;  -74.000
328.608;  -31.600; -256.000; -267.000
328.743;  -96.375; -799.000; -664.000
328.879;   11.775;  214.000;  114.000
329.014;  -47.050; -102.000; -122.000
329.150;  -82.250; -358.000; -483.000
329.285;  -97.825; -465.000; -466.000
329.421;  -50.475; -548.000; -246.000
329.556;  -39.575;  -36.000;   85.000
329.691; -116.400; -633.000; -615.000
329.827;  -94.925; -626.000; -480.000
329.962;  -49.450;  131.000; -301.000
330.097; -101.050; -673.000; -585.000
330.233;  -67.850; -410.000; -223.000
330.368; -143.750; -839.000; -628.000
330.503;  -16.950;    3.000;   98.000
330.638;  -15.025;  -93.000; -125.000
330.774;  -70.500; -609.000; -530.000
330.909;  -63.300; -434.000; -244.000
331.044; -107.050; -714.000; -708.000
331.179; -180.750;-1217.000;-1109.000
331.315;   10.300;   77.000;   20.000
331.450;   15.750;  157.000;  285.000
331.585;  -92.800; -805.000; -706.000
331.720;  -99.600; -510.000; -460.000
331.855;  -13.300;  -35.000; -102.000
331.990;  237.025;   62.000;  138.000
332.126;  129.775; -110.000;   71.000
332.261;  -21.525; -379.000; -265.000
332.396;   -0.925; -135.000; -242.000
332.531; -109.400;-1074.000;-1031.000
332.666;   33.975; -519.000; -363.000
332.801; -118.075; -726.000; -807.000
332.936;  -22.125; -192.000; -122.000
333.071; -156.325; -870.000; -817.000
333.206;    3.725;  307.000;  379.000
333.341;   29.075;  344.000;  418.000
333.476; -100.100; -627.000; -623.000
333.611;  -55.200; -251.000; -173.000
333.746;  -60.450; -381.000; -464.000
333.881; -127.575; -973.000; -935.000
334.016; -138.475; -936.000; -917.000
334.151; -139.625; -746.000; -702.000
334.286;   16.400;  152.000;  186.000
334.421;  -26.225; -125.000; -178.000
334.556;  -93.100; -611.000; -567.000
334.690;  -93.325; -631.000; -577.000
334.825;   49.900;  381.000;   83.000
334.960;  -78.550; -285.000; -413.000
335.095;   13.525;  135.000;  -91.000
335.230; -117.150; -722.000; -738.000
335.365; -144.550;-1084.000; -990.000
335.499; -150.750;-1108.000;-1037.000
335.634;    6.750;    9.000;  534.000
335.769; -117.075; -755.000; -720.000
335.904;  -74.725; -603.000; -561.000
336.038;  -84.775; -735.000; -657.000
336.173; -124.300;-1206.000;-1194.000
336.308;   -7.825; -116.000; -189.000
336.443;    8.975; -544.000; -634.000
336.577;  -82.600; -936.000; -787.000
336.712;   59.425;   -4.000;  -12.000
336.847;  -52.950; -724.000; -607.000
336.981;   44.075; -272.000; -208.000
337.116;  250.550;  615.000;  501.000
337.250;  119.575; -434.000; -421.000
337.385;  253.175; -297.000; -208.000
337.520;   96.325; -632.000; -603.000
337.654;  -39.300; -215.000; -126.000
337.789; -136.725; -989.000; -933.000
337.923;  -54.825; -104.000; -205.000
338.058;  -90.100; -673.000; -738.000
338.192;  -65.125; -611.000; -488.000
338.327;  -16.250;  -18.000; -155.000
338.461;  -76.900; -299.000; -469.000
338.596;  -99.850; -780.000; -638.000
338.730; -102.900; -767.000; -803.000
338.865;   87.125;  -46.000; -140.000
338.999;  -74.100; -846.000; -702.000
339.134;  -24.625; -634.000; -536.000
339.268;   -2.925; -741.000; -603.000
339.403;  379.900; -740.000; -775.000
339.537;  116.075; -894.000; -820.000
339.671; -121.250; -829.000; -813.000
339.806;  -61.300; -556.000; -512.000
339.940;   12.725; -261.000; -235.000
340.074; -105.400; -685.000; -510.000
340.209;  -45.075; -351.000; -230.000
340.343; -103.325; -517.000; -573.000
340.477;  151.275;  998.000; 1036.000
340.612;  -50.750;-1033.000; -900.000
340.746;  147.150; -199.000; -243.000
340.880;  -78.975; -924.000; -785.000
341.014;  -21.700;  -45.000; -154.000
341.149; -132.075; -756.000; -718.000
341.283; -130.775; -839.000; -754.000
341.417; -111.675;-1124.000; -938.000
341.551;   75.475; -768.000; -708.000
341.685;  -53.725; -633.000; -611.000
341.820;  -53.075; -562.000; -493.000
341.954;  -64.125; -218.000; -349.000
342.088; -163.275;-1102.000;-1019.000
342.222;   42.125;  565.000;  618.000
342.356;  -61.600; -395.000; -335.000
342.490; -109.825; -880.000; -841.000
342.624;  -56.475; -339.000; -242.000
342.758;  -20.975; -364.000; -312.000
342.892;  -83.700; -710.000; -585.000
343.026;  -49.225;  -58.000; -116.000
343.160;  -65.625; -426.000; -376.000
343.294; -108.675; -474.000; -337.000
343.428;  -36.425; -488.000; -448.000
343.562;  -34.050; -172.000;  -23.000
343.696;  -48.475; -385.000; -314.000
343.830;  -46.625; -362.000; -356.000
343.964;    7.500; -231.000; -168.000
344.098;  762.650;  199.000;   70.000
344.232;  623.750; -266.000; -127.000
344.366;   60.600; -567.000; -453.000
344.500;   15.850; -665.000; -744.000
344.634;   13.375; -324.000; -164.000
344.768;  -16.900; -531.000; -341.000
344.902;   18.075;  278.000;  256.000
345.035;  -90.100; -556.000; -496.000
345.169; -144.425; -933.000; -656.000
345.303;  -42.875; -308.000; -482.000
345.437;  -94.625; -826.000; -717.000
345.571;  -90.100; -675.000; -594.000
345.704;  -84.700; -309.000; -532.000
345.838;  -11.975; -331.000; -284.000
345.972;  -68.375; -543.000; -495.000
346.106;  161.400; -179.000; -190.000
346.239;  381.950; -312.000; -243.000
346.373;   -6.950; -343.000; -302.000
346.507; -157.850; -950.000; -962.000
346.640;   87.650;  -30.000;   13.000
346.774;  -72.575; -650.000; -797.000
346.908;  -31.200; -138.000;  -11.000
347.041; -118.650; -646.000; -593.000
347.175;   -3.825;  259.000;   27.000
347.309; -100.575; -698.000; -628.000
347.442; -115.600; -883.000; -732.000
347.576;  245.150;  670.000;  668.000
347.709;  153.250; -123.000;  -52.000
347.843;  -97.350; -933.000; -825.000
347.976;   36.625;  235.000;  294.000
348.110; -196.200;-1268.000;-1186.000
348.243; -108.850; -679.000; -772.000
348.377;   -8.700;  -26.000;   60.000
348.510;   50.075;  403.000;  540.000
348.644;  -54.000;  -37.000; -159.000
348.777;   -5.500;  180.000;  191.000
348.911;  -63.550; -142.000; -112.000
349.044;  159.300;  471.000;  448.000
349.178;   92.300;-1069.000;-1006.000
349.311;   95.475;  141.000;  255.000
349.444;   -7.375; -927.000; -813.000
349.578;  -34.000; -347.000; -200.000
349.711; -121.800; -959.000; -862.000
349.845;  -22.600; -661.000; -591.000
349.978; -157.775;-1224.000;-1137.000
350.111;  -92.950; -546.000; -612.000
350.244; -100.800; -596.000; -700.000
350.378;   -9.650; -392.000; -393.000
350.511;  -79.350; -393.000; -426.000
350.644; -114.675; -808.000; -806.000
350.778;   15.775;  168.000;  104.000
350.911;    2.625;  134.000;  140.000
351.044; -107.025; -685.000; -615.000
351.177;  -35.550; -321.000; -281.000
351.310;  -43.250;    3.000; -131.000
351.444;  -89.075; -888.000; -788.000
351.577;   93.725;  140.000;   90.000
351.710;   85.200;  593.000;  417.000
351.843;  -55.650; -165.000;  -77.000
351.976;  -12.350;  149.000;  -79.000
352.109; -106.125; -621.000; -612.000
352.242;  -40.025; -464.000; -419.000
352.376;  -87.800; -580.000; -636.000
352.509;  143.450; -437.000; -356.000
352.642;  -27.000; -654.000; -604.000
352.775;   40.025; -141.000;  -98.000
352.908; -136.250; -933.000; -904.000
353.041; -117.400; -814.000; -824.000
353.174;  -69.175; -551.000; -424.000
353.307;  -94.775; -753.000; -764.000
353.440;   57.925;  541.000;  453.000
353.573; -117.275; -957.000;-1008.000
353.706;  -71.100; -384.000; -558.000
353.839;  -30.725; -264.000; -220.000
353.971;  -98.075; -657.000; -512.000
354.104;  -97.775; -896.000; -835.000
354.237;  -59.050; -627.000; -662.000
354.370;  -99.200; -846.000; -879.000
354.503; -183.650;-1231.000;-1308.000
354.636;  -52.250; -529.000; -348.000
354.769; -149.650; -937.000; -860.000
354.902;  -36.675; -230.000; -139.000
355.034;  -21.850; -164.000; -220.000
355.167;  -24.575; -262.000; -162.000
355.300; -100.575;-1061.000; -880.000
355.433;  984.425;  -71.000;  -14.000
355.565; 1534.350; -402.000; -384.000
355.698;  387.175; -356.000; -296.000
355.831;  -32.325; -882.000; -801.000
355.964;   41.900; -285.000; -170.000
356.096; -100.725; -856.000; -843.000
356.229;  -17.525; -523.000; -530.000
356.362;  320.600; -373.000; -266.000
356.494;  616.150; -229.000; -162.000
356.627;  412.150;  269.000;  377.000
356.760;  646.150;  120.000;   53.000
356.892;  967.275; -286.000; -601.000
357.025;  562.125;  403.000;  389.000
357.157;  493.000; -167.000; -179.000
357.290;  721.775; -856.000; -713.000
357.423;  178.150; -667.000; -556.000
357.555;   99.600; -217.000; -228.000
357.688;   90.125; -483.000; -364.000
357.820;  390.325; -870.000; -877.000
357.953; 3336.825; -563.000; -589.000
358.085;  668.625; -632.000; -612.000
358.218;  843.025;-1131.000; -932.000
358.350;  145.675;  -58.000;  312.000
358.483; -149.200;-1300.000;-1187.000
358.615;  -53.100;-1182.000;-1078.000
358.747; -104.275;-1187.000;-1058.000
358.880;   -2.000; -810.000; -744.000
359.012;  -25.675; -376.000; -202.000
359.145;  -53.150; -480.000; -511.000
359.277;   18.975; -962.000; -913.000
359.409; 2751.175;  536.000;  231.000
359.542;  689.550; -738.000; -688.000
359.674;   57.050;   46.000;   13.000
359.806;  -77.950; -565.000; -438.000
359.939;  -59.225; -617.000; -516.000
360.071;  -31.525; -583.000; -579.000
360.203;  -30.700; -411.000; -364.000
360.335;   25.600;  164.000;  -16.000
360.468;  164.750; -249.000; -307.000
360.600; 2231.825; -547.000; -454.000
360.732; 2963.225; -546.000; -423.000
360.864;  387.150;-1216.000;-1044.000
360.996;  201.800; -516.000; -554.000
361.129;   14.525; -389.000; -598.000
361.261;   13.250;  110.000; -113.000
361.393;  -42.250; -252.000; -214.000
361.525;   16.575;   94.000;  244.000
361.657;  -68.175; -821.000; -703.000
361.789;   -6.450; -139.000; -155.000
361.921;  144.150; -642.000; -593.000
362.053;  221.175;  524.000;  541.000
362.185;   23.100;  288.000;   72.000
362.318;  -95.550; -709.000; -705.000
362.450;   92.525;  294.000;  444.000
362.582;   32.725; -913.000; -870.000
362.714;  -52.450; -353.000; -332.000
362.846;  -86.525; -606.000; -490.000
362.978; -148.750; -941.000; -811.000
363.109;   11.800; -161.000; -260.000
363.241;  322.600; -739.000; -749.000
363.373;  431.675; -649.000; -564.000
363.505;  676.500; -186.000;  -91.000
363.637;  135.925; -787.000; -601.000
363.769; -149.225;-1067.000;-1080.000
363.901;  -76.275; -596.000; -654.000
364.033; -137.875;-1103.000;-1062.000
364.165;  -13.450; -283.000; -283.000
364.296;   64.775; -316.000; -177.000
364.428;   63.550;-1344.000;-1220.000
364.560;  -90.200; -679.000; -661.000
364.692;  -89.650; -738.000; -835.000
364.824;  161.400; -588.000; -456.000
364.955;  419.300; -402.000; -564.000
365.087;  995.675;-1097.000; -852.000
365.219;   26.000; -686.000; -816.000
365.351;  -71.575; -526.000; -572.000
365.482;   47.275;  300.000;  240.000
365.614;  -53.875; -402.000; -314.000
365.746; -108.850; -729.000; -752.000
365.877; -115.350; -706.000; -672.000
366.009;  283.600;  -35.000;  -62.000
366.141;  -95.700;-1249.000;-1134.000
366.272; -117.125; -803.000; -719.000
366.404; -133.875;-1005.000; -874.000
366.535;  -15.425; -139.000;  -12.000
366.667; -121.425; -644.000; -649.000
366.799;   27.225;  353.000;  203.000
366.930; -133.025; -862.000; -996.000
367.062;  101.975; -639.000; -613.000
367.193;  143.525; -872.000; -842.000
367.325;  -67.375; -580.000; -684.000
367.456;   31.125; -246.000;   31.000
367.588;  163.775; -371.000; -318.000
367.719;   23.825;  -44.000;  -45.000
367.851;  -39.150; -222.000; -241.000
367.982;  -72.550; -875.000; -732.000
368.113;   74.400; -475.000; -358.000
368.245; -140.400; -960.000; -841.000
368.376;  -33.100; -254.000; -302.000
368.508;  -46.000; -188.000; -263.000
368.639; -155.175;-1166.000;-1034.000
368.770;  -38.750; -670.000; -589.000
368.902;  -90.175; -836.000; -926.000
369.033; -123.925; -906.000; -855.000
369.164;  -62.925; -720.000; -653.000
369.296; -124.800; -452.000; -601.000
369.427;  -23.875; -209.000; -144.000
369.558;  -71.025; -593.000; -377.000
369.689;  -94.500; -721.000; -569.000
369.821; -144.525; -951.000; -845.000
369.952;  -17.200;   42.000; -108.000
370.083;  -56.075; -229.000; -108.000
370.214;  -94.300; -735.000; -650.000
370.345;  -28.525;   65.000;   81.000
370.477; -109.750; -810.000; -790.000
370.608;  169.725; -328.000; -264.000
370.739;  -93.025;-1233.000;-1292.000
370.870;  -64.650;-1102.000; -923.000
371.001;   58.175; -378.000; -467.000
371.132;  -96.225; -754.000; -735.000
371.263;  -19.650;  -42.000; -148.000
371.394; -143.275; -841.000; -748.000
371.525;   26.275;  345.000;  225.000
371.657; -104.525; -808.000; -670.000
371.788;   68.375;  103.000;  199.000
371.919;  120.275; -384.000; -304.000
372.050; 3191.825;  -91.000; -156.000
372.181;  923.000; -188.000; -294.000
372.311;  311.850;   42.000; -127.000
372.442;   -7.125; -457.000; -451.000
372.573;  -47.650; -444.000; -340.000
372.704; -134.575;-1008.000; -980.000
372.835;   48.525; -228.000; -289.000
372.966;  -71.200; -646.000; -554.000
373.097;  -84.075; -575.000; -711.000
373.228;  -69.450; -717.000; -542.000
373.359;   83.275; -824.000; -536.000
373.490;  768.000; -881.000; -727.000
373.620;  939.000;-1001.000; -803.000
373.751; 1471.775; -332.000; -396.000
373.882;  643.850; -663.000; -733.000
374.013;   38.125; -449.000; -262.000
374.143;  -66.150; -581.000; -659.000
374.274; -139.475; -987.000; -908.000
374.405;  134.000; -388.000; -276.000
374.536;  346.700; -526.000; -387.000
374.666;  897.750; -759.000; -807.000
374.797;  141.275; -817.000; -868.000
374.928;  675.500; -710.000; -560.000
375.058;  718.450; -535.000; -500.000
375.189;   51.875;  -59.000;  -93.000
375.320; -112.025; -928.000;-1034.000
375.450;  -58.050; -625.000; -616.000
375.581;  -69.000; -526.000; -436.000
375.712;  -36.250; -574.000; -250.000
375.842;  215.225; -438.000; -415.000
375.973;  157.250; -554.000; -513.000
376.103;  -78.900; -665.000; -648.000
376.234;  -98.725; -531.000; -552.000
376.364;  -72.100; -944.000; -867.000
376.495;  272.700;  925.000;  529.000
376.625;  -41.075; -472.000; -485.000
376.756;   24.900; -709.000; -678.000
376.886; -106.800;-1178.000;-1026.000
377.017;   49.075;-1048.000;-1061.000
377.147;  370.950; -786.000; -782.000
377.278;   65.125;  174.000;  228.000
377.408; -146.275; -801.000; -815.000
377.538; -121.975; -707.000; -693.000
377.669;  -83.500; -537.000; -613.000
377.799; -101.200; -645.000; -635.000
377.929;  -77.125; -610.000; -428.000
378.060; -129.850; -781.000; -847.000
378.190;  -71.950; -726.000; -531.000
378.320;  -66.700; -401.000; -406.000
378.451;  -23.500; -131.000;  -22.000
378.581;  -20.425;  -67.000; -110.000
378.711;  137.400; 1035.000;  866.000
378.841;  -37.550; -533.000; -675.000
378.972;  -94.275; -871.000; -751.000
379.102;  -37.950; -652.000; -579.000
379.232;  -32.975; -126.000;  -73.000
379.362; -129.200;-1001.000; -885.000
379.492;  -15.875; -373.000; -424.000
379.623;   93.250;    0.000;  111.000
379.753; -123.325;-1107.000; -974.000
379.883;  157.500;   59.000;  156.000
380.013;  -24.775;-1081.000;-1017.000
380.143; -121.775;-1097.000;-1056.000
380.273; -110.775; -985.000; -861.000
380.403;  -14.075; -344.000; -257.000
380.533;  -70.500; -651.000; -664.000
380.663;   53.375;  173.000;  128.000
380.793; -115.925;-1027.000;-1074.000
380.923;  -36.900; -103.000;  -34.000
381.053; -105.425; -613.000; -623.000
381.183;  -26.175; -106.000; -248.000
381.313;    1.575; -656.000; -470.000
381.443;    3.325; -692.000; -473.000
381.573;  127.525; -402.000; -409.000
381.703;  168.250;-1249.000;-1095.000
381.833; -152.425;-1454.000;-1336.000
381.963;   88.050; -134.000;  -87.000
382.093; 1220.600; -925.000; -909.000
382.223;  347.625; -713.000; -602.000
382.353;  -38.950; -801.000; -608.000
382.482;  274.575;-1091.000; -964.000
382.612;  629.850; -872.000; -644.000
382.742;  329.725; -695.000; -622.000
382.872;  179.600; -565.000; -551.000
383.002;   52.750;  347.000; -132.000
383.131;  -34.000; -226.000; -160.000
383.261;  -56.750; -706.000; -768.000
383.391;  277.000; -552.000; -377.000
383.521; 3406.600;  451.000;  263.000
383.650;  790.175; -947.000; -904.000
383.780;  -38.000; -783.000; -656.000
383.910;   96.125;  880.000;  802.000
384.039;   -6.550; -794.000; -656.000
384.169;  119.050;-1205.000;-1017.000
384.299;  -40.250; -650.000; -662.000
384.428; -122.225; -764.000; -680.000
384.558;  -56.675; -308.000; -275.000
384.687;  -60.575; -414.000; -334.000
384.817;   -8.625;   75.000;   -2.000
384.947;   -0.975; -234.000; -141.000
385.076;  248.750;  982.000;  912.000
385.206;   80.475;  369.000;  480.000
385.335;  -57.425; -549.000; -417.000
385.465;  -95.550; -655.000; -663.000
385.594;  104.225;  -53.000;  -44.000
385.724;  301.100; -868.000; -838.000
385.853;   89.850; -296.000; -270.000
385.982; 1154.350; -743.000; -787.000
386.112; 1767.900;-1052.000; -871.000
386.241;   99.925; -307.000; -312.000
386.371;    0.700; -174.000;  -87.000
386.500;  -37.150; -825.000; -789.000
386.629;   -3.450; -874.000; -817.000
386.759;   40.600;  -43.000;   68.000
386.888;  -29.925; -170.000; -250.000
387.017; -105.575; -648.000; -620.000
387.147;  -92.975; -771.000; -798.000
387.276;  -33.900; -410.000; -397.000
387.405;  -15.675; -398.000; -342.000
387.535;  -73.950; -452.000; -361.000
387.664;  -67.750; -692.000; -620.000
387.793;   31.025; -198.000; -113.000
387.922;  403.675;  255.000;  200.000
388.052;  -20.925; -576.000; -423.000
388.181;  -26.850; -342.000; -472.000
388.310;  -40.325; -889.000; -710.000
388.439;  -73.200; -749.000; -742.000
388.568;  142.750;  365.000;  244.000
388.697;  838.550; -756.000; -653.000
388.826;  162.100; -768.000; -666.000
388.956;   28.150; -285.000; -307.000
389.085;  -49.300; -347.000; -287.000
389.214; -112.000; -842.000; -872.000
389.343;  -67.525; -645.000; -413.000
389.472;  410.625;  126.000;  149.000
389.601;  478.625;   91.000;    0.000
389.730;   -7.675; -568.000; -687.000
389.859;   35.000;  226.000;   46.000
389.988;  138.525; -423.000; -408.000
390.117;  101.900; -168.000; -146.000
390.246;  -25.050; -331.000; -320.000
390.375;   48.800; -673.000; -626.000
390.504;  -86.800; -703.000; -621.000
390.633; -112.725; -672.000; -726.000
390.761;  -99.325; -732.000; -645.000
390.890;   -0.450;   -4.000; -130.000
391.019;  -52.375; -421.000; -441.000
391.148; -142.475; -826.000; -855.000
391.277;  -76.625; -576.000; -493.000
391.406; -109.275; -821.000; -805.000
391.534;   13.275;  574.000; -301.000
391.663;  -82.125; -583.000; -645.000
391.792; -103.850; -673.000; -701.000
391.921;   61.625;   -3.000;   15.000
392.050;  124.900; -287.000; -228.000
392.178;  -78.450;-1206.000;-1061.000
392.307;   98.675; -758.000; -712.000
392.436;   39.650; -427.000; -641.000
392.564;   10.700;  166.000;   -6.000
392.693; -117.350; -860.000; -682.000
392.822;  137.750; -529.000; -534.000
392.950;   46.500; -880.000; -714.000
393.079;  250.350; -188.000; -328.000
393.208;   -8.100; -488.000; -511.000
393.336;  -17.300; -170.000; -145.000
393.465;  -66.300; -317.000; -199.000
393.593;    3.175;   62.000;   79.000
393.722; -163.175;-1121.000; -916.000
393.850;  -33.950; -188.000;  -61.000
393.979; -166.425; -926.000; -805.000
394.107;  -64.775; -517.000; -537.000
394.236;  -56.825; -570.000; -507.000
394.364;  170.900;  383.000;  206.000
394.493;  169.925; -911.000; -767.000
394.621;  -43.725; -955.000; -916.000
394.750;  733.475; -873.000; -923.000
394.878; 3072.475; -247.000; -149.000
395.007; 4098.425; -721.000; -807.000
395.135;  304.450; -790.000; -721.000
395.263;  -97.625;-1038.000;-1040.000
395.392;   -7.950;  -25.000; -107.000
395.520; -155.450; -818.000; -679.000
395.648; -101.600; -865.000; -915.000
395.777;  -53.125; -366.000; -405.000
395.905;  -72.800; -449.000; -564.000
396.033;   -6.425;  217.000;  172.000
396.162;  349.350; -399.000; -453.000
396.290;  315.375;  -17.000;   -2.000
396.418;   50.425; -555.000; -514.000
396.546;  -92.400; -571.000; -466.000
396.674; -126.550; -850.000; -878.000
396.803;  -10.025;  -72.000;  -23.000
396.931;   51.350; -179.000; -199.000
397.059;  -15.200;-1026.000; -989.000
397.187; -133.475;-1026.000; -975.000
397.315; -142.925; -884.000; -649.000
397.443;  -97.600; -592.000; -443.000
397.572;  -97.000; -578.000; -424.000
397.700;  -51.900; -607.000; -614.000
397.828;    1.875;  120.000;  -90.000
397.956;  -53.525; -508.000; -478.000
398.084;  -81.875; -767.000; -626.000
398.212;   24.875;  137.000;  124.000
398.340;   -7.475;  -56.000;  159.000
398.468;    0.375; -390.000; -169.000
398.596; -143.050; -993.000; -953.000
398.724; -129.900; -762.000; -767.000
398.852; -179.000;-1024.000; -976.000
398.980;  -65.725; -560.000; -560.000
399.108;  -78.150; -982.000; -735.000
399.236;   16.900;   13.000;    8.000
399.363;   22.775;  222.000;  196.000
399.491;  -74.075; -404.000; -398.000
399.619; -144.975; -829.000; -800.000
399.747; -118.800; -859.000; -771.000
399.875;   70.425;  220.000;  234.000
400.003;  -66.100; -359.000; -284.000
400.130;  -92.700; -421.000; -341.000
400.258;  -36.450;  -83.000;   38.000
400.386;  -80.700; -352.000; -168.000
400.514;  -58.825; -526.000; -587.000
400.641; -121.650; -928.000; -802.000
400.769; -154.025; -979.000; -888.000
400.897; -136.300; -838.000; -793.000
401.025;  -43.600; -166.000; -152.000
401.152;   -3.175;  220.000;   38.000
401.280;  -81.200; -430.000; -429.000
401.408; -127.850; -712.000; -576.000
401.535; -112.775; -735.000; -758.000
401.663; -196.750;-1134.000;-1054.000
401.790;  -90.175; -514.000; -525.000
401.918;   14.725;  436.000;  405.000
402.046;  -31.500;  134.000;  122.000
402.173;  -58.225;  -18.000;    7.000
402.301;  -79.725; -519.000; -397.000
402.428;   33.050;  528.000;  383.000
402.556; -158.175;-1188.000; -913.000
402.683;  -49.325;  -20.000;   -1.000
402.811;  -31.675;  -37.000; -206.000
402.938;  -27.075;   20.000;   27.000
403.066;  145.225; -574.000; -558.000
403.193;  264.525;  299.000;  239.000
403.321;  217.875; -396.000; -574.000
403.448;  264.025;   83.000;   27.000
403.575;  111.025;  -90.000;  -46.000
403.703;  -95.400; -732.000; -557.000
403.830;  -83.650; -531.000; -496.000
403.957; -154.875;-1117.000;-1023.000
404.085;   -0.500;  -61.000; -172.000
404.212;   80.625;  -50.000;   63.000
404.339;  256.450; -566.000; -306.000
404.467; 6078.775; -612.000; -524.000
404.594; 3696.475; -287.000; -227.000
404.721;  792.525; -869.000; -764.000
404.848;   58.350; -113.000; -202.000
404.976; -125.875; -856.000; -783.000
405.103;  -18.450;  -14.000;  -82.000
405.230;   -9.975;  190.000;  226.000
405.357;    2.250;  117.000;   44.000
405.484;  257.525;  -49.000;    5.000
405.612;   25.475; -548.000; -563.000
405.739;  -76.225; -488.000; -243.000
405.866;   58.900;  669.000;  385.000
405.993;  -58.625; -398.000; -102.000
406.120; -139.550; -801.000; -887.000
406.247;  -69.075; -323.000; -342.000
406.374;  377.850;  540.000;  629.000
406.501;   41.600; -632.000; -702.000
406.628;  -87.725; -621.000; -589.000
406.755; -110.675; -803.000; -620.000
406.882;  -46.550; -228.000; -277.000
407.009; -125.700; -719.000; -628.000
407.136;   22.425; -480.000; -401.000
407.263;   51.300; -939.000; -829.000
407.390;  -92.000; -692.000; -614.000
407.517; -180.850;-1139.000;-1187.000
407.644;  -70.325; -332.000; -256.000
407.771; -110.575; -249.000; -287.000
407.898;   -1.375;  168.000;  328.000
408.025;  -89.200; -421.000; -313.000
408.151;  -12.875;   82.000;  153.000
408.278;  -72.100; -267.000; -216.000
408.405; -135.700; -931.000; -899.000
408.532;  -80.550; -549.000; -542.000
408.659; -138.325; -677.000; -648.000
408.785; -221.325;-1298.000;-1170.000
408.912;  -66.775; -412.000; -296.000
409.039; -112.200; -610.000; -686.000
409.166; -114.775; -591.000; -555.000
409.292; -119.425; -571.000; -534.000
409.419; -133.250; -665.000; -649.000
409.546;  -88.650; -431.000; -192.000
409.672; -111.050; -713.000; -545.000
409.799;  -23.200;  -36.000;   34.000
409.926;  -54.300; -180.000; -179.000
410.052; -184.525;-1127.000;-1091.000
410.179;  -64.150; -368.000; -392.000
410.305; -103.600; -375.000; -493.000
410.432;  -62.375; -220.000; -333.000
410.558;  -95.200; -305.000; -380.000
410.685; -113.425; -688.000; -431.000
410.812; -115.600; -409.000; -588.000
410.938; -149.350; -964.000; -808.000
411.065; -104.400; -671.000; -645.000
411.191;  -20.450; -189.000; -174.000
411.317; -135.600; -823.000; -742.000
411.444;  -79.125; -317.000; -246.000
411.570;  -76.650; -339.000; -294.000
411.697; -133.525; -758.000; -752.000
411.823; -195.150; -989.000; -999.000
411.949;  -46.200;  -56.000;   17.000
412.076; -125.675; -539.000; -519.000
412.202; -142.550; -758.000; -757.000
412.329; -141.200; -798.000; -752.000
412.455; -125.675; -821.000; -657.000
412.581;  -38.675;  -15.000;  172.000
412.707;  -79.600; -540.000; -457.000
412.834;    6.550;  156.000;  219.000
412.960;  -85.400; -785.000; -784.000
413.086; -118.725; -743.000; -701.000
413.212;  119.800;  604.000;  578.000
413.339; -100.525; -685.000; -701.000
413.465;  -25.375; -364.000; -310.000
413.591; -113.300; -757.000; -474.000
413.717;  -73.100; -358.000; -366.000
413.843; -149.750; -839.000; -861.000
413.969;  -73.350;  -47.000; -292.000
414.096; -121.775; -679.000; -679.000
414.222;   -5.375;  -33.000;   85.000
414.348;  -55.925; -652.000; -385.000
414.474;   58.325;   38.000;  -52.000
414.600;  -25.450; -126.000; -144.000
414.726;  -25.100;  -96.000;  -55.000
414.852;  -71.125; -365.000; -342.000
414.978;   16.700;  104.000;  -18.000
415.104;   31.425;   38.000;   80.000
415.230;    6.950; -329.000; -330.000
415.356;   25.600; -409.000; -514.000
415.482;  193.800;   13.000;  -35.000
415.608;  282.300; -247.000; -323.000
415.734;  986.275;   67.000;   38.000
415.860;20609.000; -875.000; -767.000
415.986;14362.400; -685.000; -607.000
416.111; 1199.850; -798.000; -652.000
416.237;  241.550; -424.000; -571.000
416.363; 1180.375; -765.000; -733.000
416.489; 4331.525; -324.000; -251.000
416.615;  451.400; -707.000; -742.000
416.741;  -31.500; -677.000; -784.000
416.866; -114.800; -673.000; -736.000
416.992; -124.825; -801.000; -818.000
417.118;  -24.300;  -41.000;  -80.000
417.244;  -88.350; -798.000; -531.000
417.369;  -87.700; -801.000; -612.000
417.495;  -32.975; -325.000; -254.000
417.621; -101.525;-1015.000; -803.000
417.746;  -17.150; -579.000; -572.000
417.872;   36.700; -254.000; -144.000
417.998;   46.625; -515.000; -530.000
418.123; 1118.925;-1073.000; -845.000
418.249; 5585.125; -512.000; -601.000
418.374;  745.275; -916.000; -824.000
418.500;  109.925; -383.000; -482.000
418.626;  108.525;   70.000;  -59.000
418.751;   96.850; -549.000; -448.000
418.877;  192.250; -637.000; -643.000
419.002; 1931.300; -688.000; -560.000
419.128;13126.700; -930.000; -721.000
419.253; 3085.175; -967.000; -837.000
419.379;  407.175; -391.000; -338.000
419.504;  389.775;  325.000;  415.000
419.629;  547.750; -393.000; -212.000
419.755; 3929.875; -317.000; -254.000
419.880;22462.425;  -98.000;   67.000
420.006;11973.700; -280.000; -221.000
420.131;30260.950; -662.000; -775.000
420.256; 4174.025; -315.000; -316.000
420.382;  547.300; -665.000; -687.000
420.507;   62.700; -649.000; -778.000
420.632;   91.650; -337.000; -339.000
420.758;  174.850; -251.000; -425.000
420.883;  -90.600; -876.000; -672.000
421.008; -110.875; -775.000; -619.000
421.133;  -99.925; -509.000; -467.000
421.259;  -45.800; -325.000; -259.000
421.384; -133.575; -834.000; -693.000
421.509;  -81.075;-1052.000; -862.000
421.634;  871.300; -936.000; -820.000
421.759;  349.975; -359.000; -327.000
421.885;  -87.875; -717.000; -656.000
422.010;  -92.225; -673.000; -542.000
422.135; -165.800; -695.000; -727.000
422.260;   37.025;  340.000;  280.000
422.385;  -53.850;   12.000;  -98.000
422.510;   -2.150;  151.000;  -26.000
422.635;   -1.675;  -87.000;  -43.000
422.760;   78.300; -766.000; -791.000
422.885;   26.300;  -57.000;  -80.000
423.010;  -40.450; -112.000; -169.000
423.135; -106.775; -481.000; -561.000
423.260;  -34.150; -150.000; -245.000
423.385;   52.250;  476.000;  222.000
423.510;   19.350;   71.000;  -22.000
423.635;   56.475;  133.000;   45.000
423.760;   50.275;  383.000;  328.000
423.885;   44.950;  336.000;  391.000
424.010;   -7.100;  -68.000;  -13.000
424.135;  -34.125;    5.000;  -33.000
424.259; -107.700; -654.000; -457.000
424.384;  -65.875; -279.000; -272.000
424.509;  -34.250; -260.000; -186.000
424.634; -102.025; -761.000; -623.000
424.759;  -41.275; -688.000; -544.000
424.883;  -35.850; -506.000; -527.000
425.008;  180.000; -502.000; -410.000
425.133; 2081.650; -679.000; -653.000
425.258;  907.100; -517.000; -381.000
425.382;  923.975; -867.000; -774.000
425.507; 2266.900; -487.000; -543.000
425.632;  382.525; -802.000; -663.000
425.756;  467.375; -256.000; -146.000
425.881; 7265.850; -831.000; -857.000
426.006;18878.800; -604.000; -355.000
426.130; 2817.475; -696.000; -508.000
426.255;  354.925; -611.000; -491.000
426.379;  137.850; -189.000; -577.000
426.504;  371.075;  660.000;  544.000
426.629; 4189.125; -519.000; -466.000
426.753; 2777.875;   64.000;  -46.000
426.878;  292.575; -252.000; -288.000
427.002;  177.050; -651.000; -668.000
427.127; 1686.400;  -35.000; -158.000
427.251;11929.475;  372.000;  401.000
427.375; 3206.000; -191.000; -173.000
427.500; 2060.450; -616.000; -610.000
427.624;  659.575; -234.000; -400.000
427.749;   69.975; -216.000; -225.000
427.873;  -52.400; -499.000; -412.000
427.997;  -54.100; -222.000; -230.000
428.122;   65.200;  795.000;  703.000
428.246;   57.800;  433.000;  434.000
428.371; -149.100; -869.000; -773.000
428.495; -110.400; -624.000; -646.000
428.619;  -41.075; -186.000; -117.000
428.743;   25.375;   65.000;  132.000
428.868;  -26.625; -732.000; -643.000
428.992; 1237.925; -219.000; -326.000
429.116;  427.775; -329.000; -357.000
429.240;  207.450;  419.000;  426.000
429.365;  -54.675; -454.000; -574.000
429.489;  -57.025; -638.000; -647.000
429.613;   -0.475; -236.000; -177.000
429.737;   37.825; -563.000; -432.000
429.861;  240.050; -247.000; -133.000
429.985; 5879.150; -425.000; -305.000
430.109; 6218.025; -770.000; -908.000
430.234;  688.950;   76.000;  -50.000
430.358;   42.175; -250.000; -160.000
430.482;  -90.775; -672.000; -564.000
430.606;  -70.525; -655.000; -375.000
430.730;  -18.575; -437.000; -388.000
430.854;   54.050; -909.000; -835.000
430.978; -100.150; -795.000; -764.000
431.102; -114.625; -499.000; -422.000
431.226; -129.700; -874.000; -815.000
431.350;   -0.100;  345.000;  422.000
431.474;  -76.175; -661.000; -373.000
431.597; -162.000;-1060.000; -848.000
431.721;  -86.200; -276.000; -267.000
431.845; -146.325; -704.000; -472.000
431.969;  -80.475; -304.000; -349.000
432.093; -104.025; -395.000; -317.000
432.217;  -21.900;   32.000;   82.000
432.341; -104.050; -523.000; -518.000
432.464;  -16.800;   96.000;   40.000
432.588;  130.150; -401.000; -329.000
432.712;   49.975;  -52.000;  -52.000
432.836;   41.075;  213.000;  263.000
432.959;  -31.350; -372.000; -311.000
433.083;   65.400;   11.000;    2.000
433.207;  388.700;  285.000;  930.000
433.330; 5395.500; -391.000; -200.000
433.454; 6416.900; -654.000; -638.000
433.578; 3706.900;  583.000;  278.000
433.701;  625.925; -623.000; -675.000
433.825;   90.775; -292.000; -299.000
433.949;  120.250;   28.000;  -72.000
434.072;    0.425; -410.000; -323.000
434.196;  -16.400; -309.000; -117.000
434.319; 3767.025;25482.000;25124.000
434.443;  714.600; -656.000; -603.000
434.566; 2747.375;  281.000;   62.000
434.690;  421.775; -637.000; -383.000
434.813;   25.200; -251.000; -173.000
434.937;  -78.225; -569.000; -696.000
435.060;  -72.400; -423.000; -332.000
435.184;  197.375; -492.000; -217.000
435.307;   91.025;  159.000;  102.000
435.431;  -24.425;  -40.000;   24.000
435.554;  -96.950; -399.000; -240.000
435.677; -101.150; -350.000; -258.000
435.801;  -42.400;  -25.000;   49.000
435.924;  -32.775;    1.000;  -67.000
436.048; -140.775;-1019.000; -732.000
436.171;  -86.050; -240.000;  -66.000
436.294;  -21.125; -248.000; -229.000
436.417;   86.175; -963.000; -849.000
436.541; -102.850; -814.000; -840.000
436.664;  -59.550; -242.000; -316.000
436.787;  -37.175;   13.000;  113.000
436.910; -124.575; -792.000; -422.000
437.034;  -14.700;  142.000;  143.000
437.157;   26.825;  -11.000;    0.000
437.280;  -79.300; -392.000; -292.000
437.403; -111.450; -982.000; -869.000
437.526;  435.375; -903.000; -865.000
437.649; 1695.450; -505.000; -332.000
437.772;  193.700; -692.000; -540.000
437.896;   89.775;  700.000;  544.000
438.019; -119.925; -758.000; -503.000
438.142;  -90.125; -596.000; -506.000
438.265;  -60.700; -639.000; -670.000
438.388;  402.925; -520.000; -410.000
438.511;   34.000; -597.000; -394.000
438.634;  -64.925; -247.000; -125.000
438.757; -142.600; -693.000; -619.000
438.880;  -36.800;  -34.000;  -57.000
439.003;  -90.375; -417.000; -437.000
439.126;  -73.950; -287.000; -167.000
439.248;  -56.275;  -98.000; -139.000
439.371;  -47.425;    9.000;  -53.000
439.494;   19.175;  510.000;  439.000
439.617;  -77.775;   65.000;  -88.000
439.740; -198.675; -968.000; -816.000
439.863; -161.250; -755.000; -595.000
439.986; -127.350; -476.000; -431.000
440.108;  -57.250; -161.000; -112.000
440.231; -186.675; -950.000; -836.000
440.354;  -44.600;  -64.000; -150.000
440.477;  -14.825; -566.000; -542.000
440.599;  -27.500; -200.000; -225.000
440.722; -143.600; -709.000; -586.000
440.845;   60.825;  751.000;  928.000
440.968; -118.500; -415.000; -311.000
441.090;  -66.800; -199.000;  -33.000
441.213; -183.650;-1021.000; -825.000
441.336;  -53.625; -159.000;   -5.000
441.458;  -92.150; -549.000; -396.000
441.581; -107.450; -628.000; -629.000
441.703;  -77.675; -152.000;   13.000
441.826; -119.500; -557.000; -400.000
441.948;  -49.900;   56.000;   51.000
442.071;   29.800;  555.000;  424.000
442.193; -128.400; -531.000; -485.000
442.316;    6.300;  152.000;   97.000
442.438;   25.725; -233.000;  -10.000
442.561;   49.875;  272.000;  262.000
442.683;  375.300; -809.000; -522.000
442.806;  852.675;   -8.000;   74.000
442.928;  -40.350; -859.000; -604.000
443.051;  -90.700; -577.000; -373.000
443.173; -101.950; -341.000; -339.000
443.295; -108.275; -263.000; -371.000
443.418;  -91.575; -321.000;  -29.000
443.540;  -25.150; -106.000;   -4.000
443.662; -123.825; -563.000; -465.000
443.785;  -16.050;  335.000;  199.000
443.907; -123.450; -362.000; -208.000
444.029; -142.125; -767.000; -494.000
444.152; -155.275; -644.000; -554.000
444.274;  -35.250;  -18.000;  -24.000
444.396; -125.275; -461.000; -221.000
444.518; -148.600; -691.000; -454.000
444.640; -105.475; -268.000; -111.000
444.763;  -23.575;  388.000;  249.000
444.885; -152.575; -432.000; -392.000
445.007;  -35.350;   35.000;   86.000
445.129; -143.100; -610.000; -515.000
445.251; -117.275; -372.000; -439.000
445.373; -161.775; -537.000; -386.000
445.495;   -2.700;  242.000;  350.000
445.617;   43.850;  853.000;  753.000
445.739;  -87.650; -215.000;  -97.000
445.861;  -68.650; -245.000; -112.000
445.984;  -46.925; -267.000; -101.000
446.105;  117.250; -418.000; -251.000
446.227;  467.700; -176.000;  -19.000
446.349;  -43.825; -358.000; -249.000
446.471; -114.275; -615.000; -448.000
446.593;  -80.675; -316.000;   19.000
446.715;   -8.400;  -67.000;   41.000
446.837;   62.450;  697.000;  832.000
446.959; -110.900; -457.000; -478.000
447.081; -148.125; -628.000; -518.000
447.203;   58.025;  862.000;  834.000
447.325; -103.100; -270.000;   42.000
447.446;   -7.500;  286.000;  530.000
447.568; -170.750; -921.000; -803.000
447.690;  -75.925; -236.000; -245.000
447.812; -173.950; -798.000; -519.000
447.933;  -31.750;  155.000;  127.000
448.055;  -89.850; -306.000; -261.000
448.177;  111.100;   31.000;   79.000
448.299;   17.250; -935.000; -727.000
448.420;    9.975;  -25.000;  159.000
448.542;  -64.325;   -3.000;   33.000
448.664;  -17.275;  109.000;  322.000
448.785;  -47.275;  265.000;   83.000
448.907;  -93.000; -614.000; -353.000
449.028;  -62.825; -771.000; -471.000
449.150;   52.675;  492.000;  589.000
449.272; -199.300;-1044.000; -913.000
449.393;   23.175;  612.000;  694.000
449.515; -146.900; -634.000; -581.000
449.636;  -71.575; -264.000; -155.000
449.758;   58.300;  763.000;  622.000
449.879; -109.275; -498.000; -396.000
450.001;  -92.275; -149.000;  -49.000
450.122;  -46.225;  -95.000;  162.000
450.244;  -28.450;   37.000;  364.000
450.365;  -96.675; -495.000; -301.000
450.486;  -36.675;   80.000;  268.000
450.608;    8.900;  393.000;  326.000
450.729;   63.800;  578.000;  645.000
450.850;    4.900; -574.000; -466.000
450.972;  814.525; -552.000; -389.000
451.093; 5247.225;  190.000;  588.000
451.214; 2188.350; -516.000; -337.000
451.336;  403.825;  773.000;  579.000
451.457;   57.675;  264.000;  393.000
451.578;  -39.025; -118.000;  -74.000
451.699; -135.825; -546.000; -540.000
451.821;  -81.100; -284.000;  -50.000
451.942;  -16.825;  278.000;  285.000
452.063;   32.850;  228.000;  419.000
452.184;  585.050;  -54.000;  -49.000
452.305; 1127.575;  103.000;  170.000
452.427;   99.650; -549.000; -301.000
452.548;  -34.575;   23.000;   79.000
452.669;  -78.525; -257.000;  -89.000
452.790;  -50.125;    3.000;  -18.000
452.911;  -19.300;  195.000;  259.000
453.032;  -78.600; -289.000;  -60.000
453.153;  -62.575;  -29.000;   81.000
453.274;   50.600;  737.000;  868.000
453.395;  -72.100;  -51.000;  175.000
453.516;  103.475; 1317.000; 1388.000
453.637;  -82.100; -205.000; -150.000
453.758;  -69.475;   15.000;   69.000
453.879; -131.725; -462.000; -250.000
454.000;   82.400; 1086.000;  948.000
454.121; -135.625; -554.000; -326.000
454.242; -136.725; -599.000; -383.000
454.362;  -58.025;  -99.000;  114.000
454.483;  -48.625; -309.000; -229.000
454.604;   34.975;  512.000;  580.000
454.725; -136.925; -627.000; -555.000
454.846; -133.525; -474.000; -406.000
454.967;  -34.300;  230.000;  539.000
455.087;  -53.175;  179.000;  153.000
455.208;   13.525;  554.000;  856.000
455.329;  -74.525;  -22.000;   82.000
455.450;   33.025;  473.000;  633.000
455.570;  -95.850; -234.000; -211.000
455.691;  -65.825;  201.000;  407.000
455.812; -115.525; -270.000;  -92.000
455.932;  -61.400;  107.000;  -97.000
456.053;  -96.775;   36.000;   24.000
456.173; -119.700; -433.000; -355.000
456.294; -147.875; -476.000; -303.000
456.415;  -69.975;  -73.000;   70.000
456.535;  -50.525;  297.000;  273.000
456.656;  -58.700;  132.000;  240.000
456.776;  -74.375;    3.000;  298.000
456.897;  -17.700;  308.000;  513.000
457.017;  -88.300; -153.000;   -3.000
457.138; -117.100; -402.000; -249.000
457.258;  -48.175;  263.000;  224.000
457.379;  -29.250;  509.000;  521.000
457.499;  -30.225;  443.000;  432.000
457.620; -128.175; -407.000; -231.000
457.740; -112.775; -132.000;  -11.000
457.860;  -62.300;   87.000;   44.000
457.981;  -55.200;  132.000;  124.000
458.101;  -83.150;  -89.000;   40.000
458.221;  -22.350;  336.000;  402.000
458.342;  -61.250;   -4.000;  -37.000
458.462;   30.825;  617.000;  352.000
458.582;  -40.450; -302.000; -294.000
458.703;    6.675;  303.000;  154.000
458.823;  -26.225;   22.000;  163.000
458.943;   21.850;  341.000;  467.000
459.063;  -14.500; 1124.000;  192.000
459.183;  -36.600;  328.000;  313.000
459.304;   -6.575;  315.000;  517.000
459.424;  -79.275; -246.000;  -89.000
459.544;  344.575;  388.000;  764.000
459.664;  870.375;  499.000;  506.000
459.784;  301.575; 1004.000; 1175.000
459.904;   43.700;  867.000;  744.000
460.024;   62.500;  867.000;  684.000
460.144;    6.650;  449.000;  554.000
460.264;   -3.500;  515.000;  327.000
460.385; -110.150; -145.000; -119.000
460.505;   31.525;  905.000;  858.000
460.625; -104.500;  -17.000;  -68.000
460.745;  -12.125;  396.000;  541.000
460.864;  -52.775;  153.000;  469.000
460.984;    2.550;  499.000;  573.000
461.104;  136.550; 1656.000; 1775.000
461.224;   10.500;  657.000;  650.000
461.344;  -37.400;  431.000;  360.000
461.464;  -38.500;  258.000;  513.000
461.584;  -42.125;  283.000;  466.000
461.704;  -56.475;   58.000;  108.000
461.824;  -64.000;  238.000;  259.000
461.943;  -48.175;  191.000;  130.000
462.063;  -83.500;    2.000;  324.000
462.183;   19.575;  639.000;  717.000
462.303;  100.375; 1678.000; 1230.000
462.422;    9.150;  781.000;  840.000
462.542;  -63.600;  271.000;  391.000
462.662;   32.525;  353.000;  380.000
462.782;  252.750;  833.000;  572.000
462.901;  491.400;  545.000;  717.000
463.021;  258.875; 1702.000; 1638.000
463.141;  -17.175;  337.000;  770.000
463.260;  -18.175;  614.000;  474.000
463.380;    2.025;  902.000;  884.000
463.499;  -43.825;  342.000;  332.000
463.619;  -32.300;  581.000;  559.000
463.738;   98.750; 1644.000;  903.000
463.858;   12.425;  657.000;  811.000
463.978;  -50.075;  542.000;  396.000
464.097;   49.750;  921.000; 1114.000
464.217;  108.250; 1196.000; 1143.000
464.336;  112.125; 1068.000; 1130.000
464.455;  -52.825;  328.000;  659.000
464.575;   39.750;  597.000;  602.000
464.694;  155.700; 1204.000; 1179.000
464.814;  126.525; 1190.000; 1138.000
464.933;   62.725; 1095.000; 1027.000
465.052;   95.800; 1412.000; 1054.000
465.172;   66.150;  922.000;  799.000
465.291;  116.300; 1376.000; 1320.000
465.410;   -3.525;  462.000;  735.000
465.530;   74.400; 1355.000; 1310.000
465.649;   59.875; 1209.000; 1273.000
465.768;  127.575; 1673.000; 1508.000
465.888;   44.500;  941.000; 1174.000
466.007;   86.850; 1335.000; 1440.000
466.126;  -11.775;  721.000;  641.000
466.245;   31.725; 1176.000; 1187.000
466.364;    1.900;  950.000; 1060.000
466.484;   56.050; 1024.000; 1213.000
466.603;   15.050; 1101.000; 1222.000
466.722;  113.150; 1490.000; 1769.000
466.841;   72.850; 1151.000; 1401.000
466.960;   31.450; 1069.000;  972.000
467.079;  126.550; 1971.000; 1786.000
467.198;   52.150; 1238.000; 1181.000
467.317;   85.750; 1768.000; 1162.000
467.436;   67.600; 1709.000; 1261.000
467.555;  115.750; 1796.000; 1746.000
467.674;   67.350; 1227.000; 1329.000
467.793;   36.250; 1376.000; 1374.000
467.912;   71.725; 1658.000; 1539.000
468.031;  118.050; 2038.000; 1930.000
468.150;  143.850; 1842.000; 1837.000
468.269;  183.350; 2313.000; 2090.000
468.388;  191.250; 2168.000; 2339.000
468.507;  243.575; 2884.000; 2903.000
468.626;  275.025; 2555.000; 2541.000
468.744;  120.075; 2018.000; 2174.000
468.863;  196.875; 2312.000; 2523.000
468.982;   90.675; 1503.000; 1555.000
469.101;  205.275; 2788.000; 2692.000
469.220;  145.450; 2333.000; 2176.000
469.338;  249.700; 2935.000; 3051.000
469.457;  197.125; 2719.000; 2545.000
469.576;  338.150; 3953.000; 3784.000
469.695;  238.225; 2877.000; 3066.000
469.813;  427.500; 4148.000; 4192.000
469.932;  407.475; 4255.000; 4485.000
470.051;  422.550; 4075.000; 4161.000
470.169;  885.575; 4470.000; 4338.000
470.288; 1496.000; 4700.000; 4809.000
470.406;  876.175; 5059.000; 5194.000
470.525;  618.975; 6101.000; 5787.000
470.644;  629.825; 6847.000; 6794.000
470.762;  808.300; 8397.000; 7873.000
470.881;  894.550; 8651.000; 8464.000
470.999; 1061.200; 9685.000; 9151.000
471.118; 1109.100;11174.000;10711.000

