
Integration time [ms]: 200.000
Averaging Nr. [scans]: 10
Smoothing Nr. [pixels]: 0
Data measured with spectrometer [name]: 2101012U2
Wave   ;Sample   ;Dark     ;Reference
[nm]   ;[counts] ;[counts] ;[counts] 

197.733;  155.500;  516.000;  404.000
197.879; -190.800; -610.000; -634.000
198.025;  -69.300; -475.000; -420.000
198.171; -170.000; -602.000; -612.000
198.317;  -69.700; -401.000; -316.000
198.463; -164.800; -655.000; -404.000
198.609;   64.700;  181.000; -137.000
198.755; -207.500; -644.000; -410.000
198.901; -127.500; -505.000; -424.000
199.047; -152.700; -615.000; -488.000
199.193;  -70.900; -230.000; -468.000
199.339; -105.100; -222.000; -369.000
199.485;   72.800;  330.000;  271.000
199.631;   37.200;  227.000;  310.000
199.777; -111.900; -466.000; -398.000
199.923; -139.400; -610.000; -424.000
200.069;    1.200; -141.000;  -58.000
200.215;   89.600;  128.000;  453.000
200.361;  102.400;  243.000;  477.000
200.507; -157.700; -600.000; -373.000
200.653;  -76.900; -371.000; -194.000
200.798; -111.300; -215.000; -125.000
200.944;   15.400; -146.000;  -41.000
201.090;   70.600;   61.000;  222.000
201.236;   10.500; -116.000; -158.000
201.382;  235.700;  874.000;  903.000
201.528;   -8.300;  -58.000;  -48.000
201.674; -101.700; -386.000; -293.000
201.819; -106.500; -540.000; -439.000
201.965; -183.600; -699.000; -447.000
202.111;  -46.100; -273.000; -226.000
202.257; -109.600; -250.000; -238.000
202.402;   40.000;   13.000;  -36.000
202.548;  -98.800; -169.000; -116.000
202.694;  181.300;  410.000; -183.000
202.840; -195.500; -603.000; -531.000
202.985; -167.600; -681.000; -639.000
203.131; -227.800; -832.000; -666.000
203.277;  -49.400; -199.000; -262.000
203.423; -177.900; -434.000; -520.000
203.568;  -86.200; -462.000; -237.000
203.714; -155.300; -535.000; -542.000
203.860; -163.100; -682.000; -641.000
204.005;   35.500;  112.000;  167.000
204.151;  206.500;  561.000;  556.000
204.296; -107.700; -354.000; -221.000
204.442; -139.800; -600.000; -547.000
204.588; -168.300; -592.000; -579.000
204.733;   54.300;  178.000;  168.000
204.879; -311.800;-1018.000; -822.000
205.025;   56.400;  -99.000;  126.000
205.170;   14.700;  -17.000;   94.000
205.316;  179.200;  438.000;  661.000
205.461; -168.900; -698.000; -554.000
205.607;  194.600;  609.000;  665.000
205.752; -190.700; -626.000; -551.000
205.898;  -99.500; -501.000; -391.000
206.043; -134.100; -578.000; -506.000
206.189;  -60.200; -243.000; -285.000
206.334;  128.100;  554.000;  606.000
206.480;  199.100;  409.000;  239.000
206.625; -193.300; -529.000; -552.000
206.771;  -82.200; -451.000; -373.000
206.916;  -64.900; -210.000; -537.000
207.062; -120.600; -545.000; -591.000
207.207; -158.300; -546.000; -443.000
207.353;  110.400;  185.000;  460.000
207.498;   36.800;  196.000;   85.000
207.643;  -93.700; -501.000; -370.000
207.789; -269.400;-1069.000; -910.000
207.934; -190.400; -665.000; -713.000
208.080;  -38.000; -154.000;   66.000
208.225;    8.500;  -22.000;  -57.000
208.370; -183.200; -727.000; -619.000
208.516; -166.800; -741.000; -487.000
208.661;  -85.900; -127.000;  -69.000
208.806;   -7.700; -165.000; -171.000
208.952; -276.700;-1044.000; -731.000
209.097;  154.200;  378.000;  349.000
209.242; -120.900; -307.000; -382.000
209.387;  145.100;  392.000;  350.000
209.533; -135.200; -321.000; -350.000
209.678;  181.200;  472.000;  543.000
209.823; -151.900; -408.000; -310.000
209.969; -176.900; -860.000; -757.000
210.114; -225.200; -907.000; -719.000
210.259; -238.700; -939.000; -889.000
210.404;  -29.500; -171.000;  103.000
210.549;   25.100;  108.000;    3.000
210.695;  -68.800;   -3.000;  -95.000
210.840;   95.400;   94.000;   67.000
210.985; -133.000; -484.000; -303.000
211.130;  178.200;  268.000;  406.000
211.275;   25.100;  207.000;  199.000
211.420;  -96.500; -300.000; -289.000
211.566; -171.000; -536.000; -489.000
211.711;   82.800;  218.000;  157.000
211.856; -173.400; -545.000; -519.000
212.001;   14.500;  151.000;   44.000
212.146;  -12.700;  153.000;   49.000
212.291;   -9.500; -210.000; -186.000
212.436;  -66.600; -280.000;   -6.000
212.581; -180.000; -685.000; -653.000
212.726; -168.200; -487.000; -538.000
212.871;  -85.300; -552.000; -217.000
213.016; -349.200;-1172.000;-1029.000
213.161;  153.500;  406.000;  291.000
213.306; -172.200; -435.000; -577.000
213.451; -179.800; -778.000; -689.000
213.596; -122.800; -455.000; -347.000
213.741; -101.500; -448.000; -538.000
213.886; -195.900; -498.000; -517.000
214.031;  -40.500; -294.000; -124.000
214.176;  -97.500; -408.000; -341.000
214.321;  -34.400; -296.000; -157.000
214.466;  -38.300; -163.000;  -43.000
214.611;  -11.500;  -61.000;  -10.000
214.756; -266.200; -948.000; -858.000
214.901;  -60.100; -388.000; -226.000
215.046; -267.500; -797.000; -825.000
215.191;   43.500;  128.000;   35.000
215.336;  -46.900; -157.000;  -19.000
215.480; -126.900; -684.000; -505.000
215.625;  -31.700; -175.000;  -19.000
215.770; -155.700; -757.000; -662.000
215.915;  -15.100;   -5.000;  -97.000
216.060;   22.300; -113.000;  -21.000
216.205; -263.800; -731.000; -779.000
216.349; -162.900; -470.000; -533.000
216.494; -293.500; -939.000; -867.000
216.639; -228.800; -823.000; -888.000
216.784; -186.700; -577.000; -525.000
216.929;  139.500;  392.000;  281.000
217.073;  -20.700; -244.000;  -31.000
217.218;   35.700;   78.000;  -47.000
217.363; -198.000; -656.000; -618.000
217.507; -143.300; -623.000; -588.000
217.652; -303.800; -845.000; -874.000
217.797; -171.200; -708.000; -659.000
217.942; -258.600; -856.000; -720.000
218.086;  165.000;  608.000;  539.000
218.231;  -25.000; -174.000;  -26.000
218.376;  -66.100; -337.000; -229.000
218.520;  -38.000;  -41.000;   96.000
218.665;  -46.200; -338.000; -204.000
218.810; -107.000; -275.000; -233.000
218.954;   69.200;  201.000;   35.000
219.099; -239.800; -713.000; -963.000
219.243; -122.400; -589.000; -554.000
219.388;  -67.700; -264.000; -136.000
219.532;    9.400; -116.000; -116.000
219.677; -151.600; -564.000; -521.000
219.822;   65.400;   33.000;   89.000
219.966;  -13.600;   17.000;  -99.000
220.111;  -65.200; -328.000;  -40.000
220.255; -238.700; -797.000; -750.000
220.400;  -14.000; -180.000; -146.000
220.544; -183.100; -516.000; -450.000
220.689; -106.200; -422.000; -451.000
220.833;  -33.300; -123.000;  -58.000
220.978;  -74.600; -393.000; -563.000
221.122;   21.900;  319.000;  307.000
221.267; -242.800; -906.000; -837.000
221.411; -187.400; -478.000; -394.000
221.555;  -25.900; -104.000;  -23.000
221.700; -100.600; -329.000; -222.000
221.844;  124.400;  255.000;  272.000
221.989; -134.700; -328.000; -311.000
222.133;  -64.600; -289.000; -307.000
222.277;  -16.200;    5.000;   78.000
222.422;   48.200;  227.000;  113.000
222.566;  -94.100; -381.000; -214.000
222.711;  -91.600; -414.000; -479.000
222.855; -201.200; -643.000; -586.000
222.999; -166.300; -642.000; -717.000
223.144;  -50.400; -195.000; -194.000
223.288;  146.800;  423.000;  251.000
223.432;    2.900;  184.000;  230.000
223.576;   70.000;  152.000;  -21.000
223.721;   97.700;  364.000;  273.000
223.865; -116.700; -472.000; -475.000
224.009;  430.900; 1673.000; 1631.000
224.153; -142.100; -660.000; -671.000
224.298; -160.700; -531.000; -489.000
224.442;   -6.700;  -74.000;  -33.000
224.586;  -35.600; -169.000; -106.000
224.730; -198.000; -858.000; -670.000
224.875; -262.600; -739.000; -688.000
225.019;   42.200;  102.000;  188.000
225.163;  101.200;  208.000;  341.000
225.307;   46.200;   97.000;  -91.000
225.451;   83.800;  360.000;  481.000
225.595;   68.300;  264.000;  176.000
225.739;  -37.500; -170.000;  -94.000
225.884;   28.800;   86.000;    5.000
226.028; -203.800; -760.000; -626.000
226.172;  -65.400; -260.000; -273.000
226.316; -247.000; -941.000; -902.000
226.460; -124.200; -645.000; -493.000
226.604; -142.600; -406.000; -400.000
226.748; -207.200; -836.000; -733.000
226.892;  -90.900; -227.000; -181.000
227.036;  -73.600; -537.000; -447.000
227.180; -113.500; -551.000; -375.000
227.324; -154.200; -561.000; -580.000
227.468; -260.000; -819.000; -717.000
227.612;   26.400;  242.000;  -28.000
227.756; -217.900; -845.000; -698.000
227.900;  121.500;  342.000;  441.000
228.044; -143.700; -509.000; -290.000
228.188;  172.800;  448.000;  568.000
228.332; -168.200; -546.000; -472.000
228.476;  -57.800; -223.000; -149.000
228.620;  -85.200; -210.000; -150.000
228.764;  140.700;  431.000;  349.000
228.908;  -59.100; -155.000;   30.000
229.052;  -99.400; -615.000; -528.000
229.195;  -53.900; -172.000;   13.000
229.339;  -53.100; -235.000; -305.000
229.483;  -64.200;    5.000; -162.000
229.627;    4.000; -156.000;  139.000
229.771; -128.000; -218.000; -294.000
229.915;   59.400;  230.000;   79.000
230.059; -188.500; -648.000; -663.000
230.202;  -64.800; -370.000; -317.000
230.346;  -43.300; -107.000;  107.000
230.490; -113.500; -489.000; -521.000
230.634; -254.600; -736.000; -553.000
230.777;  195.500;  478.000;  509.000
230.921; -137.300; -450.000; -359.000
231.065;  -82.700; -246.000; -286.000
231.209;   45.900;  261.000;  265.000
231.352;   55.900;   54.000;   40.000
231.496;   27.700;  568.000;  188.000
231.640; -168.300; -693.000; -621.000
231.783;   72.200;  546.000;  525.000
231.927;  -75.500; -294.000; -365.000
232.071; -286.700; -962.000; -736.000
232.214; -201.200; -980.000; -764.000
232.358; -211.400; -683.000; -599.000
232.502;   57.200;  -19.000;    7.000
232.645; -305.400;-1090.000; -927.000
232.789;  -34.700; -257.000; -218.000
232.933;  -97.900; -407.000; -224.000
233.076; -277.000;-1038.000; -897.000
233.220; -233.100; -752.000; -777.000
233.363; -145.600; -669.000; -477.000
233.507;   92.100;  371.000;  129.000
233.650; -191.600; -764.000; -834.000
233.794;   61.400;  438.000;  461.000
233.938; -106.200; -530.000; -362.000
234.081;  -76.600;  -93.000;   31.000
234.225; -135.700; -631.000; -539.000
234.368; -275.200; -773.000; -723.000
234.512;  -72.600; -385.000; -299.000
234.655; -196.200; -582.000; -555.000
234.798; -133.200; -493.000; -466.000
234.942; -277.700; -884.000;-1002.000
235.085; -154.200; -651.000; -443.000
235.229; -174.400; -405.000; -410.000
235.372;  -96.800; -247.000; -191.000
235.516; -134.900; -397.000; -321.000
235.659;   67.100;   92.000;  121.000
235.802;  -36.400;  -38.000;  -22.000
235.946;   84.100;  335.000;  215.000
236.089;   45.500;  126.000;  250.000
236.233;  126.200;  275.000;  298.000
236.376; -128.200; -235.000; -378.000
236.519; -101.300; -297.000; -319.000
236.663;  -37.500; -215.000; -117.000
236.806; -249.300;-1029.000; -999.000
236.949;  106.000;  543.000;  431.000
237.092;  151.900;  412.000;  391.000
237.236; -187.200; -589.000; -502.000
237.379;  180.100;  352.000;  428.000
237.522; -240.000; -879.000; -768.000
237.666;    1.800; -271.000;   18.000
237.809; -293.500; -851.000; -823.000
237.952;   77.800;  469.000;  271.000
238.095; -158.100; -447.000; -442.000
238.238;  200.200;  688.000;  700.000
238.382;    5.600;  166.000;  103.000
238.525; -135.700; -598.000; -511.000
238.668; -292.500;-1060.000; -985.000
238.811; -161.300; -638.000; -643.000
238.954; -120.400; -483.000; -334.000
239.097;  228.200;  617.000;  664.000
239.241;   43.000;  394.000;  326.000
239.384;  -48.600; -254.000; -214.000
239.527; -151.500; -424.000; -224.000
239.670; -271.200; -994.000;-1091.000
239.813; -244.700; -696.000; -658.000
239.956;  196.900;  579.000;  473.000
240.099; -252.500; -778.000; -725.000
240.242;  189.000;  428.000;  432.000
240.385;  128.900;  466.000;  450.000
240.528; -114.700; -706.000; -473.000
240.671;   23.300;  189.000;  134.000
240.814;  -91.600; -441.000; -158.000
240.957; -249.000; -767.000; -578.000
241.100; -173.600; -779.000; -755.000
241.243; -324.500;-1234.000; -893.000
241.386; -125.500; -508.000; -379.000
241.529; -192.400; -735.000; -547.000
241.672; -116.600; -566.000; -495.000
241.815; -261.500; -832.000; -808.000
241.958;  -32.300; -125.000; -182.000
242.101; -192.500; -545.000; -390.000
242.244;  -43.100; -270.000; -325.000
242.387;  -98.300; -304.000; -246.000
242.530;  155.600;  470.000;  134.000
242.673;  -92.900; -381.000; -309.000
242.815; -225.800; -925.000; -899.000
242.958; -140.100; -482.000; -381.000
243.101;   46.200;  132.000;  187.000
243.244; -196.900; -564.000; -521.000
243.387;  -69.100; -313.000; -316.000
243.530; -225.000; -657.000; -674.000
243.672;   11.200;   43.000;  -92.000
243.815; -146.100; -355.000; -283.000
243.958;   11.300;   98.000;  -26.000
244.101;   -3.500;   59.000;  -16.000
244.243;  -10.900;  -47.000;  101.000
244.386; -251.100; -761.000; -630.000
244.529;  -67.300; -132.000; -139.000
244.672; -331.200;-1154.000; -951.000
244.814; -181.900; -621.000; -794.000
244.957; -153.800; -380.000; -304.000
245.100; -138.900; -489.000; -489.000
245.242; -154.500; -387.000; -374.000
245.385;   21.200;  -59.000;  -39.000
245.528; -260.800; -871.000; -705.000
245.670;  217.300;  612.000;  634.000
245.813; -190.800; -599.000; -547.000
245.956;  -45.300; -324.000; -275.000
246.098; -183.100; -508.000; -650.000
246.241;   34.300;  194.000;   48.000
246.383;  -22.500; -119.000;  -73.000
246.526; -139.400; -454.000; -525.000
246.669; -253.200; -889.000; -780.000
246.811;   62.500;  172.000;   -1.000
246.954; -134.400; -512.000; -426.000
247.096;   -2.500;  -84.000;   -6.000
247.239; -146.700; -482.000; -445.000
247.381; -109.600; -647.000; -488.000
247.524;  146.600;  645.000;  679.000
247.666;    4.000;   58.000;   11.000
247.809; -272.500; -887.000; -691.000
247.951;   21.800;  -75.000;  138.000
248.094;   51.100;  432.000;  308.000
248.236; -325.500;-1262.000;-1238.000
248.378;  -12.400; -356.000;  -81.000
248.521;  -40.200; -334.000; -337.000
248.663; -111.500; -236.000; -267.000
248.806;  -28.800; -300.000; -266.000
248.948; -245.200; -886.000; -763.000
249.090;  -84.100; -428.000; -398.000
249.233; -121.400; -344.000; -381.000
249.375;  -98.900; -474.000; -451.000
249.518;  -78.000;  -83.000; -133.000
249.660;   11.900; -103.000;    3.000
249.802; -367.100;-1303.000;-1189.000
249.945; -131.600; -612.000; -540.000
250.087; -246.600; -834.000; -768.000
250.229;  -90.100; -362.000; -480.000
250.371; -176.000; -494.000; -439.000
250.514;  -77.200; -310.000; -244.000
250.656;  -20.300;   69.000;  102.000
250.798; -225.100; -849.000; -800.000
250.940; -149.300; -322.000; -322.000
251.083;  -17.400; -335.000; -111.000
251.225;  116.300;  338.000;  310.000
251.367;  -57.000; -274.000; -373.000
251.509;  -71.800; -265.000; -210.000
251.651; -197.500; -731.000; -671.000
251.794;  124.600;  538.000;  632.000
251.936; -218.000; -821.000; -747.000
252.078; -162.200; -540.000; -461.000
252.220; -114.000; -645.000; -477.000
252.362;  157.600;  344.000;  462.000
252.504; -111.100; -677.000; -584.000
252.646; -223.700; -875.000; -722.000
252.788;   14.900;   14.000; -128.000
252.931;  -89.200; -257.000; -253.000
253.073;  -33.200; -376.000; -317.000
253.215;   -5.500;  141.000;  122.000
253.357;  -15.600;   82.000; -153.000
253.499; -121.600; -374.000; -234.000
253.641; -156.200; -749.000; -594.000
253.783; -188.600; -609.000; -527.000
253.925; -153.300; -586.000; -591.000
254.067; -235.500; -744.000; -667.000
254.209;  -28.100; -391.000; -259.000
254.351; -286.000; -865.000; -883.000
254.493; -111.900; -441.000; -417.000
254.635; -232.000; -936.000; -818.000
254.777; -159.600; -752.000; -687.000
254.918; -167.800; -512.000; -430.000
255.060; -107.200; -551.000; -395.000
255.202; -117.700; -473.000; -261.000
255.344; -168.000; -658.000; -455.000
255.486; -155.200; -471.000; -406.000
255.628; -207.300; -780.000; -781.000
255.770; -203.100; -676.000; -536.000
255.912; -122.300; -559.000; -468.000
256.053; -181.300; -730.000; -508.000
256.195;  364.100; 1008.000;  903.000
256.337; -224.200; -861.000; -595.000
256.479;  156.000;  532.000;  416.000
256.621;  -96.000; -394.000; -212.000
256.762; -181.700; -789.000; -742.000
256.904;  114.200;  485.000;  487.000
257.046;  -55.100; -381.000; -271.000
257.188;  -80.300; -351.000; -264.000
257.329; -117.100; -525.000; -464.000
257.471; -259.700; -939.000; -807.000
257.613; -108.200; -584.000; -498.000
257.755; -315.500;-1073.000; -982.000
257.896;  112.200;  286.000;  392.000
258.038; -157.900; -403.000; -352.000
258.180;  -70.200; -354.000; -279.000
258.321; -203.100; -581.000; -457.000
258.463;   18.400;  -71.000;  133.000
258.605; -178.400; -562.000; -570.000
258.746; -196.400; -886.000; -772.000
258.888; -326.700;-1026.000;-1020.000
259.029;   75.500;  121.000;   -8.000
259.171; -205.000; -614.000; -550.000
259.313;   16.200;  -49.000;  -47.000
259.454; -159.900; -536.000; -414.000
259.596;  -90.900; -483.000; -390.000
259.737; -168.900; -590.000; -474.000
259.879;  124.300;  217.000;  311.000
260.020;  162.200;  901.000;  636.000
260.162;  -48.500; -146.000; -253.000
260.303; -213.400; -768.000; -687.000
260.445; -164.100; -609.000; -613.000
260.586;   35.000;  392.000;  157.000
260.728;  -70.900; -360.000; -248.000
260.869; -180.200; -350.000; -343.000
261.011;  210.300;  706.000;  537.000
261.152; -122.500; -479.000; -319.000
261.293; -146.700; -576.000; -595.000
261.435;  -40.900; -219.000; -184.000
261.576;  -74.700; -455.000; -325.000
261.718;  127.200;  420.000;  470.000
261.859; -241.100; -940.000; -949.000
262.000; -289.900; -951.000;-1016.000
262.142;   -3.500;  -52.000;  -60.000
262.283; -234.200; -808.000; -691.000
262.424; -145.700; -666.000; -625.000
262.566; -331.000;-1161.000; -983.000
262.707; -204.100; -840.000; -830.000
262.848; -273.500; -769.000; -726.000
262.990;  -48.200; -362.000; -345.000
263.131;  161.100;  650.000;  681.000
263.272;   26.800;  -61.000;  -41.000
263.413; -215.500; -589.000; -561.000
263.555; -128.300; -669.000; -143.000
263.696; -185.300; -550.000; -641.000
263.837; -110.300; -449.000; -551.000
263.978;    8.500;   -5.000;  -77.000
264.119;  -54.500; -283.000; -264.000
264.261; -262.800; -847.000; -630.000
264.402;   40.500;   33.000;   40.000
264.543; -181.400; -509.000; -524.000
264.684;   -1.200;   61.000;  -50.000
264.825; -158.900; -816.000; -538.000
264.966;    4.000;  -84.000;  -67.000
265.107; -242.200; -646.000; -670.000
265.248; -241.100; -825.000; -812.000
265.390;  -19.900;  152.000;   -9.000
265.531;  -13.600; -238.000; -107.000
265.672; -181.300; -557.000; -630.000
265.813;  135.900;  563.000;  439.000
265.954; -314.600; -959.000; -940.000
266.095;    4.200; -372.000; -322.000
266.236; -188.600; -686.000; -548.000
266.377;  -38.900; -243.000; -297.000
266.518; -163.300; -619.000; -547.000
266.659;   51.600;  170.000;  268.000
266.800;   40.500;   83.000;   85.000
266.941; -158.000; -487.000; -478.000
267.082;   18.200;  354.000;   99.000
267.223;  -65.200; -344.000; -273.000
267.364; -252.900; -892.000; -686.000
267.504;  -22.400;    3.000;  135.000
267.645;   20.500;  160.000;   67.000
267.786;  -59.800; -147.000;  -86.000
267.927; -142.000; -473.000; -379.000
268.068;   -9.600; -186.000;  -61.000
268.209; -115.400; -175.000; -413.000
268.350;  -81.800; -388.000; -532.000
268.490; -166.900; -648.000; -521.000
268.631;   94.600;  127.000;  225.000
268.772; -199.800; -874.000; -647.000
268.913;  -94.400; -328.000; -476.000
269.054;  -30.000; -117.000;   12.000
269.194;  -62.300; -418.000; -402.000
269.335; -306.300;-1137.000;-1074.000
269.476;  -12.300;   33.000;  -35.000
269.617;  -94.900; -347.000; -392.000
269.757; -181.400; -713.000; -646.000
269.898; -218.200; -856.000; -613.000
270.039;  -87.300; -415.000; -405.000
270.180; -281.200; -952.000; -816.000
270.320;  -11.700; -190.000; -250.000
270.461;  -87.900; -277.000; -249.000
270.602;   -1.800; -186.000; -156.000
270.742; -250.700; -868.000; -943.000
270.883;  -60.900; -442.000; -390.000
271.023;  -87.400; -358.000; -357.000
271.164; -106.700; -607.000; -528.000
271.305; -195.200; -666.000; -654.000
271.445; -152.000; -722.000; -683.000
271.586; -140.300; -462.000; -283.000
271.726;  -50.000; -397.000; -322.000
271.867; -150.600; -594.000; -534.000
272.008;  331.700; -473.000; -285.000
272.148;  232.000;  462.000;  468.000
272.289;   85.700; -113.000; -181.000
272.429;   13.900;   19.000;  185.000
272.570; -160.500; -633.000; -737.000
272.710; -219.800; -825.000; -775.000
272.851;   -6.700;  113.000; -130.000
272.991; -342.300;-1173.000;-1077.000
273.131; -110.800; -419.000; -459.000
273.272; -182.000; -683.000; -723.000
273.412;   64.900; -143.000;  -31.000
273.553;  -92.600; -488.000; -507.000
273.693;  316.600;  913.000;  858.000
273.834; -183.400; -894.000; -692.000
273.974; -111.200; -664.000; -615.000
274.114; -208.200; -772.000; -560.000
274.255;  199.000;  414.000;  373.000
274.395;   -2.100; -180.000; -125.000
274.535;  128.000;  199.000;  350.000
274.676;   34.600;  225.000;   94.000
274.816;   38.200;  110.000;   34.000
274.956; -131.800; -624.000; -690.000
275.097; -109.200;-1014.000; -922.000
275.237; -239.600; -913.000; -803.000
275.377; -177.700; -778.000; -689.000
275.517; -301.600; -878.000; -937.000
275.658;  -82.700; -590.000; -555.000
275.798; -131.900; -606.000; -413.000
275.938;  113.200;  215.000;  323.000
276.078; -145.000; -626.000; -395.000
276.218;   61.800;   99.000;  104.000
276.359; -261.500;-1026.000;-1024.000
276.499; -111.800; -605.000; -446.000
276.639;  -80.400; -305.000; -151.000
276.779;  -59.600; -475.000; -357.000
276.919; -210.300; -783.000; -624.000
277.059;    7.600; -261.000; -212.000
277.199;  -94.200; -357.000; -259.000
277.340;  135.600;  287.000;  175.000
277.480; -193.100; -840.000; -693.000
277.620;  118.200;  192.000;   16.000
277.760; -406.000;-1533.000;-1294.000
277.900;   84.900;  113.000;   33.000
278.040;   51.600;  137.000;  159.000
278.180;   86.200;  270.000;  170.000
278.320;  -12.400;   21.000;   56.000
278.460; -107.300; -443.000; -469.000
278.600; -184.800; -708.000; -598.000
278.740;  125.900;  448.000;  224.000
278.880;  -63.800; -768.000; -791.000
279.020;   64.200; -194.000; -144.000
279.160; -199.500; -672.000; -595.000
279.300; -209.100; -926.000; -873.000
279.440; -209.900; -709.000; -622.000
279.579;  -61.200;-1014.000; -929.000
279.719;  -94.000; -410.000; -394.000
279.859;  139.900;   -4.000;   41.000
279.999;   56.300; -208.000;  101.000
280.139;  -19.400; -435.000; -387.000
280.279; -175.800; -708.000; -745.000
280.419;   -2.500; -229.000; -147.000
280.559;  -46.100; -259.000; -180.000
280.698; -133.000; -790.000; -639.000
280.838; -148.800; -778.000; -800.000
280.978; -146.000; -846.000; -790.000
281.118; -209.800; -811.000; -704.000
281.257;   39.800;   24.000;    6.000
281.397; -229.300;-1094.000; -960.000
281.537; -121.900; -599.000; -712.000
281.677;  -29.800; -150.000; -101.000
281.816;  -98.300; -700.000; -630.000
281.956;  -70.700; -193.000; -257.000
282.096;  -74.200; -539.000; -396.000
282.235; -237.200; -672.000; -638.000
282.375;  -10.500; -243.000;  -98.000
282.515; -188.100; -715.000; -707.000
282.654;   78.900;   29.000;  106.000
282.794;   67.300;  388.000;  244.000
282.934;  -63.000; -530.000; -491.000
283.073; -257.300;-1030.000; -857.000
283.213;  -59.400; -460.000; -467.000
283.353;  -16.500; -408.000; -349.000
283.492;   28.800; -264.000; -296.000
283.632;  -58.500; -254.000; -168.000
283.771; -154.400; -859.000; -730.000
283.911;  -69.100; -369.000; -260.000
284.050; -208.700; -794.000; -748.000
284.190; -336.000;-1229.000;-1096.000
284.329; -240.200;-1055.000; -964.000
284.469; -126.900; -516.000; -591.000
284.608;  -60.900; -559.000; -598.000
284.748; -172.000; -614.000; -570.000
284.887;   39.800;  -87.000;  -20.000
285.027; -230.000; -844.000; -892.000
285.166;   -5.400; -192.000; -249.000
285.306;   41.100; -116.000;  -33.000
285.445;   -4.800; -229.000; -343.000
285.584; -158.900; -630.000; -494.000
285.724;  -50.900; -282.000; -322.000
285.863; -200.400; -857.000; -507.000
286.002;  -69.300; -366.000; -276.000
286.142; -205.200; -715.000; -622.000
286.281; -121.300; -525.000; -493.000
286.420; -163.300; -554.000; -417.000
286.560;  262.100;  653.000;  623.000
286.699; -280.700; -958.000; -912.000
286.838; -126.100; -590.000; -591.000
286.978; -173.300; -533.000; -537.000
287.117; -228.800;-1085.000; -950.000
287.256;  -37.400; -228.000; -211.000
287.395;  -52.300; -197.000; -378.000
287.535;  -76.000; -370.000; -298.000
287.674; -112.100; -509.000; -484.000
287.813;  141.600;  661.000;  533.000
287.952; -218.300;-1010.000; -871.000
288.091; -292.100;-1049.000; -915.000
288.231;   80.000;   13.000;   15.000
288.370; -372.300;-1217.000;-1200.000
288.509; -133.600; -728.000; -645.000
288.648; -156.300; -770.000; -548.000
288.787;  -41.400; -243.000;  -87.000
288.926;  -97.400; -454.000; -475.000
289.065;  273.000;  859.000;  672.000
289.204;  -98.300; -377.000; -217.000
289.344; -163.100; -791.000; -690.000
289.483;   82.600;  416.000;  304.000
289.622;   -0.300; -291.000; -149.000
289.761;  -23.000; -309.000; -166.000
289.900; -179.000; -785.000; -626.000
290.039;   -8.400;  -12.000;  -95.000
290.178;  -74.700; -274.000; -180.000
290.317; -163.500; -618.000; -479.000
290.456;  -84.000; -463.000; -451.000
290.595; -309.000; -961.000; -833.000
290.734; -237.900; -904.000; -891.000
290.873; -152.900; -456.000; -420.000
291.011; -180.700; -833.000; -843.000
291.150; -203.400; -770.000; -682.000
291.289;   23.200; -343.000; -110.000
291.428; -199.000; -599.000; -480.000
291.567;  -75.700; -370.000; -442.000
291.706;   44.700;  109.000;  154.000
291.845; -154.500; -597.000; -505.000
291.984; -319.400;-1234.000;-1061.000
292.122;  195.500;  602.000;  582.000
292.261;  121.700;  620.000;  463.000
292.400;   79.300; -144.000;  211.000
292.539; -201.200; -959.000; -813.000
292.678;   23.400; -325.000; -300.000
292.816; -308.100;-1136.000; -965.000
292.955; -131.400; -844.000; -684.000
293.094;  -35.900; -173.000; -337.000
293.233;  -90.500; -556.000; -400.000
293.371;  -65.900; -225.000;  -84.000
293.510; -166.800; -866.000; -780.000
293.649; -247.300; -959.000; -924.000
293.787;  -61.000;-1083.000;-1012.000
293.926;   33.700; -113.000;  -32.000
294.065;  -61.300; -379.000; -290.000
294.203;  127.500;  298.000;  406.000
294.342;  122.100;   74.000;  156.000
294.481;13162.500;51180.000; -836.000
294.619;   30.100; -425.000; -582.000
294.758; -257.900;-1230.000;-1137.000
294.896;  181.700; -125.000;    5.000
295.035; -238.700;-1040.000;-1006.000
295.174; -212.200;-1082.000; -954.000
295.312;  -64.600; -323.000; -203.000
295.451;   21.700; -307.000; -428.000
295.589;  -75.500; -389.000; -518.000
295.728;  109.700; -292.000; -165.000
295.866;   10.600;  -36.000;  -51.000
296.005; -102.400; -584.000; -341.000
296.143; -124.300; -558.000; -596.000
296.282; -141.800; -957.000; -881.000
296.420; -164.300; -657.000; -557.000
296.559; -137.700; -892.000; -633.000
296.697;   52.000; -847.000; -665.000
296.835;  191.900;-1141.000;-1002.000
296.974;  186.100;  -23.000;   39.000
297.112;   88.200; -443.000; -504.000
297.251; -140.700; -815.000; -755.000
297.389;  250.000; -576.000; -438.000
297.527;   79.600; -145.000;  -83.000
297.666;  -48.000; -486.000; -438.000
297.804;  -75.800; -404.000; -264.000
297.942;   65.200; -136.000; -161.000
298.081;    6.200; -183.000;   63.000
298.219;  196.100;  -17.000;  -19.000
298.357;  113.100; -144.000;  -71.000
298.495;  126.800; -810.000; -812.000
298.634;  185.300;  245.000;  219.000
298.772;  176.300; -220.000; -338.000
298.910;  -23.100; -309.000; -182.000
299.048;   34.100; -130.000; -153.000
299.187;  -42.200; -350.000; -250.000
299.325;   98.800;   52.000;  122.000
299.463;  137.500; -389.000; -299.000
299.601;  310.600; -327.000; -271.000
299.739; -199.400; -908.000; -883.000
299.877; -114.000; -791.000; -703.000
300.016; -119.800;-1095.000; -935.000
300.154;  364.400;  -19.000; -161.000
300.292;  123.200; -428.000; -348.000
300.430;  149.900; -408.000; -291.000
300.568; -187.800; -940.000; -874.000
300.706;  -54.100; -366.000; -469.000
300.844; -123.600;-1108.000; -979.000
300.982;  279.400;  246.000;  282.000
301.120; -199.000; -965.000; -866.000
301.258;  -99.900; -812.000; -705.000
301.396;   93.900;  104.000;  -41.000
301.534;  228.200; -218.000; -293.000
301.672;   43.000; -664.000; -521.000
301.810;  150.800; -613.000; -545.000
301.948;  338.700;   53.000;  149.000
302.086; 1264.800; -250.000;  -32.000
302.224; 1981.500; -610.000; -585.000
302.362;  178.500; -558.000; -622.000
302.500;  -27.800; -923.000; -893.000
302.638;  308.200;  128.000;  245.000
302.776;   31.600; -352.000; -408.000
302.913;  188.100;  447.000;  236.000
303.051;   26.800;  -86.000;  -23.000
303.189;  188.600;   90.000;  118.000
303.327;  -58.400; -341.000; -256.000
303.465; -117.900; -832.000; -588.000
303.603; -142.000; -805.000; -604.000
303.740;  238.700;  417.000;  241.000
303.878;   53.500; -800.000; -759.000
304.016; -149.000; -915.000; -790.000
304.154; -265.300;-1123.000;-1152.000
304.291;  -36.900; -505.000; -554.000
304.429;   56.500;  102.000;   74.000
304.567; -209.400; -908.000; -893.000
304.705;  -95.100; -408.000; -515.000
304.842;  224.300; -616.000; -540.000
304.980;  140.300;  215.000;   35.000
305.118;  187.000; -367.000; -365.000
305.255; -100.700; -945.000; -927.000
305.393;  177.400;  178.000;  239.000
305.531; -189.200;-1173.000; -956.000
305.668; -114.700; -663.000; -582.000
305.806;  190.100; -358.000; -439.000
305.943;  237.700; -629.000; -637.000
306.081;  134.400; -378.000; -267.000
306.219; -131.000; -863.000; -748.000
306.356;   62.500;  158.000;   27.000
306.494;  318.700;  981.000;  761.000
306.631;   69.600;  -11.000;  -55.000
306.769;   58.100; -613.000; -485.000
306.906;   22.000; -284.000; -258.000
307.044;  -64.600; -473.000; -488.000
307.181;  -91.600; -410.000; -332.000
307.319;   99.600;  112.000;   87.000
307.456; -314.700;-1191.000;-1153.000
307.594; -140.300; -980.000; -727.000
307.731;   -1.800; -371.000; -164.000
307.868;   37.800;  -15.000;   20.000
308.006; -246.500; -961.000; -847.000
308.143;  -67.100; -618.000; -330.000
308.281;  498.000;  -37.000; -254.000
308.418;  107.300; -748.000; -640.000
308.555;  -82.600; -400.000; -250.000
308.693;  -83.000; -577.000; -573.000
308.830; -208.100; -712.000; -657.000
308.967;   51.900; -215.000;  -95.000
309.105;  -15.100; -507.000; -396.000
309.242;  190.500; -468.000; -367.000
309.379;  941.000; -577.000; -655.000
309.517;  -20.900; -936.000; -948.000
309.654; -170.400; -910.000; -734.000
309.791;  -53.200; -662.000; -580.000
309.928; -197.100; -977.000; -914.000
310.065;  469.400;  819.000;  697.000
310.203;   32.700; -825.000; -850.000
310.340;   48.600; -465.000; -321.000
310.477;  -97.900; -412.000; -516.000
310.614;  -57.500; -383.000; -473.000
310.751; -112.000; -427.000; -518.000
310.889;   41.900;    1.000;   11.000
311.026; -261.800;-1161.000; -939.000
311.163;   -6.900; -386.000; -380.000
311.300; -126.400; -512.000; -479.000
311.437;  -69.200; -658.000; -619.000
311.574; -272.100;-1226.000; -985.000
311.711;  -71.000; -595.000; -433.000
311.848;  -15.600; -380.000; -388.000
311.985;   76.900;  270.000;   93.000
312.122; -215.900; -932.000; -762.000
312.259; -184.200; -941.000; -994.000
312.396; -115.300; -508.000; -551.000
312.533;  -85.600; -812.000; -790.000
312.670; -234.700;-1070.000; -898.000
312.807;    3.200; -352.000; -367.000
312.944; -120.000; -513.000; -611.000
313.081;   -5.800; -150.000; -415.000
313.218; -194.300;-1111.000; -867.000
313.355;   67.700; -531.000; -449.000
313.492;   65.100; -455.000; -292.000
313.629;  392.800;  815.000;  735.000
313.766; -268.600;-1176.000;-1008.000
313.902;   45.400; -186.000;   21.000
314.039;  -67.500; -372.000; -289.000
314.176;  139.300;  286.000;  192.000
314.313; -102.300; -569.000; -473.000
314.450;  -69.600; -788.000; -684.000
314.587; -102.400; -468.000; -480.000
314.723;  103.000;  -78.000;  130.000
314.860;  129.800;  318.000;  332.000
314.997;  163.600;  223.000;  142.000
315.134;  -66.900; -385.000; -368.000
315.270;   16.200; -480.000; -496.000
315.407; -209.600;-1094.000; -967.000
315.544;  -45.100; -657.000; -538.000
315.681;  -84.700; -681.000; -565.000
315.817;  101.100; -133.000; -176.000
315.954;   34.600; -613.000; -392.000
316.091; -204.900;-1045.000;-1023.000
316.227;  -23.100;  -71.000; -179.000
316.364;   77.500;   23.000;    6.000
316.500;  -49.700; -113.000; -300.000
316.637;  -50.900; -181.000; -302.000
316.774; -132.700; -625.000; -358.000
316.910; -142.500; -598.000; -629.000
317.047; -138.500; -487.000; -351.000
317.183;  -79.300; -435.000; -566.000
317.320;  -49.100; -367.000; -321.000
317.456; -100.900; -733.000; -805.000
317.593; -157.500; -598.000; -641.000
317.729;   52.100;  168.000;  -67.000
317.866; -377.000;-1434.000;-1285.000
318.002; -122.400; -708.000; -948.000
318.139; -163.500; -883.000; -867.000
318.275; -140.400;-1003.000; -738.000
318.412;  -97.000; -517.000; -336.000
318.548;   14.600; -751.000; -720.000
318.685; -159.900; -985.000; -888.000
318.821; -153.700; -762.000; -735.000
318.957;  -24.900;   34.000;  -23.000
319.094;  143.800;  297.000;  154.000
319.230;  -75.000; -756.000; -742.000
319.367;  353.100; -471.000; -520.000
319.503;   90.600; -538.000; -436.000
319.639; -148.400; -877.000; -793.000
319.775; -110.200; -750.000; -685.000
319.912;  -32.000; -424.000; -519.000
320.048; -178.400;-1184.000;-1184.000
320.184;  205.400;   59.000;   70.000
320.321; -106.400; -497.000; -467.000
320.457;  161.200;  475.000;  662.000
320.593; -128.800; -375.000; -382.000
320.729; -162.600; -732.000; -734.000
320.866; -110.300; -577.000; -635.000
321.002; -104.500; -759.000; -809.000
321.138;   -6.000; -135.000; -211.000
321.274;  186.000; -148.000; -115.000
321.410;  -22.800; -585.000; -353.000
321.546;  -14.100;-1011.000; -911.000
321.683;  148.700;  400.000;  185.000
321.819;   65.900;  -48.000; -117.000
321.955; -193.300; -743.000; -722.000
322.091;  -17.300; -585.000; -540.000
322.227;   38.100; -382.000; -202.000
322.363;   23.400; -320.000; -215.000
322.499;  -58.800; -343.000; -331.000
322.635;  401.200;  636.000;  443.000
322.771;   61.700; -139.000;   12.000
322.907;  249.600;  129.000;  327.000
323.043;   -9.800; -115.000; -206.000
323.179;  -10.000; -394.000; -363.000
323.315;  108.600; -401.000; -371.000
323.451;  298.800; -328.000; -236.000
323.587;  142.400;  -60.000;  -77.000
323.723;   86.400; -682.000; -601.000
323.859;   -9.100; -258.000;  -76.000
323.995;    6.300; -467.000; -409.000
324.131; -212.800; -967.000; -892.000
324.267;    7.300; -254.000; -276.000
324.402; -249.300; -960.000; -983.000
324.538;   31.700; -279.000; -104.000
324.674;  119.500;  164.000;   77.000
324.810;  407.500;  226.000;  308.000
324.946;   61.800; -810.000; -658.000
325.082;  -90.000; -568.000; -475.000
325.217;   -3.600;  -62.000;   16.000
325.353; -156.500; -764.000; -659.000
325.489; -137.300; -540.000; -506.000
325.625; -105.700; -579.000; -525.000
325.760;  132.700;  517.000;  376.000
325.896;  -27.000; -515.000; -702.000
326.032;  -59.800; -403.000; -352.000
326.168;  -64.300; -462.000; -369.000
326.303;  -79.400; -352.000; -461.000
326.439;    6.000; -336.000; -276.000
326.575;   15.400; -190.000;  -29.000
326.710;   74.800; -156.000;  -30.000
326.846;   20.700;  146.000;  103.000
326.982; -130.300; -530.000; -548.000
327.117; -141.200; -481.000; -442.000
327.253; -149.800; -745.000; -742.000
327.388; -319.800;-1137.000;-1153.000
327.524;  -27.700; -811.000; -578.000
327.659;   11.000;  -58.000;  -22.000
327.795;    0.000;   69.000;   45.000
327.931; -146.500; -723.000; -499.000
328.066;    6.100; -417.000; -276.000
328.202;   94.700;   12.000; -129.000
328.337;  279.100;  957.000;  713.000
328.473;   16.500;  -12.000;  -74.000
328.608;   29.700; -256.000; -267.000
328.743; -157.600; -799.000; -664.000
328.879;   67.500;  214.000;  114.000
329.014; -102.100; -102.000; -122.000
329.150; -120.800; -358.000; -483.000
329.285; -124.800; -465.000; -466.000
329.421;  -63.200; -548.000; -246.000
329.556;    6.100;  -36.000;   85.000
329.691; -180.400; -633.000; -615.000
329.827; -165.300; -626.000; -480.000
329.962;  -40.300;  131.000; -301.000
330.097; -177.000; -673.000; -585.000
330.233;  -36.100; -410.000; -223.000
330.368; -228.300; -839.000; -628.000
330.503;   18.500;    3.000;   98.000
330.638;   39.600;  -93.000; -125.000
330.774;  -64.400; -609.000; -530.000
330.909;  -39.800; -434.000; -244.000
331.044; -130.900; -714.000; -708.000
331.179; -314.700;-1217.000;-1109.000
331.315;   80.000;   77.000;   20.000
331.450;   72.800;  157.000;  285.000
331.585; -145.400; -805.000; -706.000
331.720; -134.900; -510.000; -460.000
331.855;   26.400;  -35.000; -102.000
331.990;  346.800;   62.000;  138.000
332.126;  235.200; -110.000;   71.000
332.261;  -47.700; -379.000; -265.000
332.396;   49.500; -135.000; -242.000
332.531; -239.300;-1074.000;-1031.000
332.666;   77.000; -519.000; -363.000
332.801; -169.700; -726.000; -807.000
332.936;   17.200; -192.000; -122.000
333.071; -270.000; -870.000; -817.000
333.206;  137.600;  307.000;  379.000
333.341;   94.200;  344.000;  418.000
333.476;  -95.100; -627.000; -623.000
333.611;  -39.900; -251.000; -173.000
333.746;  -35.500; -381.000; -464.000
333.881; -218.500; -973.000; -935.000
334.016; -190.900; -936.000; -917.000
334.151; -198.700; -746.000; -702.000
334.286;  153.800;  152.000;  186.000
334.421;   21.100; -125.000; -178.000
334.556;  -98.300; -611.000; -567.000
334.690; -135.900; -631.000; -577.000
334.825;  185.400;  381.000;   83.000
334.960;  -45.200; -285.000; -413.000
335.095;   85.100;  135.000;  -91.000
335.230; -164.100; -722.000; -738.000
335.365; -192.700;-1084.000; -990.000
335.499; -235.700;-1108.000;-1037.000
335.634;  108.100;    9.000;  534.000
335.769; -183.400; -755.000; -720.000
335.904;  -40.700; -603.000; -561.000
336.038;  -71.200; -735.000; -657.000
336.173; -135.900;-1206.000;-1194.000
336.308;   88.400; -116.000; -189.000
336.443;   72.500; -544.000; -634.000
336.577; -118.300; -936.000; -787.000
336.712;  199.100;   -4.000;  -12.000
336.847;  -16.600; -724.000; -607.000
336.981;  255.400; -272.000; -208.000
337.116;  636.600;  615.000;  501.000
337.250;  404.900; -434.000; -421.000
337.385;  387.600; -297.000; -208.000
337.520;   75.000; -632.000; -603.000
337.654;  -49.500; -215.000; -126.000
337.789; -193.300; -989.000; -933.000
337.923;  -36.900; -104.000; -205.000
338.058; -114.200; -673.000; -738.000
338.192;   -6.700; -611.000; -488.000
338.327;   67.500;  -18.000; -155.000
338.461; -103.800; -299.000; -469.000
338.596; -105.800; -780.000; -638.000
338.730; -180.900; -767.000; -803.000
338.865;  154.200;  -46.000; -140.000
338.999; -146.900; -846.000; -702.000
339.134;  -32.900; -634.000; -536.000
339.268;    7.300; -741.000; -603.000
339.403;  551.900; -740.000; -775.000
339.537;  116.800; -894.000; -820.000
339.671; -165.500; -829.000; -813.000
339.806; -142.300; -556.000; -512.000
339.940;   53.900; -261.000; -235.000
340.074; -144.700; -685.000; -510.000
340.209;  -16.100; -351.000; -230.000
340.343; -148.800; -517.000; -573.000
340.477;  411.800;  998.000; 1036.000
340.612; -123.000;-1033.000; -900.000
340.746;  241.100; -199.000; -243.000
340.880; -143.700; -924.000; -785.000
341.014;   29.500;  -45.000; -154.000
341.149; -197.000; -756.000; -718.000
341.283; -164.800; -839.000; -754.000
341.417; -125.800;-1124.000; -938.000
341.551;  414.500; -768.000; -708.000
341.685;  -45.200; -633.000; -611.000
341.820;  -50.000; -562.000; -493.000
341.954;  -66.500; -218.000; -349.000
342.088; -283.600;-1102.000;-1019.000
342.222;  101.700;  565.000;  618.000
342.356;  -63.600; -395.000; -335.000
342.490; -151.900; -880.000; -841.000
342.624;   -6.800; -339.000; -242.000
342.758;   48.600; -364.000; -312.000
342.892;  -60.100; -710.000; -585.000
343.026;  -18.400;  -58.000; -116.000
343.160;  -66.800; -426.000; -376.000
343.294; -137.700; -474.000; -337.000
343.428;  -15.900; -488.000; -448.000
343.562;   10.100; -172.000;  -23.000
343.696;   27.900; -385.000; -314.000
343.830;   13.300; -362.000; -356.000
343.964;  100.700; -231.000; -168.000
344.098; 1978.500;  199.000;   70.000
344.232; 1736.900; -266.000; -127.000
344.366;  179.700; -567.000; -453.000
344.500;  187.100; -665.000; -744.000
344.634;  119.000; -324.000; -164.000
344.768;   83.600; -531.000; -341.000
344.902;   73.400;  278.000;  256.000
345.035;  -74.600; -556.000; -496.000
345.169; -250.500; -933.000; -656.000
345.303;  -16.300; -308.000; -482.000
345.437;  -81.100; -826.000; -717.000
345.571; -106.100; -675.000; -594.000
345.704; -104.800; -309.000; -532.000
345.838;   17.000; -331.000; -284.000
345.972;  -44.200; -543.000; -495.000
346.106;  281.600; -179.000; -190.000
346.239;  769.400; -312.000; -243.000
346.373;   91.300; -343.000; -302.000
346.507; -252.300; -950.000; -962.000
346.640;  370.000;  -30.000;   13.000
346.774;  -45.800; -650.000; -797.000
346.908;   46.400; -138.000;  -11.000
347.041; -116.800; -646.000; -593.000
347.175;   81.800;  259.000;   27.000
347.309;  -88.600; -698.000; -628.000
347.442; -127.400; -883.000; -732.000
347.576;  653.900;  670.000;  668.000
347.709;  530.300; -123.000;  -52.000
347.843; -137.900; -933.000; -825.000
347.976;  169.200;  235.000;  294.000
348.110; -340.900;-1268.000;-1186.000
348.243; -156.900; -679.000; -772.000
348.377;   12.300;  -26.000;   60.000
348.510;  181.000;  403.000;  540.000
348.644;  -34.500;  -37.000; -159.000
348.777;   78.500;  180.000;  191.000
348.911;  -48.100; -142.000; -112.000
349.044;  425.800;  471.000;  448.000
349.178;  392.000;-1069.000;-1006.000
349.311;  310.900;  141.000;  255.000
349.444;  -48.100; -927.000; -813.000
349.578;   44.200; -347.000; -200.000
349.711; -166.300; -959.000; -862.000
349.845;   61.500; -661.000; -591.000
349.978; -236.800;-1224.000;-1137.000
350.111; -105.600; -546.000; -612.000
350.244; -126.000; -596.000; -700.000
350.378;   77.200; -392.000; -393.000
350.511;  -94.900; -393.000; -426.000
350.644; -157.700; -808.000; -806.000
350.778;   64.500;  168.000;  104.000
350.911;   88.700;  134.000;  140.000
351.044; -152.600; -685.000; -615.000
351.177;   47.800; -321.000; -281.000
351.310;  -23.700;    3.000; -131.000
351.444;  -70.100; -888.000; -788.000
351.577;  281.400;  140.000;   90.000
351.710;  303.200;  593.000;  417.000
351.843;  -20.700; -165.000;  -77.000
351.976;   76.900;  149.000;  -79.000
352.109; -142.500; -621.000; -612.000
352.242;   37.400; -464.000; -419.000
352.376;  -79.500; -580.000; -636.000
352.509;  468.800; -437.000; -356.000
352.642;   77.200; -654.000; -604.000
352.775;  224.400; -141.000;  -98.000
352.908; -199.600; -933.000; -904.000
353.041; -153.900; -814.000; -824.000
353.174;  -42.500; -551.000; -424.000
353.307; -123.400; -753.000; -764.000
353.440;  177.100;  541.000;  453.000
353.573; -181.100; -957.000;-1008.000
353.706;  -52.100; -384.000; -558.000
353.839;   40.200; -264.000; -220.000
353.971; -167.900; -657.000; -512.000
354.104; -107.700; -896.000; -835.000
354.237;  -61.200; -627.000; -662.000
354.370; -115.100; -846.000; -879.000
354.503; -316.800;-1231.000;-1308.000
354.636;   -3.100; -529.000; -348.000
354.769; -224.400; -937.000; -860.000
354.902;   89.900; -230.000; -139.000
355.034;    9.100; -164.000; -220.000
355.167;   -1.900; -262.000; -162.000
355.300; -193.200;-1061.000; -880.000
355.433; 1551.500;  -71.000;  -14.000
355.565; 2280.800; -402.000; -384.000
355.698;  606.300; -356.000; -296.000
355.831;  -13.800; -882.000; -801.000
355.964;  285.700; -285.000; -170.000
356.096; -121.300; -856.000; -843.000
356.229;  107.600; -523.000; -530.000
356.362;  511.400; -373.000; -266.000
356.494;  962.600; -229.000; -162.000
356.627; 1040.100;  269.000;  377.000
356.760; 1144.500;  120.000;   53.000
356.892; 1418.400; -286.000; -601.000
357.025; 1504.400;  403.000;  389.000
357.157; 1373.400; -167.000; -179.000
357.290;  879.600; -856.000; -713.000
357.423;  285.100; -667.000; -556.000
357.555;  315.900; -217.000; -228.000
357.688;  251.700; -483.000; -364.000
357.820;  906.300; -870.000; -877.000
357.953; 6909.800; -563.000; -589.000
358.085; 1700.100; -632.000; -612.000
358.218; 2802.900;-1131.000; -932.000
358.350;  563.000;  -58.000;  312.000
358.483; -208.900;-1300.000;-1187.000
358.615;   97.700;-1182.000;-1078.000
358.747;  -12.900;-1187.000;-1058.000
358.880;  181.700; -810.000; -744.000
359.012;   34.600; -376.000; -202.000
359.145;   -4.200; -480.000; -511.000
359.277;  118.500; -962.000; -913.000
359.409; 5874.500;  536.000;  231.000
359.542; 1500.700; -738.000; -688.000
359.674;  172.900;   46.000;   13.000
359.806;  -70.200; -565.000; -438.000
359.939;  -33.300; -617.000; -516.000
360.071;  -51.500; -583.000; -579.000
360.203;  -23.800; -411.000; -364.000
360.335;  138.700;  164.000;  -16.000
360.468;  431.700; -249.000; -307.000
360.600; 4452.900; -547.000; -454.000
360.732; 3979.600; -546.000; -423.000
360.864;  497.100;-1216.000;-1044.000
360.996;  716.200; -516.000; -554.000
361.129;  126.000; -389.000; -598.000
361.261;  128.400;  110.000; -113.000
361.393;  -42.800; -252.000; -214.000
361.525;   98.400;   94.000;  244.000
361.657;  -75.900; -821.000; -703.000
361.789;  140.400; -139.000; -155.000
361.921;  596.700; -642.000; -593.000
362.053;  660.300;  524.000;  541.000
362.185;  139.000;  288.000;   72.000
362.318;  -85.900; -709.000; -705.000
362.450;  365.300;  294.000;  444.000
362.582;  509.400; -913.000; -870.000
362.714;   -7.900; -353.000; -332.000
362.846; -109.400; -606.000; -490.000
362.978; -248.600; -941.000; -811.000
363.109;  183.200; -161.000; -260.000
363.241; 1030.000; -739.000; -749.000
363.373;  771.600; -649.000; -564.000
363.505;  958.700; -186.000;  -91.000
363.637;  288.500; -787.000; -601.000
363.769; -219.600;-1067.000;-1080.000
363.901;  -57.700; -596.000; -654.000
364.033; -220.000;-1103.000;-1062.000
364.165;   81.700; -283.000; -283.000
364.296;  146.400; -316.000; -177.000
364.428;   60.600;-1344.000;-1220.000
364.560; -114.100; -679.000; -661.000
364.692;  -57.000; -738.000; -835.000
364.824;  678.500; -588.000; -456.000
364.955;  774.000; -402.000; -564.000
365.087; 1108.600;-1097.000; -852.000
365.219;   61.200; -686.000; -816.000
365.351; -124.800; -526.000; -572.000
365.482;  190.600;  300.000;  240.000
365.614;  -66.200; -402.000; -314.000
365.746; -145.700; -729.000; -752.000
365.877; -145.600; -706.000; -672.000
366.009;  392.700;  -35.000;  -62.000
366.141; -197.200;-1249.000;-1134.000
366.272; -170.400; -803.000; -719.000
366.404; -189.500;-1005.000; -874.000
366.535;   55.700; -139.000;  -12.000
366.667; -171.000; -644.000; -649.000
366.799;  126.000;  353.000;  203.000
366.930; -195.300; -862.000; -996.000
367.062;  248.700; -639.000; -613.000
367.193;  168.700; -872.000; -842.000
367.325;  -33.800; -580.000; -684.000
367.456;  279.200; -246.000;   31.000
367.588;  242.600; -371.000; -318.000
367.719;   87.100;  -44.000;  -45.000
367.851;   74.100; -222.000; -241.000
367.982;  -21.200; -875.000; -732.000
368.113;  308.500; -475.000; -358.000
368.245; -176.200; -960.000; -841.000
368.376;   68.000; -254.000; -302.000
368.508;  -30.400; -188.000; -263.000
368.639; -206.300;-1166.000;-1034.000
368.770;   53.400; -670.000; -589.000
368.902;  -30.700; -836.000; -926.000
369.033; -166.300; -906.000; -855.000
369.164;  -62.000; -720.000; -653.000
369.296; -177.400; -452.000; -601.000
369.427;   92.100; -209.000; -144.000
369.558;  -49.000; -593.000; -377.000
369.689; -103.300; -721.000; -569.000
369.821; -227.000; -951.000; -845.000
369.952;   16.100;   42.000; -108.000
370.083;  -66.700; -229.000; -108.000
370.214;  -86.700; -735.000; -650.000
370.345;   52.700;   65.000;   81.000
370.477; -104.100; -810.000; -790.000
370.608;  600.700; -328.000; -264.000
370.739;  -47.900;-1233.000;-1292.000
370.870;  -16.000;-1102.000; -923.000
371.001;  282.600; -378.000; -467.000
371.132; -120.300; -754.000; -735.000
371.263;   40.200;  -42.000; -148.000
371.394; -218.700; -841.000; -748.000
371.525;  129.900;  345.000;  225.000
371.657; -133.200; -808.000; -670.000
371.788;  198.700;  103.000;  199.000
371.919;  422.600; -384.000; -304.000
372.050; 7727.800;  -91.000; -156.000
372.181; 2134.900; -188.000; -294.000
372.311;  881.800;   42.000; -127.000
372.442;  133.800; -457.000; -451.000
372.573;   58.300; -444.000; -340.000
372.704; -201.500;-1008.000; -980.000
372.835;  259.300; -228.000; -289.000
372.966; -100.400; -646.000; -554.000
373.097;  -60.500; -575.000; -711.000
373.228;  -20.800; -717.000; -542.000
373.359;  366.600; -824.000; -536.000
373.490; 2147.400; -881.000; -727.000
373.620; 2573.000;-1001.000; -803.000
373.751; 3993.900; -332.000; -396.000
373.882; 1758.500; -663.000; -733.000
374.013;  230.200; -449.000; -262.000
374.143;  -35.400; -581.000; -659.000
374.274; -182.100; -987.000; -908.000
374.405;  473.600; -388.000; -276.000
374.536; 1047.800; -526.000; -387.000
374.666; 2566.600; -759.000; -807.000
374.797;  536.100; -817.000; -868.000
374.928; 2059.600; -710.000; -560.000
375.058; 1966.400; -535.000; -500.000
375.189;  267.600;  -59.000;  -93.000
375.320; -149.400; -928.000;-1034.000
375.450;    1.400; -625.000; -616.000
375.581;  -79.300; -526.000; -436.000
375.712;   19.900; -574.000; -250.000
375.842;  755.700; -438.000; -415.000
375.973;  568.000; -554.000; -513.000
376.103;    3.900; -665.000; -648.000
376.234;  -94.200; -531.000; -552.000
376.364;   -0.300; -944.000; -867.000
376.495;  796.200;  925.000;  529.000
376.625;   74.900; -472.000; -485.000
376.756;  231.500; -709.000; -678.000
376.886; -114.000;-1178.000;-1026.000
377.017;   63.900;-1048.000;-1061.000
377.147;  469.800; -786.000; -782.000
377.278;  172.000;  174.000;  228.000
377.408; -188.000; -801.000; -815.000
377.538; -151.100; -707.000; -693.000
377.669; -109.100; -537.000; -613.000
377.799;  -64.400; -645.000; -635.000
377.929;  -22.800; -610.000; -428.000
378.060; -163.900; -781.000; -847.000
378.190;  -74.000; -726.000; -531.000
378.320;  -63.400; -401.000; -406.000
378.451;   48.100; -131.000;  -22.000
378.581;  100.900;  -67.000; -110.000
378.711;  409.700; 1035.000;  866.000
378.841;   42.700; -533.000; -675.000
378.972;  -86.800; -871.000; -751.000
379.102;  106.300; -652.000; -579.000
379.232;   11.900; -126.000;  -73.000
379.362; -130.900;-1001.000; -885.000
379.492;   84.900; -373.000; -424.000
379.623;  335.200;    0.000;  111.000
379.753; -114.200;-1107.000; -974.000
379.883;  487.800;   59.000;  156.000
380.013;   65.100;-1081.000;-1017.000
380.143; -139.400;-1097.000;-1056.000
380.273; -173.500; -985.000; -861.000
380.403;  117.900; -344.000; -257.000
380.533;   -5.100; -651.000; -664.000
380.663;  252.800;  173.000;  128.000
380.793; -117.700;-1027.000;-1074.000
380.923;   53.000; -103.000;  -34.000
381.053; -115.400; -613.000; -623.000
381.183;   18.000; -106.000; -248.000
381.313;  134.000; -656.000; -470.000
381.443;  191.700; -692.000; -473.000
381.573;  519.700; -402.000; -409.000
381.703;  738.800;-1249.000;-1095.000
381.833; -173.900;-1454.000;-1336.000
381.963;  296.600; -134.000;  -87.000
382.093; 2807.600; -925.000; -909.000
382.223;  900.700; -713.000; -602.000
382.353;   27.600; -801.000; -608.000
382.482;  980.900;-1091.000; -964.000
382.612; 1640.300; -872.000; -644.000
382.742;  936.500; -695.000; -622.000
382.872;  650.300; -565.000; -551.000
383.002;  241.200;  347.000; -132.000
383.131;   25.100; -226.000; -160.000
383.261;  -26.800; -706.000; -768.000
383.391;  495.900; -552.000; -377.000
383.521; 4485.300;  451.000;  263.000
383.650;  827.800; -947.000; -904.000
383.780;  -36.100; -783.000; -656.000
383.910;  303.800;  880.000;  802.000
384.039;  154.100; -794.000; -656.000
384.169;  545.400;-1205.000;-1017.000
384.299;   84.500; -650.000; -662.000
384.428;  -93.100; -764.000; -680.000
384.558;   36.200; -308.000; -275.000
384.687;    4.400; -414.000; -334.000
384.817;  189.100;   75.000;   -2.000
384.947;  124.200; -234.000; -141.000
385.076;  760.400;  982.000;  912.000
385.206;  309.200;  369.000;  480.000
385.335;   51.500; -549.000; -417.000
385.465;  -93.400; -655.000; -663.000
385.594;  485.900;  -53.000;  -44.000
385.724; 1043.000; -868.000; -838.000
385.853;  371.500; -296.000; -270.000
385.982; 3164.400; -743.000; -787.000
386.112; 4701.100;-1052.000; -871.000
386.241;  361.100; -307.000; -312.000
386.371;  151.800; -174.000;  -87.000
386.500;   40.200; -825.000; -789.000
386.629;  135.400; -874.000; -817.000
386.759;  216.100;  -43.000;   68.000
386.888;  151.300; -170.000; -250.000
387.017;  -36.900; -648.000; -620.000
387.147;  -51.300; -771.000; -798.000
387.276;  104.000; -410.000; -397.000
387.405;  173.400; -398.000; -342.000
387.535;  -38.100; -452.000; -361.000
387.664;  -66.600; -692.000; -620.000
387.793;  207.600; -198.000; -113.000
387.922; 1306.000;  255.000;  200.000
388.052;  163.500; -576.000; -423.000
388.181;  258.100; -342.000; -472.000
388.310;  195.000; -889.000; -710.000
388.439;   37.300; -749.000; -742.000
388.568;  519.300;  365.000;  244.000
388.697; 2422.300; -756.000; -653.000
388.826;  525.700; -768.000; -666.000
388.956;  225.900; -285.000; -307.000
389.085;   18.200; -347.000; -287.000
389.214; -131.000; -842.000; -872.000
389.343;  -84.900; -645.000; -413.000
389.472;  746.900;  126.000;  149.000
389.601;  907.500;   91.000;    0.000
389.730;  103.300; -568.000; -687.000
389.859;  225.300;  226.000;   46.000
389.988;  555.000; -423.000; -408.000
390.117;  379.900; -168.000; -146.000
390.246;   94.300; -331.000; -320.000
390.375;  343.600; -673.000; -626.000
390.504;  -36.400; -703.000; -621.000
390.633; -140.600; -672.000; -726.000
390.761;   -8.900; -732.000; -645.000
390.890;  145.300;   -4.000; -130.000
391.019;   44.900; -421.000; -441.000
391.148; -212.400; -826.000; -855.000
391.277;  -43.600; -576.000; -493.000
391.406;  -51.000; -821.000; -805.000
391.534;  152.300;  574.000; -301.000
391.663;  -49.600; -583.000; -645.000
391.792;  -81.600; -673.000; -701.000
391.921;  328.300;   -3.000;   15.000
392.050;  572.100; -287.000; -228.000
392.178;    7.600;-1206.000;-1061.000
392.307;  385.500; -758.000; -712.000
392.436;  162.900; -427.000; -641.000
392.564;  122.600;  166.000;   -6.000
392.693; -134.000; -860.000; -682.000
392.822;  555.700; -529.000; -534.000
392.950;  261.800; -880.000; -714.000
393.079;  827.400; -188.000; -328.000
393.208;   83.400; -488.000; -511.000
393.336;   66.500; -170.000; -145.000
393.465;  -37.300; -317.000; -199.000
393.593;   98.100;   62.000;   79.000
393.722; -236.500;-1121.000; -916.000
393.850;   46.100; -188.000;  -61.000
393.979; -274.300; -926.000; -805.000
394.107;  -89.100; -517.000; -537.000
394.236;   33.100; -570.000; -507.000
394.364;  644.100;  383.000;  206.000
394.493; 1026.800; -911.000; -767.000
394.621;   31.400; -955.000; -916.000
394.750; 1082.600; -873.000; -923.000
394.878; 4769.700; -247.000; -149.000
395.007; 5951.400; -721.000; -807.000
395.135;  435.800; -790.000; -721.000
395.263; -193.200;-1038.000;-1040.000
395.392;   77.400;  -25.000; -107.000
395.520; -219.900; -818.000; -679.000
395.648;  -89.200; -865.000; -915.000
395.777;   17.000; -366.000; -405.000
395.905;   -5.000; -449.000; -564.000
396.033;  100.300;  217.000;  172.000
396.162; 1731.900; -399.000; -453.000
396.290; 1411.300;  -17.000;   -2.000
396.418;  327.700; -555.000; -514.000
396.546;  -99.400; -571.000; -466.000
396.674; -119.400; -850.000; -878.000
396.803;   89.800;  -72.000;  -23.000
396.931;  304.200; -179.000; -199.000
397.059;  198.200;-1026.000; -989.000
397.187; -159.200;-1026.000; -975.000
397.315; -227.900; -884.000; -649.000
397.443; -134.700; -592.000; -443.000
397.572; -139.700; -578.000; -424.000
397.700;   74.900; -607.000; -614.000
397.828;  102.200;  120.000;  -90.000
397.956;  -37.000; -508.000; -478.000
398.084; -137.300; -767.000; -626.000
398.212;  172.000;  137.000;  124.000
398.340;   90.500;  -56.000;  159.000
398.468;  174.200; -390.000; -169.000
398.596; -213.600; -993.000; -953.000
398.724; -174.300; -762.000; -767.000
398.852; -282.300;-1024.000; -976.000
398.980;  -63.500; -560.000; -560.000
399.108;  -59.900; -982.000; -735.000
399.236;  171.400;   13.000;    8.000
399.363;   74.100;  222.000;  196.000
399.491;  -57.100; -404.000; -398.000
399.619; -212.300; -829.000; -800.000
399.747; -115.000; -859.000; -771.000
399.875;  223.200;  220.000;  234.000
400.003;  -23.400; -359.000; -284.000
400.130; -176.100; -421.000; -341.000
400.258;   58.300;  -83.000;   38.000
400.386;  -99.300; -352.000; -168.000
400.514;   30.000; -526.000; -587.000
400.641; -131.900; -928.000; -802.000
400.769; -199.700; -979.000; -888.000
400.897;  -64.200; -838.000; -793.000
401.025;  102.800; -166.000; -152.000
401.152;   23.900;  220.000;   38.000
401.280;  -54.300; -430.000; -429.000
401.408; -197.600; -712.000; -576.000
401.535; -119.400; -735.000; -758.000
401.663; -335.500;-1134.000;-1054.000
401.790; -104.500; -514.000; -525.000
401.918;  143.000;  436.000;  405.000
402.046;   58.500;  134.000;  122.000
402.173;  -17.600;  -18.000;    7.000
402.301;  -92.800; -519.000; -397.000
402.428;  131.100;  528.000;  383.000
402.556; -237.500;-1188.000; -913.000
402.683;   21.300;  -20.000;   -1.000
402.811;   20.500;  -37.000; -206.000
402.938;   23.300;   20.000;   27.000
403.066;  473.900; -574.000; -558.000
403.193;  708.300;  299.000;  239.000
403.321;  579.300; -396.000; -574.000
403.448;  658.000;   83.000;   27.000
403.575;  371.000;  -90.000;  -46.000
403.703; -163.400; -732.000; -557.000
403.830;  -76.300; -531.000; -496.000
403.957; -267.800;-1117.000;-1023.000
404.085;   99.500;  -61.000; -172.000
404.212;  246.200;  -50.000;   63.000
404.339;  507.900; -566.000; -306.000
404.467; 8981.000; -612.000; -524.000
404.594; 6375.100; -287.000; -227.000
404.721; 1587.400; -869.000; -764.000
404.848;  214.000; -113.000; -202.000
404.976; -157.900; -856.000; -783.000
405.103;   41.600;  -14.000;  -82.000
405.230;   28.000;  190.000;  226.000
405.357;  154.300;  117.000;   44.000
405.484;  465.100;  -49.000;    5.000
405.612;  102.400; -548.000; -563.000
405.739;  -88.400; -488.000; -243.000
405.866;  272.200;  669.000;  385.000
405.993;  -27.000; -398.000; -102.000
406.120; -186.400; -801.000; -887.000
406.247;  -90.100; -323.000; -342.000
406.374; 1177.100;  540.000;  629.000
406.501;  303.500; -632.000; -702.000
406.628;  -67.300; -621.000; -589.000
406.755; -128.600; -803.000; -620.000
406.882;   17.500; -228.000; -277.000
407.009; -155.300; -719.000; -628.000
407.136;  243.100; -480.000; -401.000
407.263;  404.100; -939.000; -829.000
407.390;  -59.300; -692.000; -614.000
407.517; -243.100;-1139.000;-1187.000
407.644;  -54.000; -332.000; -256.000
407.771;  -89.600; -249.000; -287.000
407.898;  111.200;  168.000;  328.000
408.025;  -79.600; -421.000; -313.000
408.151;   78.600;   82.000;  153.000
408.278;  -86.700; -267.000; -216.000
408.405; -153.400; -931.000; -899.000
408.532; -103.500; -549.000; -542.000
408.659; -175.300; -677.000; -648.000
408.785; -364.600;-1298.000;-1170.000
408.912;  -47.800; -412.000; -296.000
409.039; -175.500; -610.000; -686.000
409.166; -141.900; -591.000; -555.000
409.292; -173.500; -571.000; -534.000
409.419; -160.600; -665.000; -649.000
409.546; -149.900; -431.000; -192.000
409.672; -156.400; -713.000; -545.000
409.799;   16.000;  -36.000;   34.000
409.926;  -22.700; -180.000; -179.000
410.052; -307.600;-1127.000;-1091.000
410.179;  -48.600; -368.000; -392.000
410.305; -135.600; -375.000; -493.000
410.432;   15.100; -220.000; -333.000
410.558; -138.300; -305.000; -380.000
410.685; -148.900; -688.000; -431.000
410.812; -149.200; -409.000; -588.000
410.938; -196.600; -964.000; -808.000
411.065; -152.900; -671.000; -645.000
411.191;   45.400; -189.000; -174.000
411.317; -208.500; -823.000; -742.000
411.444;  -67.000; -317.000; -246.000
411.570;  -97.800; -339.000; -294.000
411.697; -168.700; -758.000; -752.000
411.823; -313.600; -989.000; -999.000
411.949;   18.700;  -56.000;   17.000
412.076; -188.300; -539.000; -519.000
412.202; -153.500; -758.000; -757.000
412.329; -238.200; -798.000; -752.000
412.455; -177.700; -821.000; -657.000
412.581;    5.200;  -15.000;  172.000
412.707;  -24.200; -540.000; -457.000
412.834;  106.800;  156.000;  219.000
412.960;  -98.800; -785.000; -784.000
413.086; -174.300; -743.000; -701.000
413.212;  463.700;  604.000;  578.000
413.339;  -55.300; -685.000; -701.000
413.465;  115.700; -364.000; -310.000
413.591; -118.900; -757.000; -474.000
413.717;  -32.700; -358.000; -366.000
413.843; -244.800; -839.000; -861.000
413.969;  -56.800;  -47.000; -292.000
414.096; -162.100; -679.000; -679.000
414.222;   42.500;  -33.000;   85.000
414.348;   55.200; -652.000; -385.000
414.474;  333.000;   38.000;  -52.000
414.600;   21.000; -126.000; -144.000
414.726;   35.100;  -96.000;  -55.000
414.852;  -60.600; -365.000; -342.000
414.978;  121.900;  104.000;  -18.000
415.104;  103.300;   38.000;   80.000
415.230;   87.200; -329.000; -330.000
415.356;  119.300; -409.000; -514.000
415.482;  458.000;   13.000;  -35.000
415.608;  505.700; -247.000; -323.000
415.734; 1718.000;   67.000;   38.000
415.860;34884.100; -875.000; -767.000
415.986;22638.100; -685.000; -607.000
416.111; 1829.900; -798.000; -652.000
416.237;  411.800; -424.000; -571.000
416.363; 1853.600; -765.000; -733.000
416.489; 6365.600; -324.000; -251.000
416.615;  597.100; -707.000; -742.000
416.741;  -18.700; -677.000; -784.000
416.866; -163.000; -673.000; -736.000
416.992; -175.500; -801.000; -818.000
417.118;  -25.400;  -41.000;  -80.000
417.244;  -44.700; -798.000; -531.000
417.369; -158.300; -801.000; -612.000
417.495;   62.900; -325.000; -254.000
417.621; -119.400;-1015.000; -803.000
417.746;   61.900; -579.000; -572.000
417.872;   81.800; -254.000; -144.000
417.998;  121.800; -515.000; -530.000
418.123; 1764.600;-1073.000; -845.000
418.249; 8295.300; -512.000; -601.000
418.374; 1024.700; -916.000; -824.000
418.500;  195.900; -383.000; -482.000
418.626;  224.100;   70.000;  -59.000
418.751;  263.000; -549.000; -448.000
418.877;  329.700; -637.000; -643.000
419.002; 3182.500; -688.000; -560.000
419.128;19696.900; -930.000; -721.000
419.253; 4280.300; -967.000; -837.000
419.379;  576.100; -391.000; -338.000
419.504;  723.300;  325.000;  415.000
419.629;  802.400; -393.000; -212.000
419.755; 5666.200; -317.000; -254.000
419.880;30408.500;  -98.000;   67.000
420.006;18464.700; -280.000; -221.000
420.131;46224.000; -662.000; -775.000
420.256; 6190.500; -315.000; -316.000
420.382;  825.300; -665.000; -687.000
420.507;  144.600; -649.000; -778.000
420.632;  352.300; -337.000; -339.000
420.758;  651.600; -251.000; -425.000
420.883; -148.900; -876.000; -672.000
421.008; -103.300; -775.000; -619.000
421.133;  -76.500; -509.000; -467.000
421.259;  -24.100; -325.000; -259.000
421.384; -192.000; -834.000; -693.000
421.509;   50.900;-1052.000; -862.000
421.634; 3009.200; -936.000; -820.000
421.759; 1218.800; -359.000; -327.000
421.885;  -41.700; -717.000; -656.000
422.010;  -68.000; -673.000; -542.000
422.135; -244.200; -695.000; -727.000
422.260;  147.800;  340.000;  280.000
422.385;  -45.300;   12.000;  -98.000
422.510;   84.900;  151.000;  -26.000
422.635;  141.200;  -87.000;  -43.000
422.760;  228.100; -766.000; -791.000
422.885;  119.200;  -57.000;  -80.000
423.010;   11.400; -112.000; -169.000
423.135; -162.400; -481.000; -561.000
423.260;   75.000; -150.000; -245.000
423.385;  186.400;  476.000;  222.000
423.510;  179.500;   71.000;  -22.000
423.635;  212.900;  133.000;   45.000
423.760;  220.600;  383.000;  328.000
423.885;  135.700;  336.000;  391.000
424.010;   84.000;  -68.000;  -13.000
424.135;   36.700;    5.000;  -33.000
424.259;  -93.200; -654.000; -457.000
424.384;  -62.900; -279.000; -272.000
424.509;   84.800; -260.000; -186.000
424.634; -149.200; -761.000; -623.000
424.759;   31.600; -688.000; -544.000
424.883;   -8.000; -506.000; -527.000
425.008;  368.500; -502.000; -410.000
425.133; 3217.700; -679.000; -653.000
425.258; 1421.700; -517.000; -381.000
425.382; 2297.400; -867.000; -774.000
425.507; 5166.600; -487.000; -543.000
425.632;  746.700; -802.000; -663.000
425.756;  773.200; -256.000; -146.000
425.881; 9702.900; -831.000; -857.000
426.006;23498.200; -604.000; -355.000
426.130; 3585.800; -696.000; -508.000
426.255;  521.700; -611.000; -491.000
426.379;  291.500; -189.000; -577.000
426.504;  785.400;  660.000;  544.000
426.629; 7137.400; -519.000; -466.000
426.753; 4462.500;   64.000;  -46.000
426.878;  580.100; -252.000; -288.000
427.002;  417.500; -651.000; -668.000
427.127; 2871.300;  -35.000; -158.000
427.251;18051.900;  372.000;  401.000
427.375; 4681.400; -191.000; -173.000
427.500; 4712.500; -616.000; -610.000
427.624; 1416.800; -234.000; -400.000
427.749;  275.500; -216.000; -225.000
427.873;  -14.700; -499.000; -412.000
427.997;    6.700; -222.000; -230.000
428.122;  216.100;  795.000;  703.000
428.246;  217.100;  433.000;  434.000
428.371; -196.400; -869.000; -773.000
428.495; -121.200; -624.000; -646.000
428.619;   -4.300; -186.000; -117.000
428.743;  165.100;   65.000;  132.000
428.868;  129.400; -732.000; -643.000
428.992; 3083.600; -219.000; -326.000
429.116; 1201.300; -329.000; -357.000
429.240;  709.800;  419.000;  426.000
429.365;    2.300; -454.000; -574.000
429.489;   30.000; -638.000; -647.000
429.613;   87.100; -236.000; -177.000
429.737;  156.100; -563.000; -432.000
429.861;  545.400; -247.000; -133.000
429.985; 9540.600; -425.000; -305.000
430.109; 9317.500; -770.000; -908.000
430.234; 1110.800;   76.000;  -50.000
430.358;  151.300; -250.000; -160.000
430.482;  -35.500; -672.000; -564.000
430.606;  -65.400; -655.000; -375.000
430.730;  139.100; -437.000; -388.000
430.854;  401.200; -909.000; -835.000
430.978;    2.600; -795.000; -764.000
431.102;  -74.500; -499.000; -422.000
431.226;  -37.100; -874.000; -815.000
431.350;  242.000;  345.000;  422.000
431.474;  -26.300; -661.000; -373.000
431.597; -252.600;-1060.000; -848.000
431.721;  -65.100; -276.000; -267.000
431.845; -233.600; -704.000; -472.000
431.969;  -91.600; -304.000; -349.000
432.093; -136.700; -395.000; -317.000
432.217;   56.300;   32.000;   82.000
432.341; -121.300; -523.000; -518.000
432.464;  131.400;   96.000;   40.000
432.588;  572.200; -401.000; -329.000
432.712;  284.500;  -52.000;  -52.000
432.836;  112.200;  213.000;  263.000
432.959;   34.200; -372.000; -311.000
433.083;  162.300;   11.000;    2.000
433.207;  689.200;  285.000;  930.000
433.330; 8190.400; -391.000; -200.000
433.454; 9117.600; -654.000; -638.000
433.578; 5483.100;  583.000;  278.000
433.701;  955.800; -623.000; -675.000
433.825;  359.400; -292.000; -299.000
433.949;  640.100;   28.000;  -72.000
434.072;  241.400; -410.000; -323.000
434.196;   80.400; -309.000; -117.000
434.319; 7976.500;25482.000;25124.000
434.443; 1495.700; -656.000; -603.000
434.566; 4197.500;  281.000;   62.000
434.690;  583.000; -637.000; -383.000
434.813;  145.400; -251.000; -173.000
434.937;  -86.300; -569.000; -696.000
435.060;   -7.500; -423.000; -332.000
435.184; 1026.500; -492.000; -217.000
435.307;  458.300;  159.000;  102.000
435.431;  101.800;  -40.000;   24.000
435.554;  -83.400; -399.000; -240.000
435.677;  -90.600; -350.000; -258.000
435.801;   -8.800;  -25.000;   49.000
435.924;   99.000;    1.000;  -67.000
436.048; -130.200;-1019.000; -732.000
436.171;  -32.300; -240.000;  -66.000
436.294;   14.900; -248.000; -229.000
436.417;  145.800; -963.000; -849.000
436.541; -158.400; -814.000; -840.000
436.664;  -28.000; -242.000; -316.000
436.787;   60.400;   13.000;  113.000
436.910; -160.200; -792.000; -422.000
437.034;  127.600;  142.000;  143.000
437.157;  274.900;  -11.000;    0.000
437.280;   -9.500; -392.000; -292.000
437.403;  -97.100; -982.000; -869.000
437.526; 1933.500; -903.000; -865.000
437.649; 5846.600; -505.000; -332.000
437.772;  841.300; -692.000; -540.000
437.896;  351.500;  700.000;  544.000
438.019; -116.800; -758.000; -503.000
438.142;  -70.500; -596.000; -506.000
438.265;  102.700; -639.000; -670.000
438.388; 1519.300; -520.000; -410.000
438.511;  279.800; -597.000; -394.000
438.634;    1.400; -247.000; -125.000
438.757; -192.200; -693.000; -619.000
438.880;   19.700;  -34.000;  -57.000
439.003;  -92.700; -417.000; -437.000
439.126;  -48.400; -287.000; -167.000
439.248;  -81.700;  -98.000; -139.000
439.371;  -11.100;    9.000;  -53.000
439.494;  115.800;  510.000;  439.000
439.617;   -5.400;   65.000;  -88.000
439.740; -327.600; -968.000; -816.000
439.863; -186.700; -755.000; -595.000
439.986; -217.300; -476.000; -431.000
440.108;  -13.300; -161.000; -112.000
440.231; -269.600; -950.000; -836.000
440.354;   14.500;  -64.000; -150.000
440.477;  165.200; -566.000; -542.000
440.599;  132.400; -200.000; -225.000
440.722; -177.000; -709.000; -586.000
440.845;  224.600;  751.000;  928.000
440.968; -209.600; -415.000; -311.000
441.090;  -77.100; -199.000;  -33.000
441.213; -273.900;-1021.000; -825.000
441.336;    7.100; -159.000;   -5.000
441.458;  -85.500; -549.000; -396.000
441.581;  -65.900; -628.000; -629.000
441.703;  -52.500; -152.000;   13.000
441.826; -134.200; -557.000; -400.000
441.948;  -67.800;   56.000;   51.000
442.071;  137.800;  555.000;  424.000
442.193; -179.000; -531.000; -485.000
442.316;  108.300;  152.000;   97.000
442.438;   83.300; -233.000;  -10.000
442.561;  237.100;  272.000;  262.000
442.683; 1574.300; -809.000; -522.000
442.806; 2882.100;   -8.000;   74.000
442.928;   82.300; -859.000; -604.000
443.051;  -54.000; -577.000; -373.000
443.173; -115.900; -341.000; -339.000
443.295;  -90.600; -263.000; -371.000
443.418;  -85.300; -321.000;  -29.000
443.540;   69.600; -106.000;   -4.000
443.662; -194.000; -563.000; -465.000
443.785;   45.100;  335.000;  199.000
443.907; -176.500; -362.000; -208.000
444.029; -181.500; -767.000; -494.000
444.152; -226.800; -644.000; -554.000
444.274;   -2.200;  -18.000;  -24.000
444.396; -190.400; -461.000; -221.000
444.518; -212.700; -691.000; -454.000
444.640; -146.300; -268.000; -111.000
444.763;   54.500;  388.000;  249.000
444.885; -188.200; -432.000; -392.000
445.007;   18.900;   35.000;   86.000
445.129; -177.900; -610.000; -515.000
445.251; -107.700; -372.000; -439.000
445.373; -232.400; -537.000; -386.000
445.495;  109.600;  242.000;  350.000
445.617;  173.000;  853.000;  753.000
445.739;  -87.900; -215.000;  -97.000
445.861;  -26.800; -245.000; -112.000
445.984;   -0.100; -267.000; -101.000
446.105;  596.100; -418.000; -251.000
446.227; 1425.100; -176.000;  -19.000
446.349;   69.200; -358.000; -249.000
446.471; -138.800; -615.000; -448.000
446.593;  -68.500; -316.000;   19.000
446.715;   89.700;  -67.000;   41.000
446.837;  150.700;  697.000;  832.000
446.959; -107.700; -457.000; -478.000
447.081; -246.100; -628.000; -518.000
447.203;  206.500;  862.000;  834.000
447.325; -142.300; -270.000;   42.000
447.446;   84.700;  286.000;  530.000
447.568; -265.500; -921.000; -803.000
447.690;  -51.400; -236.000; -245.000
447.812; -267.400; -798.000; -519.000
447.933;   35.300;  155.000;  127.000
448.055; -105.900; -306.000; -261.000
448.177;  430.500;   31.000;   79.000
448.299;  220.100; -935.000; -727.000
448.420;  110.700;  -25.000;  159.000
448.542;  -42.200;   -3.000;   33.000
448.664;   13.100;  109.000;  322.000
448.785;  -36.600;  265.000;   83.000
448.907;  -66.900; -614.000; -353.000
449.028;  -38.900; -771.000; -471.000
449.150;  200.300;  492.000;  589.000
449.272; -311.600;-1044.000; -913.000
449.393;  186.300;  612.000;  694.000
449.515; -259.100; -634.000; -581.000
449.636;  -12.800; -264.000; -155.000
449.758;  209.200;  763.000;  622.000
449.879; -124.200; -498.000; -396.000
450.001;  -90.200; -149.000;  -49.000
450.122;   50.200;  -95.000;  162.000
450.244;    0.000;   37.000;  364.000
450.365; -113.100; -495.000; -301.000
450.486;  -42.300;   80.000;  268.000
450.608;   87.400;  393.000;  326.000
450.729;  137.300;  578.000;  645.000
450.850;    4.900; -574.000; -466.000
450.972; 1105.000; -552.000; -389.000
451.093; 7424.000;  190.000;  588.000
451.214; 2651.700; -516.000; -337.000
451.336;  591.800;  773.000;  579.000
451.457;  128.900;  264.000;  393.000
451.578;   20.300; -118.000;  -74.000
451.699; -208.000; -546.000; -540.000
451.821;  -51.100; -284.000;  -50.000
451.942;   -0.900;  278.000;  285.000
452.063;  121.400;  228.000;  419.000
452.184;  914.400;  -54.000;  -49.000
452.305; 1727.800;  103.000;  170.000
452.427;  138.300; -549.000; -301.000
452.548;   16.700;   23.000;   79.000
452.669;  -52.800; -257.000;  -89.000
452.790;  -49.200;    3.000;  -18.000
452.911;   49.400;  195.000;  259.000
453.032;  -19.700; -289.000;  -60.000
453.153;   -9.100;  -29.000;   81.000
453.274;  206.000;  737.000;  868.000
453.395;  -64.800;  -51.000;  175.000
453.516;  349.600; 1317.000; 1388.000
453.637;  -61.800; -205.000; -150.000
453.758;   -0.500;   15.000;   69.000
453.879; -205.800; -462.000; -250.000
454.000;  252.400; 1086.000;  948.000
454.121; -194.700; -554.000; -326.000
454.242; -173.400; -599.000; -383.000
454.362;  -45.800;  -99.000;  114.000
454.483;   23.400; -309.000; -229.000
454.604;  198.600;  512.000;  580.000
454.725; -207.400; -627.000; -555.000
454.846; -209.500; -474.000; -406.000
454.967;   55.300;  230.000;  539.000
455.087;  -34.300;  179.000;  153.000
455.208;  100.700;  554.000;  856.000
455.329;  -92.400;  -22.000;   82.000
455.450;  118.700;  473.000;  633.000
455.570; -160.700; -234.000; -211.000
455.691;   -9.900;  201.000;  407.000
455.812; -157.900; -270.000;  -92.000
455.932;  -38.400;  107.000;  -97.000
456.053; -119.700;   36.000;   24.000
456.173; -147.500; -433.000; -355.000
456.294; -218.600; -476.000; -303.000
456.415;  -84.100;  -73.000;   70.000
456.535;  -29.200;  297.000;  273.000
456.656;   -4.600;  132.000;  240.000
456.776;  -71.400;    3.000;  298.000
456.897;  108.600;  308.000;  513.000
457.017; -113.000; -153.000;   -3.000
457.138; -126.300; -402.000; -249.000
457.258;  -13.600;  263.000;  224.000
457.379;   74.400;  509.000;  521.000
457.499;    9.700;  443.000;  432.000
457.620; -188.100; -407.000; -231.000
457.740; -123.100; -132.000;  -11.000
457.860;  -42.400;   87.000;   44.000
457.981;  -25.500;  132.000;  124.000
458.101;  -75.600;  -89.000;   40.000
458.221;   26.600;  336.000;  402.000
458.342;  -29.900;   -4.000;  -37.000
458.462;   83.600;  617.000;  352.000
458.582;   -9.300; -302.000; -294.000
458.703;   -8.200;  303.000;  154.000
458.823;  -19.200;   22.000;  163.000
458.943;   86.200;  341.000;  467.000
459.063;   68.400; 1124.000;  192.000
459.183;   -4.900;  328.000;  313.000
459.304;   99.600;  315.000;  517.000
459.424;  -83.300; -246.000;  -89.000
459.544;  617.600;  388.000;  764.000
459.664; 1346.800;  499.000;  506.000
459.784;  560.500; 1004.000; 1175.000
459.904;  148.000;  867.000;  744.000
460.024;  241.200;  867.000;  684.000
460.144;  104.400;  449.000;  554.000
460.264;  115.500;  515.000;  327.000
460.385; -135.300; -145.000; -119.000
460.505;  198.300;  905.000;  858.000
460.625; -154.800;  -17.000;  -68.000
460.745;   44.300;  396.000;  541.000
460.864;  -40.000;  153.000;  469.000
460.984;  134.800;  499.000;  573.000
461.104;  370.600; 1656.000; 1775.000
461.224;  139.700;  657.000;  650.000
461.344;   23.100;  431.000;  360.000
461.464;   32.600;  258.000;  513.000
461.584;   32.900;  283.000;  466.000
461.704;  -20.600;   58.000;  108.000
461.824;  -61.500;  238.000;  259.000
461.943;    2.400;  191.000;  130.000
462.063;  -84.100;    2.000;  324.000
462.183;  144.300;  639.000;  717.000
462.303;  282.400; 1678.000; 1230.000
462.422;  160.400;  781.000;  840.000
462.542;  -22.200;  271.000;  391.000
462.662;  184.400;  353.000;  380.000
462.782;  455.900;  833.000;  572.000
462.901;  834.900;  545.000;  717.000
463.021;  583.900; 1702.000; 1638.000
463.141;   50.700;  337.000;  770.000
463.260;   -6.100;  614.000;  474.000
463.380;  113.200;  902.000;  884.000
463.499;  -53.500;  342.000;  332.000
463.619;    4.800;  581.000;  559.000
463.738;  301.300; 1644.000;  903.000
463.858;  131.300;  657.000;  811.000
463.978;  -22.900;  542.000;  396.000
464.097;  181.600;  921.000; 1114.000
464.217;  255.200; 1196.000; 1143.000
464.336;  311.300; 1068.000; 1130.000
464.455;  -28.100;  328.000;  659.000
464.575;  173.500;  597.000;  602.000
464.694;  428.900; 1204.000; 1179.000
464.814;  307.200; 1190.000; 1138.000
464.933;  226.600; 1095.000; 1027.000
465.052;  303.500; 1412.000; 1054.000
465.172;  208.500;  922.000;  799.000
465.291;  350.800; 1376.000; 1320.000
465.410;   90.900;  462.000;  735.000
465.530;  305.500; 1355.000; 1310.000
465.649;  190.700; 1209.000; 1273.000
465.768;  366.000; 1673.000; 1508.000
465.888;  196.800;  941.000; 1174.000
466.007;  263.900; 1335.000; 1440.000
466.126;   56.800;  721.000;  641.000
466.245;  173.100; 1176.000; 1187.000
466.364;   61.500;  950.000; 1060.000
466.484;  206.000; 1024.000; 1213.000
466.603;  107.900; 1101.000; 1222.000
466.722;  355.700; 1490.000; 1769.000
466.841;  214.900; 1151.000; 1401.000
466.960;  174.600; 1069.000;  972.000
467.079;  305.300; 1971.000; 1786.000
467.198;  205.700; 1238.000; 1181.000
467.317;  247.000; 1768.000; 1162.000
467.436;  263.300; 1709.000; 1261.000
467.555;  308.500; 1796.000; 1746.000
467.674;  230.600; 1227.000; 1329.000
467.793;  136.500; 1376.000; 1374.000
467.912;  267.400; 1658.000; 1539.000
468.031;  355.800; 2038.000; 1930.000
468.150;  398.200; 1842.000; 1837.000
468.269;  489.300; 2313.000; 2090.000
468.388;  496.700; 2168.000; 2339.000
468.507;  602.300; 2884.000; 2903.000
468.626;  655.600; 2555.000; 2541.000
468.744;  313.800; 2018.000; 2174.000
468.863;  505.900; 2312.000; 2523.000
468.982;  219.800; 1503.000; 1555.000
469.101;  546.000; 2788.000; 2692.000
469.220;  370.200; 2333.000; 2176.000
469.338;  547.600; 2935.000; 3051.000
469.457;  447.900; 2719.000; 2545.000
469.576;  805.300; 3953.000; 3784.000
469.695;  578.400; 2877.000; 3066.000
469.813;  939.200; 4148.000; 4192.000
469.932;  897.000; 4255.000; 4485.000
470.051;  948.800; 4075.000; 4161.000
470.169; 1637.000; 4470.000; 4338.000
470.288; 2553.400; 4700.000; 4809.000
470.406; 1643.000; 5059.000; 5194.000
470.525; 1363.300; 6101.000; 5787.000
470.644; 1381.600; 6847.000; 6794.000
470.762; 1746.700; 8397.000; 7873.000
470.881; 1848.700; 8651.000; 8464.000
470.999; 2125.700; 9685.000; 9151.000
471.118; 2392.300;11174.000;10711.000

