
Integration time [ms]: 100.000
Averaging Nr. [scans]: 40
Smoothing Nr. [pixels]: 0
Data measured with spectrometer [name]: 2101012U2
Wave   ;Sample   ;Dark     ;Reference
[nm]   ;[counts] ;[counts] ;[counts] 

197.733;   60.050;  516.000;  404.000
197.879;  -79.150; -610.000; -634.000
198.025;  -48.725; -475.000; -420.000
198.171;  -72.250; -602.000; -612.000
198.317;  -44.525; -401.000; -316.000
198.463;  -63.700; -655.000; -404.000
198.609;   26.600;  181.000; -137.000
198.755;  -93.525; -644.000; -410.000
198.901;  -73.025; -505.000; -424.000
199.047;  -74.125; -615.000; -488.000
199.193;  -29.750; -230.000; -468.000
199.339;  -40.975; -222.000; -369.000
199.485;   37.550;  330.000;  271.000
199.631;   19.575;  227.000;  310.000
199.777;  -58.275; -466.000; -398.000
199.923;  -69.650; -610.000; -424.000
200.069;   -9.450; -141.000;  -58.000
200.215;   47.400;  128.000;  453.000
200.361;   35.025;  243.000;  477.000
200.507;  -66.800; -600.000; -373.000
200.653;  -21.800; -371.000; -194.000
200.798;  -40.050; -215.000; -125.000
200.944;    3.875; -146.000;  -41.000
201.090;   25.525;   61.000;  222.000
201.236;  -11.475; -116.000; -158.000
201.382;  116.775;  874.000;  903.000
201.528;    7.950;  -58.000;  -48.000
201.674;  -59.400; -386.000; -293.000
201.819;  -70.425; -540.000; -439.000
201.965;  -96.575; -699.000; -447.000
202.111;  -16.750; -273.000; -226.000
202.257;  -43.600; -250.000; -238.000
202.402;   28.050;   13.000;  -36.000
202.548;  -38.275; -169.000; -116.000
202.694;   93.150;  410.000; -183.000
202.840;  -75.900; -603.000; -531.000
202.985;  -72.025; -681.000; -639.000
203.131; -119.025; -832.000; -666.000
203.277;  -23.250; -199.000; -262.000
203.423;  -62.200; -434.000; -520.000
203.568;  -39.300; -462.000; -237.000
203.714;  -56.475; -535.000; -542.000
203.860;  -91.925; -682.000; -641.000
204.005;   14.150;  112.000;  167.000
204.151;   85.850;  561.000;  556.000
204.296;  -44.850; -354.000; -221.000
204.442;  -77.400; -600.000; -547.000
204.588;  -78.525; -592.000; -579.000
204.733;   33.400;  178.000;  168.000
204.879; -137.150;-1018.000; -822.000
205.025;    9.525;  -99.000;  126.000
205.170;  -14.750;  -17.000;   94.000
205.316;   79.225;  438.000;  661.000
205.461;  -82.050; -698.000; -554.000
205.607;   84.600;  609.000;  665.000
205.752;  -71.850; -626.000; -551.000
205.898;  -59.975; -501.000; -391.000
206.043;  -69.125; -578.000; -506.000
206.189;  -28.375; -243.000; -285.000
206.334;   73.200;  554.000;  606.000
206.480;   92.275;  409.000;  239.000
206.625;  -80.250; -529.000; -552.000
206.771;  -45.150; -451.000; -373.000
206.916;  -33.900; -210.000; -537.000
207.062;  -66.400; -545.000; -591.000
207.207;  -59.775; -546.000; -443.000
207.353;   61.550;  185.000;  460.000
207.498;   12.550;  196.000;   85.000
207.643;  -50.775; -501.000; -370.000
207.789; -143.600;-1069.000; -910.000
207.934;  -90.275; -665.000; -713.000
208.080;  -28.275; -154.000;   66.000
208.225;   -0.625;  -22.000;  -57.000
208.370;  -81.975; -727.000; -619.000
208.516;  -68.300; -741.000; -487.000
208.661;  -23.100; -127.000;  -69.000
208.806;  -28.775; -165.000; -171.000
208.952; -120.300;-1044.000; -731.000
209.097;   82.050;  378.000;  349.000
209.242;  -46.850; -307.000; -382.000
209.387;   76.500;  392.000;  350.000
209.533;  -61.300; -321.000; -350.000
209.678;   92.425;  472.000;  543.000
209.823;  -64.700; -408.000; -310.000
209.969; -105.325; -860.000; -757.000
210.114; -125.350; -907.000; -719.000
210.259; -107.875; -939.000; -889.000
210.404;  -11.950; -171.000;  103.000
210.549;   10.125;  108.000;    3.000
210.695;  -15.375;   -3.000;  -95.000
210.840;   35.075;   94.000;   67.000
210.985;  -69.325; -484.000; -303.000
211.130;   79.400;  268.000;  406.000
211.275;   14.325;  207.000;  199.000
211.420;  -51.100; -300.000; -289.000
211.566;  -79.225; -536.000; -489.000
211.711;   20.050;  218.000;  157.000
211.856;  -61.050; -545.000; -519.000
212.001;    6.975;  151.000;   44.000
212.146;   33.775;  153.000;   49.000
212.291;  -26.575; -210.000; -186.000
212.436;  -31.150; -280.000;   -6.000
212.581;  -90.175; -685.000; -653.000
212.726;  -88.925; -487.000; -538.000
212.871;  -58.950; -552.000; -217.000
213.016; -155.725;-1172.000;-1029.000
213.161;   65.750;  406.000;  291.000
213.306;  -77.850; -435.000; -577.000
213.451; -102.550; -778.000; -689.000
213.596;  -66.850; -455.000; -347.000
213.741;  -48.250; -448.000; -538.000
213.886;  -91.875; -498.000; -517.000
214.031;  -25.150; -294.000; -124.000
214.176;  -48.675; -408.000; -341.000
214.321;   -9.200; -296.000; -157.000
214.466;  -39.675; -163.000;  -43.000
214.611;   13.300;  -61.000;  -10.000
214.756; -132.050; -948.000; -858.000
214.901;  -30.100; -388.000; -226.000
215.046; -126.025; -797.000; -825.000
215.191;   10.625;  128.000;   35.000
215.336;  -11.200; -157.000;  -19.000
215.480;  -73.750; -684.000; -505.000
215.625;   -2.850; -175.000;  -19.000
215.770;  -84.475; -757.000; -662.000
215.915;   -6.475;   -5.000;  -97.000
216.060;   -1.125; -113.000;  -21.000
216.205; -114.175; -731.000; -779.000
216.349;  -68.450; -470.000; -533.000
216.494; -137.875; -939.000; -867.000
216.639; -119.600; -823.000; -888.000
216.784;  -92.375; -577.000; -525.000
216.929;   44.725;  392.000;  281.000
217.073;  -21.800; -244.000;  -31.000
217.218;    7.225;   78.000;  -47.000
217.363;  -90.950; -656.000; -618.000
217.507;  -85.950; -623.000; -588.000
217.652; -130.550; -845.000; -874.000
217.797;  -81.600; -708.000; -659.000
217.942; -112.175; -856.000; -720.000
218.086;   81.700;  608.000;  539.000
218.231;  -30.050; -174.000;  -26.000
218.376;  -37.450; -337.000; -229.000
218.520;   -4.475;  -41.000;   96.000
218.665;  -18.800; -338.000; -204.000
218.810;  -52.250; -275.000; -233.000
218.954;   27.150;  201.000;   35.000
219.099; -124.350; -713.000; -963.000
219.243;  -74.550; -589.000; -554.000
219.388;  -30.375; -264.000; -136.000
219.532;   -8.600; -116.000; -116.000
219.677;  -86.725; -564.000; -521.000
219.822;   -5.750;   33.000;   89.000
219.966;   11.050;   17.000;  -99.000
220.111;  -27.625; -328.000;  -40.000
220.255; -103.025; -797.000; -750.000
220.400;  -10.525; -180.000; -146.000
220.544;  -72.400; -516.000; -450.000
220.689;  -46.675; -422.000; -451.000
220.833;  -29.150; -123.000;  -58.000
220.978;  -42.975; -393.000; -563.000
221.122;   11.950;  319.000;  307.000
221.267; -119.325; -906.000; -837.000
221.411;  -66.775; -478.000; -394.000
221.555;  -19.250; -104.000;  -23.000
221.700;  -43.000; -329.000; -222.000
221.844;   35.275;  255.000;  272.000
221.989;  -38.775; -328.000; -311.000
222.133;  -28.900; -289.000; -307.000
222.277;  -24.975;    5.000;   78.000
222.422;   18.125;  227.000;  113.000
222.566;  -45.150; -381.000; -214.000
222.711;  -51.675; -414.000; -479.000
222.855;  -86.950; -643.000; -586.000
222.999;  -85.200; -642.000; -717.000
223.144;  -26.625; -195.000; -194.000
223.288;   43.075;  423.000;  251.000
223.432;   38.250;  184.000;  230.000
223.576;   20.650;  152.000;  -21.000
223.721;   36.750;  364.000;  273.000
223.865;  -55.075; -472.000; -475.000
224.009;  247.250; 1673.000; 1631.000
224.153;  -78.950; -660.000; -671.000
224.298;  -77.450; -531.000; -489.000
224.442;  -22.750;  -74.000;  -33.000
224.586;   -9.475; -169.000; -106.000
224.730;  -93.325; -858.000; -670.000
224.875; -119.900; -739.000; -688.000
225.019;   16.025;  102.000;  188.000
225.163;   59.850;  208.000;  341.000
225.307;   19.775;   97.000;  -91.000
225.451;   36.825;  360.000;  481.000
225.595;   41.825;  264.000;  176.000
225.739;  -20.775; -170.000;  -94.000
225.884;    1.525;   86.000;    5.000
226.028; -116.650; -760.000; -626.000
226.172;  -45.375; -260.000; -273.000
226.316; -119.875; -941.000; -902.000
226.460;  -60.750; -645.000; -493.000
226.604;  -52.625; -406.000; -400.000
226.748; -102.500; -836.000; -733.000
226.892;  -39.150; -227.000; -181.000
227.036;  -55.200; -537.000; -447.000
227.180;  -65.675; -551.000; -375.000
227.324;  -66.425; -561.000; -580.000
227.468; -122.900; -819.000; -717.000
227.612;   12.475;  242.000;  -28.000
227.756; -113.250; -845.000; -698.000
227.900;   50.250;  342.000;  441.000
228.044;  -57.425; -509.000; -290.000
228.188;   61.175;  448.000;  568.000
228.332;  -87.050; -546.000; -472.000
228.476;  -27.800; -223.000; -149.000
228.620;  -34.025; -210.000; -150.000
228.764;   67.100;  431.000;  349.000
228.908;  -30.825; -155.000;   30.000
229.052;  -68.125; -615.000; -528.000
229.195;  -27.150; -172.000;   13.000
229.339;  -28.075; -235.000; -305.000
229.483;  -37.825;    5.000; -162.000
229.627;   -9.075; -156.000;  139.000
229.771;  -54.375; -218.000; -294.000
229.915;   11.200;  230.000;   79.000
230.059; -104.225; -648.000; -663.000
230.202;  -46.750; -370.000; -317.000
230.346;  -24.250; -107.000;  107.000
230.490;  -55.500; -489.000; -521.000
230.634; -113.175; -736.000; -553.000
230.777;   71.425;  478.000;  509.000
230.921;  -65.100; -450.000; -359.000
231.065;  -30.975; -246.000; -286.000
231.209;   35.775;  261.000;  265.000
231.352;   26.050;   54.000;   40.000
231.496;   19.925;  568.000;  188.000
231.640;  -78.800; -693.000; -621.000
231.783;   55.825;  546.000;  525.000
231.927;  -49.875; -294.000; -365.000
232.071; -132.850; -962.000; -736.000
232.214; -115.275; -980.000; -764.000
232.358; -101.975; -683.000; -599.000
232.502;   -3.625;  -19.000;    7.000
232.645; -149.875;-1090.000; -927.000
232.789;  -21.950; -257.000; -218.000
232.933;  -46.625; -407.000; -224.000
233.076; -122.750;-1038.000; -897.000
233.220; -113.475; -752.000; -777.000
233.363;  -78.600; -669.000; -477.000
233.507;   56.925;  371.000;  129.000
233.650; -101.050; -764.000; -834.000
233.794;   39.850;  438.000;  461.000
233.938;  -68.850; -530.000; -362.000
234.081;  -15.375;  -93.000;   31.000
234.225;  -72.725; -631.000; -539.000
234.368; -127.525; -773.000; -723.000
234.512;  -47.675; -385.000; -299.000
234.655;  -89.525; -582.000; -555.000
234.798;  -75.300; -493.000; -466.000
234.942; -128.250; -884.000;-1002.000
235.085;  -70.125; -651.000; -443.000
235.229;  -83.625; -405.000; -410.000
235.372;  -48.875; -247.000; -191.000
235.516;  -68.525; -397.000; -321.000
235.659;   33.050;   92.000;  121.000
235.802;   -5.175;  -38.000;  -22.000
235.946;   22.800;  335.000;  215.000
236.089;   30.375;  126.000;  250.000
236.233;   44.300;  275.000;  298.000
236.376;  -72.750; -235.000; -378.000
236.519;  -44.500; -297.000; -319.000
236.663;  -38.700; -215.000; -117.000
236.806; -138.050;-1029.000; -999.000
236.949;   34.725;  543.000;  431.000
237.092;   69.700;  412.000;  391.000
237.236;  -93.800; -589.000; -502.000
237.379;   69.800;  352.000;  428.000
237.522; -122.500; -879.000; -768.000
237.666;   -9.475; -271.000;   18.000
237.809; -129.225; -851.000; -823.000
237.952;   33.000;  469.000;  271.000
238.095;  -65.350; -447.000; -442.000
238.238;   88.625;  688.000;  700.000
238.382;  -12.350;  166.000;  103.000
238.525;  -66.350; -598.000; -511.000
238.668; -147.925;-1060.000; -985.000
238.811;  -84.150; -638.000; -643.000
238.954;  -48.375; -483.000; -334.000
239.097;  102.600;  617.000;  664.000
239.241;   21.700;  394.000;  326.000
239.384;  -31.950; -254.000; -214.000
239.527;  -64.475; -424.000; -224.000
239.670; -142.150; -994.000;-1091.000
239.813; -111.925; -696.000; -658.000
239.956;   82.275;  579.000;  473.000
240.099; -120.550; -778.000; -725.000
240.242;   63.825;  428.000;  432.000
240.385;   51.975;  466.000;  450.000
240.528;  -72.500; -706.000; -473.000
240.671;   22.075;  189.000;  134.000
240.814;  -42.800; -441.000; -158.000
240.957; -105.000; -767.000; -578.000
241.100;  -96.825; -779.000; -755.000
241.243; -152.850;-1234.000; -893.000
241.386;  -67.425; -508.000; -379.000
241.529; -108.875; -735.000; -547.000
241.672;  -75.925; -566.000; -495.000
241.815; -129.025; -832.000; -808.000
241.958;  -32.675; -125.000; -182.000
242.101;  -87.700; -545.000; -390.000
242.244;  -43.100; -270.000; -325.000
242.387;  -47.425; -304.000; -246.000
242.530;   64.950;  470.000;  134.000
242.673;  -57.450; -381.000; -309.000
242.815; -122.075; -925.000; -899.000
242.958;  -86.300; -482.000; -381.000
243.101;   20.425;  132.000;  187.000
243.244;  -84.175; -564.000; -521.000
243.387;  -52.925; -313.000; -316.000
243.530;  -94.475; -657.000; -674.000
243.672;   -4.625;   43.000;  -92.000
243.815;  -60.325; -355.000; -283.000
243.958;   -6.300;   98.000;  -26.000
244.101;    2.975;   59.000;  -16.000
244.243;  -21.225;  -47.000;  101.000
244.386; -114.775; -761.000; -630.000
244.529;  -30.800; -132.000; -139.000
244.672; -165.725;-1154.000; -951.000
244.814;  -99.850; -621.000; -794.000
244.957;  -63.875; -380.000; -304.000
245.100;  -75.375; -489.000; -489.000
245.242;  -66.000; -387.000; -374.000
245.385;   -7.150;  -59.000;  -39.000
245.528; -133.875; -871.000; -705.000
245.670;   92.325;  612.000;  634.000
245.813;  -80.475; -599.000; -547.000
245.956;  -25.425; -324.000; -275.000
246.098;  -73.425; -508.000; -650.000
246.241;   10.550;  194.000;   48.000
246.383;  -21.925; -119.000;  -73.000
246.526;  -74.350; -454.000; -525.000
246.669; -118.075; -889.000; -780.000
246.811;    7.725;  172.000;   -1.000
246.954;  -67.625; -512.000; -426.000
247.096;  -17.550;  -84.000;   -6.000
247.239;  -67.525; -482.000; -445.000
247.381;  -78.725; -647.000; -488.000
247.524;   76.750;  645.000;  679.000
247.666;   -6.700;   58.000;   11.000
247.809; -125.225; -887.000; -691.000
247.951;  -14.950;  -75.000;  138.000
248.094;   32.150;  432.000;  308.000
248.236; -155.025;-1262.000;-1238.000
248.378;    1.375; -356.000;  -81.000
248.521;  -28.050; -334.000; -337.000
248.663;  -44.125; -236.000; -267.000
248.806;  -17.700; -300.000; -266.000
248.948; -105.150; -886.000; -763.000
249.090;  -51.825; -428.000; -398.000
249.233;  -51.025; -344.000; -381.000
249.375;  -48.800; -474.000; -451.000
249.518;  -29.125;  -83.000; -133.000
249.660;   -8.500; -103.000;    3.000
249.802; -181.200;-1303.000;-1189.000
249.945;  -72.875; -612.000; -540.000
250.087; -118.350; -834.000; -768.000
250.229;  -43.700; -362.000; -480.000
250.371;  -75.725; -494.000; -439.000
250.514;  -54.625; -310.000; -244.000
250.656;  -65.425;   69.000;  102.000
250.798; -143.450; -849.000; -800.000
250.940;  -57.125; -322.000; -322.000
251.083;  -12.125; -335.000; -111.000
251.225;   60.925;  338.000;  310.000
251.367;  -44.825; -274.000; -373.000
251.509;  -39.000; -265.000; -210.000
251.651;  -93.225; -731.000; -671.000
251.794;   43.375;  538.000;  632.000
251.936; -105.800; -821.000; -747.000
252.078;  -79.925; -540.000; -461.000
252.220;  -68.875; -645.000; -477.000
252.362;   83.150;  344.000;  462.000
252.504;  -67.925; -677.000; -584.000
252.646; -120.675; -875.000; -722.000
252.788;    4.800;   14.000; -128.000
252.931;  -37.825; -257.000; -253.000
253.073;  -47.575; -376.000; -317.000
253.215;   -4.075;  141.000;  122.000
253.357;  -16.675;   82.000; -153.000
253.499;  -56.275; -374.000; -234.000
253.641;  -92.250; -749.000; -594.000
253.783;  -89.550; -609.000; -527.000
253.925;  -94.250; -586.000; -591.000
254.067; -113.825; -744.000; -667.000
254.209;  -33.575; -391.000; -259.000
254.351; -138.800; -865.000; -883.000
254.493;  -59.625; -441.000; -417.000
254.635; -126.450; -936.000; -818.000
254.777;  -82.125; -752.000; -687.000
254.918;  -76.925; -512.000; -430.000
255.060;  -60.875; -551.000; -395.000
255.202;  -70.475; -473.000; -261.000
255.344;  -72.925; -658.000; -455.000
255.486;  -80.775; -471.000; -406.000
255.628; -113.875; -780.000; -781.000
255.770; -101.025; -676.000; -536.000
255.912;  -66.875; -559.000; -468.000
256.053;  -74.975; -730.000; -508.000
256.195;  165.725; 1008.000;  903.000
256.337; -107.500; -861.000; -595.000
256.479;   66.675;  532.000;  416.000
256.621;  -56.225; -394.000; -212.000
256.762;  -98.200; -789.000; -742.000
256.904;   53.950;  485.000;  487.000
257.046;  -45.750; -381.000; -271.000
257.188;  -62.800; -351.000; -264.000
257.329;  -77.700; -525.000; -464.000
257.471; -127.775; -939.000; -807.000
257.613;  -78.175; -584.000; -498.000
257.755; -155.850;-1073.000; -982.000
257.896;   25.350;  286.000;  392.000
258.038;  -67.325; -403.000; -352.000
258.180;  -45.050; -354.000; -279.000
258.321;  -95.025; -581.000; -457.000
258.463;    6.875;  -71.000;  133.000
258.605;  -90.975; -562.000; -570.000
258.746;  -95.275; -886.000; -772.000
258.888; -153.875;-1026.000;-1020.000
259.029;   24.525;  121.000;   -8.000
259.171;  -95.125; -614.000; -550.000
259.313;   -0.775;  -49.000;  -47.000
259.454;  -77.100; -536.000; -414.000
259.596;  -62.225; -483.000; -390.000
259.737;  -77.725; -590.000; -474.000
259.879;   50.375;  217.000;  311.000
260.020;   90.550;  901.000;  636.000
260.162;  -41.350; -146.000; -253.000
260.303; -118.625; -768.000; -687.000
260.445;  -78.775; -609.000; -613.000
260.586;   31.150;  392.000;  157.000
260.728;  -31.950; -360.000; -248.000
260.869; -112.075; -350.000; -343.000
261.011;   88.800;  706.000;  537.000
261.152;  -55.175; -479.000; -319.000
261.293;  -80.775; -576.000; -595.000
261.435;  -33.350; -219.000; -184.000
261.576;  -60.025; -455.000; -325.000
261.718;   44.900;  420.000;  470.000
261.859; -124.075; -940.000; -949.000
262.000; -142.275; -951.000;-1016.000
262.142;  -16.225;  -52.000;  -60.000
262.283; -118.775; -808.000; -691.000
262.424;  -87.825; -666.000; -625.000
262.566; -155.950;-1161.000; -983.000
262.707; -125.775; -840.000; -830.000
262.848; -131.825; -769.000; -726.000
262.990;  -45.500; -362.000; -345.000
263.131;   83.550;  650.000;  681.000
263.272;   -3.950;  -61.000;  -41.000
263.413;  -87.575; -589.000; -561.000
263.555;  -68.500; -669.000; -143.000
263.696;  -88.225; -550.000; -641.000
263.837;  -56.150; -449.000; -551.000
263.978;    4.975;   -5.000;  -77.000
264.119;  -45.725; -283.000; -264.000
264.261; -127.850; -847.000; -630.000
264.402;    9.575;   33.000;   40.000
264.543;  -65.375; -509.000; -524.000
264.684;   -5.475;   61.000;  -50.000
264.825;  -70.150; -816.000; -538.000
264.966;   -8.400;  -84.000;  -67.000
265.107; -126.975; -646.000; -670.000
265.248; -130.650; -825.000; -812.000
265.390;   -9.025;  152.000;   -9.000
265.531;  -19.575; -238.000; -107.000
265.672;  -83.200; -557.000; -630.000
265.813;   73.675;  563.000;  439.000
265.954; -153.775; -959.000; -940.000
266.095;  -16.875; -372.000; -322.000
266.236;  -90.300; -686.000; -548.000
266.377;  -36.750; -243.000; -297.000
266.518;  -70.050; -619.000; -547.000
266.659;   44.675;  170.000;  268.000
266.800;    4.800;   83.000;   85.000
266.941;  -66.900; -487.000; -478.000
267.082;   15.400;  354.000;   99.000
267.223;  -52.425; -344.000; -273.000
267.364; -116.275; -892.000; -686.000
267.504;  -17.425;    3.000;  135.000
267.645;   -4.675;  160.000;   67.000
267.786;  -41.150; -147.000;  -86.000
267.927;  -84.900; -473.000; -379.000
268.068;  -11.850; -186.000;  -61.000
268.209;  -57.775; -175.000; -413.000
268.350;  -67.125; -388.000; -532.000
268.490;  -77.000; -648.000; -521.000
268.631;   22.125;  127.000;  225.000
268.772; -116.125; -874.000; -647.000
268.913;  -52.975; -328.000; -476.000
269.054;  -17.725; -117.000;   12.000
269.194;  -42.150; -418.000; -402.000
269.335; -163.750;-1137.000;-1074.000
269.476;  -17.900;   33.000;  -35.000
269.617;  -44.100; -347.000; -392.000
269.757;  -99.800; -713.000; -646.000
269.898; -109.525; -856.000; -613.000
270.039;  -53.475; -415.000; -405.000
270.180; -147.500; -952.000; -816.000
270.320;  -11.500; -190.000; -250.000
270.461;  -47.850; -277.000; -249.000
270.602;   -9.750; -186.000; -156.000
270.742; -125.325; -868.000; -943.000
270.883;  -43.100; -442.000; -390.000
271.023;  -54.500; -358.000; -357.000
271.164;  -66.500; -607.000; -528.000
271.305;  -96.800; -666.000; -654.000
271.445; -100.050; -722.000; -683.000
271.586;  -77.475; -462.000; -283.000
271.726;  -46.425; -397.000; -322.000
271.867;  -61.875; -594.000; -534.000
272.008;  196.750; -473.000; -285.000
272.148;  131.575;  462.000;  468.000
272.289;   17.000; -113.000; -181.000
272.429;   18.250;   19.000;  185.000
272.570;  -74.100; -633.000; -737.000
272.710; -102.025; -825.000; -775.000
272.851;  -19.075;  113.000; -130.000
272.991; -158.100;-1173.000;-1077.000
273.131;  -67.800; -419.000; -459.000
273.272;  -98.625; -683.000; -723.000
273.412;    9.450; -143.000;  -31.000
273.553;  -44.500; -488.000; -507.000
273.693;  151.875;  913.000;  858.000
273.834; -103.900; -894.000; -692.000
273.974;  -66.525; -664.000; -615.000
274.114;  -87.125; -772.000; -560.000
274.255;   84.950;  414.000;  373.000
274.395;   15.925; -180.000; -125.000
274.535;   49.075;  199.000;  350.000
274.676;   32.100;  225.000;   94.000
274.816;   13.300;  110.000;   34.000
274.956;  -81.600; -624.000; -690.000
275.097;  -67.900;-1014.000; -922.000
275.237; -110.425; -913.000; -803.000
275.377;  -98.400; -778.000; -689.000
275.517; -152.225; -878.000; -937.000
275.658;  -61.600; -590.000; -555.000
275.798;  -62.550; -606.000; -413.000
275.938;   19.850;  215.000;  323.000
276.078;  -87.575; -626.000; -395.000
276.218;   10.700;   99.000;  104.000
276.359; -116.325;-1026.000;-1024.000
276.499;  -61.925; -605.000; -446.000
276.639;  -41.175; -305.000; -151.000
276.779;  -40.825; -475.000; -357.000
276.919; -111.725; -783.000; -624.000
277.059;   -4.900; -261.000; -212.000
277.199;  -40.975; -357.000; -259.000
277.340;   46.175;  287.000;  175.000
277.480; -112.375; -840.000; -693.000
277.620;   47.575;  192.000;   16.000
277.760; -204.725;-1533.000;-1294.000
277.900;   28.800;  113.000;   33.000
278.040;   18.400;  137.000;  159.000
278.180;   26.725;  270.000;  170.000
278.320;    3.000;   21.000;   56.000
278.460;  -68.475; -443.000; -469.000
278.600;  -96.650; -708.000; -598.000
278.740;   55.300;  448.000;  224.000
278.880;  -16.325; -768.000; -791.000
279.020;   14.600; -194.000; -144.000
279.160;  -83.250; -672.000; -595.000
279.300; -113.825; -926.000; -873.000
279.440;  -94.650; -709.000; -622.000
279.579;  -16.175;-1014.000; -929.000
279.719;  -44.150; -410.000; -394.000
279.859;   83.525;   -4.000;   41.000
279.999;   34.875; -208.000;  101.000
280.139;  -13.400; -435.000; -387.000
280.279;  -77.475; -708.000; -745.000
280.419;   -8.075; -229.000; -147.000
280.559;  -20.700; -259.000; -180.000
280.698;  -79.625; -790.000; -639.000
280.838;  -84.525; -778.000; -800.000
280.978;  -89.200; -846.000; -790.000
281.118; -113.000; -811.000; -704.000
281.257;    5.075;   24.000;    6.000
281.397;  -92.475;-1094.000; -960.000
281.537;  -84.350; -599.000; -712.000
281.677;  -33.250; -150.000; -101.000
281.816;  -81.825; -700.000; -630.000
281.956;  -29.475; -193.000; -257.000
282.096;  -62.025; -539.000; -396.000
282.235; -106.175; -672.000; -638.000
282.375;  -14.375; -243.000;  -98.000
282.515;  -94.525; -715.000; -707.000
282.654;   43.400;   29.000;  106.000
282.794;   25.050;  388.000;  244.000
282.934;  -56.200; -530.000; -491.000
283.073; -142.775;-1030.000; -857.000
283.213;  -52.175; -460.000; -467.000
283.353;  -30.325; -408.000; -349.000
283.492;  -29.175; -264.000; -296.000
283.632;  -28.575; -254.000; -168.000
283.771;  -94.475; -859.000; -730.000
283.911;  -57.175; -369.000; -260.000
284.050;  -94.625; -794.000; -748.000
284.190; -163.000;-1229.000;-1096.000
284.329; -150.475;-1055.000; -964.000
284.469;  -54.650; -516.000; -591.000
284.608;  -52.675; -559.000; -598.000
284.748;  -82.200; -614.000; -570.000
284.887;   10.175;  -87.000;  -20.000
285.027; -123.000; -844.000; -892.000
285.166;  -19.900; -192.000; -249.000
285.306;    9.175; -116.000;  -33.000
285.445;  -36.975; -229.000; -343.000
285.584;  -92.475; -630.000; -494.000
285.724;  -31.950; -282.000; -322.000
285.863; -121.300; -857.000; -507.000
286.002;  -49.550; -366.000; -276.000
286.142;  -99.250; -715.000; -622.000
286.281;  -75.150; -525.000; -493.000
286.420;  -81.550; -554.000; -417.000
286.560;  115.825;  653.000;  623.000
286.699; -138.725; -958.000; -912.000
286.838;  -76.675; -590.000; -591.000
286.978;  -81.025; -533.000; -537.000
287.117; -131.875;-1085.000; -950.000
287.256;  -44.700; -228.000; -211.000
287.395;  -32.875; -197.000; -378.000
287.535;  -47.450; -370.000; -298.000
287.674;  -61.400; -509.000; -484.000
287.813;   71.950;  661.000;  533.000
287.952; -120.450;-1010.000; -871.000
288.091; -146.900;-1049.000; -915.000
288.231;   21.875;   13.000;   15.000
288.370; -167.325;-1217.000;-1200.000
288.509;  -86.200; -728.000; -645.000
288.648;  -91.400; -770.000; -548.000
288.787;  -23.150; -243.000;  -87.000
288.926;  -73.500; -454.000; -475.000
289.065;  131.350;  859.000;  672.000
289.204;  -41.825; -377.000; -217.000
289.344;  -78.325; -791.000; -690.000
289.483;   26.275;  416.000;  304.000
289.622;  -22.000; -291.000; -149.000
289.761;  -12.550; -309.000; -166.000
289.900; -105.300; -785.000; -626.000
290.039;  -10.375;  -12.000;  -95.000
290.178;  -32.975; -274.000; -180.000
290.317;  -88.950; -618.000; -479.000
290.456;  -54.175; -463.000; -451.000
290.595; -147.150; -961.000; -833.000
290.734; -134.925; -904.000; -891.000
290.873;  -71.150; -456.000; -420.000
291.011;  -99.225; -833.000; -843.000
291.150;  -95.525; -770.000; -682.000
291.289;  -14.950; -343.000; -110.000
291.428;  -91.650; -599.000; -480.000
291.567;  -52.475; -370.000; -442.000
291.706;   -5.950;  109.000;  154.000
291.845;  -90.300; -597.000; -505.000
291.984; -173.325;-1234.000;-1061.000
292.122;   85.225;  602.000;  582.000
292.261;   58.950;  620.000;  463.000
292.400;   21.950; -144.000;  211.000
292.539; -125.400; -959.000; -813.000
292.678;  -29.250; -325.000; -300.000
292.816; -161.450;-1136.000; -965.000
292.955;  -80.550; -844.000; -684.000
293.094;  -16.350; -173.000; -337.000
293.233;  -49.450; -556.000; -400.000
293.371;  -38.075; -225.000;  -84.000
293.510;  -95.575; -866.000; -780.000
293.649; -118.650; -959.000; -924.000
293.787;  -35.350;-1083.000;-1012.000
293.926;  -12.300; -113.000;  -32.000
294.065;  -30.050; -379.000; -290.000
294.203;   60.575;  298.000;  406.000
294.342;   16.275;   74.000;  156.000
294.481; 6330.800;51180.000; -836.000
294.619;  -22.625; -425.000; -582.000
294.758; -141.625;-1230.000;-1137.000
294.896;   93.725; -125.000;    5.000
295.035; -109.375;-1040.000;-1006.000
295.174; -105.750;-1082.000; -954.000
295.312;  -32.625; -323.000; -203.000
295.451;    3.300; -307.000; -428.000
295.589;  -44.850; -389.000; -518.000
295.728;   32.975; -292.000; -165.000
295.866;    9.625;  -36.000;  -51.000
296.005;  -44.325; -584.000; -341.000
296.143;  -58.575; -558.000; -596.000
296.282;  -86.975; -957.000; -881.000
296.420;  -88.300; -657.000; -557.000
296.559;  -79.700; -892.000; -633.000
296.697;   58.025; -847.000; -665.000
296.835;  125.700;-1141.000;-1002.000
296.974;   44.800;  -23.000;   39.000
297.112;   44.625; -443.000; -504.000
297.251;  -59.350; -815.000; -755.000
297.389;  133.950; -576.000; -438.000
297.527;   43.075; -145.000;  -83.000
297.666;  -30.075; -486.000; -438.000
297.804;  -63.525; -404.000; -264.000
297.942;   -3.300; -136.000; -161.000
298.081;    4.725; -183.000;   63.000
298.219;   97.350;  -17.000;  -19.000
298.357;   60.425; -144.000;  -71.000
298.495;   61.750; -810.000; -812.000
298.634;  106.375;  245.000;  219.000
298.772;   93.775; -220.000; -338.000
298.910;  -31.750; -309.000; -182.000
299.048;    1.150; -130.000; -153.000
299.187;  -31.925; -350.000; -250.000
299.325;   30.975;   52.000;  122.000
299.463;   85.900; -389.000; -299.000
299.601;  157.150; -327.000; -271.000
299.739;  -87.725; -908.000; -883.000
299.877;  -67.975; -791.000; -703.000
300.016;  -40.475;-1095.000; -935.000
300.154;  196.325;  -19.000; -161.000
300.292;   77.925; -428.000; -348.000
300.430;   57.075; -408.000; -291.000
300.568;  -93.975; -940.000; -874.000
300.706;  -24.200; -366.000; -469.000
300.844;  -69.700;-1108.000; -979.000
300.982;  155.500;  246.000;  282.000
301.120;  -94.025; -965.000; -866.000
301.258;  -59.000; -812.000; -705.000
301.396;   50.700;  104.000;  -41.000
301.534;  134.300; -218.000; -293.000
301.672;   25.200; -664.000; -521.000
301.810;   72.475; -613.000; -545.000
301.948;  153.525;   53.000;  149.000
302.086;  710.150; -250.000;  -32.000
302.224; 1130.675; -610.000; -585.000
302.362;   86.250; -558.000; -622.000
302.500;    2.075; -923.000; -893.000
302.638;  132.250;  128.000;  245.000
302.776;    4.175; -352.000; -408.000
302.913;   55.600;  447.000;  236.000
303.051;    2.250;  -86.000;  -23.000
303.189;   61.475;   90.000;  118.000
303.327;  -29.475; -341.000; -256.000
303.465;  -66.425; -832.000; -588.000
303.603;  -93.775; -805.000; -604.000
303.740;  116.150;  417.000;  241.000
303.878;   58.300; -800.000; -759.000
304.016;  -82.850; -915.000; -790.000
304.154; -112.900;-1123.000;-1152.000
304.291;  -28.375; -505.000; -554.000
304.429;   19.625;  102.000;   74.000
304.567; -131.750; -908.000; -893.000
304.705;  -35.025; -408.000; -515.000
304.842;  116.450; -616.000; -540.000
304.980;   71.750;  215.000;   35.000
305.118;   81.775; -367.000; -365.000
305.255;  -52.025; -945.000; -927.000
305.393;   56.850;  178.000;  239.000
305.531; -101.600;-1173.000; -956.000
305.668;  -49.650; -663.000; -582.000
305.806;   85.800; -358.000; -439.000
305.943;  136.100; -629.000; -637.000
306.081;   78.625; -378.000; -267.000
306.219;  -93.025; -863.000; -748.000
306.356;   15.750;  158.000;   27.000
306.494;  128.350;  981.000;  761.000
306.631;   -2.975;  -11.000;  -55.000
306.769;    2.250; -613.000; -485.000
306.906;   -2.800; -284.000; -258.000
307.044;  -51.750; -473.000; -488.000
307.181;  -57.925; -410.000; -332.000
307.319;   29.350;  112.000;   87.000
307.456; -159.650;-1191.000;-1153.000
307.594;  -94.825; -980.000; -727.000
307.731;  -11.925; -371.000; -164.000
307.868;    3.800;  -15.000;   20.000
308.006; -133.625; -961.000; -847.000
308.143;  -57.025; -618.000; -330.000
308.281;  134.800;  -37.000; -254.000
308.418;  -14.075; -748.000; -640.000
308.555;  -62.450; -400.000; -250.000
308.693;  -73.600; -577.000; -573.000
308.830;  -98.475; -712.000; -657.000
308.967;   -2.975; -215.000;  -95.000
309.105;  -34.250; -507.000; -396.000
309.242;   25.050; -468.000; -367.000
309.379;  253.975; -577.000; -655.000
309.517;  -60.500; -936.000; -948.000
309.654; -104.775; -910.000; -734.000
309.791;  -58.925; -662.000; -580.000
309.928; -108.675; -977.000; -914.000
310.065;  207.850;  819.000;  697.000
310.203;   16.500; -825.000; -850.000
310.340;   25.575; -465.000; -321.000
310.477;  -70.775; -412.000; -516.000
310.614;  -60.975; -383.000; -473.000
310.751;  -76.550; -427.000; -518.000
310.889;   -9.675;    1.000;   11.000
311.026; -154.325;-1161.000; -939.000
311.163;  -40.675; -386.000; -380.000
311.300;  -64.375; -512.000; -479.000
311.437;  -61.075; -658.000; -619.000
311.574; -159.600;-1226.000; -985.000
311.711;  -44.025; -595.000; -433.000
311.848;  -32.225; -380.000; -388.000
311.985;   32.800;  270.000;   93.000
312.122; -109.125; -932.000; -762.000
312.259; -110.350; -941.000; -994.000
312.396;  -74.975; -508.000; -551.000
312.533;  -76.425; -812.000; -790.000
312.670; -139.350;-1070.000; -898.000
312.807;  -31.275; -352.000; -367.000
312.944;  -64.950; -513.000; -611.000
313.081;  -29.400; -150.000; -415.000
313.218; -102.650;-1111.000; -867.000
313.355;   25.775; -531.000; -449.000
313.492;   15.100; -455.000; -292.000
313.629;  162.550;  815.000;  735.000
313.766; -137.400;-1176.000;-1008.000
313.902;    6.175; -186.000;   21.000
314.039;  -51.025; -372.000; -289.000
314.176;   41.600;  286.000;  192.000
314.313;  -69.725; -569.000; -473.000
314.450;  -66.525; -788.000; -684.000
314.587;  -44.500; -468.000; -480.000
314.723;   20.325;  -78.000;  130.000
314.860;   63.525;  318.000;  332.000
314.997;   51.175;  223.000;  142.000
315.134;  -17.025; -385.000; -368.000
315.270;  -22.850; -480.000; -496.000
315.407; -115.250;-1094.000; -967.000
315.544;  -28.225; -657.000; -538.000
315.681;  -56.225; -681.000; -565.000
315.817;   38.325; -133.000; -176.000
315.954;   28.750; -613.000; -392.000
316.091; -118.975;-1045.000;-1023.000
316.227;   -6.750;  -71.000; -179.000
316.364;   10.800;   23.000;    6.000
316.500;  -40.075; -113.000; -300.000
316.637;  -28.875; -181.000; -302.000
316.774;  -93.800; -625.000; -358.000
316.910;  -76.850; -598.000; -629.000
317.047;  -80.550; -487.000; -351.000
317.183;  -42.675; -435.000; -566.000
317.320;  -37.975; -367.000; -321.000
317.456;  -88.325; -733.000; -805.000
317.593;  -90.875; -598.000; -641.000
317.729;   16.075;  168.000;  -67.000
317.866; -206.225;-1434.000;-1285.000
318.002;  -85.200; -708.000; -948.000
318.139;  -86.125; -883.000; -867.000
318.275;  -93.500;-1003.000; -738.000
318.412;  -55.250; -517.000; -336.000
318.548;  -15.875; -751.000; -720.000
318.685;  -95.800; -985.000; -888.000
318.821;  -93.650; -762.000; -735.000
318.957;  -30.250;   34.000;  -23.000
319.094;   43.375;  297.000;  154.000
319.230;  -56.950; -756.000; -742.000
319.367;  171.525; -471.000; -520.000
319.503;   61.375; -538.000; -436.000
319.639;  -92.050; -877.000; -793.000
319.775;  -51.275; -750.000; -685.000
319.912;  -50.950; -424.000; -519.000
320.048;  -98.100;-1184.000;-1184.000
320.184;   61.250;   59.000;   70.000
320.321;  -70.750; -497.000; -467.000
320.457;   68.800;  475.000;  662.000
320.593;  -58.925; -375.000; -382.000
320.729; -104.575; -732.000; -734.000
320.866;  -77.975; -577.000; -635.000
321.002;  -68.900; -759.000; -809.000
321.138;  -14.275; -135.000; -211.000
321.274;   84.250; -148.000; -115.000
321.410;  -21.225; -585.000; -353.000
321.546;  -10.075;-1011.000; -911.000
321.683;   58.525;  400.000;  185.000
321.819;    6.175;  -48.000; -117.000
321.955; -107.650; -743.000; -722.000
322.091;  -35.800; -585.000; -540.000
322.227;   -3.975; -382.000; -202.000
322.363;    8.700; -320.000; -215.000
322.499;  -33.975; -343.000; -331.000
322.635;  187.475;  636.000;  443.000
322.771;   43.275; -139.000;   12.000
322.907;  101.500;  129.000;  327.000
323.043;  -16.225; -115.000; -206.000
323.179;  -11.300; -394.000; -363.000
323.315;   68.175; -401.000; -371.000
323.451;  160.225; -328.000; -236.000
323.587;   63.600;  -60.000;  -77.000
323.723;   44.700; -682.000; -601.000
323.859;   -3.750; -258.000;  -76.000
323.995;  -21.550; -467.000; -409.000
324.131; -117.775; -967.000; -892.000
324.267;  -32.600; -254.000; -276.000
324.402; -129.050; -960.000; -983.000
324.538;  -12.625; -279.000; -104.000
324.674;   40.700;  164.000;   77.000
324.810;  182.175;  226.000;  308.000
324.946;   33.700; -810.000; -658.000
325.082;  -58.750; -568.000; -475.000
325.217;   -3.775;  -62.000;   16.000
325.353;  -85.975; -764.000; -659.000
325.489;  -80.350; -540.000; -506.000
325.625;  -72.525; -579.000; -525.000
325.760;   51.200;  517.000;  376.000
325.896;  -34.600; -515.000; -702.000
326.032;  -59.375; -403.000; -352.000
326.168;  -60.750; -462.000; -369.000
326.303;  -55.600; -352.000; -461.000
326.439;   -7.675; -336.000; -276.000
326.575;    2.575; -190.000;  -29.000
326.710;   15.900; -156.000;  -30.000
326.846;  -14.600;  146.000;  103.000
326.982; -101.525; -530.000; -548.000
327.117;  -74.200; -481.000; -442.000
327.253;  -97.625; -745.000; -742.000
327.388; -110.425;-1137.000;-1153.000
327.524;  -15.375; -811.000; -578.000
327.659;  -26.375;  -58.000;  -22.000
327.795;   -6.750;   69.000;   45.000
327.931;  -82.750; -723.000; -499.000
328.066;  -11.825; -417.000; -276.000
328.202;   -1.675;   12.000; -129.000
328.337;  116.200;  957.000;  713.000
328.473;   40.325;  -12.000;  -74.000
328.608;  -15.025; -256.000; -267.000
328.743;  -60.650; -799.000; -664.000
328.879;   21.975;  214.000;  114.000
329.014;  -27.225; -102.000; -122.000
329.150;  -69.225; -358.000; -483.000
329.285;  -69.875; -465.000; -466.000
329.421;  -47.675; -548.000; -246.000
329.556;   -4.800;  -36.000;   85.000
329.691;  -89.525; -633.000; -615.000
329.827;  -91.700; -626.000; -480.000
329.962;  -46.675;  131.000; -301.000
330.097;  -87.875; -673.000; -585.000
330.233;  -54.800; -410.000; -223.000
330.368; -130.425; -839.000; -628.000
330.503;  -21.350;    3.000;   98.000
330.638;   15.525;  -93.000; -125.000
330.774;  -44.950; -609.000; -530.000
330.909;  -35.150; -434.000; -244.000
331.044;  -70.625; -714.000; -708.000
331.179; -165.350;-1217.000;-1109.000
331.315;   23.975;   77.000;   20.000
331.450;    9.225;  157.000;  285.000
331.585;  -75.075; -805.000; -706.000
331.720;  -70.575; -510.000; -460.000
331.855;   -3.425;  -35.000; -102.000
331.990;  170.675;   62.000;  138.000
332.126;   96.200; -110.000;   71.000
332.261;  -45.575; -379.000; -265.000
332.396;    1.875; -135.000; -242.000
332.531; -126.300;-1074.000;-1031.000
332.666;   11.725; -519.000; -363.000
332.801; -110.850; -726.000; -807.000
332.936;   -0.850; -192.000; -122.000
333.071; -148.875; -870.000; -817.000
333.206;   30.075;  307.000;  379.000
333.341;   36.375;  344.000;  418.000
333.476;  -80.900; -627.000; -623.000
333.611;  -34.350; -251.000; -173.000
333.746;  -40.700; -381.000; -464.000
333.881; -100.725; -973.000; -935.000
334.016; -123.675; -936.000; -917.000
334.151; -122.125; -746.000; -702.000
334.286;   46.000;  152.000;  186.000
334.421;  -12.525; -125.000; -178.000
334.556;  -65.950; -611.000; -567.000
334.690;  -83.075; -631.000; -577.000
334.825;   87.675;  381.000;   83.000
334.960;  -43.125; -285.000; -413.000
335.095;   28.850;  135.000;  -91.000
335.230;  -90.025; -722.000; -738.000
335.365; -112.775;-1084.000; -990.000
335.499; -122.775;-1108.000;-1037.000
335.634;   53.275;    9.000;  534.000
335.769;  -85.700; -755.000; -720.000
335.904;  -41.375; -603.000; -561.000
336.038;  -29.425; -735.000; -657.000
336.173;  -91.600;-1206.000;-1194.000
336.308;   39.650; -116.000; -189.000
336.443;   40.300; -544.000; -634.000
336.577;  -56.800; -936.000; -787.000
336.712;   91.800;   -4.000;  -12.000
336.847;  -18.400; -724.000; -607.000
336.981;  127.150; -272.000; -208.000
337.116;  345.800;  615.000;  501.000
337.250;  223.550; -434.000; -421.000
337.385;  147.375; -297.000; -208.000
337.520;   25.100; -632.000; -603.000
337.654;  -36.650; -215.000; -126.000
337.789; -115.825; -989.000; -933.000
337.923;  -32.700; -104.000; -205.000
338.058;  -78.250; -673.000; -738.000
338.192;  -26.475; -611.000; -488.000
338.327;    0.125;  -18.000; -155.000
338.461;  -68.200; -299.000; -469.000
338.596;  -95.175; -780.000; -638.000
338.730; -125.550; -767.000; -803.000
338.865;   62.575;  -46.000; -140.000
338.999; -100.875; -846.000; -702.000
339.134;  -50.125; -634.000; -536.000
339.268;  -17.500; -741.000; -603.000
339.403;  251.450; -740.000; -775.000
339.537;   31.475; -894.000; -820.000
339.671; -121.625; -829.000; -813.000
339.806;  -69.025; -556.000; -512.000
339.940;    8.575; -261.000; -235.000
340.074;  -97.725; -685.000; -510.000
340.209;  -41.825; -351.000; -230.000
340.343;  -88.550; -517.000; -573.000
340.477;  168.375;  998.000; 1036.000
340.612;  -86.275;-1033.000; -900.000
340.746;   84.975; -199.000; -243.000
340.880;  -60.325; -924.000; -785.000
341.014;  -25.225;  -45.000; -154.000
341.149; -110.425; -756.000; -718.000
341.283; -102.750; -839.000; -754.000
341.417;  -74.775;-1124.000; -938.000
341.551;  226.075; -768.000; -708.000
341.685;  -13.950; -633.000; -611.000
341.820;  -53.800; -562.000; -493.000
341.954;  -40.575; -218.000; -349.000
342.088; -141.950;-1102.000;-1019.000
342.222;   48.600;  565.000;  618.000
342.356;  -47.500; -395.000; -335.000
342.490;  -78.125; -880.000; -841.000
342.624;  -37.400; -339.000; -242.000
342.758;    7.450; -364.000; -312.000
342.892;  -65.175; -710.000; -585.000
343.026;  -35.125;  -58.000; -116.000
343.160;  -45.575; -426.000; -376.000
343.294;  -87.800; -474.000; -337.000
343.428;   11.725; -488.000; -448.000
343.562;   -6.725; -172.000;  -23.000
343.696;   -2.550; -385.000; -314.000
343.830;    3.675; -362.000; -356.000
343.964;   24.075; -231.000; -168.000
344.098; 1151.175;  199.000;   70.000
344.232;  975.200; -266.000; -127.000
344.366;   81.975; -567.000; -453.000
344.500;   88.125; -665.000; -744.000
344.634;   49.625; -324.000; -164.000
344.768;    9.950; -531.000; -341.000
344.902;   41.375;  278.000;  256.000
345.035;  -73.925; -556.000; -496.000
345.169; -142.125; -933.000; -656.000
345.303;   -3.300; -308.000; -482.000
345.437;  -47.900; -826.000; -717.000
345.571;  -76.025; -675.000; -594.000
345.704;  -62.925; -309.000; -532.000
345.838;  -15.025; -331.000; -284.000
345.972;  -39.800; -543.000; -495.000
346.106;  122.450; -179.000; -190.000
346.239;  400.750; -312.000; -243.000
346.373;   21.925; -343.000; -302.000
346.507; -135.075; -950.000; -962.000
346.640;  202.325;  -30.000;   13.000
346.774;  -24.925; -650.000; -797.000
346.908;    2.875; -138.000;  -11.000
347.041;  -98.200; -646.000; -593.000
347.175;   17.300;  259.000;   27.000
347.309;  -56.875; -698.000; -628.000
347.442;  -93.225; -883.000; -732.000
347.576;  337.650;  670.000;  668.000
347.709;  270.700; -123.000;  -52.000
347.843;  -87.175; -933.000; -825.000
347.976;   56.175;  235.000;  294.000
348.110; -179.750;-1268.000;-1186.000
348.243; -100.150; -679.000; -772.000
348.377;   -0.150;  -26.000;   60.000
348.510;   53.525;  403.000;  540.000
348.644;  -16.500;  -37.000; -159.000
348.777;    5.100;  180.000;  191.000
348.911;  -47.600; -142.000; -112.000
349.044;  209.750;  471.000;  448.000
349.178;  244.050;-1069.000;-1006.000
349.311;  123.150;  141.000;  255.000
349.444;  -28.650; -927.000; -813.000
349.578;   -0.150; -347.000; -200.000
349.711;  -99.575; -959.000; -862.000
349.845;   13.325; -661.000; -591.000
349.978; -122.550;-1224.000;-1137.000
350.111;  -73.400; -546.000; -612.000
350.244;  -68.925; -596.000; -700.000
350.378;   13.700; -392.000; -393.000
350.511;  -73.375; -393.000; -426.000
350.644; -108.100; -808.000; -806.000
350.778;    9.675;  168.000;  104.000
350.911;    5.850;  134.000;  140.000
351.044;  -91.675; -685.000; -615.000
351.177;  -14.900; -321.000; -281.000
351.310;    0.050;    3.000; -131.000
351.444;  -59.700; -888.000; -788.000
351.577;  163.825;  140.000;   90.000
351.710;  127.425;  593.000;  417.000
351.843;  -26.000; -165.000;  -77.000
351.976;    2.925;  149.000;  -79.000
352.109;  -74.825; -621.000; -612.000
352.242;    1.425; -464.000; -419.000
352.376;  -42.325; -580.000; -636.000
352.509;  266.775; -437.000; -356.000
352.642;   59.500; -654.000; -604.000
352.775;   84.300; -141.000;  -98.000
352.908; -112.575; -933.000; -904.000
353.041;  -90.600; -814.000; -824.000
353.174;  -53.025; -551.000; -424.000
353.307;  -71.825; -753.000; -764.000
353.440;   71.200;  541.000;  453.000
353.573;  -94.950; -957.000;-1008.000
353.706;  -62.900; -384.000; -558.000
353.839;   -6.250; -264.000; -220.000
353.971;  -92.400; -657.000; -512.000
354.104;  -78.700; -896.000; -835.000
354.237;  -29.425; -627.000; -662.000
354.370;  -88.150; -846.000; -879.000
354.503; -170.100;-1231.000;-1308.000
354.636;  -14.200; -529.000; -348.000
354.769; -116.725; -937.000; -860.000
354.902;   20.025; -230.000; -139.000
355.034;  -17.725; -164.000; -220.000
355.167;   -2.800; -262.000; -162.000
355.300;  -86.875;-1061.000; -880.000
355.433;  726.375;  -71.000;  -14.000
355.565; 1094.600; -402.000; -384.000
355.698;  261.350; -356.000; -296.000
355.831;   -2.875; -882.000; -801.000
355.964;  122.625; -285.000; -170.000
356.096;  -62.300; -856.000; -843.000
356.229;   47.025; -523.000; -530.000
356.362;  223.625; -373.000; -266.000
356.494;  431.500; -229.000; -162.000
356.627;  553.950;  269.000;  377.000
356.760;  524.775;  120.000;   53.000
356.892;  674.025; -286.000; -601.000
357.025;  789.525;  403.000;  389.000
357.157;  739.300; -167.000; -179.000
357.290;  395.875; -856.000; -713.000
357.423;  132.625; -667.000; -556.000
357.555;  149.050; -217.000; -228.000
357.688;  164.900; -483.000; -364.000
357.820;  508.600; -870.000; -877.000
357.953; 4008.300; -563.000; -589.000
358.085;  978.350; -632.000; -612.000
358.218; 1679.225;-1131.000; -932.000
358.350;  295.325;  -58.000;  312.000
358.483; -101.675;-1300.000;-1187.000
358.615;   43.700;-1182.000;-1078.000
358.747;  -27.875;-1187.000;-1058.000
358.880;   72.000; -810.000; -744.000
359.012;   -4.625; -376.000; -202.000
359.145;  -32.575; -480.000; -511.000
359.277;   80.825; -962.000; -913.000
359.409; 3423.275;  536.000;  231.000
359.542;  897.450; -738.000; -688.000
359.674;   73.725;   46.000;   13.000
359.806;  -61.000; -565.000; -438.000
359.939;  -60.750; -617.000; -516.000
360.071;  -38.600; -583.000; -579.000
360.203;  -29.725; -411.000; -364.000
360.335;   60.875;  164.000;  -16.000
360.468;  226.025; -249.000; -307.000
360.600; 2603.250; -547.000; -454.000
360.732; 1937.250; -546.000; -423.000
360.864;  258.425;-1216.000;-1044.000
360.996;  407.275; -516.000; -554.000
361.129;   66.850; -389.000; -598.000
361.261;   26.550;  110.000; -113.000
361.393;  -22.200; -252.000; -214.000
361.525;   30.750;   94.000;  244.000
361.657;  -34.925; -821.000; -703.000
361.789;   16.300; -139.000; -155.000
361.921;  328.900; -642.000; -593.000
362.053;  317.875;  524.000;  541.000
362.185;   70.650;  288.000;   72.000
362.318;  -57.525; -709.000; -705.000
362.450;  191.500;  294.000;  444.000
362.582;  297.225; -913.000; -870.000
362.714;  -21.150; -353.000; -332.000
362.846;  -83.725; -606.000; -490.000
362.978; -145.700; -941.000; -811.000
363.109;   82.200; -161.000; -260.000
363.241;  552.850; -739.000; -749.000
363.373;  330.950; -649.000; -564.000
363.505;  425.150; -186.000;  -91.000
363.637;  108.950; -787.000; -601.000
363.769; -133.675;-1067.000;-1080.000
363.901;  -63.100; -596.000; -654.000
364.033; -105.675;-1103.000;-1062.000
364.165;   10.700; -283.000; -283.000
364.296;   54.250; -316.000; -177.000
364.428;   -4.325;-1344.000;-1220.000
364.560;  -86.500; -679.000; -661.000
364.692;  -72.025; -738.000; -835.000
364.824;  401.775; -588.000; -456.000
364.955;  383.175; -402.000; -564.000
365.087;  472.325;-1097.000; -852.000
365.219;  -11.800; -686.000; -816.000
365.351;  -79.050; -526.000; -572.000
365.482;   61.100;  300.000;  240.000
365.614;  -41.700; -402.000; -314.000
365.746;  -83.200; -729.000; -752.000
365.877; -110.600; -706.000; -672.000
366.009;  162.725;  -35.000;  -62.000
366.141; -135.150;-1249.000;-1134.000
366.272; -106.125; -803.000; -719.000
366.404; -120.425;-1005.000; -874.000
366.535;   -6.825; -139.000;  -12.000
366.667;  -96.600; -644.000; -649.000
366.799;   34.175;  353.000;  203.000
366.930; -115.000; -862.000; -996.000
367.062;  101.250; -639.000; -613.000
367.193;   51.325; -872.000; -842.000
367.325;  -60.525; -580.000; -684.000
367.456;  131.175; -246.000;   31.000
367.588;  115.650; -371.000; -318.000
367.719;   11.175;  -44.000;  -45.000
367.851;  -11.050; -222.000; -241.000
367.982;  -30.875; -875.000; -732.000
368.113;  167.100; -475.000; -358.000
368.245; -123.050; -960.000; -841.000
368.376;   -3.700; -254.000; -302.000
368.508;  -29.775; -188.000; -263.000
368.639; -136.625;-1166.000;-1034.000
368.770;    6.725; -670.000; -589.000
368.902;  -40.350; -836.000; -926.000
369.033; -106.875; -906.000; -855.000
369.164;  -49.550; -720.000; -653.000
369.296; -105.525; -452.000; -601.000
369.427;   15.450; -209.000; -144.000
369.558;  -34.200; -593.000; -377.000
369.689;  -92.825; -721.000; -569.000
369.821; -123.500; -951.000; -845.000
369.952;   -6.125;   42.000; -108.000
370.083;  -41.525; -229.000; -108.000
370.214;  -75.950; -735.000; -650.000
370.345;   -1.650;   65.000;   81.000
370.477;  -72.700; -810.000; -790.000
370.608;  316.475; -328.000; -264.000
370.739;  -23.200;-1233.000;-1292.000
370.870;  -18.500;-1102.000; -923.000
371.001;  137.150; -378.000; -467.000
371.132;  -58.825; -754.000; -735.000
371.263;    0.250;  -42.000; -148.000
371.394; -138.650; -841.000; -748.000
371.525;   46.050;  345.000;  225.000
371.657;  -88.500; -808.000; -670.000
371.788;   98.400;  103.000;  199.000
371.919;  229.225; -384.000; -304.000
372.050; 4404.950;  -91.000; -156.000
372.181; 1276.700; -188.000; -294.000
372.311;  487.450;   42.000; -127.000
372.442;   59.225; -457.000; -451.000
372.573;   -3.675; -444.000; -340.000
372.704; -108.475;-1008.000; -980.000
372.835;  125.250; -228.000; -289.000
372.966;  -51.675; -646.000; -554.000
373.097;  -49.825; -575.000; -711.000
373.228;  -14.500; -717.000; -542.000
373.359;  221.700; -824.000; -536.000
373.490; 1243.500; -881.000; -727.000
373.620; 1502.975;-1001.000; -803.000
373.751; 2343.975; -332.000; -396.000
373.882; 1021.550; -663.000; -733.000
374.013;  109.150; -449.000; -262.000
374.143;  -16.175; -581.000; -659.000
374.274;  -95.625; -987.000; -908.000
374.405;  212.900; -388.000; -276.000
374.536;  581.225; -526.000; -387.000
374.666; 1470.175; -759.000; -807.000
374.797;  308.550; -817.000; -868.000
374.928; 1159.525; -710.000; -560.000
375.058; 1139.675; -535.000; -500.000
375.189;  116.250;  -59.000;  -93.000
375.320;  -93.000; -928.000;-1034.000
375.450;  -26.350; -625.000; -616.000
375.581;  -38.450; -526.000; -436.000
375.712;   -9.550; -574.000; -250.000
375.842;  396.325; -438.000; -415.000
375.973;  299.975; -554.000; -513.000
376.103;    0.625; -665.000; -648.000
376.234;  -68.300; -531.000; -552.000
376.364;    2.750; -944.000; -867.000
376.495;  370.600;  925.000;  529.000
376.625;   54.050; -472.000; -485.000
376.756;  115.125; -709.000; -678.000
376.886;  -35.150;-1178.000;-1026.000
377.017;    1.275;-1048.000;-1061.000
377.147;  189.150; -786.000; -782.000
377.278;   48.675;  174.000;  228.000
377.408; -133.125; -801.000; -815.000
377.538; -104.475; -707.000; -693.000
377.669;  -62.425; -537.000; -613.000
377.799;  -70.825; -645.000; -635.000
377.929;  -14.325; -610.000; -428.000
378.060; -123.475; -781.000; -847.000
378.190;  -62.150; -726.000; -531.000
378.320;  -53.250; -401.000; -406.000
378.451;  -10.225; -131.000;  -22.000
378.581;   12.675;  -67.000; -110.000
378.711;  176.500; 1035.000;  866.000
378.841;    9.500; -533.000; -675.000
378.972;  -68.000; -871.000; -751.000
379.102;   20.600; -652.000; -579.000
379.232;    1.850; -126.000;  -73.000
379.362;  -74.950;-1001.000; -885.000
379.492;   49.275; -373.000; -424.000
379.623;  133.550;    0.000;  111.000
379.753;  -81.975;-1107.000; -974.000
379.883;  233.800;   59.000;  156.000
380.013;   34.200;-1081.000;-1017.000
380.143;  -83.800;-1097.000;-1056.000
380.273;  -67.575; -985.000; -861.000
380.403;    0.900; -344.000; -257.000
380.533;   -1.875; -651.000; -664.000
380.663;  104.825;  173.000;  128.000
380.793;  -58.175;-1027.000;-1074.000
380.923;  -12.075; -103.000;  -34.000
381.053;  -87.450; -613.000; -623.000
381.183;  -20.200; -106.000; -248.000
381.313;   70.475; -656.000; -470.000
381.443;   73.500; -692.000; -473.000
381.573;  303.775; -402.000; -409.000
381.703;  426.900;-1249.000;-1095.000
381.833;  -95.450;-1454.000;-1336.000
381.963;  119.075; -134.000;  -87.000
382.093; 1633.825; -925.000; -909.000
382.223;  495.075; -713.000; -602.000
382.353;   19.000; -801.000; -608.000
382.482;  498.225;-1091.000; -964.000
382.612;  931.350; -872.000; -644.000
382.742;  522.200; -695.000; -622.000
382.872;  375.275; -565.000; -551.000
383.002;   84.250;  347.000; -132.000
383.131;  -10.700; -226.000; -160.000
383.261;  -44.475; -706.000; -768.000
383.391;  274.600; -552.000; -377.000
383.521; 2122.525;  451.000;  263.000
383.650;  392.450; -947.000; -904.000
383.780;  -50.925; -783.000; -656.000
383.910;  112.850;  880.000;  802.000
384.039;   49.850; -794.000; -656.000
384.169;  302.275;-1205.000;-1017.000
384.299;   -4.375; -650.000; -662.000
384.428;  -74.100; -764.000; -680.000
384.558;  -36.600; -308.000; -275.000
384.687;  -17.775; -414.000; -334.000
384.817;   43.825;   75.000;   -2.000
384.947;   50.300; -234.000; -141.000
385.076;  365.050;  982.000;  912.000
385.206;  129.300;  369.000;  480.000
385.335;   -6.825; -549.000; -417.000
385.465;  -59.250; -655.000; -663.000
385.594;  196.575;  -53.000;  -44.000
385.724;  594.175; -868.000; -838.000
385.853;  186.175; -296.000; -270.000
385.982; 1812.225; -743.000; -787.000
386.112; 2730.275;-1052.000; -871.000
386.241;  198.775; -307.000; -312.000
386.371;   53.700; -174.000;  -87.000
386.500;   23.550; -825.000; -789.000
386.629;   22.700; -874.000; -817.000
386.759;   56.000;  -43.000;   68.000
386.888;    9.775; -170.000; -250.000
387.017;  -59.725; -648.000; -620.000
387.147;  -66.550; -771.000; -798.000
387.276;   25.875; -410.000; -397.000
387.405;   42.400; -398.000; -342.000
387.535;  -20.475; -452.000; -361.000
387.664;  -52.150; -692.000; -620.000
387.793;  103.925; -198.000; -113.000
387.922;  701.000;  255.000;  200.000
388.052;   76.000; -576.000; -423.000
388.181;   93.950; -342.000; -472.000
388.310;   97.325; -889.000; -710.000
388.439;   -0.850; -749.000; -742.000
388.568;  258.875;  365.000;  244.000
388.697; 1416.100; -756.000; -653.000
388.826;  279.725; -768.000; -666.000
388.956;   97.975; -285.000; -307.000
389.085;  -17.025; -347.000; -287.000
389.214;  -96.750; -842.000; -872.000
389.343;  -53.300; -645.000; -413.000
389.472;  307.400;  126.000;  149.000
389.601;  462.775;   91.000;    0.000
389.730;   34.800; -568.000; -687.000
389.859;   90.450;  226.000;   46.000
389.988;  260.875; -423.000; -408.000
390.117;  192.525; -168.000; -146.000
390.246;   17.150; -331.000; -320.000
390.375;  184.450; -673.000; -626.000
390.504;  -36.250; -703.000; -621.000
390.633;  -86.600; -672.000; -726.000
390.761;  -46.150; -732.000; -645.000
390.890;   62.125;   -4.000; -130.000
391.019;   -9.750; -421.000; -441.000
391.148; -115.100; -826.000; -855.000
391.277;  -53.725; -576.000; -493.000
391.406;  -53.150; -821.000; -805.000
391.534;   48.250;  574.000; -301.000
391.663;  -54.000; -583.000; -645.000
391.792;  -56.875; -673.000; -701.000
391.921;  196.800;   -3.000;   15.000
392.050;  317.650; -287.000; -228.000
392.178;   18.000;-1206.000;-1061.000
392.307;  233.000; -758.000; -712.000
392.436;  108.800; -427.000; -641.000
392.564;   36.275;  166.000;   -6.000
392.693;  -92.475; -860.000; -682.000
392.822;  321.575; -529.000; -534.000
392.950;  161.950; -880.000; -714.000
393.079;  430.825; -188.000; -328.000
393.208;   47.000; -488.000; -511.000
393.336;  -10.500; -170.000; -145.000
393.465;  -54.025; -317.000; -199.000
393.593;    2.425;   62.000;   79.000
393.722; -161.300;-1121.000; -916.000
393.850;  -26.375; -188.000;  -61.000
393.979; -164.725; -926.000; -805.000
394.107;  -48.375; -517.000; -537.000
394.236;   -9.575; -570.000; -507.000
394.364;  204.625;  383.000;  206.000
394.493;  252.050; -911.000; -767.000
394.621;  -50.850; -955.000; -916.000
394.750;  478.875; -873.000; -923.000
394.878; 2154.225; -247.000; -149.000
395.007; 2844.350; -721.000; -807.000
395.135;  175.325; -790.000; -721.000
395.263; -101.525;-1038.000;-1040.000
395.392;   10.600;  -25.000; -107.000
395.520; -142.150; -818.000; -679.000
395.648;  -77.700; -865.000; -915.000
395.777;    8.650; -366.000; -405.000
395.905;  -44.925; -449.000; -564.000
396.033;   18.750;  217.000;  172.000
396.162;  462.625; -399.000; -453.000
396.290;  405.325;  -17.000;   -2.000
396.418;  146.900; -555.000; -514.000
396.546;  -68.825; -571.000; -466.000
396.674;  -83.925; -850.000; -878.000
396.803;   17.075;  -72.000;  -23.000
396.931;  147.600; -179.000; -199.000
397.059;  116.675;-1026.000; -989.000
397.187; -104.475;-1026.000; -975.000
397.315; -124.950; -884.000; -649.000
397.443;  -92.200; -592.000; -443.000
397.572;  -93.625; -578.000; -424.000
397.700;   23.300; -607.000; -614.000
397.828;   30.025;  120.000;  -90.000
397.956;  -46.225; -508.000; -478.000
398.084;  -91.075; -767.000; -626.000
398.212;   40.375;  137.000;  124.000
398.340;   23.700;  -56.000;  159.000
398.468;   59.500; -390.000; -169.000
398.596; -146.525; -993.000; -953.000
398.724; -114.650; -762.000; -767.000
398.852; -161.475;-1024.000; -976.000
398.980;  -57.850; -560.000; -560.000
399.108;  -42.425; -982.000; -735.000
399.236;   56.475;   13.000;    8.000
399.363;   10.275;  222.000;  196.000
399.491;  -58.325; -404.000; -398.000
399.619; -127.850; -829.000; -800.000
399.747;  -92.300; -859.000; -771.000
399.875;   86.325;  220.000;  234.000
400.003;  -56.425; -359.000; -284.000
400.130;  -90.375; -421.000; -341.000
400.258;  -20.100;  -83.000;   38.000
400.386;  -66.875; -352.000; -168.000
400.514;  -34.675; -526.000; -587.000
400.641;  -72.150; -928.000; -802.000
400.769; -132.775; -979.000; -888.000
400.897;  -96.700; -838.000; -793.000
401.025;    7.775; -166.000; -152.000
401.152;    7.250;  220.000;   38.000
401.280;  -74.850; -430.000; -429.000
401.408; -120.075; -712.000; -576.000
401.535;  -81.975; -735.000; -758.000
401.663; -186.400;-1134.000;-1054.000
401.790;  -83.800; -514.000; -525.000
401.918;   47.750;  436.000;  405.000
402.046;  -11.475;  134.000;  122.000
402.173;  -38.200;  -18.000;    7.000
402.301;  -57.975; -519.000; -397.000
402.428;   48.100;  528.000;  383.000
402.556; -141.500;-1188.000; -913.000
402.683;  -40.575;  -20.000;   -1.000
402.811;  -23.000;  -37.000; -206.000
402.938;   -8.050;   20.000;   27.000
403.066;  286.750; -574.000; -558.000
403.193;  428.525;  299.000;  239.000
403.321;  351.475; -396.000; -574.000
403.448;  407.375;   83.000;   27.000
403.575;  191.825;  -90.000;  -46.000
403.703; -101.800; -732.000; -557.000
403.830;  -56.100; -531.000; -496.000
403.957; -139.500;-1117.000;-1023.000
404.085;    8.825;  -61.000; -172.000
404.212;  101.875;  -50.000;   63.000
404.339;  182.900; -566.000; -306.000
404.467; 4156.125; -612.000; -524.000
404.594; 3170.850; -287.000; -227.000
404.721;  881.400; -869.000; -764.000
404.848;   64.850; -113.000; -202.000
404.976; -112.125; -856.000; -783.000
405.103;  -11.850;  -14.000;  -82.000
405.230;    7.450;  190.000;  226.000
405.357;   26.675;  117.000;   44.000
405.484;  184.925;  -49.000;    5.000
405.612;   12.525; -548.000; -563.000
405.739;  -68.825; -488.000; -243.000
405.866;   72.750;  669.000;  385.000
405.993;  -44.150; -398.000; -102.000
406.120; -135.800; -801.000; -887.000
406.247;  -58.750; -323.000; -342.000
406.374;  604.375;  540.000;  629.000
406.501;  184.950; -632.000; -702.000
406.628;  -72.000; -621.000; -589.000
406.755;  -93.450; -803.000; -620.000
406.882;  -30.150; -228.000; -277.000
407.009; -115.400; -719.000; -628.000
407.136;   88.525; -480.000; -401.000
407.263;  217.275; -939.000; -829.000
407.390;  -61.100; -692.000; -614.000
407.517; -159.725;-1139.000;-1187.000
407.644;  -71.000; -332.000; -256.000
407.771;  -56.150; -249.000; -287.000
407.898;   12.025;  168.000;  328.000
408.025;  -70.725; -421.000; -313.000
408.151;  -10.825;   82.000;  153.000
408.278;  -60.150; -267.000; -216.000
408.405; -110.050; -931.000; -899.000
408.532;  -85.475; -549.000; -542.000
408.659; -116.900; -677.000; -648.000
408.785; -209.150;-1298.000;-1170.000
408.912;  -67.700; -412.000; -296.000
409.039; -110.975; -610.000; -686.000
409.166; -110.900; -591.000; -555.000
409.292; -113.325; -571.000; -534.000
409.419; -100.625; -665.000; -649.000
409.546;  -94.450; -431.000; -192.000
409.672; -106.275; -713.000; -545.000
409.799;  -21.575;  -36.000;   34.000
409.926;  -43.850; -180.000; -179.000
410.052; -178.300;-1127.000;-1091.000
410.179;  -36.175; -368.000; -392.000
410.305;  -96.925; -375.000; -493.000
410.432;  -39.150; -220.000; -333.000
410.558; -101.475; -305.000; -380.000
410.685; -108.925; -688.000; -431.000
410.812; -103.150; -409.000; -588.000
410.938; -145.150; -964.000; -808.000
411.065; -102.050; -671.000; -645.000
411.191;  -20.800; -189.000; -174.000
411.317; -119.225; -823.000; -742.000
411.444;  -73.625; -317.000; -246.000
411.570;  -87.025; -339.000; -294.000
411.697; -118.700; -758.000; -752.000
411.823; -171.950; -989.000; -999.000
411.949;  -20.975;  -56.000;   17.000
412.076; -113.350; -539.000; -519.000
412.202; -106.425; -758.000; -757.000
412.329; -130.925; -798.000; -752.000
412.455; -114.975; -821.000; -657.000
412.581;  -28.175;  -15.000;  172.000
412.707;  -51.125; -540.000; -457.000
412.834;   16.100;  156.000;  219.000
412.960;  -80.275; -785.000; -784.000
413.086;  -93.700; -743.000; -701.000
413.212;  202.475;  604.000;  578.000
413.339;  -40.825; -685.000; -701.000
413.465;   34.175; -364.000; -310.000
413.591;  -86.275; -757.000; -474.000
413.717;  -48.600; -358.000; -366.000
413.843; -138.500; -839.000; -861.000
413.969;  -48.325;  -47.000; -292.000
414.096; -110.250; -679.000; -679.000
414.222;   -8.350;  -33.000;   85.000
414.348;    4.400; -652.000; -385.000
414.474;  140.850;   38.000;  -52.000
414.600;  -19.400; -126.000; -144.000
414.726;   -7.325;  -96.000;  -55.000
414.852;  -62.075; -365.000; -342.000
414.978;   28.900;  104.000;  -18.000
415.104;   25.025;   38.000;   80.000
415.230;    9.000; -329.000; -330.000
415.356;   17.925; -409.000; -514.000
415.482;  172.775;   13.000;  -35.000
415.608;  207.450; -247.000; -323.000
415.734;  790.775;   67.000;   38.000
415.860;16257.400; -875.000; -767.000
415.986;11246.300; -685.000; -607.000
416.111;  908.525; -798.000; -652.000
416.237;  173.250; -424.000; -571.000
416.363;  806.025; -765.000; -733.000
416.489; 3006.300; -324.000; -251.000
416.615;  259.350; -707.000; -742.000
416.741;  -57.575; -677.000; -784.000
416.866; -108.625; -673.000; -736.000
416.992; -136.075; -801.000; -818.000
417.118;  -33.950;  -41.000;  -80.000
417.244;  -77.125; -798.000; -531.000
417.369;  -84.625; -801.000; -612.000
417.495;   12.850; -325.000; -254.000
417.621;  -85.200;-1015.000; -803.000
417.746;  -21.425; -579.000; -572.000
417.872;   39.775; -254.000; -144.000
417.998;    4.350; -515.000; -530.000
418.123;  753.150;-1073.000; -845.000
418.249; 3881.825; -512.000; -601.000
418.374;  468.475; -916.000; -824.000
418.500;   69.775; -383.000; -482.000
418.626;   80.750;   70.000;  -59.000
418.751;   87.775; -549.000; -448.000
418.877;  124.275; -637.000; -643.000
419.002; 1366.725; -688.000; -560.000
419.128; 9284.900; -930.000; -721.000
419.253; 2085.700; -967.000; -837.000
419.379;  268.775; -391.000; -338.000
419.504;  296.975;  325.000;  415.000
419.629;  330.600; -393.000; -212.000
419.755; 2509.450; -317.000; -254.000
419.880;14238.150;  -98.000;   67.000
420.006; 8518.225; -280.000; -221.000
420.131;22543.625; -662.000; -775.000
420.256; 3119.825; -315.000; -316.000
420.382;  389.100; -665.000; -687.000
420.507;   36.125; -649.000; -778.000
420.632;  189.750; -337.000; -339.000
420.758;  380.375; -251.000; -425.000
420.883;  -77.200; -876.000; -672.000
421.008;  -90.025; -775.000; -619.000
421.133;  -93.100; -509.000; -467.000
421.259;  -48.500; -325.000; -259.000
421.384; -118.800; -834.000; -693.000
421.509;    0.275;-1052.000; -862.000
421.634; 1802.075; -936.000; -820.000
421.759;  736.100; -359.000; -327.000
421.885;  -33.800; -717.000; -656.000
422.010;  -66.950; -673.000; -542.000
422.135; -156.725; -695.000; -727.000
422.260;   31.450;  340.000;  280.000
422.385;  -35.575;   12.000;  -98.000
422.510;   10.750;  151.000;  -26.000
422.635;   25.600;  -87.000;  -43.000
422.760;   93.450; -766.000; -791.000
422.885;   33.550;  -57.000;  -80.000
423.010;  -39.350; -112.000; -169.000
423.135; -111.650; -481.000; -561.000
423.260;   -0.125; -150.000; -245.000
423.385;   87.600;  476.000;  222.000
423.510;   40.000;   71.000;  -22.000
423.635;   96.350;  133.000;   45.000
423.760;   71.150;  383.000;  328.000
423.885;   47.750;  336.000;  391.000
424.010;   14.425;  -68.000;  -13.000
424.135;  -25.850;    5.000;  -33.000
424.259;  -90.550; -654.000; -457.000
424.384;  -67.050; -279.000; -272.000
424.509;  -18.625; -260.000; -186.000
424.634; -115.200; -761.000; -623.000
424.759;  -44.200; -688.000; -544.000
424.883;  -34.950; -506.000; -527.000
425.008;  119.575; -502.000; -410.000
425.133; 1483.700; -679.000; -653.000
425.258;  659.250; -517.000; -381.000
425.382; 1215.325; -867.000; -774.000
425.507; 3133.550; -487.000; -543.000
425.632;  408.725; -802.000; -663.000
425.756;  321.325; -256.000; -146.000
425.881; 4288.575; -831.000; -857.000
426.006;10892.600; -604.000; -355.000
426.130; 1762.775; -696.000; -508.000
426.255;  194.375; -611.000; -491.000
426.379;   85.900; -189.000; -577.000
426.504;  306.575;  660.000;  544.000
426.629; 3292.575; -519.000; -466.000
426.753; 2146.000;   64.000;  -46.000
426.878;  236.475; -252.000; -288.000
427.002;   85.675; -651.000; -668.000
427.127; 1296.450;  -35.000; -158.000
427.251; 8458.050;  372.000;  401.000
427.375; 2345.025; -191.000; -173.000
427.500; 2671.875; -616.000; -610.000
427.624;  869.350; -234.000; -400.000
427.749;  121.900; -216.000; -225.000
427.873;  -43.875; -499.000; -412.000
427.997;  -27.625; -222.000; -230.000
428.122;   85.275;  795.000;  703.000
428.246;   94.475;  433.000;  434.000
428.371; -134.800; -869.000; -773.000
428.495;  -98.775; -624.000; -646.000
428.619;  -15.800; -186.000; -117.000
428.743;   43.250;   65.000;  132.000
428.868;   57.175; -732.000; -643.000
428.992; 1771.875; -219.000; -326.000
429.116;  715.525; -329.000; -357.000
429.240;  384.025;  419.000;  426.000
429.365;  -17.225; -454.000; -574.000
429.489;  -41.375; -638.000; -647.000
429.613;    2.725; -236.000; -177.000
429.737;   23.525; -563.000; -432.000
429.861;  208.575; -247.000; -133.000
429.985; 4317.200; -425.000; -305.000
430.109; 4502.625; -770.000; -908.000
430.234;  498.800;   76.000;  -50.000
430.358;   37.225; -250.000; -160.000
430.482;  -68.400; -672.000; -564.000
430.606;  -65.725; -655.000; -375.000
430.730;   51.300; -437.000; -388.000
430.854;  210.900; -909.000; -835.000
430.978;  -53.125; -795.000; -764.000
431.102;  -74.850; -499.000; -422.000
431.226;  -85.625; -874.000; -815.000
431.350;   63.250;  345.000;  422.000
431.474;  -61.475; -661.000; -373.000
431.597; -152.375;-1060.000; -848.000
431.721;  -78.300; -276.000; -267.000
431.845; -145.500; -704.000; -472.000
431.969;  -86.175; -304.000; -349.000
432.093;  -98.075; -395.000; -317.000
432.217;  -19.925;   32.000;   82.000
432.341;  -97.875; -523.000; -518.000
432.464;   15.875;   96.000;   40.000
432.588;  294.125; -401.000; -329.000
432.712;  126.150;  -52.000;  -52.000
432.836;   37.625;  213.000;  263.000
432.959;  -43.400; -372.000; -311.000
433.083;   48.250;   11.000;    2.000
433.207;  299.800;  285.000;  930.000
433.330; 3668.600; -391.000; -200.000
433.454; 4307.050; -654.000; -638.000
433.578; 2604.825;  583.000;  278.000
433.701;  451.475; -623.000; -675.000
433.825;  191.825; -292.000; -299.000
433.949;  332.500;   28.000;  -72.000
434.072;  131.200; -410.000; -323.000
434.196;  -14.500; -309.000; -117.000
434.319; 3859.775;25482.000;25124.000
434.443;  698.825; -656.000; -603.000
434.566; 2006.050;  281.000;   62.000
434.690;  290.475; -637.000; -383.000
434.813;   48.650; -251.000; -173.000
434.937;  -77.700; -569.000; -696.000
435.060;  -13.675; -423.000; -332.000
435.184;  590.425; -492.000; -217.000
435.307;  306.925;  159.000;  102.000
435.431;    4.750;  -40.000;   24.000
435.554;  -78.875; -399.000; -240.000
435.677;  -69.900; -350.000; -258.000
435.801;  -43.225;  -25.000;   49.000
435.924;   32.200;    1.000;  -67.000
436.048;  -74.675;-1019.000; -732.000
436.171;  -64.375; -240.000;  -66.000
436.294;  -36.650; -248.000; -229.000
436.417;   29.600; -963.000; -849.000
436.541; -130.350; -814.000; -840.000
436.664;  -47.450; -242.000; -316.000
436.787;  -22.900;   13.000;  113.000
436.910; -112.950; -792.000; -422.000
437.034;   21.350;  142.000;  143.000
437.157;  109.950;  -11.000;    0.000
437.280;  -27.275; -392.000; -292.000
437.403;  -52.975; -982.000; -869.000
437.526; 1067.950; -903.000; -865.000
437.649; 3545.925; -505.000; -332.000
437.772;  547.675; -692.000; -540.000
437.896;  172.750;  700.000;  544.000
438.019;  -87.850; -758.000; -503.000
438.142;  -84.400; -596.000; -506.000
438.265;   31.225; -639.000; -670.000
438.388;  846.900; -520.000; -410.000
438.511;  193.450; -597.000; -394.000
438.634;  -37.550; -247.000; -125.000
438.757; -132.900; -693.000; -619.000
438.880;  -24.025;  -34.000;  -57.000
439.003;  -83.725; -417.000; -437.000
439.126;  -70.850; -287.000; -167.000
439.248;  -74.200;  -98.000; -139.000
439.371;  -41.575;    9.000;  -53.000
439.494;   24.775;  510.000;  439.000
439.617;  -51.775;   65.000;  -88.000
439.740; -195.525; -968.000; -816.000
439.863; -148.075; -755.000; -595.000
439.986; -127.100; -476.000; -431.000
440.108;  -50.900; -161.000; -112.000
440.231; -160.075; -950.000; -836.000
440.354;  -30.675;  -64.000; -150.000
440.477;   84.625; -566.000; -542.000
440.599;   24.425; -200.000; -225.000
440.722; -120.600; -709.000; -586.000
440.845;   73.900;  751.000;  928.000
440.968; -108.200; -415.000; -311.000
441.090;  -70.075; -199.000;  -33.000
441.213; -180.075;-1021.000; -825.000
441.336;  -57.250; -159.000;   -5.000
441.458;  -72.775; -549.000; -396.000
441.581;  -75.450; -628.000; -629.000
441.703;  -81.150; -152.000;   13.000
441.826; -122.425; -557.000; -400.000
441.948;  -62.300;   56.000;   51.000
442.071;   26.375;  555.000;  424.000
442.193; -119.550; -531.000; -485.000
442.316;   25.750;  152.000;   97.000
442.438;   20.925; -233.000;  -10.000
442.561;   95.275;  272.000;  262.000
442.683;  882.550; -809.000; -522.000
442.806; 1711.300;   -8.000;   74.000
442.928;   92.875; -859.000; -604.000
443.051;  -53.100; -577.000; -373.000
443.173;  -87.800; -341.000; -339.000
443.295;  -81.125; -263.000; -371.000
443.418;  -84.150; -321.000;  -29.000
443.540;  -14.750; -106.000;   -4.000
443.662; -124.550; -563.000; -465.000
443.785;   -8.400;  335.000;  199.000
443.907; -136.700; -362.000; -208.000
444.029; -132.375; -767.000; -494.000
444.152; -160.425; -644.000; -554.000
444.274;  -36.000;  -18.000;  -24.000
444.396; -116.175; -461.000; -221.000
444.518; -131.675; -691.000; -454.000
444.640; -121.425; -268.000; -111.000
444.763;  -33.250;  388.000;  249.000
444.885; -128.800; -432.000; -392.000
445.007;  -24.575;   35.000;   86.000
445.129; -115.175; -610.000; -515.000
445.251; -106.250; -372.000; -439.000
445.373; -136.025; -537.000; -386.000
445.495;    4.400;  242.000;  350.000
445.617;   60.325;  853.000;  753.000
445.739;  -57.225; -215.000;  -97.000
445.861;  -25.175; -245.000; -112.000
445.984;  -28.825; -267.000; -101.000
446.105;  299.675; -418.000; -251.000
446.227;  848.925; -176.000;  -19.000
446.349;   16.150; -358.000; -249.000
446.471; -100.575; -615.000; -448.000
446.593;  -68.725; -316.000;   19.000
446.715;   14.800;  -67.000;   41.000
446.837;   56.950;  697.000;  832.000
446.959;  -99.225; -457.000; -478.000
447.081; -139.425; -628.000; -518.000
447.203;   41.525;  862.000;  834.000
447.325;  -92.150; -270.000;   42.000
447.446;  -15.450;  286.000;  530.000
447.568; -154.550; -921.000; -803.000
447.690;  -91.675; -236.000; -245.000
447.812; -162.050; -798.000; -519.000
447.933;  -34.925;  155.000;  127.000
448.055;  -73.475; -306.000; -261.000
448.177;  198.850;   31.000;   79.000
448.299;  145.750; -935.000; -727.000
448.420;   27.775;  -25.000;  159.000
448.542;  -57.150;   -3.000;   33.000
448.664;  -18.375;  109.000;  322.000
448.785;  -36.825;  265.000;   83.000
448.907;  -89.225; -614.000; -353.000
449.028;  -22.600; -771.000; -471.000
449.150;   57.875;  492.000;  589.000
449.272; -186.175;-1044.000; -913.000
449.393;   24.575;  612.000;  694.000
449.515; -154.500; -634.000; -581.000
449.636;  -54.425; -264.000; -155.000
449.758;   95.300;  763.000;  622.000
449.879; -103.500; -498.000; -396.000
450.001;  -85.150; -149.000;  -49.000
450.122;  -35.900;  -95.000;  162.000
450.244;  -41.650;   37.000;  364.000
450.365; -106.750; -495.000; -301.000
450.486;  -38.475;   80.000;  268.000
450.608;   -0.100;  393.000;  326.000
450.729;   39.875;  578.000;  645.000
450.850;  -43.525; -574.000; -466.000
450.972;  460.950; -552.000; -389.000
451.093; 3345.325;  190.000;  588.000
451.214; 1304.475; -516.000; -337.000
451.336;  255.950;  773.000;  579.000
451.457;   26.125;  264.000;  393.000
451.578;  -58.850; -118.000;  -74.000
451.699; -124.900; -546.000; -540.000
451.821;  -61.275; -284.000;  -50.000
451.942;  -16.125;  278.000;  285.000
452.063;   12.350;  228.000;  419.000
452.184;  372.600;  -54.000;  -49.000
452.305;  781.875;  103.000;  170.000
452.427;   44.100; -549.000; -301.000
452.548;  -47.225;   23.000;   79.000
452.669;  -51.500; -257.000;  -89.000
452.790;  -34.525;    3.000;  -18.000
452.911;  -11.675;  195.000;  259.000
453.032;  -55.825; -289.000;  -60.000
453.153;  -41.500;  -29.000;   81.000
453.274;   67.775;  737.000;  868.000
453.395;  -44.350;  -51.000;  175.000
453.516;  127.975; 1317.000; 1388.000
453.637;  -43.475; -205.000; -150.000
453.758;  -48.625;   15.000;   69.000
453.879; -109.925; -462.000; -250.000
454.000;   87.475; 1086.000;  948.000
454.121; -126.875; -554.000; -326.000
454.242; -127.950; -599.000; -383.000
454.362;  -70.825;  -99.000;  114.000
454.483;  -38.425; -309.000; -229.000
454.604;   56.200;  512.000;  580.000
454.725; -117.375; -627.000; -555.000
454.846; -133.100; -474.000; -406.000
454.967;  -35.825;  230.000;  539.000
455.087;  -57.575;  179.000;  153.000
455.208;   12.000;  554.000;  856.000
455.329;  -67.650;  -22.000;   82.000
455.450;   15.200;  473.000;  633.000
455.570; -103.075; -234.000; -211.000
455.691;  -35.850;  201.000;  407.000
455.812; -121.800; -270.000;  -92.000
455.932;  -68.425;  107.000;  -97.000
456.053;  -93.100;   36.000;   24.000
456.173; -118.250; -433.000; -355.000
456.294; -127.575; -476.000; -303.000
456.415;  -66.500;  -73.000;   70.000
456.535;  -50.175;  297.000;  273.000
456.656;  -32.725;  132.000;  240.000
456.776;  -83.625;    3.000;  298.000
456.897;  -19.400;  308.000;  513.000
457.017;  -85.225; -153.000;   -3.000
457.138; -107.275; -402.000; -249.000
457.258;  -28.775;  263.000;  224.000
457.379;   -4.125;  509.000;  521.000
457.499;  -38.850;  443.000;  432.000
457.620; -131.850; -407.000; -231.000
457.740; -107.425; -132.000;  -11.000
457.860;  -59.775;   87.000;   44.000
457.981;  -51.800;  132.000;  124.000
458.101;  -82.400;  -89.000;   40.000
458.221;  -17.150;  336.000;  402.000
458.342;  -66.975;   -4.000;  -37.000
458.462;    3.125;  617.000;  352.000
458.582;  -79.375; -302.000; -294.000
458.703;  -36.575;  303.000;  154.000
458.823;  -44.875;   22.000;  163.000
458.943;   12.275;  341.000;  467.000
459.063;  -21.375; 1124.000;  192.000
459.183;  -31.000;  328.000;  313.000
459.304;  -11.825;  315.000;  517.000
459.424;  -88.350; -246.000;  -89.000
459.544;  240.300;  388.000;  764.000
459.664;  610.425;  499.000;  506.000
459.784;  228.875; 1004.000; 1175.000
459.904;   46.150;  867.000;  744.000
460.024;   81.625;  867.000;  684.000
460.144;   24.050;  449.000;  554.000
460.264;  -13.150;  515.000;  327.000
460.385; -110.825; -145.000; -119.000
460.505;   45.900;  905.000;  858.000
460.625; -100.375;  -17.000;  -68.000
460.745;  -20.250;  396.000;  541.000
460.864;  -57.150;  153.000;  469.000
460.984;   22.950;  499.000;  573.000
461.104;  136.900; 1656.000; 1775.000
461.224;   17.250;  657.000;  650.000
461.344;  -26.625;  431.000;  360.000
461.464;  -35.425;  258.000;  513.000
461.584;   -2.125;  283.000;  466.000
461.704;  -45.475;   58.000;  108.000
461.824;  -62.950;  238.000;  259.000
461.943;  -51.575;  191.000;  130.000
462.063;  -84.750;    2.000;  324.000
462.183;   23.525;  639.000;  717.000
462.303;  116.675; 1678.000; 1230.000
462.422;   24.700;  781.000;  840.000
462.542;  -50.225;  271.000;  391.000
462.662;   38.875;  353.000;  380.000
462.782;  196.800;  833.000;  572.000
462.901;  352.175;  545.000;  717.000
463.021;  235.725; 1702.000; 1638.000
463.141;  -26.775;  337.000;  770.000
463.260;  -23.700;  614.000;  474.000
463.380;   11.500;  902.000;  884.000
463.499;  -38.475;  342.000;  332.000
463.619;  -40.800;  581.000;  559.000
463.738;  115.975; 1644.000;  903.000
463.858;   18.925;  657.000;  811.000
463.978;  -42.000;  542.000;  396.000
464.097;   50.700;  921.000; 1114.000
464.217;   74.900; 1196.000; 1143.000
464.336;   88.475; 1068.000; 1130.000
464.455;  -52.500;  328.000;  659.000
464.575;   54.525;  597.000;  602.000
464.694;  181.050; 1204.000; 1179.000
464.814;  125.350; 1190.000; 1138.000
464.933;   72.975; 1095.000; 1027.000
465.052;   96.075; 1412.000; 1054.000
465.172;   80.175;  922.000;  799.000
465.291;  146.575; 1376.000; 1320.000
465.410;   10.225;  462.000;  735.000
465.530;   86.175; 1355.000; 1310.000
465.649;   69.525; 1209.000; 1273.000
465.768;  160.300; 1673.000; 1508.000
465.888;   48.450;  941.000; 1174.000
466.007;   94.200; 1335.000; 1440.000
466.126;  -22.075;  721.000;  641.000
466.245;   45.425; 1176.000; 1187.000
466.364;   10.900;  950.000; 1060.000
466.484;   71.075; 1024.000; 1213.000
466.603;   32.025; 1101.000; 1222.000
466.722;  119.450; 1490.000; 1769.000
466.841;   73.450; 1151.000; 1401.000
466.960;   49.150; 1069.000;  972.000
467.079;  122.475; 1971.000; 1786.000
467.198;   41.550; 1238.000; 1181.000
467.317;   89.650; 1768.000; 1162.000
467.436;   65.125; 1709.000; 1261.000
467.555;  135.675; 1796.000; 1746.000
467.674;   54.950; 1227.000; 1329.000
467.793;   31.000; 1376.000; 1374.000
467.912;   77.225; 1658.000; 1539.000
468.031;  132.825; 2038.000; 1930.000
468.150;  152.175; 1842.000; 1837.000
468.269;  196.725; 2313.000; 2090.000
468.388;  192.250; 2168.000; 2339.000
468.507;  248.350; 2884.000; 2903.000
468.626;  282.950; 2555.000; 2541.000
468.744;  124.700; 2018.000; 2174.000
468.863;  198.350; 2312.000; 2523.000
468.982;   88.625; 1503.000; 1555.000
469.101;  215.575; 2788.000; 2692.000
469.220;  127.775; 2333.000; 2176.000
469.338;  232.425; 2935.000; 3051.000
469.457;  188.350; 2719.000; 2545.000
469.576;  347.650; 3953.000; 3784.000
469.695;  238.950; 2877.000; 3066.000
469.813;  432.475; 4148.000; 4192.000
469.932;  395.225; 4255.000; 4485.000
470.051;  416.925; 4075.000; 4161.000
470.169;  751.700; 4470.000; 4338.000
470.288; 1185.725; 4700.000; 4809.000
470.406;  744.650; 5059.000; 5194.000
470.525;  620.525; 6101.000; 5787.000
470.644;  642.050; 6847.000; 6794.000
470.762;  827.550; 8397.000; 7873.000
470.881;  883.625; 8651.000; 8464.000
470.999; 1031.500; 9685.000; 9151.000
471.118; 1118.600;11174.000;10711.000

