
Integration time [ms]: 100.000
Averaging Nr. [scans]: 40
Smoothing Nr. [pixels]: 0
Data measured with spectrometer [name]: 2101012U2
Wave   ;Sample   ;Dark     ;Reference
[nm]   ;[counts] ;[counts] ;[counts] 

197.733;   65.125;  516.000;  404.000
197.879;  -81.425; -610.000; -634.000
198.025;  -39.675; -475.000; -420.000
198.171;  -69.225; -602.000; -612.000
198.317;  -21.950; -401.000; -316.000
198.463;  -68.700; -655.000; -404.000
198.609;   37.075;  181.000; -137.000
198.755;  -74.375; -644.000; -410.000
198.901;  -61.675; -505.000; -424.000
199.047;  -60.500; -615.000; -488.000
199.193;  -28.225; -230.000; -468.000
199.339;  -37.450; -222.000; -369.000
199.485;   40.950;  330.000;  271.000
199.631;    7.350;  227.000;  310.000
199.777;  -49.625; -466.000; -398.000
199.923;  -57.450; -610.000; -424.000
200.069;   -4.425; -141.000;  -58.000
200.215;   49.750;  128.000;  453.000
200.361;   37.375;  243.000;  477.000
200.507;  -66.975; -600.000; -373.000
200.653;  -20.050; -371.000; -194.000
200.798;  -33.200; -215.000; -125.000
200.944;   -3.575; -146.000;  -41.000
201.090;   36.725;   61.000;  222.000
201.236;   -9.675; -116.000; -158.000
201.382;  119.650;  874.000;  903.000
201.528;    8.525;  -58.000;  -48.000
201.674;  -39.675; -386.000; -293.000
201.819;  -56.250; -540.000; -439.000
201.965;  -85.725; -699.000; -447.000
202.111;  -24.975; -273.000; -226.000
202.257;  -31.275; -250.000; -238.000
202.402;    5.800;   13.000;  -36.000
202.548;  -32.575; -169.000; -116.000
202.694;   93.350;  410.000; -183.000
202.840;  -82.725; -603.000; -531.000
202.985;  -67.975; -681.000; -639.000
203.131;  -95.150; -832.000; -666.000
203.277;  -14.125; -199.000; -262.000
203.423;  -49.875; -434.000; -520.000
203.568;  -29.625; -462.000; -237.000
203.714;  -58.800; -535.000; -542.000
203.860;  -64.350; -682.000; -641.000
204.005;    7.375;  112.000;  167.000
204.151;   84.950;  561.000;  556.000
204.296;  -46.675; -354.000; -221.000
204.442;  -68.325; -600.000; -547.000
204.588;  -80.125; -592.000; -579.000
204.733;   15.800;  178.000;  168.000
204.879; -125.050;-1018.000; -822.000
205.025;   12.900;  -99.000;  126.000
205.170;   -9.050;  -17.000;   94.000
205.316;   75.300;  438.000;  661.000
205.461;  -84.425; -698.000; -554.000
205.607;   89.975;  609.000;  665.000
205.752;  -73.950; -626.000; -551.000
205.898;  -46.225; -501.000; -391.000
206.043;  -55.675; -578.000; -506.000
206.189;  -39.450; -243.000; -285.000
206.334;   52.800;  554.000;  606.000
206.480;   79.300;  409.000;  239.000
206.625;  -78.200; -529.000; -552.000
206.771;  -44.975; -451.000; -373.000
206.916;  -34.625; -210.000; -537.000
207.062;  -69.475; -545.000; -591.000
207.207;  -57.500; -546.000; -443.000
207.353;   52.050;  185.000;  460.000
207.498;   12.175;  196.000;   85.000
207.643;  -53.800; -501.000; -370.000
207.789; -130.675;-1069.000; -910.000
207.934; -105.025; -665.000; -713.000
208.080;  -36.275; -154.000;   66.000
208.225;   -0.725;  -22.000;  -57.000
208.370;  -87.650; -727.000; -619.000
208.516;  -70.500; -741.000; -487.000
208.661;  -28.275; -127.000;  -69.000
208.806;  -18.575; -165.000; -171.000
208.952; -121.850;-1044.000; -731.000
209.097;   80.900;  378.000;  349.000
209.242;  -56.700; -307.000; -382.000
209.387;   63.500;  392.000;  350.000
209.533;  -50.275; -321.000; -350.000
209.678;   89.225;  472.000;  543.000
209.823;  -69.450; -408.000; -310.000
209.969; -109.875; -860.000; -757.000
210.114; -108.625; -907.000; -719.000
210.259; -105.875; -939.000; -889.000
210.404;   -3.775; -171.000;  103.000
210.549;   21.225;  108.000;    3.000
210.695;  -17.150;   -3.000;  -95.000
210.840;   36.700;   94.000;   67.000
210.985;  -59.175; -484.000; -303.000
211.130;   82.800;  268.000;  406.000
211.275;   15.225;  207.000;  199.000
211.420;  -53.950; -300.000; -289.000
211.566;  -78.525; -536.000; -489.000
211.711;   15.825;  218.000;  157.000
211.856;  -72.400; -545.000; -519.000
212.001;    2.475;  151.000;   44.000
212.146;   23.000;  153.000;   49.000
212.291;  -16.225; -210.000; -186.000
212.436;  -24.525; -280.000;   -6.000
212.581;  -71.750; -685.000; -653.000
212.726;  -74.275; -487.000; -538.000
212.871;  -44.225; -552.000; -217.000
213.016; -142.150;-1172.000;-1029.000
213.161;   56.500;  406.000;  291.000
213.306;  -79.650; -435.000; -577.000
213.451;  -91.975; -778.000; -689.000
213.596;  -54.700; -455.000; -347.000
213.741;  -46.500; -448.000; -538.000
213.886;  -77.025; -498.000; -517.000
214.031;  -14.825; -294.000; -124.000
214.176;  -54.400; -408.000; -341.000
214.321;  -12.850; -296.000; -157.000
214.466;  -25.025; -163.000;  -43.000
214.611;    2.225;  -61.000;  -10.000
214.756; -109.925; -948.000; -858.000
214.901;  -32.250; -388.000; -226.000
215.046; -118.850; -797.000; -825.000
215.191;   31.600;  128.000;   35.000
215.336;  -17.125; -157.000;  -19.000
215.480;  -63.575; -684.000; -505.000
215.625;  -20.450; -175.000;  -19.000
215.770;  -85.250; -757.000; -662.000
215.915;   -7.250;   -5.000;  -97.000
216.060;    0.550; -113.000;  -21.000
216.205; -112.950; -731.000; -779.000
216.349;  -62.525; -470.000; -533.000
216.494; -125.975; -939.000; -867.000
216.639; -110.725; -823.000; -888.000
216.784;  -94.750; -577.000; -525.000
216.929;   48.150;  392.000;  281.000
217.073;  -13.100; -244.000;  -31.000
217.218;    9.425;   78.000;  -47.000
217.363;  -95.150; -656.000; -618.000
217.507;  -78.625; -623.000; -588.000
217.652; -122.000; -845.000; -874.000
217.797;  -87.425; -708.000; -659.000
217.942; -102.575; -856.000; -720.000
218.086;   84.275;  608.000;  539.000
218.231;  -22.425; -174.000;  -26.000
218.376;  -37.075; -337.000; -229.000
218.520;    5.775;  -41.000;   96.000
218.665;  -33.825; -338.000; -204.000
218.810;  -48.350; -275.000; -233.000
218.954;   17.925;  201.000;   35.000
219.099; -123.575; -713.000; -963.000
219.243;  -68.500; -589.000; -554.000
219.388;  -27.800; -264.000; -136.000
219.532;  -10.075; -116.000; -116.000
219.677;  -64.725; -564.000; -521.000
219.822;    8.825;   33.000;   89.000
219.966;   -1.875;   17.000;  -99.000
220.111;  -24.775; -328.000;  -40.000
220.255;  -97.825; -797.000; -750.000
220.400;  -17.275; -180.000; -146.000
220.544;  -79.350; -516.000; -450.000
220.689;  -50.975; -422.000; -451.000
220.833;  -19.075; -123.000;  -58.000
220.978;  -27.875; -393.000; -563.000
221.122;   17.150;  319.000;  307.000
221.267; -113.225; -906.000; -837.000
221.411;  -62.250; -478.000; -394.000
221.555;    3.450; -104.000;  -23.000
221.700;  -51.400; -329.000; -222.000
221.844;   31.500;  255.000;  272.000
221.989;  -41.125; -328.000; -311.000
222.133;  -36.600; -289.000; -307.000
222.277;  -14.350;    5.000;   78.000
222.422;   19.500;  227.000;  113.000
222.566;  -47.025; -381.000; -214.000
222.711;  -55.700; -414.000; -479.000
222.855;  -78.875; -643.000; -586.000
222.999;  -86.175; -642.000; -717.000
223.144;  -35.350; -195.000; -194.000
223.288;   47.050;  423.000;  251.000
223.432;   19.050;  184.000;  230.000
223.576;   21.250;  152.000;  -21.000
223.721;   48.125;  364.000;  273.000
223.865;  -53.100; -472.000; -475.000
224.009;  205.900; 1673.000; 1631.000
224.153;  -82.575; -660.000; -671.000
224.298;  -72.975; -531.000; -489.000
224.442;   -4.550;  -74.000;  -33.000
224.586;  -15.425; -169.000; -106.000
224.730; -100.450; -858.000; -670.000
224.875; -107.875; -739.000; -688.000
225.019;   12.950;  102.000;  188.000
225.163;   51.875;  208.000;  341.000
225.307;   21.650;   97.000;  -91.000
225.451;   29.900;  360.000;  481.000
225.595;   34.475;  264.000;  176.000
225.739;  -21.275; -170.000;  -94.000
225.884;    6.300;   86.000;    5.000
226.028; -102.925; -760.000; -626.000
226.172;  -26.250; -260.000; -273.000
226.316; -124.450; -941.000; -902.000
226.460;  -52.125; -645.000; -493.000
226.604;  -58.225; -406.000; -400.000
226.748; -105.400; -836.000; -733.000
226.892;  -40.225; -227.000; -181.000
227.036;  -39.800; -537.000; -447.000
227.180;  -60.200; -551.000; -375.000
227.324;  -56.850; -561.000; -580.000
227.468; -124.975; -819.000; -717.000
227.612;   24.650;  242.000;  -28.000
227.756; -108.750; -845.000; -698.000
227.900;   51.725;  342.000;  441.000
228.044;  -59.475; -509.000; -290.000
228.188;   67.475;  448.000;  568.000
228.332;  -88.675; -546.000; -472.000
228.476;  -22.825; -223.000; -149.000
228.620;  -39.600; -210.000; -150.000
228.764;   74.350;  431.000;  349.000
228.908;  -21.575; -155.000;   30.000
229.052;  -67.650; -615.000; -528.000
229.195;  -21.850; -172.000;   13.000
229.339;  -29.975; -235.000; -305.000
229.483;  -25.600;    5.000; -162.000
229.627;   -5.450; -156.000;  139.000
229.771;  -61.575; -218.000; -294.000
229.915;   17.100;  230.000;   79.000
230.059;  -88.700; -648.000; -663.000
230.202;  -34.975; -370.000; -317.000
230.346;  -22.000; -107.000;  107.000
230.490;  -69.575; -489.000; -521.000
230.634; -121.975; -736.000; -553.000
230.777;   66.300;  478.000;  509.000
230.921;  -56.300; -450.000; -359.000
231.065;  -35.800; -246.000; -286.000
231.209;   19.675;  261.000;  265.000
231.352;   27.525;   54.000;   40.000
231.496;    3.900;  568.000;  188.000
231.640;  -76.650; -693.000; -621.000
231.783;   60.975;  546.000;  525.000
231.927;  -37.175; -294.000; -365.000
232.071; -129.650; -962.000; -736.000
232.214; -109.050; -980.000; -764.000
232.358; -109.550; -683.000; -599.000
232.502;    2.400;  -19.000;    7.000
232.645; -142.650;-1090.000; -927.000
232.789;  -26.350; -257.000; -218.000
232.933;  -44.750; -407.000; -224.000
233.076; -126.600;-1038.000; -897.000
233.220; -125.700; -752.000; -777.000
233.363;  -62.550; -669.000; -477.000
233.507;   42.700;  371.000;  129.000
233.650;  -95.425; -764.000; -834.000
233.794;   43.800;  438.000;  461.000
233.938;  -63.550; -530.000; -362.000
234.081;  -31.025;  -93.000;   31.000
234.225;  -66.075; -631.000; -539.000
234.368; -101.875; -773.000; -723.000
234.512;  -32.925; -385.000; -299.000
234.655;  -87.950; -582.000; -555.000
234.798;  -64.625; -493.000; -466.000
234.942; -142.150; -884.000;-1002.000
235.085;  -66.775; -651.000; -443.000
235.229;  -78.600; -405.000; -410.000
235.372;  -53.325; -247.000; -191.000
235.516;  -54.525; -397.000; -321.000
235.659;   32.150;   92.000;  121.000
235.802;  -14.500;  -38.000;  -22.000
235.946;   15.150;  335.000;  215.000
236.089;   21.150;  126.000;  250.000
236.233;   57.700;  275.000;  298.000
236.376;  -71.000; -235.000; -378.000
236.519;  -40.400; -297.000; -319.000
236.663;  -29.100; -215.000; -117.000
236.806; -144.425;-1029.000; -999.000
236.949;   48.550;  543.000;  431.000
237.092;   51.050;  412.000;  391.000
237.236;  -84.500; -589.000; -502.000
237.379;   65.875;  352.000;  428.000
237.522; -122.725; -879.000; -768.000
237.666;   -9.650; -271.000;   18.000
237.809; -123.025; -851.000; -823.000
237.952;   23.150;  469.000;  271.000
238.095;  -62.875; -447.000; -442.000
238.238;   92.075;  688.000;  700.000
238.382;   -7.775;  166.000;  103.000
238.525;  -68.775; -598.000; -511.000
238.668; -146.450;-1060.000; -985.000
238.811;  -70.900; -638.000; -643.000
238.954;  -67.775; -483.000; -334.000
239.097;  100.775;  617.000;  664.000
239.241;   30.150;  394.000;  326.000
239.384;  -29.800; -254.000; -214.000
239.527;  -60.800; -424.000; -224.000
239.670; -132.950; -994.000;-1091.000
239.813; -111.400; -696.000; -658.000
239.956;   82.875;  579.000;  473.000
240.099; -117.200; -778.000; -725.000
240.242;   64.250;  428.000;  432.000
240.385;   43.275;  466.000;  450.000
240.528;  -59.375; -706.000; -473.000
240.671;   24.475;  189.000;  134.000
240.814;  -43.350; -441.000; -158.000
240.957; -104.450; -767.000; -578.000
241.100;  -89.375; -779.000; -755.000
241.243; -145.025;-1234.000; -893.000
241.386;  -66.100; -508.000; -379.000
241.529; -101.275; -735.000; -547.000
241.672;  -50.850; -566.000; -495.000
241.815; -127.925; -832.000; -808.000
241.958;  -36.675; -125.000; -182.000
242.101;  -68.350; -545.000; -390.000
242.244;  -56.225; -270.000; -325.000
242.387;  -43.150; -304.000; -246.000
242.530;   40.575;  470.000;  134.000
242.673;  -46.775; -381.000; -309.000
242.815; -115.500; -925.000; -899.000
242.958;  -67.550; -482.000; -381.000
243.101;    8.425;  132.000;  187.000
243.244;  -84.000; -564.000; -521.000
243.387;  -38.550; -313.000; -316.000
243.530;  -96.600; -657.000; -674.000
243.672;   -6.375;   43.000;  -92.000
243.815;  -59.725; -355.000; -283.000
243.958;    7.875;   98.000;  -26.000
244.101;   -3.375;   59.000;  -16.000
244.243;   -3.750;  -47.000;  101.000
244.386; -107.825; -761.000; -630.000
244.529;  -23.400; -132.000; -139.000
244.672; -156.650;-1154.000; -951.000
244.814;  -94.025; -621.000; -794.000
244.957;  -59.925; -380.000; -304.000
245.100;  -77.650; -489.000; -489.000
245.242;  -62.500; -387.000; -374.000
245.385;   -6.750;  -59.000;  -39.000
245.528; -124.075; -871.000; -705.000
245.670;  102.625;  612.000;  634.000
245.813; -110.250; -599.000; -547.000
245.956;  -27.550; -324.000; -275.000
246.098;  -70.925; -508.000; -650.000
246.241;   -0.200;  194.000;   48.000
246.383;  -33.800; -119.000;  -73.000
246.526;  -84.200; -454.000; -525.000
246.669; -122.675; -889.000; -780.000
246.811;   12.125;  172.000;   -1.000
246.954;  -70.525; -512.000; -426.000
247.096;  -21.925;  -84.000;   -6.000
247.239;  -73.500; -482.000; -445.000
247.381;  -63.725; -647.000; -488.000
247.524;   88.400;  645.000;  679.000
247.666;   -4.125;   58.000;   11.000
247.809; -123.100; -887.000; -691.000
247.951;    3.600;  -75.000;  138.000
248.094;   31.875;  432.000;  308.000
248.236; -136.000;-1262.000;-1238.000
248.378;   16.975; -356.000;  -81.000
248.521;   -6.925; -334.000; -337.000
248.663;  -29.475; -236.000; -267.000
248.806;  -13.225; -300.000; -266.000
248.948;  -93.800; -886.000; -763.000
249.090;  -44.775; -428.000; -398.000
249.233;  -48.550; -344.000; -381.000
249.375;  -68.200; -474.000; -451.000
249.518;  -13.400;  -83.000; -133.000
249.660;    5.125; -103.000;    3.000
249.802; -159.175;-1303.000;-1189.000
249.945;  -60.875; -612.000; -540.000
250.087; -123.025; -834.000; -768.000
250.229;  -44.600; -362.000; -480.000
250.371;  -89.525; -494.000; -439.000
250.514;  -49.900; -310.000; -244.000
250.656;  -60.175;   69.000;  102.000
250.798; -120.625; -849.000; -800.000
250.940;  -60.275; -322.000; -322.000
251.083;  -35.800; -335.000; -111.000
251.225;   53.250;  338.000;  310.000
251.367;  -38.550; -274.000; -373.000
251.509;  -48.225; -265.000; -210.000
251.651;  -94.100; -731.000; -671.000
251.794;   60.525;  538.000;  632.000
251.936; -104.400; -821.000; -747.000
252.078;  -75.625; -540.000; -461.000
252.220;  -68.150; -645.000; -477.000
252.362;   84.775;  344.000;  462.000
252.504;  -67.600; -677.000; -584.000
252.646; -119.125; -875.000; -722.000
252.788;    4.825;   14.000; -128.000
252.931;  -28.975; -257.000; -253.000
253.073;  -44.075; -376.000; -317.000
253.215;  -20.450;  141.000;  122.000
253.357;   -9.825;   82.000; -153.000
253.499;  -57.800; -374.000; -234.000
253.641;  -80.225; -749.000; -594.000
253.783;  -93.075; -609.000; -527.000
253.925;  -86.250; -586.000; -591.000
254.067; -112.375; -744.000; -667.000
254.209;  -26.175; -391.000; -259.000
254.351; -136.425; -865.000; -883.000
254.493;  -56.525; -441.000; -417.000
254.635; -128.175; -936.000; -818.000
254.777;  -86.050; -752.000; -687.000
254.918;  -73.775; -512.000; -430.000
255.060;  -52.675; -551.000; -395.000
255.202;  -68.975; -473.000; -261.000
255.344;  -71.375; -658.000; -455.000
255.486;  -73.325; -471.000; -406.000
255.628; -102.075; -780.000; -781.000
255.770;  -85.975; -676.000; -536.000
255.912;  -66.200; -559.000; -468.000
256.053;  -95.075; -730.000; -508.000
256.195;  150.200; 1008.000;  903.000
256.337; -103.325; -861.000; -595.000
256.479;   63.200;  532.000;  416.000
256.621;  -65.875; -394.000; -212.000
256.762;  -96.475; -789.000; -742.000
256.904;   50.500;  485.000;  487.000
257.046;  -51.100; -381.000; -271.000
257.188;  -42.200; -351.000; -264.000
257.329;  -69.050; -525.000; -464.000
257.471; -116.575; -939.000; -807.000
257.613;  -46.850; -584.000; -498.000
257.755; -152.250;-1073.000; -982.000
257.896;   37.575;  286.000;  392.000
258.038;  -77.500; -403.000; -352.000
258.180;  -42.450; -354.000; -279.000
258.321;  -85.625; -581.000; -457.000
258.463;   -1.350;  -71.000;  133.000
258.605;  -87.900; -562.000; -570.000
258.746; -107.400; -886.000; -772.000
258.888; -158.300;-1026.000;-1020.000
259.029;   27.875;  121.000;   -8.000
259.171;  -85.250; -614.000; -550.000
259.313;   -0.175;  -49.000;  -47.000
259.454;  -83.175; -536.000; -414.000
259.596;  -49.525; -483.000; -390.000
259.737;  -87.425; -590.000; -474.000
259.879;   46.150;  217.000;  311.000
260.020;   73.600;  901.000;  636.000
260.162;  -19.975; -146.000; -253.000
260.303; -117.125; -768.000; -687.000
260.445;  -81.500; -609.000; -613.000
260.586;   32.125;  392.000;  157.000
260.728;  -31.550; -360.000; -248.000
260.869; -120.400; -350.000; -343.000
261.011;   81.850;  706.000;  537.000
261.152;  -69.950; -479.000; -319.000
261.293;  -61.450; -576.000; -595.000
261.435;  -45.000; -219.000; -184.000
261.576;  -54.700; -455.000; -325.000
261.718;   49.400;  420.000;  470.000
261.859; -123.675; -940.000; -949.000
262.000; -128.150; -951.000;-1016.000
262.142;   -3.525;  -52.000;  -60.000
262.283; -111.600; -808.000; -691.000
262.424;  -90.175; -666.000; -625.000
262.566; -160.250;-1161.000; -983.000
262.707; -110.175; -840.000; -830.000
262.848; -108.450; -769.000; -726.000
262.990;  -40.375; -362.000; -345.000
263.131;   75.825;  650.000;  681.000
263.272;  -22.750;  -61.000;  -41.000
263.413;  -88.275; -589.000; -561.000
263.555;  -64.550; -669.000; -143.000
263.696;  -81.500; -550.000; -641.000
263.837;  -68.175; -449.000; -551.000
263.978;  -13.750;   -5.000;  -77.000
264.119;  -42.125; -283.000; -264.000
264.261; -119.900; -847.000; -630.000
264.402;   -2.950;   33.000;   40.000
264.543;  -73.200; -509.000; -524.000
264.684;  -16.400;   61.000;  -50.000
264.825;  -84.250; -816.000; -538.000
264.966;    6.975;  -84.000;  -67.000
265.107; -104.150; -646.000; -670.000
265.248; -114.525; -825.000; -812.000
265.390;   -9.375;  152.000;   -9.000
265.531;  -22.725; -238.000; -107.000
265.672;  -93.425; -557.000; -630.000
265.813;   55.625;  563.000;  439.000
265.954; -151.325; -959.000; -940.000
266.095;  -21.375; -372.000; -322.000
266.236; -104.700; -686.000; -548.000
266.377;  -38.700; -243.000; -297.000
266.518;  -86.550; -619.000; -547.000
266.659;   30.225;  170.000;  268.000
266.800;    3.100;   83.000;   85.000
266.941;  -78.450; -487.000; -478.000
267.082;   -3.950;  354.000;   99.000
267.223;  -49.975; -344.000; -273.000
267.364; -119.925; -892.000; -686.000
267.504;  -18.100;    3.000;  135.000
267.645;   -5.975;  160.000;   67.000
267.786;  -29.200; -147.000;  -86.000
267.927;  -75.200; -473.000; -379.000
268.068;  -22.925; -186.000;  -61.000
268.209;  -52.750; -175.000; -413.000
268.350;  -45.925; -388.000; -532.000
268.490;  -84.100; -648.000; -521.000
268.631;   25.125;  127.000;  225.000
268.772;  -98.500; -874.000; -647.000
268.913;  -51.050; -328.000; -476.000
269.054;  -22.400; -117.000;   12.000
269.194;  -42.450; -418.000; -402.000
269.335; -164.025;-1137.000;-1074.000
269.476;  -11.225;   33.000;  -35.000
269.617;  -52.975; -347.000; -392.000
269.757;  -82.425; -713.000; -646.000
269.898; -108.200; -856.000; -613.000
270.039;  -60.000; -415.000; -405.000
270.180; -134.575; -952.000; -816.000
270.320;   -6.175; -190.000; -250.000
270.461;  -33.275; -277.000; -249.000
270.602;  -12.650; -186.000; -156.000
270.742; -116.050; -868.000; -943.000
270.883;  -56.725; -442.000; -390.000
271.023;  -56.600; -358.000; -357.000
271.164;  -73.500; -607.000; -528.000
271.305; -107.950; -666.000; -654.000
271.445;  -91.075; -722.000; -683.000
271.586;  -67.725; -462.000; -283.000
271.726;  -51.425; -397.000; -322.000
271.867;  -47.925; -594.000; -534.000
272.008;  205.850; -473.000; -285.000
272.148;  132.525;  462.000;  468.000
272.289;   13.650; -113.000; -181.000
272.429;   15.275;   19.000;  185.000
272.570;  -79.925; -633.000; -737.000
272.710;  -92.925; -825.000; -775.000
272.851;  -23.100;  113.000; -130.000
272.991; -158.075;-1173.000;-1077.000
273.131;  -62.975; -419.000; -459.000
273.272; -109.550; -683.000; -723.000
273.412;   25.625; -143.000;  -31.000
273.553;  -50.575; -488.000; -507.000
273.693;  134.475;  913.000;  858.000
273.834; -109.975; -894.000; -692.000
273.974;  -69.800; -664.000; -615.000
274.114; -106.550; -772.000; -560.000
274.255;   77.100;  414.000;  373.000
274.395;    1.425; -180.000; -125.000
274.535;   36.575;  199.000;  350.000
274.676;   23.675;  225.000;   94.000
274.816;   11.375;  110.000;   34.000
274.956;  -91.850; -624.000; -690.000
275.097;  -52.875;-1014.000; -922.000
275.237; -113.050; -913.000; -803.000
275.377;  -99.375; -778.000; -689.000
275.517; -147.025; -878.000; -937.000
275.658;  -54.250; -590.000; -555.000
275.798;  -85.875; -606.000; -413.000
275.938;   29.275;  215.000;  323.000
276.078; -105.250; -626.000; -395.000
276.218;    5.350;   99.000;  104.000
276.359; -139.300;-1026.000;-1024.000
276.499;  -51.950; -605.000; -446.000
276.639;  -25.650; -305.000; -151.000
276.779;  -39.875; -475.000; -357.000
276.919; -105.500; -783.000; -624.000
277.059;  -18.225; -261.000; -212.000
277.199;  -48.375; -357.000; -259.000
277.340;   49.275;  287.000;  175.000
277.480; -113.125; -840.000; -693.000
277.620;   27.425;  192.000;   16.000
277.760; -187.775;-1533.000;-1294.000
277.900;   16.650;  113.000;   33.000
278.040;    5.175;  137.000;  159.000
278.180;   29.000;  270.000;  170.000
278.320;   -0.825;   21.000;   56.000
278.460;  -62.875; -443.000; -469.000
278.600;  -96.250; -708.000; -598.000
278.740;   68.400;  448.000;  224.000
278.880;  -35.400; -768.000; -791.000
279.020;    4.950; -194.000; -144.000
279.160;  -98.550; -672.000; -595.000
279.300; -113.025; -926.000; -873.000
279.440;  -91.275; -709.000; -622.000
279.579;   -1.300;-1014.000; -929.000
279.719;  -54.600; -410.000; -394.000
279.859;   66.275;   -4.000;   41.000
279.999;   28.700; -208.000;  101.000
280.139;  -15.225; -435.000; -387.000
280.279;  -64.550; -708.000; -745.000
280.419;    3.425; -229.000; -147.000
280.559;  -32.200; -259.000; -180.000
280.698;  -86.200; -790.000; -639.000
280.838;  -97.450; -778.000; -800.000
280.978;  -93.425; -846.000; -790.000
281.118; -124.700; -811.000; -704.000
281.257;    6.725;   24.000;    6.000
281.397; -111.175;-1094.000; -960.000
281.537;  -78.050; -599.000; -712.000
281.677;  -28.100; -150.000; -101.000
281.816;  -99.025; -700.000; -630.000
281.956;  -43.125; -193.000; -257.000
282.096;  -56.700; -539.000; -396.000
282.235; -113.550; -672.000; -638.000
282.375;  -15.225; -243.000;  -98.000
282.515; -118.525; -715.000; -707.000
282.654;   28.150;   29.000;  106.000
282.794;   18.375;  388.000;  244.000
282.934;  -53.100; -530.000; -491.000
283.073; -139.650;-1030.000; -857.000
283.213;  -58.125; -460.000; -467.000
283.353;  -28.025; -408.000; -349.000
283.492;  -35.875; -264.000; -296.000
283.632;  -43.975; -254.000; -168.000
283.771;  -86.000; -859.000; -730.000
283.911;  -64.925; -369.000; -260.000
284.050; -103.375; -794.000; -748.000
284.190; -165.500;-1229.000;-1096.000
284.329; -141.975;-1055.000; -964.000
284.469;  -46.100; -516.000; -591.000
284.608;  -43.400; -559.000; -598.000
284.748;  -96.675; -614.000; -570.000
284.887;    2.900;  -87.000;  -20.000
285.027; -124.875; -844.000; -892.000
285.166;  -28.050; -192.000; -249.000
285.306;    7.875; -116.000;  -33.000
285.445;  -35.650; -229.000; -343.000
285.584;  -86.875; -630.000; -494.000
285.724;  -42.600; -282.000; -322.000
285.863; -117.450; -857.000; -507.000
286.002;  -54.525; -366.000; -276.000
286.142;  -94.550; -715.000; -622.000
286.281;  -74.600; -525.000; -493.000
286.420;  -79.125; -554.000; -417.000
286.560;  104.525;  653.000;  623.000
286.699; -133.750; -958.000; -912.000
286.838;  -83.575; -590.000; -591.000
286.978;  -84.050; -533.000; -537.000
287.117; -137.550;-1085.000; -950.000
287.256;  -35.750; -228.000; -211.000
287.395;  -46.500; -197.000; -378.000
287.535;  -64.625; -370.000; -298.000
287.674;  -68.700; -509.000; -484.000
287.813;   62.350;  661.000;  533.000
287.952; -121.600;-1010.000; -871.000
288.091; -146.775;-1049.000; -915.000
288.231;   17.825;   13.000;   15.000
288.370; -175.625;-1217.000;-1200.000
288.509; -105.975; -728.000; -645.000
288.648;  -90.225; -770.000; -548.000
288.787;  -34.325; -243.000;  -87.000
288.926;  -69.000; -454.000; -475.000
289.065;  125.700;  859.000;  672.000
289.204;  -56.850; -377.000; -217.000
289.344;  -86.800; -791.000; -690.000
289.483;   14.750;  416.000;  304.000
289.622;  -28.475; -291.000; -149.000
289.761;  -18.300; -309.000; -166.000
289.900; -102.700; -785.000; -626.000
290.039;  -10.175;  -12.000;  -95.000
290.178;  -39.600; -274.000; -180.000
290.317;  -82.475; -618.000; -479.000
290.456;  -56.850; -463.000; -451.000
290.595; -148.175; -961.000; -833.000
290.734; -128.600; -904.000; -891.000
290.873;  -70.800; -456.000; -420.000
291.011; -111.075; -833.000; -843.000
291.150;  -96.225; -770.000; -682.000
291.289;  -14.725; -343.000; -110.000
291.428;  -95.375; -599.000; -480.000
291.567;  -50.100; -370.000; -442.000
291.706;  -13.200;  109.000;  154.000
291.845;  -89.850; -597.000; -505.000
291.984; -158.225;-1234.000;-1061.000
292.122;   64.425;  602.000;  582.000
292.261;   57.875;  620.000;  463.000
292.400;    8.600; -144.000;  211.000
292.539; -128.700; -959.000; -813.000
292.678;  -29.675; -325.000; -300.000
292.816; -156.550;-1136.000; -965.000
292.955;  -80.350; -844.000; -684.000
293.094;  -28.750; -173.000; -337.000
293.233;  -60.050; -556.000; -400.000
293.371;  -42.825; -225.000;  -84.000
293.510; -107.325; -866.000; -780.000
293.649; -124.275; -959.000; -924.000
293.787;  -37.525;-1083.000;-1012.000
293.926;   -8.950; -113.000;  -32.000
294.065;  -44.050; -379.000; -290.000
294.203;   49.575;  298.000;  406.000
294.342;   29.525;   74.000;  156.000
294.481; 5771.450;51180.000; -836.000
294.619;  -22.425; -425.000; -582.000
294.758; -137.625;-1230.000;-1137.000
294.896;   74.675; -125.000;    5.000
295.035; -126.325;-1040.000;-1006.000
295.174; -114.125;-1082.000; -954.000
295.312;  -41.975; -323.000; -203.000
295.451;    5.675; -307.000; -428.000
295.589;  -58.875; -389.000; -518.000
295.728;   13.000; -292.000; -165.000
295.866;    1.650;  -36.000;  -51.000
296.005;  -57.650; -584.000; -341.000
296.143;  -79.375; -558.000; -596.000
296.282;  -97.450; -957.000; -881.000
296.420;  -74.475; -657.000; -557.000
296.559;  -71.825; -892.000; -633.000
296.697;   36.525; -847.000; -665.000
296.835;   88.500;-1141.000;-1002.000
296.974;   54.075;  -23.000;   39.000
297.112;   38.025; -443.000; -504.000
297.251;  -88.000; -815.000; -755.000
297.389;  103.675; -576.000; -438.000
297.527;   40.400; -145.000;  -83.000
297.666;  -51.400; -486.000; -438.000
297.804;  -54.500; -404.000; -264.000
297.942;    3.925; -136.000; -161.000
298.081;  -13.300; -183.000;   63.000
298.219;   77.900;  -17.000;  -19.000
298.357;   53.950; -144.000;  -71.000
298.495;   63.250; -810.000; -812.000
298.634;   82.250;  245.000;  219.000
298.772;   73.975; -220.000; -338.000
298.910;  -38.075; -309.000; -182.000
299.048;  -12.375; -130.000; -153.000
299.187;  -26.025; -350.000; -250.000
299.325;   25.250;   52.000;  122.000
299.463;   64.425; -389.000; -299.000
299.601;  124.250; -327.000; -271.000
299.739;  -86.425; -908.000; -883.000
299.877;  -65.925; -791.000; -703.000
300.016;  -46.850;-1095.000; -935.000
300.154;  181.150;  -19.000; -161.000
300.292;   63.950; -428.000; -348.000
300.430;   49.650; -408.000; -291.000
300.568; -100.675; -940.000; -874.000
300.706;  -36.750; -366.000; -469.000
300.844;  -61.475;-1108.000; -979.000
300.982;  125.825;  246.000;  282.000
301.120;  -96.850; -965.000; -866.000
301.258;  -58.300; -812.000; -705.000
301.396;   30.975;  104.000;  -41.000
301.534;  109.550; -218.000; -293.000
301.672;   -1.050; -664.000; -521.000
301.810;   61.225; -613.000; -545.000
301.948;  116.075;   53.000;  149.000
302.086;  704.825; -250.000;  -32.000
302.224; 1077.200; -610.000; -585.000
302.362;   74.075; -558.000; -622.000
302.500;    9.950; -923.000; -893.000
302.638;  119.675;  128.000;  245.000
302.776;    4.575; -352.000; -408.000
302.913;   43.300;  447.000;  236.000
303.051;    0.900;  -86.000;  -23.000
303.189;   61.425;   90.000;  118.000
303.327;  -45.025; -341.000; -256.000
303.465;  -76.100; -832.000; -588.000
303.603;  -94.125; -805.000; -604.000
303.740;  109.900;  417.000;  241.000
303.878;   31.825; -800.000; -759.000
304.016;  -81.100; -915.000; -790.000
304.154; -117.900;-1123.000;-1152.000
304.291;  -33.175; -505.000; -554.000
304.429;    7.100;  102.000;   74.000
304.567; -123.150; -908.000; -893.000
304.705;  -52.400; -408.000; -515.000
304.842;  122.100; -616.000; -540.000
304.980;   53.325;  215.000;   35.000
305.118;   63.175; -367.000; -365.000
305.255;  -71.625; -945.000; -927.000
305.393;   54.150;  178.000;  239.000
305.531; -106.525;-1173.000; -956.000
305.668;  -54.475; -663.000; -582.000
305.806;  114.400; -358.000; -439.000
305.943;  135.600; -629.000; -637.000
306.081;   60.675; -378.000; -267.000
306.219;  -92.800; -863.000; -748.000
306.356;   -2.575;  158.000;   27.000
306.494;  113.600;  981.000;  761.000
306.631;    3.250;  -11.000;  -55.000
306.769;   13.975; -613.000; -485.000
306.906;   -3.225; -284.000; -258.000
307.044;  -53.425; -473.000; -488.000
307.181;  -70.200; -410.000; -332.000
307.319;    1.700;  112.000;   87.000
307.456; -175.250;-1191.000;-1153.000
307.594;  -75.850; -980.000; -727.000
307.731;  -12.575; -371.000; -164.000
307.868;    1.750;  -15.000;   20.000
308.006; -139.725; -961.000; -847.000
308.143;  -64.475; -618.000; -330.000
308.281;  187.375;  -37.000; -254.000
308.418;   -1.425; -748.000; -640.000
308.555;  -69.750; -400.000; -250.000
308.693;  -72.400; -577.000; -573.000
308.830; -108.500; -712.000; -657.000
308.967;   -9.175; -215.000;  -95.000
309.105;  -44.650; -507.000; -396.000
309.242;   36.950; -468.000; -367.000
309.379;  357.625; -577.000; -655.000
309.517;  -48.875; -936.000; -948.000
309.654; -101.150; -910.000; -734.000
309.791;  -57.100; -662.000; -580.000
309.928; -111.875; -977.000; -914.000
310.065;  183.675;  819.000;  697.000
310.203;   14.575; -825.000; -850.000
310.340;   12.825; -465.000; -321.000
310.477;  -79.275; -412.000; -516.000
310.614;  -74.250; -383.000; -473.000
310.751;  -81.675; -427.000; -518.000
310.889;  -16.250;    1.000;   11.000
311.026; -149.175;-1161.000; -939.000
311.163;  -55.400; -386.000; -380.000
311.300;  -74.325; -512.000; -479.000
311.437;  -68.850; -658.000; -619.000
311.574; -155.425;-1226.000; -985.000
311.711;  -70.775; -595.000; -433.000
311.848;  -43.825; -380.000; -388.000
311.985;    4.725;  270.000;   93.000
312.122; -117.050; -932.000; -762.000
312.259; -123.450; -941.000; -994.000
312.396;  -75.650; -508.000; -551.000
312.533;  -77.975; -812.000; -790.000
312.670; -125.050;-1070.000; -898.000
312.807;  -35.525; -352.000; -367.000
312.944;  -80.300; -513.000; -611.000
313.081;  -30.225; -150.000; -415.000
313.218; -104.425;-1111.000; -867.000
313.355;   23.400; -531.000; -449.000
313.492;   10.450; -455.000; -292.000
313.629;  142.125;  815.000;  735.000
313.766; -150.300;-1176.000;-1008.000
313.902;  -21.825; -186.000;   21.000
314.039;  -57.425; -372.000; -289.000
314.176;   41.975;  286.000;  192.000
314.313;  -79.975; -569.000; -473.000
314.450;  -77.225; -788.000; -684.000
314.587;  -67.925; -468.000; -480.000
314.723;    0.400;  -78.000;  130.000
314.860;   37.275;  318.000;  332.000
314.997;   36.850;  223.000;  142.000
315.134;  -41.825; -385.000; -368.000
315.270;  -21.875; -480.000; -496.000
315.407; -116.875;-1094.000; -967.000
315.544;  -37.125; -657.000; -538.000
315.681;  -61.050; -681.000; -565.000
315.817;   41.025; -133.000; -176.000
315.954;   28.975; -613.000; -392.000
316.091; -123.425;-1045.000;-1023.000
316.227;  -28.000;  -71.000; -179.000
316.364;    9.100;   23.000;    6.000
316.500;  -46.325; -113.000; -300.000
316.637;  -41.250; -181.000; -302.000
316.774;  -90.950; -625.000; -358.000
316.910;  -85.125; -598.000; -629.000
317.047;  -61.850; -487.000; -351.000
317.183;  -43.175; -435.000; -566.000
317.320;  -21.000; -367.000; -321.000
317.456;  -79.750; -733.000; -805.000
317.593;  -94.750; -598.000; -641.000
317.729;   -0.075;  168.000;  -67.000
317.866; -195.550;-1434.000;-1285.000
318.002;  -77.275; -708.000; -948.000
318.139; -103.625; -883.000; -867.000
318.275;  -97.900;-1003.000; -738.000
318.412;  -72.875; -517.000; -336.000
318.548;   -9.200; -751.000; -720.000
318.685;  -92.425; -985.000; -888.000
318.821;  -86.550; -762.000; -735.000
318.957;  -20.350;   34.000;  -23.000
319.094;   39.675;  297.000;  154.000
319.230;  -53.025; -756.000; -742.000
319.367;  168.025; -471.000; -520.000
319.503;   69.450; -538.000; -436.000
319.639;  -84.250; -877.000; -793.000
319.775;  -59.650; -750.000; -685.000
319.912;  -48.450; -424.000; -519.000
320.048;  -77.750;-1184.000;-1184.000
320.184;   65.675;   59.000;   70.000
320.321;  -64.775; -497.000; -467.000
320.457;   61.900;  475.000;  662.000
320.593;  -70.225; -375.000; -382.000
320.729; -104.675; -732.000; -734.000
320.866;  -85.600; -577.000; -635.000
321.002;  -75.025; -759.000; -809.000
321.138;   -6.050; -135.000; -211.000
321.274;   82.550; -148.000; -115.000
321.410;   -1.050; -585.000; -353.000
321.546;  -21.725;-1011.000; -911.000
321.683;   51.625;  400.000;  185.000
321.819;    2.325;  -48.000; -117.000
321.955;  -99.300; -743.000; -722.000
322.091;  -32.700; -585.000; -540.000
322.227;   -9.075; -382.000; -202.000
322.363;  -13.625; -320.000; -215.000
322.499;  -49.125; -343.000; -331.000
322.635;  161.725;  636.000;  443.000
322.771;   29.075; -139.000;   12.000
322.907;   97.350;  129.000;  327.000
323.043;  -29.450; -115.000; -206.000
323.179;  -35.525; -394.000; -363.000
323.315;   49.025; -401.000; -371.000
323.451;  120.000; -328.000; -236.000
323.587;   68.300;  -60.000;  -77.000
323.723;   37.500; -682.000; -601.000
323.859;  -24.650; -258.000;  -76.000
323.995;  -18.400; -467.000; -409.000
324.131; -123.525; -967.000; -892.000
324.267;  -29.500; -254.000; -276.000
324.402; -122.925; -960.000; -983.000
324.538;   -2.575; -279.000; -104.000
324.674;   15.575;  164.000;   77.000
324.810;  158.875;  226.000;  308.000
324.946;   17.825; -810.000; -658.000
325.082;  -62.275; -568.000; -475.000
325.217;   -3.150;  -62.000;   16.000
325.353; -107.375; -764.000; -659.000
325.489;  -87.175; -540.000; -506.000
325.625;  -78.750; -579.000; -525.000
325.760;   56.000;  517.000;  376.000
325.896;  -28.125; -515.000; -702.000
326.032;  -61.175; -403.000; -352.000
326.168;  -60.950; -462.000; -369.000
326.303;  -68.025; -352.000; -461.000
326.439;   -7.500; -336.000; -276.000
326.575;   15.625; -190.000;  -29.000
326.710;  -18.875; -156.000;  -30.000
326.846;  -24.000;  146.000;  103.000
326.982;  -85.600; -530.000; -548.000
327.117;  -82.575; -481.000; -442.000
327.253;  -87.350; -745.000; -742.000
327.388; -123.825;-1137.000;-1153.000
327.524;  -46.700; -811.000; -578.000
327.659;  -25.825;  -58.000;  -22.000
327.795;   -6.550;   69.000;   45.000
327.931;  -91.700; -723.000; -499.000
328.066;  -25.000; -417.000; -276.000
328.202;  -14.725;   12.000; -129.000
328.337;  100.850;  957.000;  713.000
328.473;   27.450;  -12.000;  -74.000
328.608;  -21.200; -256.000; -267.000
328.743;  -92.725; -799.000; -664.000
328.879;   32.750;  214.000;  114.000
329.014;  -37.625; -102.000; -122.000
329.150;  -84.500; -358.000; -483.000
329.285;  -77.050; -465.000; -466.000
329.421;  -59.425; -548.000; -246.000
329.556;  -39.775;  -36.000;   85.000
329.691;  -90.050; -633.000; -615.000
329.827;  -80.550; -626.000; -480.000
329.962;  -38.225;  131.000; -301.000
330.097;  -77.000; -673.000; -585.000
330.233;  -51.450; -410.000; -223.000
330.368; -134.375; -839.000; -628.000
330.503;  -21.675;    3.000;   98.000
330.638;    6.525;  -93.000; -125.000
330.774;  -47.075; -609.000; -530.000
330.909;  -41.600; -434.000; -244.000
331.044;  -98.025; -714.000; -708.000
331.179; -173.725;-1217.000;-1109.000
331.315;   13.000;   77.000;   20.000
331.450;    2.750;  157.000;  285.000
331.585;  -75.725; -805.000; -706.000
331.720;  -80.225; -510.000; -460.000
331.855;  -18.800;  -35.000; -102.000
331.990;  239.225;   62.000;  138.000
332.126;  132.825; -110.000;   71.000
332.261;  -30.100; -379.000; -265.000
332.396;   -0.400; -135.000; -242.000
332.531; -109.125;-1074.000;-1031.000
332.666;   35.600; -519.000; -363.000
332.801; -101.625; -726.000; -807.000
332.936;  -17.400; -192.000; -122.000
333.071; -151.300; -870.000; -817.000
333.206;   19.350;  307.000;  379.000
333.341;   19.700;  344.000;  418.000
333.476;  -82.125; -627.000; -623.000
333.611;  -47.275; -251.000; -173.000
333.746;  -43.750; -381.000; -464.000
333.881; -130.225; -973.000; -935.000
334.016; -119.650; -936.000; -917.000
334.151; -120.350; -746.000; -702.000
334.286;   31.500;  152.000;  186.000
334.421;   -5.675; -125.000; -178.000
334.556;  -67.350; -611.000; -567.000
334.690; -100.225; -631.000; -577.000
334.825;   67.700;  381.000;   83.000
334.960;  -59.950; -285.000; -413.000
335.095;   19.200;  135.000;  -91.000
335.230;  -85.900; -722.000; -738.000
335.365; -125.175;-1084.000; -990.000
335.499; -129.600;-1108.000;-1037.000
335.634;   32.750;    9.000;  534.000
335.769;  -86.575; -755.000; -720.000
335.904;  -47.125; -603.000; -561.000
336.038;  -71.300; -735.000; -657.000
336.173; -117.825;-1206.000;-1194.000
336.308;    5.400; -116.000; -189.000
336.443;   22.625; -544.000; -634.000
336.577;  -66.625; -936.000; -787.000
336.712;   77.050;   -4.000;  -12.000
336.847;  -30.200; -724.000; -607.000
336.981;   83.325; -272.000; -208.000
337.116;  296.950;  615.000;  501.000
337.250;  174.175; -434.000; -421.000
337.385;  245.375; -297.000; -208.000
337.520;   75.400; -632.000; -603.000
337.654;  -27.375; -215.000; -126.000
337.789; -136.825; -989.000; -933.000
337.923;  -30.300; -104.000; -205.000
338.058;  -77.675; -673.000; -738.000
338.192;  -28.250; -611.000; -488.000
338.327;    0.025;  -18.000; -155.000
338.461;  -80.800; -299.000; -469.000
338.596;  -91.150; -780.000; -638.000
338.730; -108.050; -767.000; -803.000
338.865;   90.575;  -46.000; -140.000
338.999;  -67.200; -846.000; -702.000
339.134;  -28.250; -634.000; -536.000
339.268;    6.225; -741.000; -603.000
339.403;  346.475; -740.000; -775.000
339.537;   99.000; -894.000; -820.000
339.671; -111.800; -829.000; -813.000
339.806;  -58.875; -556.000; -512.000
339.940;   27.750; -261.000; -235.000
340.074; -101.300; -685.000; -510.000
340.209;  -38.325; -351.000; -230.000
340.343;  -88.350; -517.000; -573.000
340.477;  149.750;  998.000; 1036.000
340.612;  -56.150;-1033.000; -900.000
340.746;  132.650; -199.000; -243.000
340.880;  -77.300; -924.000; -785.000
341.014;  -25.900;  -45.000; -154.000
341.149; -106.975; -756.000; -718.000
341.283; -113.675; -839.000; -754.000
341.417;  -79.475;-1124.000; -938.000
341.551;  170.550; -768.000; -708.000
341.685;  -39.275; -633.000; -611.000
341.820;  -59.875; -562.000; -493.000
341.954;  -54.750; -218.000; -349.000
342.088; -148.000;-1102.000;-1019.000
342.222;   46.050;  565.000;  618.000
342.356;  -56.825; -395.000; -335.000
342.490;  -85.450; -880.000; -841.000
342.624;  -41.275; -339.000; -242.000
342.758;   12.850; -364.000; -312.000
342.892;  -52.800; -710.000; -585.000
343.026;  -40.550;  -58.000; -116.000
343.160;  -62.100; -426.000; -376.000
343.294;  -80.450; -474.000; -337.000
343.428;   -3.950; -488.000; -448.000
343.562;  -16.425; -172.000;  -23.000
343.696;  -11.350; -385.000; -314.000
343.830;  -38.750; -362.000; -356.000
343.964;   28.900; -231.000; -168.000
344.098; 1030.175;  199.000;   70.000
344.232;  866.775; -266.000; -127.000
344.366;  105.475; -567.000; -453.000
344.500;   89.675; -665.000; -744.000
344.634;   45.700; -324.000; -164.000
344.768;   -6.600; -531.000; -341.000
344.902;   23.000;  278.000;  256.000
345.035;  -59.425; -556.000; -496.000
345.169; -128.125; -933.000; -656.000
345.303;  -32.075; -308.000; -482.000
345.437;  -52.600; -826.000; -717.000
345.571;  -75.625; -675.000; -594.000
345.704;  -62.925; -309.000; -532.000
345.838;  -20.900; -331.000; -284.000
345.972;  -27.125; -543.000; -495.000
346.106;  164.950; -179.000; -190.000
346.239;  436.000; -312.000; -243.000
346.373;   22.250; -343.000; -302.000
346.507; -131.175; -950.000; -962.000
346.640;  178.600;  -30.000;   13.000
346.774;  -38.850; -650.000; -797.000
346.908;   -6.825; -138.000;  -11.000
347.041; -103.925; -646.000; -593.000
347.175;   22.375;  259.000;   27.000
347.309;  -65.975; -698.000; -628.000
347.442;  -97.800; -883.000; -732.000
347.576;  302.475;  670.000;  668.000
347.709;  238.725; -123.000;  -52.000
347.843;  -75.475; -933.000; -825.000
347.976;   26.525;  235.000;  294.000
348.110; -185.925;-1268.000;-1186.000
348.243; -109.425; -679.000; -772.000
348.377;  -10.225;  -26.000;   60.000
348.510;   50.450;  403.000;  540.000
348.644;  -29.800;  -37.000; -159.000
348.777;   -5.700;  180.000;  191.000
348.911;  -49.750; -142.000; -112.000
349.044;  185.175;  471.000;  448.000
349.178;  187.850;-1069.000;-1006.000
349.311;  126.925;  141.000;  255.000
349.444;   -8.725; -927.000; -813.000
349.578;   -6.450; -347.000; -200.000
349.711; -109.900; -959.000; -862.000
349.845;   10.250; -661.000; -591.000
349.978; -152.175;-1224.000;-1137.000
350.111;  -75.725; -546.000; -612.000
350.244;  -66.650; -596.000; -700.000
350.378;   11.825; -392.000; -393.000
350.511;  -74.600; -393.000; -426.000
350.644; -109.650; -808.000; -806.000
350.778;   -1.675;  168.000;  104.000
350.911;   10.100;  134.000;  140.000
351.044;  -92.350; -685.000; -615.000
351.177;  -19.400; -321.000; -281.000
351.310;  -19.100;    3.000; -131.000
351.444;  -59.925; -888.000; -788.000
351.577;  130.475;  140.000;   90.000
351.710;  100.425;  593.000;  417.000
351.843;  -35.250; -165.000;  -77.000
351.976;    1.525;  149.000;  -79.000
352.109;  -85.500; -621.000; -612.000
352.242;  -22.525; -464.000; -419.000
352.376;  -59.900; -580.000; -636.000
352.509;  200.600; -437.000; -356.000
352.642;   31.175; -654.000; -604.000
352.775;   85.325; -141.000;  -98.000
352.908; -108.825; -933.000; -904.000
353.041; -103.125; -814.000; -824.000
353.174;  -63.600; -551.000; -424.000
353.307;  -82.350; -753.000; -764.000
353.440;   70.325;  541.000;  453.000
353.573;  -98.750; -957.000;-1008.000
353.706;  -42.350; -384.000; -558.000
353.839;  -10.000; -264.000; -220.000
353.971;  -93.900; -657.000; -512.000
354.104;  -68.425; -896.000; -835.000
354.237;  -28.250; -627.000; -662.000
354.370;  -70.625; -846.000; -879.000
354.503; -180.475;-1231.000;-1308.000
354.636;  -17.775; -529.000; -348.000
354.769; -117.725; -937.000; -860.000
354.902;    6.950; -230.000; -139.000
355.034;   -3.675; -164.000; -220.000
355.167;   -5.625; -262.000; -162.000
355.300;  -91.075;-1061.000; -880.000
355.433;  939.400;  -71.000;  -14.000
355.565; 1442.000; -402.000; -384.000
355.698;  383.625; -356.000; -296.000
355.831;   -5.675; -882.000; -801.000
355.964;  108.250; -285.000; -170.000
356.096;  -75.525; -856.000; -843.000
356.229;    7.575; -523.000; -530.000
356.362;  296.550; -373.000; -266.000
356.494;  561.250; -229.000; -162.000
356.627;  530.350;  269.000;  377.000
356.760;  666.425;  120.000;   53.000
356.892;  937.900; -286.000; -601.000
357.025;  733.125;  403.000;  389.000
357.157;  683.500; -167.000; -179.000
357.290;  633.325; -856.000; -713.000
357.423;  197.600; -667.000; -556.000
357.555;  127.375; -217.000; -228.000
357.688;  137.200; -483.000; -364.000
357.820;  529.225; -870.000; -877.000
357.953; 4179.650; -563.000; -589.000
358.085;  933.750; -632.000; -612.000
358.218; 1370.825;-1131.000; -932.000
358.350;  253.725;  -58.000;  312.000
358.483; -110.075;-1300.000;-1187.000
358.615;   15.750;-1182.000;-1078.000
358.747;  -42.825;-1187.000;-1058.000
358.880;   39.550; -810.000; -744.000
359.012;   -5.600; -376.000; -202.000
359.145;  -33.350; -480.000; -511.000
359.277;   88.700; -962.000; -913.000
359.409; 3446.625;  536.000;  231.000
359.542;  922.725; -738.000; -688.000
359.674;   97.925;   46.000;   13.000
359.806;  -64.300; -565.000; -438.000
359.939;  -42.875; -617.000; -516.000
360.071;  -10.925; -583.000; -579.000
360.203;  -14.825; -411.000; -364.000
360.335;   55.425;  164.000;  -16.000
360.468;  215.125; -249.000; -307.000
360.600; 2730.275; -547.000; -454.000
360.732; 2768.675; -546.000; -423.000
360.864;  376.925;-1216.000;-1044.000
360.996;  334.850; -516.000; -554.000
361.129;   63.350; -389.000; -598.000
361.261;   32.625;  110.000; -113.000
361.393;  -24.225; -252.000; -214.000
361.525;   29.525;   94.000;  244.000
361.657;  -32.700; -821.000; -703.000
361.789;   18.925; -139.000; -155.000
361.921;  277.850; -642.000; -593.000
362.053;  303.025;  524.000;  541.000
362.185;   49.400;  288.000;   72.000
362.318;  -68.825; -709.000; -705.000
362.450;  127.125;  294.000;  444.000
362.582;  160.725; -913.000; -870.000
362.714;  -36.025; -353.000; -332.000
362.846;  -83.150; -606.000; -490.000
362.978; -140.000; -941.000; -811.000
363.109;   56.625; -161.000; -260.000
363.241;  507.150; -739.000; -749.000
363.373;  426.300; -649.000; -564.000
363.505;  627.050; -186.000;  -91.000
363.637;  162.450; -787.000; -601.000
363.769; -113.150;-1067.000;-1080.000
363.901;  -69.875; -596.000; -654.000
364.033; -113.425;-1103.000;-1062.000
364.165;    9.900; -283.000; -283.000
364.296;   74.525; -316.000; -177.000
364.428;   59.875;-1344.000;-1220.000
364.560;  -71.775; -679.000; -661.000
364.692;  -58.250; -738.000; -835.000
364.824;  303.175; -588.000; -456.000
364.955;  453.325; -402.000; -564.000
365.087;  871.475;-1097.000; -852.000
365.219;   31.325; -686.000; -816.000
365.351;  -67.800; -526.000; -572.000
365.482;   74.825;  300.000;  240.000
365.614;  -50.150; -402.000; -314.000
365.746;  -99.525; -729.000; -752.000
365.877;  -86.525; -706.000; -672.000
366.009;  252.650;  -35.000;  -62.000
366.141; -105.900;-1249.000;-1134.000
366.272;  -93.500; -803.000; -719.000
366.404; -125.825;-1005.000; -874.000
366.535;  -18.550; -139.000;  -12.000
366.667;  -94.750; -644.000; -649.000
366.799;   34.975;  353.000;  203.000
366.930; -115.975; -862.000; -996.000
367.062;  121.850; -639.000; -613.000
367.193;  142.300; -872.000; -842.000
367.325;  -57.200; -580.000; -684.000
367.456;   71.425; -246.000;   31.000
367.588;  161.125; -371.000; -318.000
367.719;   28.300;  -44.000;  -45.000
367.851;    1.000; -222.000; -241.000
367.982;  -47.675; -875.000; -732.000
368.113;  125.050; -475.000; -358.000
368.245; -108.175; -960.000; -841.000
368.376;   -5.900; -254.000; -302.000
368.508;  -32.325; -188.000; -263.000
368.639; -133.525;-1166.000;-1034.000
368.770;   -2.700; -670.000; -589.000
368.902;  -54.700; -836.000; -926.000
369.033; -112.325; -906.000; -855.000
369.164;  -54.125; -720.000; -653.000
369.296; -105.825; -452.000; -601.000
369.427;    0.900; -209.000; -144.000
369.558;  -49.850; -593.000; -377.000
369.689;  -81.300; -721.000; -569.000
369.821; -139.275; -951.000; -845.000
369.952;  -13.450;   42.000; -108.000
370.083;  -56.975; -229.000; -108.000
370.214;  -67.225; -735.000; -650.000
370.345;   -0.675;   65.000;   81.000
370.477;  -68.825; -810.000; -790.000
370.608;  278.700; -328.000; -264.000
370.739;  -17.525;-1233.000;-1292.000
370.870;  -17.300;-1102.000; -923.000
371.001;  115.350; -378.000; -467.000
371.132;  -83.575; -754.000; -735.000
371.263;  -11.275;  -42.000; -148.000
371.394; -133.325; -841.000; -748.000
371.525;   28.150;  345.000;  225.000
371.657;  -94.950; -808.000; -670.000
371.788;   84.725;  103.000;  199.000
371.919;  199.800; -384.000; -304.000
372.050; 4112.975;  -91.000; -156.000
372.181; 1253.475; -188.000; -294.000
372.311;  429.625;   42.000; -127.000
372.442;   50.425; -457.000; -451.000
372.573;   -8.825; -444.000; -340.000
372.704;  -99.625;-1008.000; -980.000
372.835;  108.450; -228.000; -289.000
372.966;  -72.125; -646.000; -554.000
373.097;  -51.950; -575.000; -711.000
373.228;  -36.675; -717.000; -542.000
373.359;  162.100; -824.000; -536.000
373.490; 1061.925; -881.000; -727.000
373.620; 1368.900;-1001.000; -803.000
373.751; 2061.325; -332.000; -396.000
373.882;  940.600; -663.000; -733.000
374.013;   70.700; -449.000; -262.000
374.143;  -25.375; -581.000; -659.000
374.274;  -96.825; -987.000; -908.000
374.405;  205.775; -388.000; -276.000
374.536;  521.075; -526.000; -387.000
374.666; 1321.650; -759.000; -807.000
374.797;  276.250; -817.000; -868.000
374.928;  997.525; -710.000; -560.000
375.058; 1049.050; -535.000; -500.000
375.189;  102.825;  -59.000;  -93.000
375.320;  -92.650; -928.000;-1034.000
375.450;  -24.500; -625.000; -616.000
375.581;  -54.150; -526.000; -436.000
375.712;  -21.475; -574.000; -250.000
375.842;  373.100; -438.000; -415.000
375.973;  272.575; -554.000; -513.000
376.103;  -24.875; -665.000; -648.000
376.234;  -66.575; -531.000; -552.000
376.364;  -21.875; -944.000; -867.000
376.495;  355.075;  925.000;  529.000
376.625;   13.575; -472.000; -485.000
376.756;   86.375; -709.000; -678.000
376.886;  -70.250;-1178.000;-1026.000
377.017;   38.500;-1048.000;-1061.000
377.147;  341.175; -786.000; -782.000
377.278;   63.075;  174.000;  228.000
377.408; -113.600; -801.000; -815.000
377.538; -102.625; -707.000; -693.000
377.669;  -80.675; -537.000; -613.000
377.799;  -87.300; -645.000; -635.000
377.929;  -58.250; -610.000; -428.000
378.060; -116.225; -781.000; -847.000
378.190;  -79.375; -726.000; -531.000
378.320;  -49.750; -401.000; -406.000
378.451;   -1.575; -131.000;  -22.000
378.581;    7.625;  -67.000; -110.000
378.711;  148.800; 1035.000;  866.000
378.841;    1.625; -533.000; -675.000
378.972;  -58.000; -871.000; -751.000
379.102;    5.325; -652.000; -579.000
379.232;  -13.000; -126.000;  -73.000
379.362; -103.000;-1001.000; -885.000
379.492;   22.850; -373.000; -424.000
379.623;  112.750;    0.000;  111.000
379.753;  -86.625;-1107.000; -974.000
379.883;  238.475;   59.000;  156.000
380.013;   35.650;-1081.000;-1017.000
380.143;  -84.125;-1097.000;-1056.000
380.273;  -88.400; -985.000; -861.000
380.403;    8.200; -344.000; -257.000
380.533;  -12.150; -651.000; -664.000
380.663;   84.000;  173.000;  128.000
380.793;  -86.675;-1027.000;-1074.000
380.923;  -12.300; -103.000;  -34.000
381.053;  -99.775; -613.000; -623.000
381.183;  -28.050; -106.000; -248.000
381.313;   55.400; -656.000; -470.000
381.443;   81.250; -692.000; -473.000
381.573;  234.350; -402.000; -409.000
381.703;  362.250;-1249.000;-1095.000
381.833; -125.425;-1454.000;-1336.000
381.963;  127.175; -134.000;  -87.000
382.093; 1594.125; -925.000; -909.000
382.223;  523.350; -713.000; -602.000
382.353;  -14.725; -801.000; -608.000
382.482;  454.100;-1091.000; -964.000
382.612;  875.875; -872.000; -644.000
382.742;  522.875; -695.000; -622.000
382.872;  306.500; -565.000; -551.000
383.002;   83.500;  347.000; -132.000
383.131;  -17.525; -226.000; -160.000
383.261;  -31.400; -706.000; -768.000
383.391;  288.275; -552.000; -377.000
383.521; 3056.750;  451.000;  263.000
383.650;  717.875; -947.000; -904.000
383.780;   -7.700; -783.000; -656.000
383.910;  110.625;  880.000;  802.000
384.039;   32.975; -794.000; -656.000
384.169;  267.850;-1205.000;-1017.000
384.299;   -6.825; -650.000; -662.000
384.428;  -91.850; -764.000; -680.000
384.558;  -35.000; -308.000; -275.000
384.687;  -51.175; -414.000; -334.000
384.817;   32.875;   75.000;   -2.000
384.947;   25.675; -234.000; -141.000
385.076;  308.225;  982.000;  912.000
385.206;  106.900;  369.000;  480.000
385.335;  -20.575; -549.000; -417.000
385.465;  -72.375; -655.000; -663.000
385.594;  161.450;  -53.000;  -44.000
385.724;  516.800; -868.000; -838.000
385.853;  159.025; -296.000; -270.000
385.982; 1566.600; -743.000; -787.000
386.112; 2490.050;-1052.000; -871.000
386.241;  184.875; -307.000; -312.000
386.371;   33.375; -174.000;  -87.000
386.500;   11.025; -825.000; -789.000
386.629;   30.425; -874.000; -817.000
386.759;   59.925;  -43.000;   68.000
386.888;   -0.900; -170.000; -250.000
387.017;  -70.000; -648.000; -620.000
387.147;  -79.750; -771.000; -798.000
387.276;    7.675; -410.000; -397.000
387.405;   38.100; -398.000; -342.000
387.535;  -30.050; -452.000; -361.000
387.664;  -68.125; -692.000; -620.000
387.793;   63.875; -198.000; -113.000
387.922;  598.000;  255.000;  200.000
388.052;   49.425; -576.000; -423.000
388.181;   31.150; -342.000; -472.000
388.310;   18.200; -889.000; -710.000
388.439;  -23.400; -749.000; -742.000
388.568;  215.725;  365.000;  244.000
388.697; 1216.750; -756.000; -653.000
388.826;  273.950; -768.000; -666.000
388.956;   90.800; -285.000; -307.000
389.085;  -40.550; -347.000; -287.000
389.214; -118.325; -842.000; -872.000
389.343;  -62.325; -645.000; -413.000
389.472;  382.950;  126.000;  149.000
389.601;  516.400;   91.000;    0.000
389.730;   27.775; -568.000; -687.000
389.859;   61.075;  226.000;   46.000
389.988;  227.275; -423.000; -408.000
390.117;  169.975; -168.000; -146.000
390.246;    8.950; -331.000; -320.000
390.375;  127.950; -673.000; -626.000
390.504;  -36.900; -703.000; -621.000
390.633;  -88.475; -672.000; -726.000
390.761;  -59.550; -732.000; -645.000
390.890;   34.150;   -4.000; -130.000
391.019;  -11.925; -421.000; -441.000
391.148; -135.000; -826.000; -855.000
391.277;  -60.575; -576.000; -493.000
391.406;  -82.725; -821.000; -805.000
391.534;   36.450;  574.000; -301.000
391.663;  -70.000; -583.000; -645.000
391.792;  -78.575; -673.000; -701.000
391.921;  107.400;   -3.000;   15.000
392.050;  224.975; -287.000; -228.000
392.178;  -23.525;-1206.000;-1061.000
392.307;  177.000; -758.000; -712.000
392.436;   98.275; -427.000; -641.000
392.564;   32.250;  166.000;   -6.000
392.693;  -90.775; -860.000; -682.000
392.822;  263.525; -529.000; -534.000
392.950;  128.350; -880.000; -714.000
393.079;  393.225; -188.000; -328.000
393.208;   39.825; -488.000; -511.000
393.336;  -14.525; -170.000; -145.000
393.465;  -64.975; -317.000; -199.000
393.593;   12.950;   62.000;   79.000
393.722; -151.800;-1121.000; -916.000
393.850;  -20.750; -188.000;  -61.000
393.979; -146.050; -926.000; -805.000
394.107;  -70.075; -517.000; -537.000
394.236;  -19.800; -570.000; -507.000
394.364;  227.300;  383.000;  206.000
394.493;  387.425; -911.000; -767.000
394.621;  -10.550; -955.000; -916.000
394.750;  664.450; -873.000; -923.000
394.878; 2822.825; -247.000; -149.000
395.007; 3919.350; -721.000; -807.000
395.135;  298.850; -790.000; -721.000
395.263;  -86.300;-1038.000;-1040.000
395.392;    4.575;  -25.000; -107.000
395.520; -134.025; -818.000; -679.000
395.648;  -85.950; -865.000; -915.000
395.777;   -0.600; -366.000; -405.000
395.905;  -43.200; -449.000; -564.000
396.033;    9.000;  217.000;  172.000
396.162;  643.175; -399.000; -453.000
396.290;  566.150;  -17.000;   -2.000
396.418;  133.775; -555.000; -514.000
396.546;  -55.725; -571.000; -466.000
396.674;  -86.175; -850.000; -878.000
396.803;   14.400;  -72.000;  -23.000
396.931;  114.725; -179.000; -199.000
397.059;   85.950;-1026.000; -989.000
397.187; -107.100;-1026.000; -975.000
397.315; -121.450; -884.000; -649.000
397.443;  -80.900; -592.000; -443.000
397.572;  -82.750; -578.000; -424.000
397.700;   14.900; -607.000; -614.000
397.828;   22.300;  120.000;  -90.000
397.956;  -36.850; -508.000; -478.000
398.084;  -70.175; -767.000; -626.000
398.212;   47.525;  137.000;  124.000
398.340;   15.375;  -56.000;  159.000
398.468;   51.850; -390.000; -169.000
398.596; -126.775; -993.000; -953.000
398.724; -122.425; -762.000; -767.000
398.852; -160.450;-1024.000; -976.000
398.980;  -57.675; -560.000; -560.000
399.108;  -45.100; -982.000; -735.000
399.236;   41.325;   13.000;    8.000
399.363;   17.350;  222.000;  196.000
399.491;  -67.925; -404.000; -398.000
399.619; -134.325; -829.000; -800.000
399.747;  -79.450; -859.000; -771.000
399.875;   89.275;  220.000;  234.000
400.003;  -50.200; -359.000; -284.000
400.130;  -80.125; -421.000; -341.000
400.258;  -31.600;  -83.000;   38.000
400.386;  -75.350; -352.000; -168.000
400.514;  -31.500; -526.000; -587.000
400.641;  -78.550; -928.000; -802.000
400.769; -147.150; -979.000; -888.000
400.897; -112.775; -838.000; -793.000
401.025;   -9.825; -166.000; -152.000
401.152;  -12.175;  220.000;   38.000
401.280;  -83.075; -430.000; -429.000
401.408; -126.050; -712.000; -576.000
401.535;  -99.350; -735.000; -758.000
401.663; -181.900;-1134.000;-1054.000
401.790;  -70.850; -514.000; -525.000
401.918;   28.275;  436.000;  405.000
402.046;  -14.375;  134.000;  122.000
402.173;  -48.275;  -18.000;    7.000
402.301;  -59.825; -519.000; -397.000
402.428;   51.400;  528.000;  383.000
402.556; -125.000;-1188.000; -913.000
402.683;  -30.500;  -20.000;   -1.000
402.811;  -17.525;  -37.000; -206.000
402.938;  -17.075;   20.000;   27.000
403.066;  223.175; -574.000; -558.000
403.193;  383.250;  299.000;  239.000
403.321;  301.425; -396.000; -574.000
403.448;  365.750;   83.000;   27.000
403.575;  158.850;  -90.000;  -46.000
403.703;  -85.125; -732.000; -557.000
403.830;  -67.275; -531.000; -496.000
403.957; -139.725;-1117.000;-1023.000
404.085;   10.750;  -61.000; -172.000
404.212;  101.425;  -50.000;   63.000
404.339;  258.075; -566.000; -306.000
404.467; 5470.075; -612.000; -524.000
404.594; 3871.550; -287.000; -227.000
404.721;  979.975; -869.000; -764.000
404.848;   86.425; -113.000; -202.000
404.976; -103.875; -856.000; -783.000
405.103;   -0.500;  -14.000;  -82.000
405.230;   -9.225;  190.000;  226.000
405.357;   31.525;  117.000;   44.000
405.484;  245.525;  -49.000;    5.000
405.612;   53.825; -548.000; -563.000
405.739;  -80.475; -488.000; -243.000
405.866;   99.825;  669.000;  385.000
405.993;  -45.725; -398.000; -102.000
406.120; -143.000; -801.000; -887.000
406.247;  -47.125; -323.000; -342.000
406.374;  498.900;  540.000;  629.000
406.501;  155.150; -632.000; -702.000
406.628;  -57.225; -621.000; -589.000
406.755;  -84.475; -803.000; -620.000
406.882;  -38.725; -228.000; -277.000
407.009; -111.800; -719.000; -628.000
407.136;   65.550; -480.000; -401.000
407.263;  172.125; -939.000; -829.000
407.390;  -67.275; -692.000; -614.000
407.517; -162.150;-1139.000;-1187.000
407.644;  -62.600; -332.000; -256.000
407.771; -136.675; -249.000; -287.000
407.898;   16.425;  168.000;  328.000
408.025;  -75.150; -421.000; -313.000
408.151;   -6.150;   82.000;  153.000
408.278;  -77.075; -267.000; -216.000
408.405; -105.700; -931.000; -899.000
408.532;  -68.150; -549.000; -542.000
408.659; -117.550; -677.000; -648.000
408.785; -195.850;-1298.000;-1170.000
408.912;  -61.525; -412.000; -296.000
409.039; -113.250; -610.000; -686.000
409.166;  -94.025; -591.000; -555.000
409.292; -108.000; -571.000; -534.000
409.419; -115.700; -665.000; -649.000
409.546;  -83.825; -431.000; -192.000
409.672; -110.575; -713.000; -545.000
409.799;  -30.075;  -36.000;   34.000
409.926;  -37.275; -180.000; -179.000
410.052; -182.800;-1127.000;-1091.000
410.179;  -49.875; -368.000; -392.000
410.305;  -91.650; -375.000; -493.000
410.432;  -44.675; -220.000; -333.000
410.558;  -92.150; -305.000; -380.000
410.685; -106.075; -688.000; -431.000
410.812; -100.650; -409.000; -588.000
410.938; -127.975; -964.000; -808.000
411.065; -100.200; -671.000; -645.000
411.191;  -19.300; -189.000; -174.000
411.317; -116.550; -823.000; -742.000
411.444;  -61.975; -317.000; -246.000
411.570;  -81.350; -339.000; -294.000
411.697; -107.875; -758.000; -752.000
411.823; -169.800; -989.000; -999.000
411.949;  -22.625;  -56.000;   17.000
412.076; -121.275; -539.000; -519.000
412.202; -106.000; -758.000; -757.000
412.329; -127.950; -798.000; -752.000
412.455; -105.125; -821.000; -657.000
412.581;  -38.075;  -15.000;  172.000
412.707;  -61.850; -540.000; -457.000
412.834;   10.325;  156.000;  219.000
412.960;  -71.750; -785.000; -784.000
413.086; -106.775; -743.000; -701.000
413.212;  167.975;  604.000;  578.000
413.339;  -77.125; -685.000; -701.000
413.465;    5.375; -364.000; -310.000
413.591;  -86.725; -757.000; -474.000
413.717;  -39.075; -358.000; -366.000
413.843; -149.925; -839.000; -861.000
413.969;  -59.100;  -47.000; -292.000
414.096; -111.225; -679.000; -679.000
414.222;  -11.275;  -33.000;   85.000
414.348;  -24.750; -652.000; -385.000
414.474;  125.675;   38.000;  -52.000
414.600;  -16.425; -126.000; -144.000
414.726;  -18.825;  -96.000;  -55.000
414.852;  -58.400; -365.000; -342.000
414.978;   39.450;  104.000;  -18.000
415.104;   30.525;   38.000;   80.000
415.230;   38.950; -329.000; -330.000
415.356;   39.825; -409.000; -514.000
415.482;  213.950;   13.000;  -35.000
415.608;  272.350; -247.000; -323.000
415.734;  948.125;   67.000;   38.000
415.860;19274.075; -875.000; -767.000
415.986;14533.050; -685.000; -607.000
416.111; 1265.575; -798.000; -652.000
416.237;  254.900; -424.000; -571.000
416.363; 1042.950; -765.000; -733.000
416.489; 4023.500; -324.000; -251.000
416.615;  449.800; -707.000; -742.000
416.741;  -16.325; -677.000; -784.000
416.866;  -93.700; -673.000; -736.000
416.992; -120.050; -801.000; -818.000
417.118;  -27.000;  -41.000;  -80.000
417.244;  -77.700; -798.000; -531.000
417.369;  -83.150; -801.000; -612.000
417.495;   -3.775; -325.000; -254.000
417.621;  -71.475;-1015.000; -803.000
417.746;   14.025; -579.000; -572.000
417.872;   30.950; -254.000; -144.000
417.998;   53.050; -515.000; -530.000
418.123;  958.775;-1073.000; -845.000
418.249; 5276.425; -512.000; -601.000
418.374;  782.950; -916.000; -824.000
418.500;  107.300; -383.000; -482.000
418.626;  115.475;   70.000;  -59.000
418.751;  120.800; -549.000; -448.000
418.877;  181.600; -637.000; -643.000
419.002; 1672.325; -688.000; -560.000
419.128;12184.000; -930.000; -721.000
419.253; 3096.225; -967.000; -837.000
419.379;  400.200; -391.000; -338.000
419.504;  375.075;  325.000;  415.000
419.629;  486.750; -393.000; -212.000
419.755; 3273.250; -317.000; -254.000
419.880;20243.975;  -98.000;   67.000
420.006;10967.350; -280.000; -221.000
420.131;28737.600; -662.000; -775.000
420.256; 4329.175; -315.000; -316.000
420.382;  544.375; -665.000; -687.000
420.507;   78.475; -649.000; -778.000
420.632;  149.775; -337.000; -339.000
420.758;  302.325; -251.000; -425.000
420.883;  -75.550; -876.000; -672.000
421.008;  -91.525; -775.000; -619.000
421.133;  -87.600; -509.000; -467.000
421.259;  -42.475; -325.000; -259.000
421.384; -108.700; -834.000; -693.000
421.509;  -20.450;-1052.000; -862.000
421.634; 1366.900; -936.000; -820.000
421.759;  631.400; -359.000; -327.000
421.885;  -41.000; -717.000; -656.000
422.010;  -59.125; -673.000; -542.000
422.135; -142.625; -695.000; -727.000
422.260;   39.775;  340.000;  280.000
422.385;  -52.675;   12.000;  -98.000
422.510;    8.150;  151.000;  -26.000
422.635;   20.450;  -87.000;  -43.000
422.760;  121.800; -766.000; -791.000
422.885;   60.600;  -57.000;  -80.000
423.010;  -15.750; -112.000; -169.000
423.135;  -74.775; -481.000; -561.000
423.260;    5.325; -150.000; -245.000
423.385;   63.950;  476.000;  222.000
423.510;   30.000;   71.000;  -22.000
423.635;   87.275;  133.000;   45.000
423.760;   72.000;  383.000;  328.000
423.885;   49.725;  336.000;  391.000
424.010;   11.025;  -68.000;  -13.000
424.135;  -35.125;    5.000;  -33.000
424.259;  -69.900; -654.000; -457.000
424.384;  -80.025; -279.000; -272.000
424.509;  -24.900; -260.000; -186.000
424.634;  -99.400; -761.000; -623.000
424.759;  -16.725; -688.000; -544.000
424.883;  -13.675; -506.000; -527.000
425.008;  170.075; -502.000; -410.000
425.133; 1924.500; -679.000; -653.000
425.258;  967.325; -517.000; -381.000
425.382; 1132.725; -867.000; -774.000
425.507; 2990.625; -487.000; -543.000
425.632;  482.550; -802.000; -663.000
425.756;  439.000; -256.000; -146.000
425.881; 6029.875; -831.000; -857.000
426.006;17000.025; -604.000; -355.000
426.130; 2787.950; -696.000; -508.000
426.255;  381.625; -611.000; -491.000
426.379;  147.400; -189.000; -577.000
426.504;  380.400;  660.000;  544.000
426.629; 3891.475; -519.000; -466.000
426.753; 2785.000;   64.000;  -46.000
426.878;  334.725; -252.000; -288.000
427.002;  154.325; -651.000; -668.000
427.127; 1515.050;  -35.000; -158.000
427.251;11047.875;  372.000;  401.000
427.375; 3306.100; -191.000; -173.000
427.500; 2567.100; -616.000; -610.000
427.624;  912.875; -234.000; -400.000
427.749;  118.875; -216.000; -225.000
427.873;  -26.475; -499.000; -412.000
427.997;  -54.700; -222.000; -230.000
428.122;   71.550;  795.000;  703.000
428.246;   73.625;  433.000;  434.000
428.371; -114.275; -869.000; -773.000
428.495; -105.625; -624.000; -646.000
428.619;  -22.650; -186.000; -117.000
428.743;   23.275;   65.000;  132.000
428.868;   25.600; -732.000; -643.000
428.992; 1617.550; -219.000; -326.000
429.116;  663.475; -329.000; -357.000
429.240;  318.400;  419.000;  426.000
429.365;  -19.800; -454.000; -574.000
429.489;  -40.650; -638.000; -647.000
429.613;   13.225; -236.000; -177.000
429.737;   31.000; -563.000; -432.000
429.861;  250.450; -247.000; -133.000
429.985; 5327.150; -425.000; -305.000
430.109; 6069.025; -770.000; -908.000
430.234;  741.200;   76.000;  -50.000
430.358;   62.500; -250.000; -160.000
430.482;  -63.725; -672.000; -564.000
430.606;  -74.125; -655.000; -375.000
430.730;   18.375; -437.000; -388.000
430.854;  150.775; -909.000; -835.000
430.978;  -72.650; -795.000; -764.000
431.102; -106.925; -499.000; -422.000
431.226; -125.825; -874.000; -815.000
431.350;   32.325;  345.000;  422.000
431.474;  -68.100; -661.000; -373.000
431.597; -148.725;-1060.000; -848.000
431.721;  -72.550; -276.000; -267.000
431.845; -138.150; -704.000; -472.000
431.969;  -88.550; -304.000; -349.000
432.093; -104.300; -395.000; -317.000
432.217;  -14.675;   32.000;   82.000
432.341;  -95.025; -523.000; -518.000
432.464;    1.050;   96.000;   40.000
432.588;  250.200; -401.000; -329.000
432.712;  120.875;  -52.000;  -52.000
432.836;   38.825;  213.000;  263.000
432.959;  -21.500; -372.000; -311.000
433.083;   65.200;   11.000;    2.000
433.207;  341.200;  285.000;  930.000
433.330; 4744.525; -391.000; -200.000
433.454; 6125.525; -654.000; -638.000
433.578; 3475.400;  583.000;  278.000
433.701;  699.975; -623.000; -675.000
433.825;  162.950; -292.000; -299.000
433.949;  213.500;   28.000;  -72.000
434.072;   68.125; -410.000; -323.000
434.196;   -7.075; -309.000; -117.000
434.319; 3636.100;25482.000;25124.000
434.443;  722.875; -656.000; -603.000
434.566; 2594.700;  281.000;   62.000
434.690;  475.875; -637.000; -383.000
434.813;   44.500; -251.000; -173.000
434.937;  -80.525; -569.000; -696.000
435.060;  -39.875; -423.000; -332.000
435.184;  376.250; -492.000; -217.000
435.307;  219.375;  159.000;  102.000
435.431;   -7.300;  -40.000;   24.000
435.554;  -85.625; -399.000; -240.000
435.677;  -82.600; -350.000; -258.000
435.801;  -60.425;  -25.000;   49.000
435.924;   -5.025;    1.000;  -67.000
436.048; -100.725;-1019.000; -732.000
436.171;  -59.225; -240.000;  -66.000
436.294;  -39.550; -248.000; -229.000
436.417;   86.750; -963.000; -849.000
436.541;  -79.375; -814.000; -840.000
436.664;  -45.600; -242.000; -316.000
436.787;  -27.300;   13.000;  113.000
436.910; -117.375; -792.000; -422.000
437.034;   10.750;  142.000;  143.000
437.157;   59.450;  -11.000;    0.000
437.280;  -49.475; -392.000; -292.000
437.403;  -63.475; -982.000; -869.000
437.526;  722.225; -903.000; -865.000
437.649; 2686.525; -505.000; -332.000
437.772;  453.600; -692.000; -540.000
437.896;  147.150;  700.000;  544.000
438.019;  -98.250; -758.000; -503.000
438.142;  -83.675; -596.000; -506.000
438.265;   -2.375; -639.000; -670.000
438.388;  667.625; -520.000; -410.000
438.511;  150.075; -597.000; -394.000
438.634;  -26.900; -247.000; -125.000
438.757; -136.825; -693.000; -619.000
438.880;  -24.350;  -34.000;  -57.000
439.003;  -81.925; -417.000; -437.000
439.126;  -50.025; -287.000; -167.000
439.248;  -71.150;  -98.000; -139.000
439.371;  -50.850;    9.000;  -53.000
439.494;   15.550;  510.000;  439.000
439.617;  -47.750;   65.000;  -88.000
439.740; -169.900; -968.000; -816.000
439.863; -144.500; -755.000; -595.000
439.986; -117.950; -476.000; -431.000
440.108;  -45.525; -161.000; -112.000
440.231; -154.075; -950.000; -836.000
440.354;  -45.700;  -64.000; -150.000
440.477;   57.925; -566.000; -542.000
440.599;   24.375; -200.000; -225.000
440.722; -122.975; -709.000; -586.000
440.845;   59.925;  751.000;  928.000
440.968; -115.975; -415.000; -311.000
441.090;  -72.375; -199.000;  -33.000
441.213; -171.800;-1021.000; -825.000
441.336;  -56.975; -159.000;   -5.000
441.458;  -84.550; -549.000; -396.000
441.581;  -74.625; -628.000; -629.000
441.703;  -77.925; -152.000;   13.000
441.826; -102.400; -557.000; -400.000
441.948;  -54.350;   56.000;   51.000
442.071;   22.725;  555.000;  424.000
442.193; -115.925; -531.000; -485.000
442.316;    9.550;  152.000;   97.000
442.438;   38.050; -233.000;  -10.000
442.561;   80.850;  272.000;  262.000
442.683;  633.850; -809.000; -522.000
442.806; 1409.925;   -8.000;   74.000
442.928;   70.525; -859.000; -604.000
443.051;  -66.000; -577.000; -373.000
443.173;  -89.950; -341.000; -339.000
443.295;  -87.300; -263.000; -371.000
443.418;  -64.625; -321.000;  -29.000
443.540;   -5.250; -106.000;   -4.000
443.662; -119.800; -563.000; -465.000
443.785;   -4.450;  335.000;  199.000
443.907; -103.175; -362.000; -208.000
444.029; -114.950; -767.000; -494.000
444.152; -150.625; -644.000; -554.000
444.274;  -21.575;  -18.000;  -24.000
444.396; -116.250; -461.000; -221.000
444.518; -131.900; -691.000; -454.000
444.640; -112.125; -268.000; -111.000
444.763;  -17.000;  388.000;  249.000
444.885; -123.025; -432.000; -392.000
445.007;  -36.500;   35.000;   86.000
445.129; -126.875; -610.000; -515.000
445.251;  -97.375; -372.000; -439.000
445.373; -143.350; -537.000; -386.000
445.495;    6.825;  242.000;  350.000
445.617;   52.525;  853.000;  753.000
445.739;  -57.350; -215.000;  -97.000
445.861;  -23.925; -245.000; -112.000
445.984;  -31.125; -267.000; -101.000
446.105;  212.825; -418.000; -251.000
446.227;  711.400; -176.000;  -19.000
446.349;   34.550; -358.000; -249.000
446.471;  -93.125; -615.000; -448.000
446.593;  -69.175; -316.000;   19.000
446.715;   13.400;  -67.000;   41.000
446.837;   55.375;  697.000;  832.000
446.959;  -82.900; -457.000; -478.000
447.081; -142.200; -628.000; -518.000
447.203;   55.475;  862.000;  834.000
447.325;  -88.950; -270.000;   42.000
447.446;    5.850;  286.000;  530.000
447.568; -158.825; -921.000; -803.000
447.690;  -79.275; -236.000; -245.000
447.812; -148.675; -798.000; -519.000
447.933;  -21.000;  155.000;  127.000
448.055;  -68.600; -306.000; -261.000
448.177;  167.800;   31.000;   79.000
448.299;  126.700; -935.000; -727.000
448.420;   31.550;  -25.000;  159.000
448.542;  -54.050;   -3.000;   33.000
448.664;  -17.000;  109.000;  322.000
448.785;  -38.575;  265.000;   83.000
448.907;  -70.825; -614.000; -353.000
449.028;  -36.525; -771.000; -471.000
449.150;   70.300;  492.000;  589.000
449.272; -177.525;-1044.000; -913.000
449.393;   36.400;  612.000;  694.000
449.515; -145.650; -634.000; -581.000
449.636;  -54.375; -264.000; -155.000
449.758;   73.800;  763.000;  622.000
449.879;  -94.500; -498.000; -396.000
450.001;  -91.650; -149.000;  -49.000
450.122;  -43.300;  -95.000;  162.000
450.244;  -23.850;   37.000;  364.000
450.365;  -89.775; -495.000; -301.000
450.486;  -44.075;   80.000;  268.000
450.608;   22.325;  393.000;  326.000
450.729;   55.675;  578.000;  645.000
450.850;    1.075; -574.000; -466.000
450.972;  670.300; -552.000; -389.000
451.093; 4664.350;  190.000;  588.000
451.214; 2149.150; -516.000; -337.000
451.336;  401.000;  773.000;  579.000
451.457;   51.075;  264.000;  393.000
451.578;  -45.025; -118.000;  -74.000
451.699; -111.725; -546.000; -540.000
451.821;  -69.425; -284.000;  -50.000
451.942;   -6.800;  278.000;  285.000
452.063;   41.025;  228.000;  419.000
452.184;  496.250;  -54.000;  -49.000
452.305; 1073.350;  103.000;  170.000
452.427;  128.950; -549.000; -301.000
452.548;  -21.100;   23.000;   79.000
452.669;  -37.175; -257.000;  -89.000
452.790;  -36.700;    3.000;  -18.000
452.911;  -10.350;  195.000;  259.000
453.032;  -57.675; -289.000;  -60.000
453.153;  -34.875;  -29.000;   81.000
453.274;   50.275;  737.000;  868.000
453.395;  -53.200;  -51.000;  175.000
453.516;  142.500; 1317.000; 1388.000
453.637;  -58.025; -205.000; -150.000
453.758;  -48.475;   15.000;   69.000
453.879; -127.925; -462.000; -250.000
454.000;   84.600; 1086.000;  948.000
454.121; -111.675; -554.000; -326.000
454.242;  -99.875; -599.000; -383.000
454.362;  -51.725;  -99.000;  114.000
454.483;  -46.250; -309.000; -229.000
454.604;   66.625;  512.000;  580.000
454.725; -124.850; -627.000; -555.000
454.846; -130.225; -474.000; -406.000
454.967;  -24.300;  230.000;  539.000
455.087;  -50.925;  179.000;  153.000
455.208;   22.850;  554.000;  856.000
455.329;  -73.475;  -22.000;   82.000
455.450;   35.700;  473.000;  633.000
455.570;  -88.950; -234.000; -211.000
455.691;  -48.050;  201.000;  407.000
455.812; -107.075; -270.000;  -92.000
455.932;  -52.925;  107.000;  -97.000
456.053;  -96.475;   36.000;   24.000
456.173; -108.125; -433.000; -355.000
456.294; -141.850; -476.000; -303.000
456.415;  -61.175;  -73.000;   70.000
456.535;  -42.175;  297.000;  273.000
456.656;  -45.875;  132.000;  240.000
456.776;  -74.750;    3.000;  298.000
456.897;   -6.900;  308.000;  513.000
457.017;  -96.275; -153.000;   -3.000
457.138;  -96.475; -402.000; -249.000
457.258;  -31.750;  263.000;  224.000
457.379;   -5.575;  509.000;  521.000
457.499;  -40.225;  443.000;  432.000
457.620; -114.225; -407.000; -231.000
457.740; -103.125; -132.000;  -11.000
457.860;  -63.825;   87.000;   44.000
457.981;  -56.775;  132.000;  124.000
458.101;  -68.875;  -89.000;   40.000
458.221;  -16.550;  336.000;  402.000
458.342;  -59.725;   -4.000;  -37.000
458.462;   10.125;  617.000;  352.000
458.582;  -32.075; -302.000; -294.000
458.703;   -7.275;  303.000;  154.000
458.823;  -31.150;   22.000;  163.000
458.943;   32.075;  341.000;  467.000
459.063;   -3.600; 1124.000;  192.000
459.183;  -39.050;  328.000;  313.000
459.304;    6.675;  315.000;  517.000
459.424;  -62.375; -246.000;  -89.000
459.544;  301.925;  388.000;  764.000
459.664;  797.700;  499.000;  506.000
459.784;  325.575; 1004.000; 1175.000
459.904;   62.400;  867.000;  744.000
460.024;   59.950;  867.000;  684.000
460.144;    6.350;  449.000;  554.000
460.264;   -4.575;  515.000;  327.000
460.385; -104.650; -145.000; -119.000
460.505;   44.000;  905.000;  858.000
460.625;  -96.750;  -17.000;  -68.000
460.745;  -29.000;  396.000;  541.000
460.864;  -54.225;  153.000;  469.000
460.984;    6.600;  499.000;  573.000
461.104;  138.350; 1656.000; 1775.000
461.224;   28.275;  657.000;  650.000
461.344;  -36.050;  431.000;  360.000
461.464;  -46.225;  258.000;  513.000
461.584;  -15.450;  283.000;  466.000
461.704;  -38.125;   58.000;  108.000
461.824;  -67.050;  238.000;  259.000
461.943;  -44.500;  191.000;  130.000
462.063;  -85.825;    2.000;  324.000
462.183;   27.425;  639.000;  717.000
462.303;   92.075; 1678.000; 1230.000
462.422;   34.700;  781.000;  840.000
462.542;  -37.175;  271.000;  391.000
462.662;   50.400;  353.000;  380.000
462.782;  208.975;  833.000;  572.000
462.901;  491.725;  545.000;  717.000
463.021;  283.600; 1702.000; 1638.000
463.141;  -13.400;  337.000;  770.000
463.260;  -18.175;  614.000;  474.000
463.380;   16.500;  902.000;  884.000
463.499;  -45.375;  342.000;  332.000
463.619;  -49.050;  581.000;  559.000
463.738;  109.200; 1644.000;  903.000
463.858;   16.400;  657.000;  811.000
463.978;  -28.100;  542.000;  396.000
464.097;   56.725;  921.000; 1114.000
464.217;  107.025; 1196.000; 1143.000
464.336;  106.425; 1068.000; 1130.000
464.455;  -38.875;  328.000;  659.000
464.575;   49.500;  597.000;  602.000
464.694;  181.400; 1204.000; 1179.000
464.814;  118.825; 1190.000; 1138.000
464.933;   73.225; 1095.000; 1027.000
465.052;  108.925; 1412.000; 1054.000
465.172;   70.150;  922.000;  799.000
465.291;  151.675; 1376.000; 1320.000
465.410;    6.875;  462.000;  735.000
465.530;   75.350; 1355.000; 1310.000
465.649;   55.800; 1209.000; 1273.000
465.768;  142.025; 1673.000; 1508.000
465.888;   50.900;  941.000; 1174.000
466.007;   97.250; 1335.000; 1440.000
466.126;   -2.925;  721.000;  641.000
466.245;   37.925; 1176.000; 1187.000
466.364;   23.850;  950.000; 1060.000
466.484;   69.475; 1024.000; 1213.000
466.603;   41.400; 1101.000; 1222.000
466.722;  113.425; 1490.000; 1769.000
466.841;   66.975; 1151.000; 1401.000
466.960;   60.175; 1069.000;  972.000
467.079;  136.100; 1971.000; 1786.000
467.198;   54.075; 1238.000; 1181.000
467.317;   82.625; 1768.000; 1162.000
467.436;   77.400; 1709.000; 1261.000
467.555;  117.925; 1796.000; 1746.000
467.674;   61.325; 1227.000; 1329.000
467.793;   35.425; 1376.000; 1374.000
467.912;   76.150; 1658.000; 1539.000
468.031;  139.300; 2038.000; 1930.000
468.150;  148.000; 1842.000; 1837.000
468.269;  194.825; 2313.000; 2090.000
468.388;  206.050; 2168.000; 2339.000
468.507;  234.000; 2884.000; 2903.000
468.626;  285.150; 2555.000; 2541.000
468.744;  132.750; 2018.000; 2174.000
468.863;  204.125; 2312.000; 2523.000
468.982;   90.300; 1503.000; 1555.000
469.101;  234.200; 2788.000; 2692.000
469.220;  145.525; 2333.000; 2176.000
469.338;  240.625; 2935.000; 3051.000
469.457;  183.900; 2719.000; 2545.000
469.576;  341.525; 3953.000; 3784.000
469.695;  248.675; 2877.000; 3066.000
469.813;  417.400; 4148.000; 4192.000
469.932;  392.550; 4255.000; 4485.000
470.051;  422.600; 4075.000; 4161.000
470.169;  824.350; 4470.000; 4338.000
470.288; 1453.700; 4700.000; 4809.000
470.406;  869.925; 5059.000; 5194.000
470.525;  630.125; 6101.000; 5787.000
470.644;  649.825; 6847.000; 6794.000
470.762;  816.125; 8397.000; 7873.000
470.881;  894.875; 8651.000; 8464.000
470.999; 1036.000; 9685.000; 9151.000
471.118; 1120.850;11174.000;10711.000

