
Integration time [ms]: 100.000
Averaging Nr. [scans]: 40
Smoothing Nr. [pixels]: 0
Data measured with spectrometer [name]: 2101012U2
Wave   ;Sample   ;Dark     ;Reference
[nm]   ;[counts] ;[counts] ;[counts] 

197.733;   70.325;  516.000;  404.000
197.879;  -79.625; -610.000; -634.000
198.025;  -43.325; -475.000; -420.000
198.171;  -71.175; -602.000; -612.000
198.317;  -32.050; -401.000; -316.000
198.463;  -69.875; -655.000; -404.000
198.609;   38.575;  181.000; -137.000
198.755;  -75.875; -644.000; -410.000
198.901;  -66.350; -505.000; -424.000
199.047;  -64.425; -615.000; -488.000
199.193;  -38.175; -230.000; -468.000
199.339;  -31.075; -222.000; -369.000
199.485;   36.450;  330.000;  271.000
199.631;   28.975;  227.000;  310.000
199.777;  -43.450; -466.000; -398.000
199.923;  -71.625; -610.000; -424.000
200.069;   -0.725; -141.000;  -58.000
200.215;   58.250;  128.000;  453.000
200.361;   55.275;  243.000;  477.000
200.507;  -64.275; -600.000; -373.000
200.653;  -27.900; -371.000; -194.000
200.798;  -31.750; -215.000; -125.000
200.944;    1.075; -146.000;  -41.000
201.090;   34.000;   61.000;  222.000
201.236;   12.350; -116.000; -158.000
201.382;  123.775;  874.000;  903.000
201.528;    3.925;  -58.000;  -48.000
201.674;  -59.625; -386.000; -293.000
201.819;  -72.800; -540.000; -439.000
201.965;  -93.800; -699.000; -447.000
202.111;  -12.975; -273.000; -226.000
202.257;  -34.525; -250.000; -238.000
202.402;   13.550;   13.000;  -36.000
202.548;  -23.750; -169.000; -116.000
202.694;   94.475;  410.000; -183.000
202.840;  -76.425; -603.000; -531.000
202.985;  -71.275; -681.000; -639.000
203.131; -110.350; -832.000; -666.000
203.277;  -28.100; -199.000; -262.000
203.423;  -59.225; -434.000; -520.000
203.568;  -40.700; -462.000; -237.000
203.714;  -63.725; -535.000; -542.000
203.860;  -80.750; -682.000; -641.000
204.005;   27.200;  112.000;  167.000
204.151;   76.550;  561.000;  556.000
204.296;  -47.375; -354.000; -221.000
204.442;  -69.250; -600.000; -547.000
204.588;  -81.375; -592.000; -579.000
204.733;   28.975;  178.000;  168.000
204.879; -135.400;-1018.000; -822.000
205.025;   21.925;  -99.000;  126.000
205.170;   -3.350;  -17.000;   94.000
205.316;   73.000;  438.000;  661.000
205.461;  -84.400; -698.000; -554.000
205.607;   91.400;  609.000;  665.000
205.752;  -84.950; -626.000; -551.000
205.898;  -49.100; -501.000; -391.000
206.043;  -45.600; -578.000; -506.000
206.189;  -46.925; -243.000; -285.000
206.334;   93.500;  554.000;  606.000
206.480;   82.175;  409.000;  239.000
206.625;  -76.275; -529.000; -552.000
206.771;  -47.000; -451.000; -373.000
206.916;  -40.650; -210.000; -537.000
207.062;  -75.025; -545.000; -591.000
207.207;  -62.075; -546.000; -443.000
207.353;   53.925;  185.000;  460.000
207.498;   23.500;  196.000;   85.000
207.643;  -56.150; -501.000; -370.000
207.789; -135.050;-1069.000; -910.000
207.934;  -86.900; -665.000; -713.000
208.080;  -32.175; -154.000;   66.000
208.225;    0.700;  -22.000;  -57.000
208.370;  -83.150; -727.000; -619.000
208.516;  -73.400; -741.000; -487.000
208.661;  -22.900; -127.000;  -69.000
208.806;   -9.950; -165.000; -171.000
208.952; -124.975;-1044.000; -731.000
209.097;   79.100;  378.000;  349.000
209.242;  -51.575; -307.000; -382.000
209.387;   79.675;  392.000;  350.000
209.533;  -47.125; -321.000; -350.000
209.678;   76.825;  472.000;  543.000
209.823;  -44.825; -408.000; -310.000
209.969;  -98.750; -860.000; -757.000
210.114; -106.250; -907.000; -719.000
210.259; -110.750; -939.000; -889.000
210.404;   -9.500; -171.000;  103.000
210.549;   19.725;  108.000;    3.000
210.695;  -13.000;   -3.000;  -95.000
210.840;   35.375;   94.000;   67.000
210.985;  -63.850; -484.000; -303.000
211.130;   72.550;  268.000;  406.000
211.275;   11.100;  207.000;  199.000
211.420;  -53.750; -300.000; -289.000
211.566;  -68.325; -536.000; -489.000
211.711;   20.775;  218.000;  157.000
211.856;  -53.225; -545.000; -519.000
212.001;   23.450;  151.000;   44.000
212.146;   26.300;  153.000;   49.000
212.291;  -20.300; -210.000; -186.000
212.436;  -29.550; -280.000;   -6.000
212.581;  -69.050; -685.000; -653.000
212.726;  -81.350; -487.000; -538.000
212.871;  -54.700; -552.000; -217.000
213.016; -155.725;-1172.000;-1029.000
213.161;   51.325;  406.000;  291.000
213.306;  -83.150; -435.000; -577.000
213.451;  -84.925; -778.000; -689.000
213.596;  -42.375; -455.000; -347.000
213.741;  -49.425; -448.000; -538.000
213.886;  -84.225; -498.000; -517.000
214.031;  -23.725; -294.000; -124.000
214.176;  -33.900; -408.000; -341.000
214.321;  -25.750; -296.000; -157.000
214.466;  -26.900; -163.000;  -43.000
214.611;  -13.700;  -61.000;  -10.000
214.756; -113.300; -948.000; -858.000
214.901;   -6.675; -388.000; -226.000
215.046; -125.550; -797.000; -825.000
215.191;   27.075;  128.000;   35.000
215.336;  -13.950; -157.000;  -19.000
215.480;  -56.425; -684.000; -505.000
215.625;  -18.675; -175.000;  -19.000
215.770;  -91.950; -757.000; -662.000
215.915;    2.975;   -5.000;  -97.000
216.060;   -0.150; -113.000;  -21.000
216.205; -103.850; -731.000; -779.000
216.349;  -76.675; -470.000; -533.000
216.494; -136.425; -939.000; -867.000
216.639; -110.950; -823.000; -888.000
216.784;  -88.525; -577.000; -525.000
216.929;   45.875;  392.000;  281.000
217.073;   -7.575; -244.000;  -31.000
217.218;   12.600;   78.000;  -47.000
217.363;  -91.300; -656.000; -618.000
217.507;  -81.775; -623.000; -588.000
217.652; -128.750; -845.000; -874.000
217.797;  -99.200; -708.000; -659.000
217.942;  -89.525; -856.000; -720.000
218.086;   78.025;  608.000;  539.000
218.231;  -31.775; -174.000;  -26.000
218.376;  -17.675; -337.000; -229.000
218.520;   10.500;  -41.000;   96.000
218.665;  -26.025; -338.000; -204.000
218.810;  -41.675; -275.000; -233.000
218.954;   19.400;  201.000;   35.000
219.099; -103.575; -713.000; -963.000
219.243;  -68.525; -589.000; -554.000
219.388;  -26.775; -264.000; -136.000
219.532;   -5.000; -116.000; -116.000
219.677;  -77.800; -564.000; -521.000
219.822;    2.500;   33.000;   89.000
219.966;    3.175;   17.000;  -99.000
220.111;  -28.350; -328.000;  -40.000
220.255;  -96.850; -797.000; -750.000
220.400;  -17.775; -180.000; -146.000
220.544;  -68.800; -516.000; -450.000
220.689;  -55.150; -422.000; -451.000
220.833;  -21.275; -123.000;  -58.000
220.978;  -44.700; -393.000; -563.000
221.122;   24.975;  319.000;  307.000
221.267; -113.525; -906.000; -837.000
221.411;  -63.300; -478.000; -394.000
221.555;  -17.950; -104.000;  -23.000
221.700;  -37.000; -329.000; -222.000
221.844;   47.250;  255.000;  272.000
221.989;  -59.425; -328.000; -311.000
222.133;  -38.500; -289.000; -307.000
222.277;   -2.875;    5.000;   78.000
222.422;   11.150;  227.000;  113.000
222.566;  -50.150; -381.000; -214.000
222.711;  -62.425; -414.000; -479.000
222.855;  -92.800; -643.000; -586.000
222.999;  -76.275; -642.000; -717.000
223.144;  -24.350; -195.000; -194.000
223.288;   52.650;  423.000;  251.000
223.432;   20.725;  184.000;  230.000
223.576;   22.250;  152.000;  -21.000
223.721;   46.725;  364.000;  273.000
223.865;  -62.650; -472.000; -475.000
224.009;  252.825; 1673.000; 1631.000
224.153;  -73.500; -660.000; -671.000
224.298;  -62.500; -531.000; -489.000
224.442;  -11.750;  -74.000;  -33.000
224.586;    1.075; -169.000; -106.000
224.730;  -92.325; -858.000; -670.000
224.875; -112.450; -739.000; -688.000
225.019;   27.550;  102.000;  188.000
225.163;   52.950;  208.000;  341.000
225.307;   28.950;   97.000;  -91.000
225.451;   50.450;  360.000;  481.000
225.595;   11.875;  264.000;  176.000
225.739;  -22.925; -170.000;  -94.000
225.884;   15.150;   86.000;    5.000
226.028; -104.475; -760.000; -626.000
226.172;  -37.875; -260.000; -273.000
226.316; -115.950; -941.000; -902.000
226.460;  -66.600; -645.000; -493.000
226.604;  -46.575; -406.000; -400.000
226.748;  -97.850; -836.000; -733.000
226.892;  -36.800; -227.000; -181.000
227.036;  -50.175; -537.000; -447.000
227.180;  -56.650; -551.000; -375.000
227.324;  -58.825; -561.000; -580.000
227.468; -109.575; -819.000; -717.000
227.612;   16.225;  242.000;  -28.000
227.756;  -94.650; -845.000; -698.000
227.900;   49.775;  342.000;  441.000
228.044;  -62.975; -509.000; -290.000
228.188;   61.575;  448.000;  568.000
228.332;  -85.500; -546.000; -472.000
228.476;  -30.950; -223.000; -149.000
228.620;  -31.175; -210.000; -150.000
228.764;   76.825;  431.000;  349.000
228.908;  -18.950; -155.000;   30.000
229.052;  -66.550; -615.000; -528.000
229.195;  -16.525; -172.000;   13.000
229.339;  -24.800; -235.000; -305.000
229.483;  -16.025;    5.000; -162.000
229.627;    2.775; -156.000;  139.000
229.771;  -40.325; -218.000; -294.000
229.915;    7.050;  230.000;   79.000
230.059;  -98.225; -648.000; -663.000
230.202;  -38.900; -370.000; -317.000
230.346;   -7.775; -107.000;  107.000
230.490;  -68.575; -489.000; -521.000
230.634; -107.525; -736.000; -553.000
230.777;   87.575;  478.000;  509.000
230.921;  -52.350; -450.000; -359.000
231.065;  -41.050; -246.000; -286.000
231.209;   32.925;  261.000;  265.000
231.352;   35.775;   54.000;   40.000
231.496;   26.400;  568.000;  188.000
231.640;  -84.625; -693.000; -621.000
231.783;   52.325;  546.000;  525.000
231.927;  -37.275; -294.000; -365.000
232.071; -129.075; -962.000; -736.000
232.214; -106.775; -980.000; -764.000
232.358; -102.225; -683.000; -599.000
232.502;    4.000;  -19.000;    7.000
232.645; -146.000;-1090.000; -927.000
232.789;  -14.550; -257.000; -218.000
232.933;  -56.600; -407.000; -224.000
233.076; -125.425;-1038.000; -897.000
233.220;  -93.875; -752.000; -777.000
233.363;  -76.425; -669.000; -477.000
233.507;   81.150;  371.000;  129.000
233.650;  -97.750; -764.000; -834.000
233.794;   56.850;  438.000;  461.000
233.938;  -65.250; -530.000; -362.000
234.081;  -15.400;  -93.000;   31.000
234.225;  -69.525; -631.000; -539.000
234.368; -115.725; -773.000; -723.000
234.512;  -36.575; -385.000; -299.000
234.655; -106.875; -582.000; -555.000
234.798;  -52.250; -493.000; -466.000
234.942; -134.475; -884.000;-1002.000
235.085;  -67.975; -651.000; -443.000
235.229;  -79.425; -405.000; -410.000
235.372;  -50.600; -247.000; -191.000
235.516;  -51.275; -397.000; -321.000
235.659;   23.825;   92.000;  121.000
235.802;    2.300;  -38.000;  -22.000
235.946;   29.575;  335.000;  215.000
236.089;   39.675;  126.000;  250.000
236.233;   51.275;  275.000;  298.000
236.376;  -52.300; -235.000; -378.000
236.519;  -37.325; -297.000; -319.000
236.663;  -15.600; -215.000; -117.000
236.806; -146.275;-1029.000; -999.000
236.949;   51.400;  543.000;  431.000
237.092;   60.050;  412.000;  391.000
237.236;  -83.475; -589.000; -502.000
237.379;   79.675;  352.000;  428.000
237.522; -119.650; -879.000; -768.000
237.666;  -12.725; -271.000;   18.000
237.809; -125.875; -851.000; -823.000
237.952;   37.725;  469.000;  271.000
238.095;  -65.925; -447.000; -442.000
238.238;   79.950;  688.000;  700.000
238.382;   10.050;  166.000;  103.000
238.525;  -69.775; -598.000; -511.000
238.668; -153.525;-1060.000; -985.000
238.811;  -81.400; -638.000; -643.000
238.954;  -69.575; -483.000; -334.000
239.097;  104.650;  617.000;  664.000
239.241;   26.425;  394.000;  326.000
239.384;  -34.725; -254.000; -214.000
239.527;  -54.800; -424.000; -224.000
239.670; -133.850; -994.000;-1091.000
239.813; -111.750; -696.000; -658.000
239.956;   83.975;  579.000;  473.000
240.099; -124.400; -778.000; -725.000
240.242;   67.300;  428.000;  432.000
240.385;   49.325;  466.000;  450.000
240.528;  -72.975; -706.000; -473.000
240.671;   15.725;  189.000;  134.000
240.814;  -37.550; -441.000; -158.000
240.957; -112.575; -767.000; -578.000
241.100;  -87.975; -779.000; -755.000
241.243; -141.275;-1234.000; -893.000
241.386;  -61.125; -508.000; -379.000
241.529;  -84.800; -735.000; -547.000
241.672;  -68.150; -566.000; -495.000
241.815; -110.850; -832.000; -808.000
241.958;  -30.600; -125.000; -182.000
242.101;  -73.975; -545.000; -390.000
242.244;  -28.075; -270.000; -325.000
242.387;  -36.700; -304.000; -246.000
242.530;   70.450;  470.000;  134.000
242.673;  -51.175; -381.000; -309.000
242.815; -111.425; -925.000; -899.000
242.958;  -80.500; -482.000; -381.000
243.101;   19.175;  132.000;  187.000
243.244;  -80.075; -564.000; -521.000
243.387;  -42.350; -313.000; -316.000
243.530;  -97.275; -657.000; -674.000
243.672;    6.675;   43.000;  -92.000
243.815;  -60.600; -355.000; -283.000
243.958;    1.075;   98.000;  -26.000
244.101;    1.475;   59.000;  -16.000
244.243;    4.400;  -47.000;  101.000
244.386; -126.800; -761.000; -630.000
244.529;  -39.750; -132.000; -139.000
244.672; -140.550;-1154.000; -951.000
244.814; -110.125; -621.000; -794.000
244.957;  -50.400; -380.000; -304.000
245.100;  -72.350; -489.000; -489.000
245.242;  -48.450; -387.000; -374.000
245.385;   -3.325;  -59.000;  -39.000
245.528; -127.625; -871.000; -705.000
245.670;   93.725;  612.000;  634.000
245.813;  -80.425; -599.000; -547.000
245.956;  -28.525; -324.000; -275.000
246.098;  -75.625; -508.000; -650.000
246.241;   10.600;  194.000;   48.000
246.383;   -6.825; -119.000;  -73.000
246.526;  -72.850; -454.000; -525.000
246.669; -109.375; -889.000; -780.000
246.811;   24.150;  172.000;   -1.000
246.954;  -65.325; -512.000; -426.000
247.096;  -17.600;  -84.000;   -6.000
247.239;  -76.425; -482.000; -445.000
247.381;  -51.900; -647.000; -488.000
247.524;   87.100;  645.000;  679.000
247.666;   -5.725;   58.000;   11.000
247.809; -119.975; -887.000; -691.000
247.951;  -14.325;  -75.000;  138.000
248.094;   20.125;  432.000;  308.000
248.236; -162.300;-1262.000;-1238.000
248.378;   13.900; -356.000;  -81.000
248.521;  -22.025; -334.000; -337.000
248.663;  -35.000; -236.000; -267.000
248.806;  -18.725; -300.000; -266.000
248.948;  -89.575; -886.000; -763.000
249.090;  -36.350; -428.000; -398.000
249.233;  -52.925; -344.000; -381.000
249.375;  -58.975; -474.000; -451.000
249.518;  -15.075;  -83.000; -133.000
249.660;   -0.625; -103.000;    3.000
249.802; -183.700;-1303.000;-1189.000
249.945;  -65.025; -612.000; -540.000
250.087; -112.650; -834.000; -768.000
250.229;  -48.075; -362.000; -480.000
250.371;  -70.300; -494.000; -439.000
250.514;  -38.775; -310.000; -244.000
250.656;  -58.575;   69.000;  102.000
250.798; -115.100; -849.000; -800.000
250.940;  -66.950; -322.000; -322.000
251.083;  -32.775; -335.000; -111.000
251.225;   68.325;  338.000;  310.000
251.367;  -45.325; -274.000; -373.000
251.509;  -36.450; -265.000; -210.000
251.651; -105.450; -731.000; -671.000
251.794;   63.325;  538.000;  632.000
251.936; -102.025; -821.000; -747.000
252.078;  -89.525; -540.000; -461.000
252.220;  -77.000; -645.000; -477.000
252.362;   83.075;  344.000;  462.000
252.504;  -74.400; -677.000; -584.000
252.646; -102.900; -875.000; -722.000
252.788;   -0.650;   14.000; -128.000
252.931;  -39.600; -257.000; -253.000
253.073;  -39.350; -376.000; -317.000
253.215;  -12.750;  141.000;  122.000
253.357;  -22.475;   82.000; -153.000
253.499;  -54.150; -374.000; -234.000
253.641;  -92.025; -749.000; -594.000
253.783;  -82.525; -609.000; -527.000
253.925;  -99.750; -586.000; -591.000
254.067;  -98.400; -744.000; -667.000
254.209;  -33.400; -391.000; -259.000
254.351; -133.200; -865.000; -883.000
254.493;  -51.025; -441.000; -417.000
254.635; -125.700; -936.000; -818.000
254.777;  -89.325; -752.000; -687.000
254.918;  -75.975; -512.000; -430.000
255.060;  -73.775; -551.000; -395.000
255.202;  -54.250; -473.000; -261.000
255.344;  -78.875; -658.000; -455.000
255.486;  -57.825; -471.000; -406.000
255.628; -116.725; -780.000; -781.000
255.770;  -92.075; -676.000; -536.000
255.912;  -58.975; -559.000; -468.000
256.053;  -85.775; -730.000; -508.000
256.195;  159.350; 1008.000;  903.000
256.337;  -99.525; -861.000; -595.000
256.479;   65.125;  532.000;  416.000
256.621;  -41.525; -394.000; -212.000
256.762;  -90.275; -789.000; -742.000
256.904;   50.825;  485.000;  487.000
257.046;  -38.600; -381.000; -271.000
257.188;  -51.950; -351.000; -264.000
257.329;  -76.625; -525.000; -464.000
257.471; -117.525; -939.000; -807.000
257.613;  -73.825; -584.000; -498.000
257.755; -150.675;-1073.000; -982.000
257.896;   32.025;  286.000;  392.000
258.038;  -65.775; -403.000; -352.000
258.180;  -41.075; -354.000; -279.000
258.321;  -90.100; -581.000; -457.000
258.463;   -1.700;  -71.000;  133.000
258.605;  -88.775; -562.000; -570.000
258.746;  -96.175; -886.000; -772.000
258.888; -152.025;-1026.000;-1020.000
259.029;   18.950;  121.000;   -8.000
259.171;  -93.975; -614.000; -550.000
259.313;  -11.925;  -49.000;  -47.000
259.454;  -71.975; -536.000; -414.000
259.596;  -54.400; -483.000; -390.000
259.737;  -79.300; -590.000; -474.000
259.879;   52.400;  217.000;  311.000
260.020;   93.375;  901.000;  636.000
260.162;  -20.425; -146.000; -253.000
260.303; -114.450; -768.000; -687.000
260.445;  -80.200; -609.000; -613.000
260.586;   33.400;  392.000;  157.000
260.728;  -29.825; -360.000; -248.000
260.869; -107.675; -350.000; -343.000
261.011;   70.100;  706.000;  537.000
261.152;  -73.025; -479.000; -319.000
261.293;  -80.450; -576.000; -595.000
261.435;  -24.750; -219.000; -184.000
261.576;  -49.125; -455.000; -325.000
261.718;   59.225;  420.000;  470.000
261.859; -137.825; -940.000; -949.000
262.000; -128.150; -951.000;-1016.000
262.142;  -22.875;  -52.000;  -60.000
262.283; -109.125; -808.000; -691.000
262.424;  -87.200; -666.000; -625.000
262.566; -152.100;-1161.000; -983.000
262.707; -115.525; -840.000; -830.000
262.848; -127.550; -769.000; -726.000
262.990;  -51.225; -362.000; -345.000
263.131;   83.100;  650.000;  681.000
263.272;   -7.575;  -61.000;  -41.000
263.413;  -90.375; -589.000; -561.000
263.555;  -62.775; -669.000; -143.000
263.696;  -84.550; -550.000; -641.000
263.837;  -54.975; -449.000; -551.000
263.978;  -14.200;   -5.000;  -77.000
264.119;  -35.050; -283.000; -264.000
264.261; -110.725; -847.000; -630.000
264.402;   -4.025;   33.000;   40.000
264.543;  -81.475; -509.000; -524.000
264.684;   -5.250;   61.000;  -50.000
264.825;  -79.700; -816.000; -538.000
264.966;    7.875;  -84.000;  -67.000
265.107; -123.200; -646.000; -670.000
265.248; -120.250; -825.000; -812.000
265.390;  -17.525;  152.000;   -9.000
265.531;  -19.100; -238.000; -107.000
265.672; -101.100; -557.000; -630.000
265.813;   62.600;  563.000;  439.000
265.954; -156.775; -959.000; -940.000
266.095;  -20.875; -372.000; -322.000
266.236; -103.250; -686.000; -548.000
266.377;  -48.275; -243.000; -297.000
266.518;  -71.975; -619.000; -547.000
266.659;   30.825;  170.000;  268.000
266.800;   12.200;   83.000;   85.000
266.941;  -80.950; -487.000; -478.000
267.082;   20.850;  354.000;   99.000
267.223;  -49.000; -344.000; -273.000
267.364; -117.175; -892.000; -686.000
267.504;  -19.925;    3.000;  135.000
267.645;   -8.500;  160.000;   67.000
267.786;  -36.175; -147.000;  -86.000
267.927;  -83.650; -473.000; -379.000
268.068;  -24.200; -186.000;  -61.000
268.209;  -50.325; -175.000; -413.000
268.350;  -67.700; -388.000; -532.000
268.490;  -84.325; -648.000; -521.000
268.631;   35.150;  127.000;  225.000
268.772; -101.925; -874.000; -647.000
268.913;  -51.725; -328.000; -476.000
269.054;   -6.100; -117.000;   12.000
269.194;  -40.625; -418.000; -402.000
269.335; -161.025;-1137.000;-1074.000
269.476;  -11.650;   33.000;  -35.000
269.617;  -51.075; -347.000; -392.000
269.757;  -86.925; -713.000; -646.000
269.898; -100.500; -856.000; -613.000
270.039;  -69.125; -415.000; -405.000
270.180; -138.050; -952.000; -816.000
270.320;  -14.550; -190.000; -250.000
270.461;  -35.450; -277.000; -249.000
270.602;   -3.875; -186.000; -156.000
270.742; -120.375; -868.000; -943.000
270.883;  -63.650; -442.000; -390.000
271.023;  -58.800; -358.000; -357.000
271.164;  -70.300; -607.000; -528.000
271.305;  -94.225; -666.000; -654.000
271.445; -101.200; -722.000; -683.000
271.586;  -63.950; -462.000; -283.000
271.726;  -52.425; -397.000; -322.000
271.867;  -52.500; -594.000; -534.000
272.008;  211.850; -473.000; -285.000
272.148;  142.725;  462.000;  468.000
272.289;   22.650; -113.000; -181.000
272.429;    9.125;   19.000;  185.000
272.570;  -85.100; -633.000; -737.000
272.710; -101.025; -825.000; -775.000
272.851;  -19.350;  113.000; -130.000
272.991; -176.775;-1173.000;-1077.000
273.131;  -58.250; -419.000; -459.000
273.272; -107.700; -683.000; -723.000
273.412;   22.850; -143.000;  -31.000
273.553;  -50.450; -488.000; -507.000
273.693;  164.175;  913.000;  858.000
273.834;  -95.350; -894.000; -692.000
273.974;  -76.450; -664.000; -615.000
274.114;  -97.950; -772.000; -560.000
274.255;   79.675;  414.000;  373.000
274.395;   17.350; -180.000; -125.000
274.535;   44.500;  199.000;  350.000
274.676;   28.275;  225.000;   94.000
274.816;   19.950;  110.000;   34.000
274.956;  -78.025; -624.000; -690.000
275.097;  -63.400;-1014.000; -922.000
275.237; -114.175; -913.000; -803.000
275.377; -102.000; -778.000; -689.000
275.517; -156.450; -878.000; -937.000
275.658;  -50.825; -590.000; -555.000
275.798;  -63.500; -606.000; -413.000
275.938;   27.275;  215.000;  323.000
276.078;  -63.750; -626.000; -395.000
276.218;    8.825;   99.000;  104.000
276.359;  -83.025;-1026.000;-1024.000
276.499;  -63.675; -605.000; -446.000
276.639;  -39.125; -305.000; -151.000
276.779;  -48.175; -475.000; -357.000
276.919;  -95.075; -783.000; -624.000
277.059;  -10.900; -261.000; -212.000
277.199;  -35.450; -357.000; -259.000
277.340;   53.875;  287.000;  175.000
277.480; -110.375; -840.000; -693.000
277.620;   28.700;  192.000;   16.000
277.760; -199.325;-1533.000;-1294.000
277.900;   11.150;  113.000;   33.000
278.040;   23.000;  137.000;  159.000
278.180;   50.325;  270.000;  170.000
278.320;   -4.750;   21.000;   56.000
278.460;  -64.225; -443.000; -469.000
278.600;  -97.025; -708.000; -598.000
278.740;   69.350;  448.000;  224.000
278.880;  -20.325; -768.000; -791.000
279.020;    0.625; -194.000; -144.000
279.160;  -86.050; -672.000; -595.000
279.300; -123.675; -926.000; -873.000
279.440;  -99.925; -709.000; -622.000
279.579;  -14.025;-1014.000; -929.000
279.719;  -43.025; -410.000; -394.000
279.859;   76.200;   -4.000;   41.000
279.999;   58.525; -208.000;  101.000
280.139;  -25.325; -435.000; -387.000
280.279;  -65.900; -708.000; -745.000
280.419;  -12.300; -229.000; -147.000
280.559;  -23.900; -259.000; -180.000
280.698;  -81.500; -790.000; -639.000
280.838;  -88.025; -778.000; -800.000
280.978;  -90.525; -846.000; -790.000
281.118; -109.775; -811.000; -704.000
281.257;   16.650;   24.000;    6.000
281.397; -103.025;-1094.000; -960.000
281.537;  -79.525; -599.000; -712.000
281.677;  -21.825; -150.000; -101.000
281.816;  -82.600; -700.000; -630.000
281.956;  -29.475; -193.000; -257.000
282.096;  -69.350; -539.000; -396.000
282.235; -111.875; -672.000; -638.000
282.375;   -9.450; -243.000;  -98.000
282.515;  -95.625; -715.000; -707.000
282.654;   40.525;   29.000;  106.000
282.794;   36.175;  388.000;  244.000
282.934;  -43.275; -530.000; -491.000
283.073; -128.225;-1030.000; -857.000
283.213;  -47.750; -460.000; -467.000
283.353;  -34.975; -408.000; -349.000
283.492;  -27.225; -264.000; -296.000
283.632;  -30.100; -254.000; -168.000
283.771; -101.050; -859.000; -730.000
283.911;  -48.050; -369.000; -260.000
284.050; -103.975; -794.000; -748.000
284.190; -149.800;-1229.000;-1096.000
284.329; -138.575;-1055.000; -964.000
284.469;  -46.275; -516.000; -591.000
284.608;  -47.450; -559.000; -598.000
284.748;  -74.100; -614.000; -570.000
284.887;  -10.125;  -87.000;  -20.000
285.027; -129.175; -844.000; -892.000
285.166;  -23.625; -192.000; -249.000
285.306;   -2.050; -116.000;  -33.000
285.445;  -40.075; -229.000; -343.000
285.584;  -92.900; -630.000; -494.000
285.724;  -39.850; -282.000; -322.000
285.863; -103.600; -857.000; -507.000
286.002;  -47.250; -366.000; -276.000
286.142; -103.025; -715.000; -622.000
286.281;  -70.275; -525.000; -493.000
286.420;  -77.075; -554.000; -417.000
286.560;  103.550;  653.000;  623.000
286.699; -137.075; -958.000; -912.000
286.838;  -77.525; -590.000; -591.000
286.978;  -85.800; -533.000; -537.000
287.117; -135.175;-1085.000; -950.000
287.256;  -20.125; -228.000; -211.000
287.395;  -46.975; -197.000; -378.000
287.535;  -42.175; -370.000; -298.000
287.674;  -80.300; -509.000; -484.000
287.813;   57.700;  661.000;  533.000
287.952; -117.250;-1010.000; -871.000
288.091; -142.200;-1049.000; -915.000
288.231;   16.325;   13.000;   15.000
288.370; -179.600;-1217.000;-1200.000
288.509;  -98.300; -728.000; -645.000
288.648;  -86.500; -770.000; -548.000
288.787;  -39.850; -243.000;  -87.000
288.926;  -55.150; -454.000; -475.000
289.065;  127.300;  859.000;  672.000
289.204;  -46.800; -377.000; -217.000
289.344;  -90.575; -791.000; -690.000
289.483;   13.800;  416.000;  304.000
289.622;  -13.675; -291.000; -149.000
289.761;    6.175; -309.000; -166.000
289.900; -105.400; -785.000; -626.000
290.039;   -6.175;  -12.000;  -95.000
290.178;  -39.050; -274.000; -180.000
290.317;  -76.025; -618.000; -479.000
290.456;  -50.025; -463.000; -451.000
290.595; -126.375; -961.000; -833.000
290.734; -133.475; -904.000; -891.000
290.873;  -68.000; -456.000; -420.000
291.011; -106.125; -833.000; -843.000
291.150; -100.425; -770.000; -682.000
291.289;  -21.825; -343.000; -110.000
291.428;  -86.875; -599.000; -480.000
291.567;  -44.050; -370.000; -442.000
291.706;   -5.750;  109.000;  154.000
291.845;  -81.400; -597.000; -505.000
291.984; -158.125;-1234.000;-1061.000
292.122;   67.200;  602.000;  582.000
292.261;   49.175;  620.000;  463.000
292.400;    7.175; -144.000;  211.000
292.539; -121.275; -959.000; -813.000
292.678;  -31.425; -325.000; -300.000
292.816; -149.625;-1136.000; -965.000
292.955;  -78.450; -844.000; -684.000
293.094;  -14.925; -173.000; -337.000
293.233;  -65.925; -556.000; -400.000
293.371;  -37.300; -225.000;  -84.000
293.510; -111.550; -866.000; -780.000
293.649; -119.600; -959.000; -924.000
293.787;  -43.500;-1083.000;-1012.000
293.926;   13.250; -113.000;  -32.000
294.065;  -34.250; -379.000; -290.000
294.203;   54.775;  298.000;  406.000
294.342;   26.575;   74.000;  156.000
294.481; 5989.325;51180.000; -836.000
294.619;  -31.775; -425.000; -582.000
294.758; -133.250;-1230.000;-1137.000
294.896;   90.625; -125.000;    5.000
295.035; -131.550;-1040.000;-1006.000
295.174; -104.400;-1082.000; -954.000
295.312;  -24.150; -323.000; -203.000
295.451;    2.700; -307.000; -428.000
295.589;  -47.250; -389.000; -518.000
295.728;   28.700; -292.000; -165.000
295.866;   32.925;  -36.000;  -51.000
296.005;  -48.075; -584.000; -341.000
296.143;  -70.075; -558.000; -596.000
296.282; -100.750; -957.000; -881.000
296.420;  -85.725; -657.000; -557.000
296.559;  -69.325; -892.000; -633.000
296.697;   49.600; -847.000; -665.000
296.835;  105.050;-1141.000;-1002.000
296.974;   61.825;  -23.000;   39.000
297.112;   18.800; -443.000; -504.000
297.251;  -64.450; -815.000; -755.000
297.389;  120.575; -576.000; -438.000
297.527;   74.100; -145.000;  -83.000
297.666;  -30.050; -486.000; -438.000
297.804;  -34.650; -404.000; -264.000
297.942;  -16.550; -136.000; -161.000
298.081;    0.850; -183.000;   63.000
298.219;   86.000;  -17.000;  -19.000
298.357;   62.300; -144.000;  -71.000
298.495;   70.650; -810.000; -812.000
298.634;   98.875;  245.000;  219.000
298.772;   85.700; -220.000; -338.000
298.910;  -34.150; -309.000; -182.000
299.048;  -10.275; -130.000; -153.000
299.187;  -29.950; -350.000; -250.000
299.325;   39.775;   52.000;  122.000
299.463;   80.025; -389.000; -299.000
299.601;  153.800; -327.000; -271.000
299.739;  -99.775; -908.000; -883.000
299.877;  -75.825; -791.000; -703.000
300.016;  -44.675;-1095.000; -935.000
300.154;  194.600;  -19.000; -161.000
300.292;   83.275; -428.000; -348.000
300.430;   51.850; -408.000; -291.000
300.568;  -92.975; -940.000; -874.000
300.706;  -34.400; -366.000; -469.000
300.844;  -63.550;-1108.000; -979.000
300.982;  138.150;  246.000;  282.000
301.120; -107.025; -965.000; -866.000
301.258;  -47.800; -812.000; -705.000
301.396;   47.575;  104.000;  -41.000
301.534;  123.250; -218.000; -293.000
301.672;   23.050; -664.000; -521.000
301.810;   63.450; -613.000; -545.000
301.948;  154.025;   53.000;  149.000
302.086;  736.700; -250.000;  -32.000
302.224; 1157.075; -610.000; -585.000
302.362;   70.675; -558.000; -622.000
302.500;    3.975; -923.000; -893.000
302.638;  129.350;  128.000;  245.000
302.776;   17.375; -352.000; -408.000
302.913;   56.550;  447.000;  236.000
303.051;   17.350;  -86.000;  -23.000
303.189;   73.725;   90.000;  118.000
303.327;  -32.275; -341.000; -256.000
303.465;  -72.725; -832.000; -588.000
303.603;  -88.400; -805.000; -604.000
303.740;  115.475;  417.000;  241.000
303.878;   48.975; -800.000; -759.000
304.016;  -94.375; -915.000; -790.000
304.154; -114.250;-1123.000;-1152.000
304.291;  -13.300; -505.000; -554.000
304.429;   14.250;  102.000;   74.000
304.567; -126.025; -908.000; -893.000
304.705;  -39.775; -408.000; -515.000
304.842;  135.675; -616.000; -540.000
304.980;   89.200;  215.000;   35.000
305.118;   66.350; -367.000; -365.000
305.255;  -34.550; -945.000; -927.000
305.393;   70.000;  178.000;  239.000
305.531;  -82.600;-1173.000; -956.000
305.668;  -63.625; -663.000; -582.000
305.806;  122.125; -358.000; -439.000
305.943;  145.475; -629.000; -637.000
306.081;   77.175; -378.000; -267.000
306.219;  -95.950; -863.000; -748.000
306.356;    6.550;  158.000;   27.000
306.494;  121.575;  981.000;  761.000
306.631;    0.550;  -11.000;  -55.000
306.769;   22.100; -613.000; -485.000
306.906;   -9.475; -284.000; -258.000
307.044;  -63.975; -473.000; -488.000
307.181;  -60.900; -410.000; -332.000
307.319;   10.325;  112.000;   87.000
307.456; -156.400;-1191.000;-1153.000
307.594;  -95.025; -980.000; -727.000
307.731;   -1.050; -371.000; -164.000
307.868;   12.075;  -15.000;   20.000
308.006; -141.500; -961.000; -847.000
308.143;  -68.075; -618.000; -330.000
308.281;  140.050;  -37.000; -254.000
308.418;  -13.000; -748.000; -640.000
308.555;  -67.225; -400.000; -250.000
308.693;  -87.975; -577.000; -573.000
308.830; -103.950; -712.000; -657.000
308.967;   -1.625; -215.000;  -95.000
309.105;  -51.325; -507.000; -396.000
309.242;   23.225; -468.000; -367.000
309.379;  274.000; -577.000; -655.000
309.517;  -63.300; -936.000; -948.000
309.654; -117.925; -910.000; -734.000
309.791;  -66.950; -662.000; -580.000
309.928; -114.025; -977.000; -914.000
310.065;  204.075;  819.000;  697.000
310.203;   13.325; -825.000; -850.000
310.340;    1.850; -465.000; -321.000
310.477;  -84.700; -412.000; -516.000
310.614;  -55.825; -383.000; -473.000
310.751;  -79.250; -427.000; -518.000
310.889;  -24.025;    1.000;   11.000
311.026; -151.100;-1161.000; -939.000
311.163;  -53.475; -386.000; -380.000
311.300;  -71.600; -512.000; -479.000
311.437;  -75.400; -658.000; -619.000
311.574; -167.875;-1226.000; -985.000
311.711;  -54.075; -595.000; -433.000
311.848;  -20.975; -380.000; -388.000
311.985;   19.900;  270.000;   93.000
312.122; -115.725; -932.000; -762.000
312.259; -113.925; -941.000; -994.000
312.396;  -78.450; -508.000; -551.000
312.533;  -97.925; -812.000; -790.000
312.670; -137.375;-1070.000; -898.000
312.807;  -26.950; -352.000; -367.000
312.944;  -75.050; -513.000; -611.000
313.081;  -36.750; -150.000; -415.000
313.218; -106.700;-1111.000; -867.000
313.355;   44.775; -531.000; -449.000
313.492;   33.250; -455.000; -292.000
313.629;  165.000;  815.000;  735.000
313.766; -156.625;-1176.000;-1008.000
313.902;   -6.925; -186.000;   21.000
314.039;  -46.000; -372.000; -289.000
314.176;   38.925;  286.000;  192.000
314.313;  -66.750; -569.000; -473.000
314.450;  -76.600; -788.000; -684.000
314.587;  -34.825; -468.000; -480.000
314.723;   -8.325;  -78.000;  130.000
314.860;   42.150;  318.000;  332.000
314.997;   42.525;  223.000;  142.000
315.134;  -30.125; -385.000; -368.000
315.270;  -32.600; -480.000; -496.000
315.407; -120.075;-1094.000; -967.000
315.544;  -34.400; -657.000; -538.000
315.681;  -55.225; -681.000; -565.000
315.817;   23.700; -133.000; -176.000
315.954;   21.550; -613.000; -392.000
316.091; -124.525;-1045.000;-1023.000
316.227;  -14.625;  -71.000; -179.000
316.364;   16.125;   23.000;    6.000
316.500;  -45.125; -113.000; -300.000
316.637;  -50.500; -181.000; -302.000
316.774;  -85.425; -625.000; -358.000
316.910;  -92.275; -598.000; -629.000
317.047;  -54.725; -487.000; -351.000
317.183;  -43.950; -435.000; -566.000
317.320;  -21.700; -367.000; -321.000
317.456;  -73.400; -733.000; -805.000
317.593;  -83.675; -598.000; -641.000
317.729;    5.775;  168.000;  -67.000
317.866; -202.125;-1434.000;-1285.000
318.002;  -87.700; -708.000; -948.000
318.139;  -97.575; -883.000; -867.000
318.275; -100.950;-1003.000; -738.000
318.412;  -53.525; -517.000; -336.000
318.548;   -1.175; -751.000; -720.000
318.685;  -87.000; -985.000; -888.000
318.821;  -96.375; -762.000; -735.000
318.957;   -9.875;   34.000;  -23.000
319.094;   44.100;  297.000;  154.000
319.230;  -44.800; -756.000; -742.000
319.367;  165.225; -471.000; -520.000
319.503;   82.325; -538.000; -436.000
319.639; -105.425; -877.000; -793.000
319.775;  -49.975; -750.000; -685.000
319.912;  -50.550; -424.000; -519.000
320.048;  -87.750;-1184.000;-1184.000
320.184;   78.275;   59.000;   70.000
320.321;  -63.900; -497.000; -467.000
320.457;   70.425;  475.000;  662.000
320.593;  -72.850; -375.000; -382.000
320.729;  -89.975; -732.000; -734.000
320.866;  -91.850; -577.000; -635.000
321.002;  -67.075; -759.000; -809.000
321.138;   -4.125; -135.000; -211.000
321.274;   89.225; -148.000; -115.000
321.410;   -9.550; -585.000; -353.000
321.546;   -5.150;-1011.000; -911.000
321.683;   65.825;  400.000;  185.000
321.819;   15.150;  -48.000; -117.000
321.955; -103.475; -743.000; -722.000
322.091;  -28.050; -585.000; -540.000
322.227;   -5.400; -382.000; -202.000
322.363;    1.500; -320.000; -215.000
322.499;  -37.750; -343.000; -331.000
322.635;  188.175;  636.000;  443.000
322.771;   39.125; -139.000;   12.000
322.907;   98.975;  129.000;  327.000
323.043;   -8.750; -115.000; -206.000
323.179;  -27.650; -394.000; -363.000
323.315;   39.175; -401.000; -371.000
323.451;  118.375; -328.000; -236.000
323.587;   67.200;  -60.000;  -77.000
323.723;   44.425; -682.000; -601.000
323.859;  -21.450; -258.000;  -76.000
323.995;  -30.525; -467.000; -409.000
324.131; -119.125; -967.000; -892.000
324.267;  -36.475; -254.000; -276.000
324.402; -120.550; -960.000; -983.000
324.538;   -3.775; -279.000; -104.000
324.674;   39.925;  164.000;   77.000
324.810;  150.500;  226.000;  308.000
324.946;   27.150; -810.000; -658.000
325.082;  -45.125; -568.000; -475.000
325.217;   -4.775;  -62.000;   16.000
325.353; -109.675; -764.000; -659.000
325.489;  -79.675; -540.000; -506.000
325.625;  -58.875; -579.000; -525.000
325.760;   69.000;  517.000;  376.000
325.896;  -29.575; -515.000; -702.000
326.032;  -48.950; -403.000; -352.000
326.168;  -76.075; -462.000; -369.000
326.303;  -52.375; -352.000; -461.000
326.439;  -22.925; -336.000; -276.000
326.575;   -0.375; -190.000;  -29.000
326.710;    2.950; -156.000;  -30.000
326.846;   -2.700;  146.000;  103.000
326.982;  -90.325; -530.000; -548.000
327.117;  -67.225; -481.000; -442.000
327.253;  -99.025; -745.000; -742.000
327.388; -132.900;-1137.000;-1153.000
327.524;  -44.250; -811.000; -578.000
327.659;  -11.175;  -58.000;  -22.000
327.795;  -11.900;   69.000;   45.000
327.931;  -81.200; -723.000; -499.000
328.066;  -15.350; -417.000; -276.000
328.202;   -2.000;   12.000; -129.000
328.337;  103.175;  957.000;  713.000
328.473;   63.275;  -12.000;  -74.000
328.608;   -8.250; -256.000; -267.000
328.743;  -83.200; -799.000; -664.000
328.879;   21.700;  214.000;  114.000
329.014;  -21.900; -102.000; -122.000
329.150;  -74.275; -358.000; -483.000
329.285;  -67.575; -465.000; -466.000
329.421;  -61.425; -548.000; -246.000
329.556;  -23.325;  -36.000;   85.000
329.691; -111.725; -633.000; -615.000
329.827;  -74.650; -626.000; -480.000
329.962;  -36.050;  131.000; -301.000
330.097;  -88.850; -673.000; -585.000
330.233;  -48.475; -410.000; -223.000
330.368; -128.650; -839.000; -628.000
330.503;  -10.625;    3.000;   98.000
330.638;   18.875;  -93.000; -125.000
330.774;  -44.650; -609.000; -530.000
330.909;  -30.925; -434.000; -244.000
331.044;  -97.375; -714.000; -708.000
331.179; -156.725;-1217.000;-1109.000
331.315;   29.075;   77.000;   20.000
331.450;   30.000;  157.000;  285.000
331.585;  -88.500; -805.000; -706.000
331.720;  -76.400; -510.000; -460.000
331.855;   -5.875;  -35.000; -102.000
331.990;  234.825;   62.000;  138.000
332.126;  127.775; -110.000;   71.000
332.261;  -10.850; -379.000; -265.000
332.396;    1.825; -135.000; -242.000
332.531; -101.825;-1074.000;-1031.000
332.666;   29.100; -519.000; -363.000
332.801; -104.950; -726.000; -807.000
332.936;  -15.975; -192.000; -122.000
333.071; -147.100; -870.000; -817.000
333.206;   13.675;  307.000;  379.000
333.341;   18.425;  344.000;  418.000
333.476;  -90.225; -627.000; -623.000
333.611;  -26.425; -251.000; -173.000
333.746;  -44.200; -381.000; -464.000
333.881; -110.725; -973.000; -935.000
334.016; -127.000; -936.000; -917.000
334.151; -106.700; -746.000; -702.000
334.286;   22.300;  152.000;  186.000
334.421;    1.200; -125.000; -178.000
334.556;  -70.925; -611.000; -567.000
334.690;  -74.300; -631.000; -577.000
334.825;   58.925;  381.000;   83.000
334.960;  -47.000; -285.000; -413.000
335.095;   13.175;  135.000;  -91.000
335.230;  -82.150; -722.000; -738.000
335.365; -109.850;-1084.000; -990.000
335.499; -127.225;-1108.000;-1037.000
335.634;   45.450;    9.000;  534.000
335.769;  -83.200; -755.000; -720.000
335.904;  -48.100; -603.000; -561.000
336.038;  -52.275; -735.000; -657.000
336.173;  -93.025;-1206.000;-1194.000
336.308;   31.075; -116.000; -189.000
336.443;   16.725; -544.000; -634.000
336.577;  -65.525; -936.000; -787.000
336.712;   82.425;   -4.000;  -12.000
336.847;  -10.375; -724.000; -607.000
336.981;  112.775; -272.000; -208.000
337.116;  339.175;  615.000;  501.000
337.250;  205.925; -434.000; -421.000
337.385;  209.975; -297.000; -208.000
337.520;   62.175; -632.000; -603.000
337.654;  -24.575; -215.000; -126.000
337.789; -129.475; -989.000; -933.000
337.923;  -32.350; -104.000; -205.000
338.058;  -77.925; -673.000; -738.000
338.192;  -34.700; -611.000; -488.000
338.327;    7.800;  -18.000; -155.000
338.461;  -72.375; -299.000; -469.000
338.596;  -90.550; -780.000; -638.000
338.730; -109.175; -767.000; -803.000
338.865;   86.075;  -46.000; -140.000
338.999;  -59.650; -846.000; -702.000
339.134;  -31.925; -634.000; -536.000
339.268;    7.950; -741.000; -603.000
339.403;  351.950; -740.000; -775.000
339.537;  102.275; -894.000; -820.000
339.671; -118.350; -829.000; -813.000
339.806;  -67.825; -556.000; -512.000
339.940;   15.750; -261.000; -235.000
340.074;  -85.225; -685.000; -510.000
340.209;  -46.550; -351.000; -230.000
340.343;  -87.875; -517.000; -573.000
340.477;  167.150;  998.000; 1036.000
340.612;  -69.725;-1033.000; -900.000
340.746;  110.000; -199.000; -243.000
340.880;  -51.750; -924.000; -785.000
341.014;  -19.850;  -45.000; -154.000
341.149; -113.050; -756.000; -718.000
341.283; -111.150; -839.000; -754.000
341.417;  -82.625;-1124.000; -938.000
341.551;  205.350; -768.000; -708.000
341.685;  -17.900; -633.000; -611.000
341.820;  -54.750; -562.000; -493.000
341.954;  -41.075; -218.000; -349.000
342.088; -143.450;-1102.000;-1019.000
342.222;   70.150;  565.000;  618.000
342.356;  -54.450; -395.000; -335.000
342.490;  -76.825; -880.000; -841.000
342.624;  -37.950; -339.000; -242.000
342.758;   26.150; -364.000; -312.000
342.892;  -49.725; -710.000; -585.000
343.026;  -26.900;  -58.000; -116.000
343.160;  -56.875; -426.000; -376.000
343.294;  -76.000; -474.000; -337.000
343.428;    1.175; -488.000; -448.000
343.562;   -7.500; -172.000;  -23.000
343.696;  -11.975; -385.000; -314.000
343.830;   -5.625; -362.000; -356.000
343.964;   30.275; -231.000; -168.000
344.098; 1123.275;  199.000;   70.000
344.232;  919.750; -266.000; -127.000
344.366;  109.700; -567.000; -453.000
344.500;   96.550; -665.000; -744.000
344.634;   64.625; -324.000; -164.000
344.768;   13.175; -531.000; -341.000
344.902;   28.750;  278.000;  256.000
345.035;  -74.650; -556.000; -496.000
345.169; -122.475; -933.000; -656.000
345.303;  -15.725; -308.000; -482.000
345.437;  -48.150; -826.000; -717.000
345.571;  -64.800; -675.000; -594.000
345.704;  -68.575; -309.000; -532.000
345.838;  -11.100; -331.000; -284.000
345.972;  -18.825; -543.000; -495.000
346.106;  154.925; -179.000; -190.000
346.239;  447.700; -312.000; -243.000
346.373;   22.425; -343.000; -302.000
346.507; -137.300; -950.000; -962.000
346.640;  200.725;  -30.000;   13.000
346.774;  -27.025; -650.000; -797.000
346.908;   -0.475; -138.000;  -11.000
347.041;  -89.125; -646.000; -593.000
347.175;   21.725;  259.000;   27.000
347.309;  -60.400; -698.000; -628.000
347.442;  -88.375; -883.000; -732.000
347.576;  322.650;  670.000;  668.000
347.709;  254.075; -123.000;  -52.000
347.843;  -79.525; -933.000; -825.000
347.976;   56.675;  235.000;  294.000
348.110; -173.525;-1268.000;-1186.000
348.243;  -89.325; -679.000; -772.000
348.377;    3.125;  -26.000;   60.000
348.510;   53.625;  403.000;  540.000
348.644;  -35.425;  -37.000; -159.000
348.777;   12.100;  180.000;  191.000
348.911;  -42.100; -142.000; -112.000
349.044;  190.400;  471.000;  448.000
349.178;  222.525;-1069.000;-1006.000
349.311;  139.800;  141.000;  255.000
349.444;  -14.350; -927.000; -813.000
349.578;  -16.225; -347.000; -200.000
349.711;  -97.925; -959.000; -862.000
349.845;   42.575; -661.000; -591.000
349.978; -132.525;-1224.000;-1137.000
350.111;  -95.200; -546.000; -612.000
350.244;  -63.850; -596.000; -700.000
350.378;   30.500; -392.000; -393.000
350.511;  -45.650; -393.000; -426.000
350.644; -103.275; -808.000; -806.000
350.778;   16.375;  168.000;  104.000
350.911;   15.175;  134.000;  140.000
351.044;  -89.225; -685.000; -615.000
351.177;  -18.950; -321.000; -281.000
351.310;  -10.275;    3.000; -131.000
351.444;  -50.950; -888.000; -788.000
351.577;  149.725;  140.000;   90.000
351.710;  115.575;  593.000;  417.000
351.843;  -46.800; -165.000;  -77.000
351.976;   18.325;  149.000;  -79.000
352.109;  -72.950; -621.000; -612.000
352.242;   -9.050; -464.000; -419.000
352.376;  -50.975; -580.000; -636.000
352.509;  251.300; -437.000; -356.000
352.642;   47.450; -654.000; -604.000
352.775;   92.425; -141.000;  -98.000
352.908; -112.575; -933.000; -904.000
353.041;  -91.325; -814.000; -824.000
353.174;  -40.250; -551.000; -424.000
353.307;  -65.325; -753.000; -764.000
353.440;   84.025;  541.000;  453.000
353.573; -101.475; -957.000;-1008.000
353.706;  -41.950; -384.000; -558.000
353.839;    3.275; -264.000; -220.000
353.971;  -74.475; -657.000; -512.000
354.104;  -76.925; -896.000; -835.000
354.237;  -25.125; -627.000; -662.000
354.370;  -86.425; -846.000; -879.000
354.503; -178.250;-1231.000;-1308.000
354.636;  -31.500; -529.000; -348.000
354.769; -124.275; -937.000; -860.000
354.902;    3.050; -230.000; -139.000
355.034;   -7.550; -164.000; -220.000
355.167;  -15.850; -262.000; -162.000
355.300;  -83.375;-1061.000; -880.000
355.433;  892.500;  -71.000;  -14.000
355.565; 1381.975; -402.000; -384.000
355.698;  343.400; -356.000; -296.000
355.831;    9.150; -882.000; -801.000
355.964;  121.975; -285.000; -170.000
356.096;  -72.450; -856.000; -843.000
356.229;   29.700; -523.000; -530.000
356.362;  290.325; -373.000; -266.000
356.494;  563.075; -229.000; -162.000
356.627;  554.850;  269.000;  377.000
356.760;  666.600;  120.000;   53.000
356.892;  861.375; -286.000; -601.000
357.025;  795.675;  403.000;  389.000
357.157;  735.025; -167.000; -179.000
357.290;  574.050; -856.000; -713.000
357.423;  185.900; -667.000; -556.000
357.555;  143.425; -217.000; -228.000
357.688;  175.525; -483.000; -364.000
357.820;  544.100; -870.000; -877.000
357.953; 4294.725; -563.000; -589.000
358.085;  983.725; -632.000; -612.000
358.218; 1539.150;-1131.000; -932.000
358.350;  273.550;  -58.000;  312.000
358.483; -105.500;-1300.000;-1187.000
358.615;   12.625;-1182.000;-1078.000
358.747;  -22.975;-1187.000;-1058.000
358.880;   58.400; -810.000; -744.000
359.012;   10.475; -376.000; -202.000
359.145;  -23.850; -480.000; -511.000
359.277;   92.575; -962.000; -913.000
359.409; 3584.925;  536.000;  231.000
359.542;  909.675; -738.000; -688.000
359.674;   77.125;   46.000;   13.000
359.806;  -50.775; -565.000; -438.000
359.939;  -38.525; -617.000; -516.000
360.071;  -11.450; -583.000; -579.000
360.203;  -20.225; -411.000; -364.000
360.335;   61.850;  164.000;  -16.000
360.468;  214.100; -249.000; -307.000
360.600; 2820.600; -547.000; -454.000
360.732; 2608.600; -546.000; -423.000
360.864;  357.275;-1216.000;-1044.000
360.996;  386.700; -516.000; -554.000
361.129;   60.025; -389.000; -598.000
361.261;   31.825;  110.000; -113.000
361.393;  -40.100; -252.000; -214.000
361.525;   48.675;   94.000;  244.000
361.657;  -24.400; -821.000; -703.000
361.789;   23.950; -139.000; -155.000
361.921;  302.875; -642.000; -593.000
362.053;  319.425;  524.000;  541.000
362.185;   71.750;  288.000;   72.000
362.318;  -64.950; -709.000; -705.000
362.450;  161.250;  294.000;  444.000
362.582;  191.200; -913.000; -870.000
362.714;  -18.125; -353.000; -332.000
362.846;  -77.000; -606.000; -490.000
362.978; -144.350; -941.000; -811.000
363.109;   70.100; -161.000; -260.000
363.241;  564.850; -739.000; -749.000
363.373;  403.850; -649.000; -564.000
363.505;  600.750; -186.000;  -91.000
363.637;  143.450; -787.000; -601.000
363.769; -106.900;-1067.000;-1080.000
363.901;  -64.700; -596.000; -654.000
364.033; -111.950;-1103.000;-1062.000
364.165;    6.400; -283.000; -283.000
364.296;   70.025; -316.000; -177.000
364.428;   59.550;-1344.000;-1220.000
364.560;  -58.300; -679.000; -661.000
364.692;  -49.900; -738.000; -835.000
364.824;  373.175; -588.000; -456.000
364.955;  436.925; -402.000; -564.000
365.087;  750.175;-1097.000; -852.000
365.219;    8.025; -686.000; -816.000
365.351;  -66.800; -526.000; -572.000
365.482;   72.000;  300.000;  240.000
365.614;  -44.550; -402.000; -314.000
365.746;  -91.500; -729.000; -752.000
365.877;  -90.975; -706.000; -672.000
366.009;  235.675;  -35.000;  -62.000
366.141; -105.875;-1249.000;-1134.000
366.272; -110.550; -803.000; -719.000
366.404; -106.175;-1005.000; -874.000
366.535;   -8.800; -139.000;  -12.000
366.667;  -98.475; -644.000; -649.000
366.799;   54.250;  353.000;  203.000
366.930; -102.825; -862.000; -996.000
367.062;  130.550; -639.000; -613.000
367.193;  120.700; -872.000; -842.000
367.325;  -56.550; -580.000; -684.000
367.456;  102.225; -246.000;   31.000
367.588;  159.275; -371.000; -318.000
367.719;   37.950;  -44.000;  -45.000
367.851;  -17.225; -222.000; -241.000
367.982;  -25.250; -875.000; -732.000
368.113;  147.050; -475.000; -358.000
368.245;  -96.250; -960.000; -841.000
368.376;   -6.125; -254.000; -302.000
368.508;  -34.800; -188.000; -263.000
368.639; -131.050;-1166.000;-1034.000
368.770;    2.000; -670.000; -589.000
368.902;  -34.125; -836.000; -926.000
369.033; -104.050; -906.000; -855.000
369.164;  -43.425; -720.000; -653.000
369.296; -112.275; -452.000; -601.000
369.427;   24.875; -209.000; -144.000
369.558;  -38.050; -593.000; -377.000
369.689;  -75.425; -721.000; -569.000
369.821; -121.850; -951.000; -845.000
369.952;  -13.125;   42.000; -108.000
370.083;  -37.525; -229.000; -108.000
370.214;  -78.625; -735.000; -650.000
370.345;   -2.550;   65.000;   81.000
370.477;  -60.075; -810.000; -790.000
370.608;  301.975; -328.000; -264.000
370.739;  -11.000;-1233.000;-1292.000
370.870;  -12.800;-1102.000; -923.000
371.001;  137.900; -378.000; -467.000
371.132;  -63.000; -754.000; -735.000
371.263;    2.825;  -42.000; -148.000
371.394; -120.925; -841.000; -748.000
371.525;   40.300;  345.000;  225.000
371.657;  -87.250; -808.000; -670.000
371.788;   83.475;  103.000;  199.000
371.919;  212.725; -384.000; -304.000
372.050; 4407.825;  -91.000; -156.000
372.181; 1281.475; -188.000; -294.000
372.311;  482.825;   42.000; -127.000
372.442;   70.300; -457.000; -451.000
372.573;   -7.700; -444.000; -340.000
372.704; -108.750;-1008.000; -980.000
372.835;  117.925; -228.000; -289.000
372.966;  -41.975; -646.000; -554.000
373.097;  -44.125; -575.000; -711.000
373.228;  -22.050; -717.000; -542.000
373.359;  201.250; -824.000; -536.000
373.490; 1198.025; -881.000; -727.000
373.620; 1443.300;-1001.000; -803.000
373.751; 2240.550; -332.000; -396.000
373.882;  994.725; -663.000; -733.000
374.013;   96.325; -449.000; -262.000
374.143;   -8.675; -581.000; -659.000
374.274;  -74.050; -987.000; -908.000
374.405;  225.750; -388.000; -276.000
374.536;  576.600; -526.000; -387.000
374.666; 1433.550; -759.000; -807.000
374.797;  314.650; -817.000; -868.000
374.928; 1132.675; -710.000; -560.000
375.058; 1130.425; -535.000; -500.000
375.189;  111.150;  -59.000;  -93.000
375.320;  -83.600; -928.000;-1034.000
375.450;  -31.175; -625.000; -616.000
375.581;  -41.050; -526.000; -436.000
375.712;  -26.725; -574.000; -250.000
375.842;  408.300; -438.000; -415.000
375.973;  287.275; -554.000; -513.000
376.103;   -5.750; -665.000; -648.000
376.234;  -76.075; -531.000; -552.000
376.364;  -13.125; -944.000; -867.000
376.495;  375.100;  925.000;  529.000
376.625;   12.125; -472.000; -485.000
376.756;   95.600; -709.000; -678.000
376.886;  -48.800;-1178.000;-1026.000
377.017;   19.825;-1048.000;-1061.000
377.147;  296.600; -786.000; -782.000
377.278;   63.375;  174.000;  228.000
377.408; -131.700; -801.000; -815.000
377.538;  -99.100; -707.000; -693.000
377.669;  -69.075; -537.000; -613.000
377.799;  -61.025; -645.000; -635.000
377.929;  -43.400; -610.000; -428.000
378.060; -124.400; -781.000; -847.000
378.190;  -57.950; -726.000; -531.000
378.320;  -42.400; -401.000; -406.000
378.451;  -11.025; -131.000;  -22.000
378.581;   10.675;  -67.000; -110.000
378.711;  179.500; 1035.000;  866.000
378.841;   10.025; -533.000; -675.000
378.972;  -45.850; -871.000; -751.000
379.102;   21.525; -652.000; -579.000
379.232;   -3.575; -126.000;  -73.000
379.362;  -93.250;-1001.000; -885.000
379.492;   30.375; -373.000; -424.000
379.623;  138.225;    0.000;  111.000
379.753;  -75.875;-1107.000; -974.000
379.883;  235.450;   59.000;  156.000
380.013;   54.725;-1081.000;-1017.000
380.143;  -90.375;-1097.000;-1056.000
380.273;  -69.150; -985.000; -861.000
380.403;   12.000; -344.000; -257.000
380.533;  -11.325; -651.000; -664.000
380.663;  102.975;  173.000;  128.000
380.793;  -75.825;-1027.000;-1074.000
380.923;  -15.975; -103.000;  -34.000
381.053;  -87.200; -613.000; -623.000
381.183;  -26.950; -106.000; -248.000
381.313;   72.650; -656.000; -470.000
381.443;   72.525; -692.000; -473.000
381.573;  283.475; -402.000; -409.000
381.703;  414.050;-1249.000;-1095.000
381.833; -118.050;-1454.000;-1336.000
381.963;  139.275; -134.000;  -87.000
382.093; 1684.175; -925.000; -909.000
382.223;  517.600; -713.000; -602.000
382.353;   17.525; -801.000; -608.000
382.482;  499.350;-1091.000; -964.000
382.612;  924.150; -872.000; -644.000
382.742;  521.025; -695.000; -622.000
382.872;  348.175; -565.000; -551.000
383.002;   78.350;  347.000; -132.000
383.131;    3.275; -226.000; -160.000
383.261;  -36.525; -706.000; -768.000
383.391;  294.725; -552.000; -377.000
383.521; 2876.975;  451.000;  263.000
383.650;  636.600; -947.000; -904.000
383.780;  -30.300; -783.000; -656.000
383.910;  119.650;  880.000;  802.000
384.039;   54.675; -794.000; -656.000
384.169;  311.300;-1205.000;-1017.000
384.299;    3.825; -650.000; -662.000
384.428;  -71.100; -764.000; -680.000
384.558;  -30.500; -308.000; -275.000
384.687;  -26.450; -414.000; -334.000
384.817;   40.000;   75.000;   -2.000
384.947;   37.700; -234.000; -141.000
385.076;  333.750;  982.000;  912.000
385.206;  123.775;  369.000;  480.000
385.335;  -23.775; -549.000; -417.000
385.465;  -71.425; -655.000; -663.000
385.594;  175.850;  -53.000;  -44.000
385.724;  567.800; -868.000; -838.000
385.853;  162.250; -296.000; -270.000
385.982; 1764.125; -743.000; -787.000
386.112; 2666.700;-1052.000; -871.000
386.241;  175.950; -307.000; -312.000
386.371;   31.800; -174.000;  -87.000
386.500;   22.300; -825.000; -789.000
386.629;   35.175; -874.000; -817.000
386.759;   73.450;  -43.000;   68.000
386.888;    0.475; -170.000; -250.000
387.017;  -63.175; -648.000; -620.000
387.147;  -79.825; -771.000; -798.000
387.276;    6.800; -410.000; -397.000
387.405;   36.700; -398.000; -342.000
387.535;  -26.550; -452.000; -361.000
387.664;  -53.200; -692.000; -620.000
387.793;   96.625; -198.000; -113.000
387.922;  642.750;  255.000;  200.000
388.052;   56.100; -576.000; -423.000
388.181;   49.925; -342.000; -472.000
388.310;   50.000; -889.000; -710.000
388.439;  -11.725; -749.000; -742.000
388.568;  251.800;  365.000;  244.000
388.697; 1355.075; -756.000; -653.000
388.826;  272.700; -768.000; -666.000
388.956;   97.100; -285.000; -307.000
389.085;  -20.775; -347.000; -287.000
389.214; -111.975; -842.000; -872.000
389.343;  -59.025; -645.000; -413.000
389.472;  383.675;  126.000;  149.000
389.601;  511.875;   91.000;    0.000
389.730;   35.875; -568.000; -687.000
389.859;   64.925;  226.000;   46.000
389.988;  239.325; -423.000; -408.000
390.117;  185.250; -168.000; -146.000
390.246;    8.575; -331.000; -320.000
390.375;  166.650; -673.000; -626.000
390.504;  -64.950; -703.000; -621.000
390.633;  -90.100; -672.000; -726.000
390.761;  -41.450; -732.000; -645.000
390.890;   37.375;   -4.000; -130.000
391.019;  -18.650; -421.000; -441.000
391.148; -123.425; -826.000; -855.000
391.277;  -44.875; -576.000; -493.000
391.406;  -64.400; -821.000; -805.000
391.534;   38.075;  574.000; -301.000
391.663;  -55.250; -583.000; -645.000
391.792;  -58.100; -673.000; -701.000
391.921;  149.225;   -3.000;   15.000
392.050;  271.225; -287.000; -228.000
392.178;   -4.300;-1206.000;-1061.000
392.307;  212.050; -758.000; -712.000
392.436;  126.425; -427.000; -641.000
392.564;   27.650;  166.000;   -6.000
392.693;  -88.525; -860.000; -682.000
392.822;  290.500; -529.000; -534.000
392.950;  134.950; -880.000; -714.000
393.079;  415.900; -188.000; -328.000
393.208;   51.750; -488.000; -511.000
393.336;    5.650; -170.000; -145.000
393.465;  -47.600; -317.000; -199.000
393.593;    3.300;   62.000;   79.000
393.722; -134.450;-1121.000; -916.000
393.850;  -16.050; -188.000;  -61.000
393.979; -161.100; -926.000; -805.000
394.107;  -64.050; -517.000; -537.000
394.236;   -2.075; -570.000; -507.000
394.364;  214.700;  383.000;  206.000
394.493;  307.100; -911.000; -767.000
394.621;  -15.600; -955.000; -916.000
394.750;  658.525; -873.000; -923.000
394.878; 2772.875; -247.000; -149.000
395.007; 3602.575; -721.000; -807.000
395.135;  268.225; -790.000; -721.000
395.263;  -67.775;-1038.000;-1040.000
395.392;    4.700;  -25.000; -107.000
395.520; -134.600; -818.000; -679.000
395.648;  -78.675; -865.000; -915.000
395.777;   -6.825; -366.000; -405.000
395.905;  -24.775; -449.000; -564.000
396.033;   23.675;  217.000;  172.000
396.162;  519.900; -399.000; -453.000
396.290;  474.125;  -17.000;   -2.000
396.418;  130.400; -555.000; -514.000
396.546;  -71.275; -571.000; -466.000
396.674;  -77.000; -850.000; -878.000
396.803;   23.725;  -72.000;  -23.000
396.931;  133.700; -179.000; -199.000
397.059;  119.100;-1026.000; -989.000
397.187;  -92.600;-1026.000; -975.000
397.315; -130.375; -884.000; -649.000
397.443;  -99.775; -592.000; -443.000
397.572; -107.100; -578.000; -424.000
397.700;   14.275; -607.000; -614.000
397.828;   45.950;  120.000;  -90.000
397.956;  -42.100; -508.000; -478.000
398.084;  -70.325; -767.000; -626.000
398.212;   37.825;  137.000;  124.000
398.340;   31.100;  -56.000;  159.000
398.468;   71.850; -390.000; -169.000
398.596; -138.900; -993.000; -953.000
398.724; -115.575; -762.000; -767.000
398.852; -149.275;-1024.000; -976.000
398.980;  -44.575; -560.000; -560.000
399.108;  -39.525; -982.000; -735.000
399.236;   59.425;   13.000;    8.000
399.363;   21.300;  222.000;  196.000
399.491;  -64.625; -404.000; -398.000
399.619; -122.900; -829.000; -800.000
399.747;  -87.275; -859.000; -771.000
399.875;   94.475;  220.000;  234.000
400.003;  -51.425; -359.000; -284.000
400.130;  -88.850; -421.000; -341.000
400.258;  -30.075;  -83.000;   38.000
400.386;  -53.725; -352.000; -168.000
400.514;  -21.950; -526.000; -587.000
400.641;  -73.850; -928.000; -802.000
400.769; -144.650; -979.000; -888.000
400.897; -105.025; -838.000; -793.000
401.025;   -0.975; -166.000; -152.000
401.152;   -6.525;  220.000;   38.000
401.280;  -78.225; -430.000; -429.000
401.408; -106.650; -712.000; -576.000
401.535; -104.225; -735.000; -758.000
401.663; -192.800;-1134.000;-1054.000
401.790;  -67.625; -514.000; -525.000
401.918;   53.575;  436.000;  405.000
402.046;   -7.000;  134.000;  122.000
402.173;  -36.800;  -18.000;    7.000
402.301;  -52.300; -519.000; -397.000
402.428;   47.200;  528.000;  383.000
402.556; -143.725;-1188.000; -913.000
402.683;  -13.675;  -20.000;   -1.000
402.811;  -21.925;  -37.000; -206.000
402.938;   -2.150;   20.000;   27.000
403.066;  295.450; -574.000; -558.000
403.193;  411.825;  299.000;  239.000
403.321;  331.900; -396.000; -574.000
403.448;  400.050;   83.000;   27.000
403.575;  201.475;  -90.000;  -46.000
403.703;  -95.800; -732.000; -557.000
403.830;  -71.475; -531.000; -496.000
403.957; -137.200;-1117.000;-1023.000
404.085;   27.550;  -61.000; -172.000
404.212;  115.800;  -50.000;   63.000
404.339;  235.850; -566.000; -306.000
404.467; 5390.100; -612.000; -524.000
404.594; 3723.525; -287.000; -227.000
404.721;  975.825; -869.000; -764.000
404.848;   77.350; -113.000; -202.000
404.976; -101.200; -856.000; -783.000
405.103;  -11.525;  -14.000;  -82.000
405.230;    6.475;  190.000;  226.000
405.357;   22.525;  117.000;   44.000
405.484;  254.500;  -49.000;    5.000
405.612;   34.925; -548.000; -563.000
405.739;  -54.300; -488.000; -243.000
405.866;   89.175;  669.000;  385.000
405.993;  -38.375; -398.000; -102.000
406.120; -133.000; -801.000; -887.000
406.247;  -62.225; -323.000; -342.000
406.374;  572.500;  540.000;  629.000
406.501;  176.075; -632.000; -702.000
406.628;  -68.625; -621.000; -589.000
406.755;  -92.200; -803.000; -620.000
406.882;  -35.750; -228.000; -277.000
407.009;  -95.500; -719.000; -628.000
407.136;   80.200; -480.000; -401.000
407.263;  208.175; -939.000; -829.000
407.390;  -61.025; -692.000; -614.000
407.517; -162.500;-1139.000;-1187.000
407.644;  -59.250; -332.000; -256.000
407.771;  -50.800; -249.000; -287.000
407.898;   14.700;  168.000;  328.000
408.025;  -51.750; -421.000; -313.000
408.151;   -9.675;   82.000;  153.000
408.278;  -60.400; -267.000; -216.000
408.405; -110.000; -931.000; -899.000
408.532;  -54.900; -549.000; -542.000
408.659; -120.775; -677.000; -648.000
408.785; -202.125;-1298.000;-1170.000
408.912;  -64.200; -412.000; -296.000
409.039; -119.725; -610.000; -686.000
409.166;  -98.175; -591.000; -555.000
409.292; -116.150; -571.000; -534.000
409.419; -112.500; -665.000; -649.000
409.546;  -82.525; -431.000; -192.000
409.672; -102.075; -713.000; -545.000
409.799;  -14.150;  -36.000;   34.000
409.926;  -29.400; -180.000; -179.000
410.052; -167.850;-1127.000;-1091.000
410.179;  -39.525; -368.000; -392.000
410.305;  -86.975; -375.000; -493.000
410.432;  -42.975; -220.000; -333.000
410.558;  -86.050; -305.000; -380.000
410.685; -106.100; -688.000; -431.000
410.812;  -91.825; -409.000; -588.000
410.938; -131.825; -964.000; -808.000
411.065;  -88.475; -671.000; -645.000
411.191;    0.200; -189.000; -174.000
411.317; -103.600; -823.000; -742.000
411.444;  -59.225; -317.000; -246.000
411.570;  -53.250; -339.000; -294.000
411.697; -123.400; -758.000; -752.000
411.823; -164.675; -989.000; -999.000
411.949;  -10.650;  -56.000;   17.000
412.076; -110.075; -539.000; -519.000
412.202; -118.575; -758.000; -757.000
412.329; -119.875; -798.000; -752.000
412.455; -107.525; -821.000; -657.000
412.581;   -9.175;  -15.000;  172.000
412.707;  -55.725; -540.000; -457.000
412.834;   17.850;  156.000;  219.000
412.960;  -73.075; -785.000; -784.000
413.086;  -97.200; -743.000; -701.000
413.212;  167.175;  604.000;  578.000
413.339;  -49.250; -685.000; -701.000
413.465;   28.925; -364.000; -310.000
413.591;  -84.775; -757.000; -474.000
413.717;  -49.525; -358.000; -366.000
413.843; -150.650; -839.000; -861.000
413.969;  -66.375;  -47.000; -292.000
414.096;  -82.650; -679.000; -679.000
414.222;   -0.050;  -33.000;   85.000
414.348;    1.175; -652.000; -385.000
414.474;  116.550;   38.000;  -52.000
414.600;  -13.975; -126.000; -144.000
414.726;  -16.900;  -96.000;  -55.000
414.852;  -66.500; -365.000; -342.000
414.978;   34.150;  104.000;  -18.000
415.104;   37.300;   38.000;   80.000
415.230;   32.400; -329.000; -330.000
415.356;   50.075; -409.000; -514.000
415.482;  202.550;   13.000;  -35.000
415.608;  268.650; -247.000; -323.000
415.734;  926.550;   67.000;   38.000
415.860;19340.750; -875.000; -767.000
415.986;13473.125; -685.000; -607.000
416.111; 1115.250; -798.000; -652.000
416.237;  237.675; -424.000; -571.000
416.363; 1047.825; -765.000; -733.000
416.489; 3788.175; -324.000; -251.000
416.615;  384.000; -707.000; -742.000
416.741;  -45.750; -677.000; -784.000
416.866;  -91.100; -673.000; -736.000
416.992; -127.900; -801.000; -818.000
417.118;  -15.325;  -41.000;  -80.000
417.244;  -57.850; -798.000; -531.000
417.369;  -92.300; -801.000; -612.000
417.495;    1.525; -325.000; -254.000
417.621;  -80.775;-1015.000; -803.000
417.746;   13.725; -579.000; -572.000
417.872;   59.925; -254.000; -144.000
417.998;   39.050; -515.000; -530.000
418.123; 1018.800;-1073.000; -845.000
418.249; 4986.450; -512.000; -601.000
418.374;  646.425; -916.000; -824.000
418.500;  108.425; -383.000; -482.000
418.626;  117.025;   70.000;  -59.000
418.751;  135.175; -549.000; -448.000
418.877;  203.725; -637.000; -643.000
419.002; 1730.925; -688.000; -560.000
419.128;11670.175; -930.000; -721.000
419.253; 2695.925; -967.000; -837.000
419.379;  361.650; -391.000; -338.000
419.504;  371.725;  325.000;  415.000
419.629;  471.800; -393.000; -212.000
419.755; 3294.750; -317.000; -254.000
419.880;18992.550;  -98.000;   67.000
420.006;10687.100; -280.000; -221.000
420.131;27391.275; -662.000; -775.000
420.256; 3824.550; -315.000; -316.000
420.382;  509.750; -665.000; -687.000
420.507;   79.525; -649.000; -778.000
420.632;  184.975; -337.000; -339.000
420.758;  346.025; -251.000; -425.000
420.883;  -65.700; -876.000; -672.000
421.008; -106.125; -775.000; -619.000
421.133;  -72.650; -509.000; -467.000
421.259;  -42.175; -325.000; -259.000
421.384; -100.550; -834.000; -693.000
421.509;  -11.800;-1052.000; -862.000
421.634; 1567.775; -936.000; -820.000
421.759;  672.200; -359.000; -327.000
421.885;  -52.925; -717.000; -656.000
422.010;  -61.950; -673.000; -542.000
422.135; -140.500; -695.000; -727.000
422.260;   34.100;  340.000;  280.000
422.385;  -25.050;   12.000;  -98.000
422.510;    1.950;  151.000;  -26.000
422.635;   31.950;  -87.000;  -43.000
422.760;  122.800; -766.000; -791.000
422.885;   45.400;  -57.000;  -80.000
423.010;  -18.800; -112.000; -169.000
423.135;  -93.575; -481.000; -561.000
423.260;   13.300; -150.000; -245.000
423.385;   82.700;  476.000;  222.000
423.510;   36.825;   71.000;  -22.000
423.635;  102.800;  133.000;   45.000
423.760;   64.650;  383.000;  328.000
423.885;   70.350;  336.000;  391.000
424.010;   16.025;  -68.000;  -13.000
424.135;   -8.350;    5.000;  -33.000
424.259;  -90.100; -654.000; -457.000
424.384;  -52.275; -279.000; -272.000
424.509;  -21.850; -260.000; -186.000
424.634;  -98.600; -761.000; -623.000
424.759;  -18.925; -688.000; -544.000
424.883;  -11.675; -506.000; -527.000
425.008;  161.125; -502.000; -410.000
425.133; 1898.825; -679.000; -653.000
425.258;  829.150; -517.000; -381.000
425.382; 1262.425; -867.000; -774.000
425.507; 3122.600; -487.000; -543.000
425.632;  470.025; -802.000; -663.000
425.756;  450.850; -256.000; -146.000
425.881; 6011.550; -831.000; -857.000
426.006;15410.150; -604.000; -355.000
426.130; 2371.725; -696.000; -508.000
426.255;  302.000; -611.000; -491.000
426.379;  151.975; -189.000; -577.000
426.504;  381.750;  660.000;  544.000
426.629; 3870.200; -519.000; -466.000
426.753; 2585.125;   64.000;  -46.000
426.878;  292.425; -252.000; -288.000
427.002;  165.800; -651.000; -668.000
427.127; 1561.475;  -35.000; -158.000
427.251;10640.550;  372.000;  401.000
427.375; 2926.875; -191.000; -173.000
427.500; 2726.100; -616.000; -610.000
427.624;  872.800; -234.000; -400.000
427.749;  124.825; -216.000; -225.000
427.873;  -20.375; -499.000; -412.000
427.997;  -45.875; -222.000; -230.000
428.122;   98.175;  795.000;  703.000
428.246;   90.075;  433.000;  434.000
428.371; -108.800; -869.000; -773.000
428.495;  -96.775; -624.000; -646.000
428.619;  -22.725; -186.000; -117.000
428.743;   36.275;   65.000;  132.000
428.868;   52.350; -732.000; -643.000
428.992; 1744.500; -219.000; -326.000
429.116;  714.500; -329.000; -357.000
429.240;  353.525;  419.000;  426.000
429.365;   -6.225; -454.000; -574.000
429.489;  -24.300; -638.000; -647.000
429.613;   24.600; -236.000; -177.000
429.737;   38.800; -563.000; -432.000
429.861;  275.775; -247.000; -133.000
429.985; 5367.375; -425.000; -305.000
430.109; 5587.200; -770.000; -908.000
430.234;  637.675;   76.000;  -50.000
430.358;   66.975; -250.000; -160.000
430.482;  -74.500; -672.000; -564.000
430.606;  -50.000; -655.000; -375.000
430.730;   44.175; -437.000; -388.000
430.854;  204.375; -909.000; -835.000
430.978;  -65.950; -795.000; -764.000
431.102;  -89.700; -499.000; -422.000
431.226; -115.250; -874.000; -815.000
431.350;   43.675;  345.000;  422.000
431.474;  -77.225; -661.000; -373.000
431.597; -145.600;-1060.000; -848.000
431.721;  -81.825; -276.000; -267.000
431.845; -129.000; -704.000; -472.000
431.969;  -72.725; -304.000; -349.000
432.093;  -87.350; -395.000; -317.000
432.217;  -15.400;   32.000;   82.000
432.341;  -86.850; -523.000; -518.000
432.464;   15.575;   96.000;   40.000
432.588;  288.550; -401.000; -329.000
432.712;  127.275;  -52.000;  -52.000
432.836;   51.925;  213.000;  263.000
432.959;  -20.250; -372.000; -311.000
433.083;   75.375;   11.000;    2.000
433.207;  376.750;  285.000;  930.000
433.330; 4738.200; -391.000; -200.000
433.454; 5646.400; -654.000; -638.000
433.578; 3313.100;  583.000;  278.000
433.701;  605.000; -623.000; -675.000
433.825;  177.100; -292.000; -299.000
433.949;  272.875;   28.000;  -72.000
434.072;   94.900; -410.000; -323.000
434.196;  -10.275; -309.000; -117.000
434.319; 3807.925;25482.000;25124.000
434.443;  746.500; -656.000; -603.000
434.566; 2489.550;  281.000;   62.000
434.690;  407.625; -637.000; -383.000
434.813;   56.150; -251.000; -173.000
434.937;  -76.050; -569.000; -696.000
435.060;  -18.300; -423.000; -332.000
435.184;  478.775; -492.000; -217.000
435.307;  238.925;  159.000;  102.000
435.431;   -0.325;  -40.000;   24.000
435.554;  -75.625; -399.000; -240.000
435.677;  -91.450; -350.000; -258.000
435.801;  -34.375;  -25.000;   49.000
435.924;    4.475;    1.000;  -67.000
436.048;  -97.375;-1019.000; -732.000
436.171;  -68.175; -240.000;  -66.000
436.294;  -16.625; -248.000; -229.000
436.417;   62.950; -963.000; -849.000
436.541;  -92.125; -814.000; -840.000
436.664;  -54.775; -242.000; -316.000
436.787;  -15.025;   13.000;  113.000
436.910; -105.275; -792.000; -422.000
437.034;   27.925;  142.000;  143.000
437.157;   88.700;  -11.000;    0.000
437.280;  -29.250; -392.000; -292.000
437.403;  -52.900; -982.000; -869.000
437.526;  921.375; -903.000; -865.000
437.649; 3080.000; -505.000; -332.000
437.772;  465.400; -692.000; -540.000
437.896;  139.025;  700.000;  544.000
438.019;  -83.600; -758.000; -503.000
438.142;  -81.675; -596.000; -506.000
438.265;   23.275; -639.000; -670.000
438.388;  750.025; -520.000; -410.000
438.511;  142.825; -597.000; -394.000
438.634;  -42.700; -247.000; -125.000
438.757; -127.250; -693.000; -619.000
438.880;  -12.650;  -34.000;  -57.000
439.003;  -81.275; -417.000; -437.000
439.126;  -66.925; -287.000; -167.000
439.248;  -65.375;  -98.000; -139.000
439.371;  -47.400;    9.000;  -53.000
439.494;   28.850;  510.000;  439.000
439.617;  -43.050;   65.000;  -88.000
439.740; -179.325; -968.000; -816.000
439.863; -146.975; -755.000; -595.000
439.986; -128.050; -476.000; -431.000
440.108;  -43.725; -161.000; -112.000
440.231; -174.850; -950.000; -836.000
440.354;  -36.850;  -64.000; -150.000
440.477;   79.475; -566.000; -542.000
440.599;   30.600; -200.000; -225.000
440.722; -131.575; -709.000; -586.000
440.845;   88.525;  751.000;  928.000
440.968; -108.275; -415.000; -311.000
441.090;  -69.175; -199.000;  -33.000
441.213; -175.125;-1021.000; -825.000
441.336;  -51.575; -159.000;   -5.000
441.458;  -61.850; -549.000; -396.000
441.581;  -63.625; -628.000; -629.000
441.703;  -66.850; -152.000;   13.000
441.826; -118.975; -557.000; -400.000
441.948;  -60.400;   56.000;   51.000
442.071;   32.375;  555.000;  424.000
442.193; -121.200; -531.000; -485.000
442.316;   40.775;  152.000;   97.000
442.438;   44.050; -233.000;  -10.000
442.561;   85.425;  272.000;  262.000
442.683;  803.975; -809.000; -522.000
442.806; 1525.550;   -8.000;   74.000
442.928;   74.700; -859.000; -604.000
443.051;  -41.250; -577.000; -373.000
443.173;  -86.975; -341.000; -339.000
443.295;  -84.450; -263.000; -371.000
443.418;  -67.050; -321.000;  -29.000
443.540;   -3.000; -106.000;   -4.000
443.662; -124.400; -563.000; -465.000
443.785;   -9.150;  335.000;  199.000
443.907; -113.925; -362.000; -208.000
444.029; -126.550; -767.000; -494.000
444.152; -150.100; -644.000; -554.000
444.274;  -30.350;  -18.000;  -24.000
444.396; -114.550; -461.000; -221.000
444.518; -130.125; -691.000; -454.000
444.640; -113.400; -268.000; -111.000
444.763;  -23.425;  388.000;  249.000
444.885; -118.950; -432.000; -392.000
445.007;  -50.025;   35.000;   86.000
445.129; -111.850; -610.000; -515.000
445.251; -107.925; -372.000; -439.000
445.373; -143.375; -537.000; -386.000
445.495;    8.100;  242.000;  350.000
445.617;   56.750;  853.000;  753.000
445.739;  -63.475; -215.000;  -97.000
445.861;  -24.450; -245.000; -112.000
445.984;  -23.500; -267.000; -101.000
446.105;  293.225; -418.000; -251.000
446.227;  794.125; -176.000;  -19.000
446.349;   23.525; -358.000; -249.000
446.471;  -96.600; -615.000; -448.000
446.593;  -55.450; -316.000;   19.000
446.715;   16.750;  -67.000;   41.000
446.837;   54.125;  697.000;  832.000
446.959;  -99.125; -457.000; -478.000
447.081; -140.575; -628.000; -518.000
447.203;   48.825;  862.000;  834.000
447.325;  -95.125; -270.000;   42.000
447.446;    7.825;  286.000;  530.000
447.568; -147.850; -921.000; -803.000
447.690;  -84.675; -236.000; -245.000
447.812; -158.400; -798.000; -519.000
447.933;  -17.975;  155.000;  127.000
448.055;  -72.925; -306.000; -261.000
448.177;  181.150;   31.000;   79.000
448.299;  153.300; -935.000; -727.000
448.420;   32.500;  -25.000;  159.000
448.542;  -47.975;   -3.000;   33.000
448.664;  -11.800;  109.000;  322.000
448.785;  -47.125;  265.000;   83.000
448.907;  -70.075; -614.000; -353.000
449.028;   -5.900; -771.000; -471.000
449.150;   61.675;  492.000;  589.000
449.272; -167.700;-1044.000; -913.000
449.393;   32.875;  612.000;  694.000
449.515; -156.550; -634.000; -581.000
449.636;  -50.975; -264.000; -155.000
449.758;   86.400;  763.000;  622.000
449.879;  -86.000; -498.000; -396.000
450.001;  -90.325; -149.000;  -49.000
450.122;  -31.650;  -95.000;  162.000
450.244;  -26.100;   37.000;  364.000
450.365; -105.850; -495.000; -301.000
450.486;  -37.050;   80.000;  268.000
450.608;    5.425;  393.000;  326.000
450.729;   62.525;  578.000;  645.000
450.850;  -10.950; -574.000; -466.000
450.972;  699.400; -552.000; -389.000
451.093; 4460.525;  190.000;  588.000
451.214; 1843.400; -516.000; -337.000
451.336;  353.700;  773.000;  579.000
451.457;   38.050;  264.000;  393.000
451.578;  -46.000; -118.000;  -74.000
451.699; -127.025; -546.000; -540.000
451.821;  -68.250; -284.000;  -50.000
451.942;  -12.850;  278.000;  285.000
452.063;   36.225;  228.000;  419.000
452.184;  535.650;  -54.000;  -49.000
452.305; 1015.825;  103.000;  170.000
452.427;   95.700; -549.000; -301.000
452.548;  -26.200;   23.000;   79.000
452.669;  -57.325; -257.000;  -89.000
452.790;  -42.050;    3.000;  -18.000
452.911;   -6.275;  195.000;  259.000
453.032;  -59.825; -289.000;  -60.000
453.153;  -41.525;  -29.000;   81.000
453.274;   63.825;  737.000;  868.000
453.395;  -48.800;  -51.000;  175.000
453.516;  134.400; 1317.000; 1388.000
453.637;  -85.600; -205.000; -150.000
453.758;  -47.450;   15.000;   69.000
453.879; -123.075; -462.000; -250.000
454.000;   71.250; 1086.000;  948.000
454.121; -117.700; -554.000; -326.000
454.242; -124.600; -599.000; -383.000
454.362;  -44.950;  -99.000;  114.000
454.483;  -32.950; -309.000; -229.000
454.604;   60.725;  512.000;  580.000
454.725; -111.300; -627.000; -555.000
454.846; -110.875; -474.000; -406.000
454.967;  -29.175;  230.000;  539.000
455.087;  -40.950;  179.000;  153.000
455.208;   18.250;  554.000;  856.000
455.329;  -60.975;  -22.000;   82.000
455.450;   38.950;  473.000;  633.000
455.570; -103.650; -234.000; -211.000
455.691;  -53.000;  201.000;  407.000
455.812;  -96.600; -270.000;  -92.000
455.932;  -65.000;  107.000;  -97.000
456.053;  -87.500;   36.000;   24.000
456.173; -120.675; -433.000; -355.000
456.294; -140.050; -476.000; -303.000
456.415;  -55.100;  -73.000;   70.000
456.535;  -33.850;  297.000;  273.000
456.656;  -37.950;  132.000;  240.000
456.776;  -61.925;    3.000;  298.000
456.897;   -9.075;  308.000;  513.000
457.017;  -84.275; -153.000;   -3.000
457.138; -104.200; -402.000; -249.000
457.258;  -39.700;  263.000;  224.000
457.379;   -1.850;  509.000;  521.000
457.499;  -20.500;  443.000;  432.000
457.620; -128.350; -407.000; -231.000
457.740; -108.225; -132.000;  -11.000
457.860;  -61.725;   87.000;   44.000
457.981;  -43.475;  132.000;  124.000
458.101;  -74.400;  -89.000;   40.000
458.221;   -4.225;  336.000;  402.000
458.342;  -62.175;   -4.000;  -37.000
458.462;   14.925;  617.000;  352.000
458.582;  -43.600; -302.000; -294.000
458.703;   -5.425;  303.000;  154.000
458.823;  -38.975;   22.000;  163.000
458.943;   20.475;  341.000;  467.000
459.063;  -19.050; 1124.000;  192.000
459.183;  -33.000;  328.000;  313.000
459.304;   20.750;  315.000;  517.000
459.424;  -70.450; -246.000;  -89.000
459.544;  318.775;  388.000;  764.000
459.664;  766.100;  499.000;  506.000
459.784;  285.625; 1004.000; 1175.000
459.904;   45.300;  867.000;  744.000
460.024;   71.375;  867.000;  684.000
460.144;   19.575;  449.000;  554.000
460.264;    3.750;  515.000;  327.000
460.385;  -88.350; -145.000; -119.000
460.505;   23.825;  905.000;  858.000
460.625; -106.600;  -17.000;  -68.000
460.745;  -23.675;  396.000;  541.000
460.864;  -47.875;  153.000;  469.000
460.984;   20.550;  499.000;  573.000
461.104;  153.600; 1656.000; 1775.000
461.224;   23.425;  657.000;  650.000
461.344;  -21.775;  431.000;  360.000
461.464;  -31.300;  258.000;  513.000
461.584;   -2.600;  283.000;  466.000
461.704;  -34.275;   58.000;  108.000
461.824;  -72.650;  238.000;  259.000
461.943;  -39.925;  191.000;  130.000
462.063;  -76.125;    2.000;  324.000
462.183;   25.225;  639.000;  717.000
462.303;  120.275; 1678.000; 1230.000
462.422;   29.175;  781.000;  840.000
462.542;  -42.200;  271.000;  391.000
462.662;   56.425;  353.000;  380.000
462.782;  227.675;  833.000;  572.000
462.901;  442.400;  545.000;  717.000
463.021;  263.800; 1702.000; 1638.000
463.141;  -17.700;  337.000;  770.000
463.260;  -20.825;  614.000;  474.000
463.380;   20.375;  902.000;  884.000
463.499;  -38.025;  342.000;  332.000
463.619;  -41.750;  581.000;  559.000
463.738;  122.400; 1644.000;  903.000
463.858;   17.450;  657.000;  811.000
463.978;  -33.650;  542.000;  396.000
464.097;   46.500;  921.000; 1114.000
464.217;  105.400; 1196.000; 1143.000
464.336;  106.250; 1068.000; 1130.000
464.455;  -35.125;  328.000;  659.000
464.575;   54.025;  597.000;  602.000
464.694;  188.125; 1204.000; 1179.000
464.814;  124.675; 1190.000; 1138.000
464.933;   86.125; 1095.000; 1027.000
465.052;   99.650; 1412.000; 1054.000
465.172;   91.300;  922.000;  799.000
465.291;  154.550; 1376.000; 1320.000
465.410;   16.175;  462.000;  735.000
465.530;   83.150; 1355.000; 1310.000
465.649;   67.750; 1209.000; 1273.000
465.768;  148.325; 1673.000; 1508.000
465.888;   57.750;  941.000; 1174.000
466.007;   95.975; 1335.000; 1440.000
466.126;   -8.450;  721.000;  641.000
466.245;   33.575; 1176.000; 1187.000
466.364;    9.000;  950.000; 1060.000
466.484;   52.425; 1024.000; 1213.000
466.603;   47.625; 1101.000; 1222.000
466.722;  112.850; 1490.000; 1769.000
466.841;   80.925; 1151.000; 1401.000
466.960;   37.900; 1069.000;  972.000
467.079;  136.350; 1971.000; 1786.000
467.198;   40.025; 1238.000; 1181.000
467.317;   84.050; 1768.000; 1162.000
467.436;   83.350; 1709.000; 1261.000
467.555;  128.075; 1796.000; 1746.000
467.674;   61.675; 1227.000; 1329.000
467.793;   26.100; 1376.000; 1374.000
467.912;   94.775; 1658.000; 1539.000
468.031;  146.300; 2038.000; 1930.000
468.150;  145.950; 1842.000; 1837.000
468.269;  199.675; 2313.000; 2090.000
468.388;  188.500; 2168.000; 2339.000
468.507;  254.225; 2884.000; 2903.000
468.626;  270.925; 2555.000; 2541.000
468.744;  138.050; 2018.000; 2174.000
468.863;  208.625; 2312.000; 2523.000
468.982;   87.600; 1503.000; 1555.000
469.101;  235.025; 2788.000; 2692.000
469.220;  154.425; 2333.000; 2176.000
469.338;  257.100; 2935.000; 3051.000
469.457;  206.675; 2719.000; 2545.000
469.576;  344.025; 3953.000; 3784.000
469.695;  240.825; 2877.000; 3066.000
469.813;  436.350; 4148.000; 4192.000
469.932;  391.225; 4255.000; 4485.000
470.051;  426.050; 4075.000; 4161.000
470.169;  825.075; 4470.000; 4338.000
470.288; 1389.325; 4700.000; 4809.000
470.406;  836.275; 5059.000; 5194.000
470.525;  612.900; 6101.000; 5787.000
470.644;  655.150; 6847.000; 6794.000
470.762;  812.200; 8397.000; 7873.000
470.881;  905.575; 8651.000; 8464.000
470.999; 1057.450; 9685.000; 9151.000
471.118; 1103.600;11174.000;10711.000

