
Integration time [ms]: 100.000
Averaging Nr. [scans]: 40
Smoothing Nr. [pixels]: 0
Data measured with spectrometer [name]: 2101012U2
Wave   ;Sample   ;Dark     ;Reference
[nm]   ;[counts] ;[counts] ;[counts] 

197.733;   46.225;  516.000;  404.000
197.879;  -60.550; -610.000; -634.000
198.025;  -41.825; -475.000; -420.000
198.171;  -56.775; -602.000; -612.000
198.317;  -24.025; -401.000; -316.000
198.463;  -66.425; -655.000; -404.000
198.609;   11.650;  181.000; -137.000
198.755;  -65.175; -644.000; -410.000
198.901;  -55.850; -505.000; -424.000
199.047;  -66.500; -615.000; -488.000
199.193;  -42.500; -230.000; -468.000
199.339;  -39.875; -222.000; -369.000
199.485;   42.200;  330.000;  271.000
199.631;   26.200;  227.000;  310.000
199.777;  -57.650; -466.000; -398.000
199.923;  -57.275; -610.000; -424.000
200.069;   -3.300; -141.000;  -58.000
200.215;   57.875;  128.000;  453.000
200.361;   30.625;  243.000;  477.000
200.507;  -59.225; -600.000; -373.000
200.653;  -23.300; -371.000; -194.000
200.798;  -26.225; -215.000; -125.000
200.944;    3.425; -146.000;  -41.000
201.090;   36.525;   61.000;  222.000
201.236;   -0.575; -116.000; -158.000
201.382;  124.500;  874.000;  903.000
201.528;   -3.075;  -58.000;  -48.000
201.674;  -49.200; -386.000; -293.000
201.819;  -59.325; -540.000; -439.000
201.965;  -73.050; -699.000; -447.000
202.111;  -27.825; -273.000; -226.000
202.257;  -29.300; -250.000; -238.000
202.402;   -2.425;   13.000;  -36.000
202.548;  -19.125; -169.000; -116.000
202.694;   63.700;  410.000; -183.000
202.840;  -64.300; -603.000; -531.000
202.985;  -69.475; -681.000; -639.000
203.131;  -98.725; -832.000; -666.000
203.277;  -18.400; -199.000; -262.000
203.423;  -43.625; -434.000; -520.000
203.568;  -30.000; -462.000; -237.000
203.714;  -46.975; -535.000; -542.000
203.860;  -86.225; -682.000; -641.000
204.005;   20.300;  112.000;  167.000
204.151;   71.250;  561.000;  556.000
204.296;  -45.575; -354.000; -221.000
204.442;  -64.700; -600.000; -547.000
204.588;  -80.025; -592.000; -579.000
204.733;   11.000;  178.000;  168.000
204.879; -121.725;-1018.000; -822.000
205.025;   -6.275;  -99.000;  126.000
205.170;    8.975;  -17.000;   94.000
205.316;   81.075;  438.000;  661.000
205.461;  -66.075; -698.000; -554.000
205.607;   84.475;  609.000;  665.000
205.752;  -70.700; -626.000; -551.000
205.898;  -38.300; -501.000; -391.000
206.043;  -62.125; -578.000; -506.000
206.189;  -46.200; -243.000; -285.000
206.334;   84.825;  554.000;  606.000
206.480;   65.050;  409.000;  239.000
206.625;  -65.850; -529.000; -552.000
206.771;  -35.925; -451.000; -373.000
206.916;  -30.925; -210.000; -537.000
207.062;  -68.600; -545.000; -591.000
207.207;  -51.700; -546.000; -443.000
207.353;   57.075;  185.000;  460.000
207.498;   22.250;  196.000;   85.000
207.643;  -42.150; -501.000; -370.000
207.789; -127.425;-1069.000; -910.000
207.934; -102.175; -665.000; -713.000
208.080;  -26.275; -154.000;   66.000
208.225;   -0.550;  -22.000;  -57.000
208.370;  -61.175; -727.000; -619.000
208.516;  -75.400; -741.000; -487.000
208.661;  -27.550; -127.000;  -69.000
208.806;  -17.600; -165.000; -171.000
208.952; -120.925;-1044.000; -731.000
209.097;   76.425;  378.000;  349.000
209.242;  -36.950; -307.000; -382.000
209.387;   91.000;  392.000;  350.000
209.533;  -56.675; -321.000; -350.000
209.678;   73.875;  472.000;  543.000
209.823;  -37.150; -408.000; -310.000
209.969;  -95.300; -860.000; -757.000
210.114;  -97.625; -907.000; -719.000
210.259; -110.350; -939.000; -889.000
210.404;   -4.525; -171.000;  103.000
210.549;    9.850;  108.000;    3.000
210.695;   -8.300;   -3.000;  -95.000
210.840;   33.700;   94.000;   67.000
210.985;  -51.300; -484.000; -303.000
211.130;   62.775;  268.000;  406.000
211.275;   34.525;  207.000;  199.000
211.420;  -73.275; -300.000; -289.000
211.566;  -57.800; -536.000; -489.000
211.711;   23.775;  218.000;  157.000
211.856;  -64.800; -545.000; -519.000
212.001;   16.575;  151.000;   44.000
212.146;   21.525;  153.000;   49.000
212.291;  -25.925; -210.000; -186.000
212.436;  -29.450; -280.000;   -6.000
212.581;  -83.325; -685.000; -653.000
212.726;  -72.350; -487.000; -538.000
212.871;  -56.925; -552.000; -217.000
213.016; -136.400;-1172.000;-1029.000
213.161;   62.825;  406.000;  291.000
213.306;  -67.400; -435.000; -577.000
213.451;  -96.950; -778.000; -689.000
213.596;  -27.875; -455.000; -347.000
213.741;  -54.675; -448.000; -538.000
213.886;  -75.900; -498.000; -517.000
214.031;  -41.075; -294.000; -124.000
214.176;  -40.650; -408.000; -341.000
214.321;  -12.975; -296.000; -157.000
214.466;  -32.525; -163.000;  -43.000
214.611;   -4.425;  -61.000;  -10.000
214.756; -123.275; -948.000; -858.000
214.901;  -21.200; -388.000; -226.000
215.046; -111.725; -797.000; -825.000
215.191;   33.525;  128.000;   35.000
215.336;  -21.550; -157.000;  -19.000
215.480;  -66.275; -684.000; -505.000
215.625;   -8.125; -175.000;  -19.000
215.770;  -80.400; -757.000; -662.000
215.915;   -0.825;   -5.000;  -97.000
216.060;   -2.325; -113.000;  -21.000
216.205;  -88.525; -731.000; -779.000
216.349;  -77.075; -470.000; -533.000
216.494; -124.625; -939.000; -867.000
216.639; -113.150; -823.000; -888.000
216.784;  -97.650; -577.000; -525.000
216.929;   55.175;  392.000;  281.000
217.073;  -14.350; -244.000;  -31.000
217.218;   10.400;   78.000;  -47.000
217.363;  -78.475; -656.000; -618.000
217.507;  -72.325; -623.000; -588.000
217.652; -109.750; -845.000; -874.000
217.797;  -85.625; -708.000; -659.000
217.942;  -98.750; -856.000; -720.000
218.086;   69.325;  608.000;  539.000
218.231;   -9.800; -174.000;  -26.000
218.376;  -36.100; -337.000; -229.000
218.520;    5.800;  -41.000;   96.000
218.665;  -36.750; -338.000; -204.000
218.810;  -31.800; -275.000; -233.000
218.954;    8.850;  201.000;   35.000
219.099; -100.750; -713.000; -963.000
219.243;  -63.950; -589.000; -554.000
219.388;  -36.325; -264.000; -136.000
219.532;   -6.050; -116.000; -116.000
219.677;  -72.300; -564.000; -521.000
219.822;   13.625;   33.000;   89.000
219.966;   18.375;   17.000;  -99.000
220.111;  -20.400; -328.000;  -40.000
220.255;  -88.800; -797.000; -750.000
220.400;  -12.250; -180.000; -146.000
220.544;  -59.300; -516.000; -450.000
220.689;  -66.075; -422.000; -451.000
220.833;  -26.300; -123.000;  -58.000
220.978;  -54.150; -393.000; -563.000
221.122;   30.625;  319.000;  307.000
221.267; -114.575; -906.000; -837.000
221.411;  -58.325; -478.000; -394.000
221.555;  -15.100; -104.000;  -23.000
221.700;  -40.225; -329.000; -222.000
221.844;   34.400;  255.000;  272.000
221.989;  -35.100; -328.000; -311.000
222.133;  -37.350; -289.000; -307.000
222.277;  -11.050;    5.000;   78.000
222.422;   20.150;  227.000;  113.000
222.566;  -38.725; -381.000; -214.000
222.711;  -59.550; -414.000; -479.000
222.855;  -89.350; -643.000; -586.000
222.999;  -81.350; -642.000; -717.000
223.144;  -20.125; -195.000; -194.000
223.288;   47.550;  423.000;  251.000
223.432;   34.975;  184.000;  230.000
223.576;   11.475;  152.000;  -21.000
223.721;   41.850;  364.000;  273.000
223.865;  -44.975; -472.000; -475.000
224.009;  222.900; 1673.000; 1631.000
224.153;  -63.600; -660.000; -671.000
224.298;  -65.350; -531.000; -489.000
224.442;  -19.625;  -74.000;  -33.000
224.586;   -4.425; -169.000; -106.000
224.730;  -98.375; -858.000; -670.000
224.875;  -95.950; -739.000; -688.000
225.019;   -4.275;  102.000;  188.000
225.163;   46.350;  208.000;  341.000
225.307;    9.175;   97.000;  -91.000
225.451;   46.250;  360.000;  481.000
225.595;   33.700;  264.000;  176.000
225.739;  -14.725; -170.000;  -94.000
225.884;   19.950;   86.000;    5.000
226.028;  -92.050; -760.000; -626.000
226.172;  -36.625; -260.000; -273.000
226.316; -113.925; -941.000; -902.000
226.460;  -67.800; -645.000; -493.000
226.604;  -46.525; -406.000; -400.000
226.748;  -92.300; -836.000; -733.000
226.892;  -37.700; -227.000; -181.000
227.036;  -35.750; -537.000; -447.000
227.180;  -46.625; -551.000; -375.000
227.324;  -75.750; -561.000; -580.000
227.468; -103.625; -819.000; -717.000
227.612;   17.875;  242.000;  -28.000
227.756;  -93.675; -845.000; -698.000
227.900;   50.525;  342.000;  441.000
228.044;  -45.525; -509.000; -290.000
228.188;   48.300;  448.000;  568.000
228.332;  -82.325; -546.000; -472.000
228.476;  -26.975; -223.000; -149.000
228.620;  -37.325; -210.000; -150.000
228.764;   60.200;  431.000;  349.000
228.908;  -13.900; -155.000;   30.000
229.052;  -64.550; -615.000; -528.000
229.195;   -9.900; -172.000;   13.000
229.339;  -18.850; -235.000; -305.000
229.483;  -29.525;    5.000; -162.000
229.627;  -13.150; -156.000;  139.000
229.771;  -48.550; -218.000; -294.000
229.915;   14.325;  230.000;   79.000
230.059;  -86.700; -648.000; -663.000
230.202;  -43.675; -370.000; -317.000
230.346;  -17.275; -107.000;  107.000
230.490;  -64.950; -489.000; -521.000
230.634; -108.425; -736.000; -553.000
230.777;   71.100;  478.000;  509.000
230.921;  -53.375; -450.000; -359.000
231.065;  -47.900; -246.000; -286.000
231.209;   16.600;  261.000;  265.000
231.352;    7.475;   54.000;   40.000
231.496;   21.550;  568.000;  188.000
231.640;  -75.000; -693.000; -621.000
231.783;   60.825;  546.000;  525.000
231.927;  -43.525; -294.000; -365.000
232.071; -111.475; -962.000; -736.000
232.214; -110.375; -980.000; -764.000
232.358;  -88.100; -683.000; -599.000
232.502;   -2.450;  -19.000;    7.000
232.645; -132.125;-1090.000; -927.000
232.789;  -31.450; -257.000; -218.000
232.933;  -46.500; -407.000; -224.000
233.076; -121.650;-1038.000; -897.000
233.220;  -99.700; -752.000; -777.000
233.363;  -70.575; -669.000; -477.000
233.507;   55.500;  371.000;  129.000
233.650;  -93.350; -764.000; -834.000
233.794;   38.750;  438.000;  461.000
233.938;  -64.225; -530.000; -362.000
234.081;  -14.325;  -93.000;   31.000
234.225;  -72.825; -631.000; -539.000
234.368; -100.050; -773.000; -723.000
234.512;  -30.700; -385.000; -299.000
234.655;  -87.950; -582.000; -555.000
234.798;  -59.500; -493.000; -466.000
234.942; -121.850; -884.000;-1002.000
235.085;  -78.025; -651.000; -443.000
235.229;  -64.075; -405.000; -410.000
235.372;  -52.350; -247.000; -191.000
235.516;  -48.875; -397.000; -321.000
235.659;   15.225;   92.000;  121.000
235.802;  -22.750;  -38.000;  -22.000
235.946;   30.400;  335.000;  215.000
236.089;   30.900;  126.000;  250.000
236.233;   48.475;  275.000;  298.000
236.376;  -51.600; -235.000; -378.000
236.519;  -31.475; -297.000; -319.000
236.663;  -22.500; -215.000; -117.000
236.806; -126.600;-1029.000; -999.000
236.949;   51.675;  543.000;  431.000
237.092;   54.775;  412.000;  391.000
237.236;  -86.325; -589.000; -502.000
237.379;   53.625;  352.000;  428.000
237.522; -118.075; -879.000; -768.000
237.666;  -11.075; -271.000;   18.000
237.809; -111.325; -851.000; -823.000
237.952;   26.250;  469.000;  271.000
238.095;  -66.400; -447.000; -442.000
238.238;   85.225;  688.000;  700.000
238.382;   -0.875;  166.000;  103.000
238.525;  -72.250; -598.000; -511.000
238.668; -138.650;-1060.000; -985.000
238.811;  -88.550; -638.000; -643.000
238.954;  -61.200; -483.000; -334.000
239.097;   93.825;  617.000;  664.000
239.241;   25.825;  394.000;  326.000
239.384;  -39.575; -254.000; -214.000
239.527;  -51.050; -424.000; -224.000
239.670; -130.925; -994.000;-1091.000
239.813;  -97.625; -696.000; -658.000
239.956;   70.850;  579.000;  473.000
240.099;  -97.300; -778.000; -725.000
240.242;   59.025;  428.000;  432.000
240.385;   34.775;  466.000;  450.000
240.528;  -61.250; -706.000; -473.000
240.671;   12.150;  189.000;  134.000
240.814;  -42.400; -441.000; -158.000
240.957;  -89.500; -767.000; -578.000
241.100;  -80.275; -779.000; -755.000
241.243; -144.225;-1234.000; -893.000
241.386;  -62.700; -508.000; -379.000
241.529;  -85.925; -735.000; -547.000
241.672;  -50.950; -566.000; -495.000
241.815; -112.875; -832.000; -808.000
241.958;  -22.075; -125.000; -182.000
242.101;  -68.900; -545.000; -390.000
242.244;  -38.825; -270.000; -325.000
242.387;  -33.175; -304.000; -246.000
242.530;   52.775;  470.000;  134.000
242.673;  -44.625; -381.000; -309.000
242.815; -109.300; -925.000; -899.000
242.958;  -54.400; -482.000; -381.000
243.101;   16.000;  132.000;  187.000
243.244;  -74.975; -564.000; -521.000
243.387;  -43.050; -313.000; -316.000
243.530;  -85.175; -657.000; -674.000
243.672;   -2.050;   43.000;  -92.000
243.815;  -59.775; -355.000; -283.000
243.958;  -12.125;   98.000;  -26.000
244.101;   -2.300;   59.000;  -16.000
244.243;   -2.425;  -47.000;  101.000
244.386; -114.475; -761.000; -630.000
244.529;  -17.850; -132.000; -139.000
244.672; -142.900;-1154.000; -951.000
244.814;  -83.225; -621.000; -794.000
244.957;  -45.475; -380.000; -304.000
245.100;  -61.200; -489.000; -489.000
245.242;  -57.050; -387.000; -374.000
245.385;  -22.350;  -59.000;  -39.000
245.528; -120.550; -871.000; -705.000
245.670;   85.025;  612.000;  634.000
245.813;  -84.300; -599.000; -547.000
245.956;  -34.375; -324.000; -275.000
246.098;  -70.475; -508.000; -650.000
246.241;   11.525;  194.000;   48.000
246.383;  -24.275; -119.000;  -73.000
246.526;  -79.350; -454.000; -525.000
246.669; -113.375; -889.000; -780.000
246.811;    9.275;  172.000;   -1.000
246.954;  -54.725; -512.000; -426.000
247.096;  -19.700;  -84.000;   -6.000
247.239;  -67.650; -482.000; -445.000
247.381;  -79.250; -647.000; -488.000
247.524;   92.050;  645.000;  679.000
247.666;  -18.200;   58.000;   11.000
247.809; -125.425; -887.000; -691.000
247.951;  -16.700;  -75.000;  138.000
248.094;   20.125;  432.000;  308.000
248.236; -150.850;-1262.000;-1238.000
248.378;  -21.475; -356.000;  -81.000
248.521;  -40.475; -334.000; -337.000
248.663;  -42.800; -236.000; -267.000
248.806;  -24.075; -300.000; -266.000
248.948; -107.750; -886.000; -763.000
249.090;  -64.575; -428.000; -398.000
249.233;  -59.150; -344.000; -381.000
249.375;  -68.875; -474.000; -451.000
249.518;  -14.250;  -83.000; -133.000
249.660;  -14.575; -103.000;    3.000
249.802; -163.650;-1303.000;-1189.000
249.945;  -65.650; -612.000; -540.000
250.087; -102.125; -834.000; -768.000
250.229;  -50.475; -362.000; -480.000
250.371;  -78.275; -494.000; -439.000
250.514;  -52.375; -310.000; -244.000
250.656;  -15.550;   69.000;  102.000
250.798; -102.800; -849.000; -800.000
250.940;  -63.725; -322.000; -322.000
251.083;  -26.350; -335.000; -111.000
251.225;   48.525;  338.000;  310.000
251.367;  -43.775; -274.000; -373.000
251.509;  -29.075; -265.000; -210.000
251.651;  -91.050; -731.000; -671.000
251.794;   47.450;  538.000;  632.000
251.936; -110.150; -821.000; -747.000
252.078;  -76.225; -540.000; -461.000
252.220;  -66.175; -645.000; -477.000
252.362;   53.375;  344.000;  462.000
252.504;  -79.125; -677.000; -584.000
252.646; -101.625; -875.000; -722.000
252.788;  -20.525;   14.000; -128.000
252.931;  -47.075; -257.000; -253.000
253.073;  -50.250; -376.000; -317.000
253.215;   -8.550;  141.000;  122.000
253.357;  -23.675;   82.000; -153.000
253.499;  -49.625; -374.000; -234.000
253.641;  -75.750; -749.000; -594.000
253.783;  -95.275; -609.000; -527.000
253.925; -101.375; -586.000; -591.000
254.067;  -99.650; -744.000; -667.000
254.209;  -39.450; -391.000; -259.000
254.351; -125.825; -865.000; -883.000
254.493;  -68.450; -441.000; -417.000
254.635; -132.875; -936.000; -818.000
254.777;  -84.875; -752.000; -687.000
254.918;  -65.675; -512.000; -430.000
255.060;  -64.525; -551.000; -395.000
255.202;  -63.525; -473.000; -261.000
255.344;  -85.975; -658.000; -455.000
255.486;  -71.625; -471.000; -406.000
255.628; -100.900; -780.000; -781.000
255.770;  -95.100; -676.000; -536.000
255.912;  -68.300; -559.000; -468.000
256.053;  -82.650; -730.000; -508.000
256.195;  144.675; 1008.000;  903.000
256.337;  -96.125; -861.000; -595.000
256.479;   42.400;  532.000;  416.000
256.621;  -44.025; -394.000; -212.000
256.762; -103.900; -789.000; -742.000
256.904;   55.100;  485.000;  487.000
257.046;  -56.200; -381.000; -271.000
257.188;  -56.150; -351.000; -264.000
257.329;  -66.375; -525.000; -464.000
257.471; -106.500; -939.000; -807.000
257.613;  -80.900; -584.000; -498.000
257.755; -142.975;-1073.000; -982.000
257.896;   25.700;  286.000;  392.000
258.038;  -61.625; -403.000; -352.000
258.180;  -58.700; -354.000; -279.000
258.321;  -81.300; -581.000; -457.000
258.463;  -18.700;  -71.000;  133.000
258.605;  -85.400; -562.000; -570.000
258.746; -109.775; -886.000; -772.000
258.888; -133.875;-1026.000;-1020.000
259.029;   24.025;  121.000;   -8.000
259.171;  -86.700; -614.000; -550.000
259.313;   -3.175;  -49.000;  -47.000
259.454;  -82.225; -536.000; -414.000
259.596;  -62.700; -483.000; -390.000
259.737;  -66.550; -590.000; -474.000
259.879;   40.425;  217.000;  311.000
260.020;   84.250;  901.000;  636.000
260.162;  -23.075; -146.000; -253.000
260.303; -104.950; -768.000; -687.000
260.445;  -92.875; -609.000; -613.000
260.586;   24.950;  392.000;  157.000
260.728;  -38.300; -360.000; -248.000
260.869;  -65.100; -350.000; -343.000
261.011;   74.000;  706.000;  537.000
261.152;  -56.125; -479.000; -319.000
261.293;  -82.075; -576.000; -595.000
261.435;  -27.950; -219.000; -184.000
261.576;  -53.875; -455.000; -325.000
261.718;   44.700;  420.000;  470.000
261.859; -122.425; -940.000; -949.000
262.000; -124.725; -951.000;-1016.000
262.142;  -16.675;  -52.000;  -60.000
262.283; -109.925; -808.000; -691.000
262.424;  -95.700; -666.000; -625.000
262.566; -142.300;-1161.000; -983.000
262.707; -108.150; -840.000; -830.000
262.848; -126.375; -769.000; -726.000
262.990;  -48.900; -362.000; -345.000
263.131;   68.600;  650.000;  681.000
263.272;  -16.875;  -61.000;  -41.000
263.413;  -80.375; -589.000; -561.000
263.555;  -65.825; -669.000; -143.000
263.696;  -80.025; -550.000; -641.000
263.837;  -65.800; -449.000; -551.000
263.978;  -10.725;   -5.000;  -77.000
264.119;  -55.150; -283.000; -264.000
264.261; -106.575; -847.000; -630.000
264.402;   -3.075;   33.000;   40.000
264.543;  -68.550; -509.000; -524.000
264.684;  -12.450;   61.000;  -50.000
264.825;  -55.675; -816.000; -538.000
264.966;    1.575;  -84.000;  -67.000
265.107; -109.350; -646.000; -670.000
265.248; -119.325; -825.000; -812.000
265.390;   -8.650;  152.000;   -9.000
265.531;  -19.025; -238.000; -107.000
265.672;  -82.925; -557.000; -630.000
265.813;   44.175;  563.000;  439.000
265.954; -136.375; -959.000; -940.000
266.095;  -16.100; -372.000; -322.000
266.236; -104.300; -686.000; -548.000
266.377;  -45.250; -243.000; -297.000
266.518;  -78.625; -619.000; -547.000
266.659;   25.425;  170.000;  268.000
266.800;    2.850;   83.000;   85.000
266.941;  -69.925; -487.000; -478.000
267.082;    8.100;  354.000;   99.000
267.223;  -49.775; -344.000; -273.000
267.364; -111.175; -892.000; -686.000
267.504;  -19.100;    3.000;  135.000
267.645;    6.150;  160.000;   67.000
267.786;  -41.025; -147.000;  -86.000
267.927;  -64.150; -473.000; -379.000
268.068;  -29.725; -186.000;  -61.000
268.209;  -50.950; -175.000; -413.000
268.350;  -57.600; -388.000; -532.000
268.490;  -84.525; -648.000; -521.000
268.631;   31.425;  127.000;  225.000
268.772; -105.100; -874.000; -647.000
268.913;  -62.275; -328.000; -476.000
269.054;  -21.650; -117.000;   12.000
269.194;  -64.975; -418.000; -402.000
269.335; -159.325;-1137.000;-1074.000
269.476;  -23.625;   33.000;  -35.000
269.617;  -47.275; -347.000; -392.000
269.757;  -90.225; -713.000; -646.000
269.898;  -89.550; -856.000; -613.000
270.039;  -71.100; -415.000; -405.000
270.180; -121.475; -952.000; -816.000
270.320;  -32.825; -190.000; -250.000
270.461;  -43.850; -277.000; -249.000
270.602;  -31.200; -186.000; -156.000
270.742; -120.525; -868.000; -943.000
270.883;  -65.850; -442.000; -390.000
271.023;  -68.100; -358.000; -357.000
271.164;  -72.875; -607.000; -528.000
271.305; -101.275; -666.000; -654.000
271.445;  -90.000; -722.000; -683.000
271.586;  -70.600; -462.000; -283.000
271.726;  -49.375; -397.000; -322.000
271.867;  -78.450; -594.000; -534.000
272.008;   42.700; -473.000; -285.000
272.148;   55.375;  462.000;  468.000
272.289;   -6.575; -113.000; -181.000
272.429;    0.950;   19.000;  185.000
272.570;  -93.375; -633.000; -737.000
272.710; -103.350; -825.000; -775.000
272.851;  -23.050;  113.000; -130.000
272.991; -165.075;-1173.000;-1077.000
273.131;  -73.475; -419.000; -459.000
273.272; -105.150; -683.000; -723.000
273.412;  -27.575; -143.000;  -31.000
273.553;  -68.350; -488.000; -507.000
273.693;  107.425;  913.000;  858.000
273.834; -114.100; -894.000; -692.000
273.974;  -83.350; -664.000; -615.000
274.114; -109.200; -772.000; -560.000
274.255;   45.500;  414.000;  373.000
274.395;  -17.425; -180.000; -125.000
274.535;   29.200;  199.000;  350.000
274.676;   15.525;  225.000;   94.000
274.816;   -5.650;  110.000;   34.000
274.956;  -92.600; -624.000; -690.000
275.097;  -98.500;-1014.000; -922.000
275.237; -121.100; -913.000; -803.000
275.377;  -99.675; -778.000; -689.000
275.517; -142.250; -878.000; -937.000
275.658;  -71.750; -590.000; -555.000
275.798;  -76.875; -606.000; -413.000
275.938;   20.250;  215.000;  323.000
276.078;  -67.550; -626.000; -395.000
276.218;  -10.175;   99.000;  104.000
276.359; -136.250;-1026.000;-1024.000
276.499;  -74.450; -605.000; -446.000
276.639;  -38.125; -305.000; -151.000
276.779;  -49.225; -475.000; -357.000
276.919;  -98.925; -783.000; -624.000
277.059;  -26.700; -261.000; -212.000
277.199;  -54.225; -357.000; -259.000
277.340;   21.200;  287.000;  175.000
277.480; -103.375; -840.000; -693.000
277.620;   19.150;  192.000;   16.000
277.760; -200.925;-1533.000;-1294.000
277.900;   -2.975;  113.000;   33.000
278.040;   13.600;  137.000;  159.000
278.180;   22.225;  270.000;  170.000
278.320;   -1.600;   21.000;   56.000
278.460;  -65.675; -443.000; -469.000
278.600;  -94.400; -708.000; -598.000
278.740;   35.500;  448.000;  224.000
278.880; -112.300; -768.000; -791.000
279.020;  -29.150; -194.000; -144.000
279.160;  -95.200; -672.000; -595.000
279.300; -129.000; -926.000; -873.000
279.440; -101.950; -709.000; -622.000
279.579;  -81.550;-1014.000; -929.000
279.719;  -62.000; -410.000; -394.000
279.859;   30.775;   -4.000;   41.000
279.999;    1.475; -208.000;  101.000
280.139;  -43.975; -435.000; -387.000
280.279;  -83.850; -708.000; -745.000
280.419;  -21.475; -229.000; -147.000
280.559;  -47.675; -259.000; -180.000
280.698; -102.125; -790.000; -639.000
280.838; -108.325; -778.000; -800.000
280.978; -105.150; -846.000; -790.000
281.118; -112.950; -811.000; -704.000
281.257;    4.400;   24.000;    6.000
281.397; -146.175;-1094.000; -960.000
281.537; -100.425; -599.000; -712.000
281.677;  -26.725; -150.000; -101.000
281.816;  -89.150; -700.000; -630.000
281.956;  -36.475; -193.000; -257.000
282.096;  -63.100; -539.000; -396.000
282.235; -106.150; -672.000; -638.000
282.375;  -21.250; -243.000;  -98.000
282.515;  -95.400; -715.000; -707.000
282.654;   13.900;   29.000;  106.000
282.794;    6.450;  388.000;  244.000
282.934;  -57.175; -530.000; -491.000
283.073; -135.475;-1030.000; -857.000
283.213;  -55.975; -460.000; -467.000
283.353;  -50.025; -408.000; -349.000
283.492;  -52.000; -264.000; -296.000
283.632;  -47.200; -254.000; -168.000
283.771;  -98.675; -859.000; -730.000
283.911;  -63.450; -369.000; -260.000
284.050;  -98.275; -794.000; -748.000
284.190; -146.625;-1229.000;-1096.000
284.329; -140.075;-1055.000; -964.000
284.469;  -73.225; -516.000; -591.000
284.608;  -71.475; -559.000; -598.000
284.748;  -80.625; -614.000; -570.000
284.887;  -22.525;  -87.000;  -20.000
285.027; -123.150; -844.000; -892.000
285.166;  -54.925; -192.000; -249.000
285.306;  -15.150; -116.000;  -33.000
285.445;  -44.075; -229.000; -343.000
285.584;  -95.450; -630.000; -494.000
285.724;  -57.600; -282.000; -322.000
285.863; -104.250; -857.000; -507.000
286.002;  -52.175; -366.000; -276.000
286.142; -108.275; -715.000; -622.000
286.281;  -79.575; -525.000; -493.000
286.420;  -72.900; -554.000; -417.000
286.560;   86.175;  653.000;  623.000
286.699; -143.975; -958.000; -912.000
286.838;  -73.750; -590.000; -591.000
286.978;  -94.350; -533.000; -537.000
287.117; -134.525;-1085.000; -950.000
287.256;  -27.200; -228.000; -211.000
287.395;  -67.775; -197.000; -378.000
287.535;  -41.750; -370.000; -298.000
287.674;  -89.250; -509.000; -484.000
287.813;   43.000;  661.000;  533.000
287.952; -127.150;-1010.000; -871.000
288.091; -141.025;-1049.000; -915.000
288.231;   -4.950;   13.000;   15.000
288.370; -172.075;-1217.000;-1200.000
288.509;  -95.975; -728.000; -645.000
288.648;  -78.525; -770.000; -548.000
288.787;  -36.400; -243.000;  -87.000
288.926;  -73.875; -454.000; -475.000
289.065;   90.025;  859.000;  672.000
289.204;  -49.075; -377.000; -217.000
289.344; -108.375; -791.000; -690.000
289.483;    8.325;  416.000;  304.000
289.622;  -41.000; -291.000; -149.000
289.761;  -32.150; -309.000; -166.000
289.900; -113.250; -785.000; -626.000
290.039;  -13.325;  -12.000;  -95.000
290.178;  -38.100; -274.000; -180.000
290.317;  -76.800; -618.000; -479.000
290.456;  -69.525; -463.000; -451.000
290.595; -126.175; -961.000; -833.000
290.734; -132.500; -904.000; -891.000
290.873;  -77.825; -456.000; -420.000
291.011; -111.050; -833.000; -843.000
291.150; -109.675; -770.000; -682.000
291.289;  -34.250; -343.000; -110.000
291.428;  -92.025; -599.000; -480.000
291.567;  -49.450; -370.000; -442.000
291.706;  -12.525;  109.000;  154.000
291.845;  -88.175; -597.000; -505.000
291.984; -173.200;-1234.000;-1061.000
292.122;   53.850;  602.000;  582.000
292.261;   42.925;  620.000;  463.000
292.400;   -4.600; -144.000;  211.000
292.539; -114.750; -959.000; -813.000
292.678;  -37.325; -325.000; -300.000
292.816; -152.725;-1136.000; -965.000
292.955; -103.375; -844.000; -684.000
293.094;  -33.125; -173.000; -337.000
293.233;  -66.850; -556.000; -400.000
293.371;  -38.300; -225.000;  -84.000
293.510; -106.900; -866.000; -780.000
293.649; -133.775; -959.000; -924.000
293.787; -125.700;-1083.000;-1012.000
293.926;  -13.500; -113.000;  -32.000
294.065;  -58.725; -379.000; -290.000
294.203;   32.275;  298.000;  406.000
294.342;   21.875;   74.000;  156.000
294.481; 5846.175;51180.000; -836.000
294.619;  -36.625; -425.000; -582.000
294.758; -161.725;-1230.000;-1137.000
294.896;    5.200; -125.000;    5.000
295.035; -141.950;-1040.000;-1006.000
295.174; -134.225;-1082.000; -954.000
295.312;  -47.000; -323.000; -203.000
295.451;  -40.050; -307.000; -428.000
295.589;  -65.000; -389.000; -518.000
295.728;    4.000; -292.000; -165.000
295.866;  -12.175;  -36.000;  -51.000
296.005;  -74.925; -584.000; -341.000
296.143;  -87.450; -558.000; -596.000
296.282; -104.725; -957.000; -881.000
296.420;  -87.925; -657.000; -557.000
296.559;  -93.275; -892.000; -633.000
296.697;  -56.425; -847.000; -665.000
296.835;  -89.900;-1141.000;-1002.000
296.974;    9.300;  -23.000;   39.000
297.112;  -47.250; -443.000; -504.000
297.251;  -83.225; -815.000; -755.000
297.389;  -26.875; -576.000; -438.000
297.527;  -10.150; -145.000;  -83.000
297.666;  -76.050; -486.000; -438.000
297.804;  -65.400; -404.000; -264.000
297.942;  -16.275; -136.000; -161.000
298.081;  -11.375; -183.000;   63.000
298.219;    8.250;  -17.000;  -19.000
298.357;   -3.650; -144.000;  -71.000
298.495;  -78.150; -810.000; -812.000
298.634;   16.775;  245.000;  219.000
298.772;  -30.550; -220.000; -338.000
298.910;  -57.075; -309.000; -182.000
299.048;  -26.275; -130.000; -153.000
299.187;  -51.050; -350.000; -250.000
299.325;    0.200;   52.000;  122.000
299.463;  -40.400; -389.000; -299.000
299.601;    1.425; -327.000; -271.000
299.739; -133.100; -908.000; -883.000
299.877;  -99.975; -791.000; -703.000
300.016; -108.475;-1095.000; -935.000
300.154;   31.275;  -19.000; -161.000
300.292;  -32.075; -428.000; -348.000
300.430;  -27.575; -408.000; -291.000
300.568; -128.150; -940.000; -874.000
300.706;  -70.375; -366.000; -469.000
300.844; -124.025;-1108.000; -979.000
300.982;   55.525;  246.000;  282.000
301.120; -135.925; -965.000; -866.000
301.258; -102.700; -812.000; -705.000
301.396;    8.125;  104.000;  -41.000
301.534;  -36.375; -218.000; -293.000
301.672;  -82.525; -664.000; -521.000
301.810;  -73.300; -613.000; -545.000
301.948;   11.225;   53.000;  149.000
302.086;  186.000; -250.000;  -32.000
302.224;  229.900; -610.000; -585.000
302.362;  -75.375; -558.000; -622.000
302.500; -103.725; -923.000; -893.000
302.638;   33.975;  128.000;  245.000
302.776;  -41.600; -352.000; -408.000
302.913;   25.275;  447.000;  236.000
303.051;  -44.800;  -86.000;  -23.000
303.189;    8.375;   90.000;  118.000
303.327;  -60.100; -341.000; -256.000
303.465;  -85.200; -832.000; -588.000
303.603;  -98.425; -805.000; -604.000
303.740;   45.450;  417.000;  241.000
303.878;  -82.350; -800.000; -759.000
304.016; -111.125; -915.000; -790.000
304.154; -142.350;-1123.000;-1152.000
304.291;  -62.425; -505.000; -554.000
304.429;   -5.200;  102.000;   74.000
304.567; -136.450; -908.000; -893.000
304.705;  -73.075; -408.000; -515.000
304.842;  -32.175; -616.000; -540.000
304.980;   13.050;  215.000;   35.000
305.118;  -28.075; -367.000; -365.000
305.255; -124.300; -945.000; -927.000
305.393;   28.900;  178.000;  239.000
305.531; -136.225;-1173.000; -956.000
305.668;  -83.925; -663.000; -582.000
305.806;   11.575; -358.000; -439.000
305.943;  -29.750; -629.000; -637.000
306.081;  -13.975; -378.000; -267.000
306.219; -109.975; -863.000; -748.000
306.356;   -3.475;  158.000;   27.000
306.494;  106.000;  981.000;  761.000
306.631;   -9.950;  -11.000;  -55.000
306.769;  -35.450; -613.000; -485.000
306.906;  -27.650; -284.000; -258.000
307.044;  -62.500; -473.000; -488.000
307.181;  -55.900; -410.000; -332.000
307.319;   -0.575;  112.000;   87.000
307.456; -171.025;-1191.000;-1153.000
307.594; -118.500; -980.000; -727.000
307.731;  -25.000; -371.000; -164.000
307.868;  -17.975;  -15.000;   20.000
308.006; -129.700; -961.000; -847.000
308.143;  -71.450; -618.000; -330.000
308.281;   30.675;  -37.000; -254.000
308.418;  -75.600; -748.000; -640.000
308.555;  -79.000; -400.000; -250.000
308.693;  -74.475; -577.000; -573.000
308.830;  -99.525; -712.000; -657.000
308.967;  -26.775; -215.000;  -95.000
309.105;  -46.450; -507.000; -396.000
309.242;  -22.400; -468.000; -367.000
309.379;   28.475; -577.000; -655.000
309.517; -110.625; -936.000; -948.000
309.654; -111.375; -910.000; -734.000
309.791;  -87.925; -662.000; -580.000
309.928; -132.600; -977.000; -914.000
310.065;  114.600;  819.000;  697.000
310.203;  -86.400; -825.000; -850.000
310.340;  -46.475; -465.000; -321.000
310.477;  -79.825; -412.000; -516.000
310.614;  -73.600; -383.000; -473.000
310.751;  -68.575; -427.000; -518.000
310.889;  -22.300;    1.000;   11.000
311.026; -147.500;-1161.000; -939.000
311.163;  -52.050; -386.000; -380.000
311.300;  -72.700; -512.000; -479.000
311.437;  -70.200; -658.000; -619.000
311.574; -152.050;-1226.000; -985.000
311.711;  -63.550; -595.000; -433.000
311.848;  -40.475; -380.000; -388.000
311.985;    0.925;  270.000;   93.000
312.122; -114.475; -932.000; -762.000
312.259; -115.175; -941.000; -994.000
312.396;  -75.400; -508.000; -551.000
312.533;  -92.325; -812.000; -790.000
312.670; -132.725;-1070.000; -898.000
312.807;  -17.750; -352.000; -367.000
312.944;  -72.525; -513.000; -611.000
313.081;  -31.425; -150.000; -415.000
313.218;  -83.125;-1111.000; -867.000
313.355;  -13.325; -531.000; -449.000
313.492;  -17.025; -455.000; -292.000
313.629;  111.350;  815.000;  735.000
313.766; -147.750;-1176.000;-1008.000
313.902;  -22.225; -186.000;   21.000
314.039;  -41.700; -372.000; -289.000
314.176;   17.525;  286.000;  192.000
314.313;  -71.050; -569.000; -473.000
314.450;  -76.550; -788.000; -684.000
314.587;  -60.600; -468.000; -480.000
314.723;    4.850;  -78.000;  130.000
314.860;   25.375;  318.000;  332.000
314.997;   23.875;  223.000;  142.000
315.134;  -49.575; -385.000; -368.000
315.270;  -15.650; -480.000; -496.000
315.407; -119.625;-1094.000; -967.000
315.544;  -49.900; -657.000; -538.000
315.681;  -60.950; -681.000; -565.000
315.817;   24.550; -133.000; -176.000
315.954;   36.800; -613.000; -392.000
316.091; -121.750;-1045.000;-1023.000
316.227;  -31.825;  -71.000; -179.000
316.364;  -10.200;   23.000;    6.000
316.500;  -54.800; -113.000; -300.000
316.637;  -50.225; -181.000; -302.000
316.774;  -86.025; -625.000; -358.000
316.910;  -93.600; -598.000; -629.000
317.047;  -71.800; -487.000; -351.000
317.183;  -64.275; -435.000; -566.000
317.320;   35.575; -367.000; -321.000
317.456;  -37.200; -733.000; -805.000
317.593;  -85.525; -598.000; -641.000
317.729;  -11.350;  168.000;  -67.000
317.866; -188.925;-1434.000;-1285.000
318.002;  -94.775; -708.000; -948.000
318.139; -118.775; -883.000; -867.000
318.275; -106.325;-1003.000; -738.000
318.412;  -74.400; -517.000; -336.000
318.548;  -87.575; -751.000; -720.000
318.685; -106.950; -985.000; -888.000
318.821;  -87.725; -762.000; -735.000
318.957;  -15.000;   34.000;  -23.000
319.094;   28.150;  297.000;  154.000
319.230;  -88.825; -756.000; -742.000
319.367;   -9.550; -471.000; -520.000
319.503;  -35.600; -538.000; -436.000
319.639; -114.900; -877.000; -793.000
319.775;  -98.575; -750.000; -685.000
319.912;  -78.850; -424.000; -519.000
320.048; -105.175;-1184.000;-1184.000
320.184;   77.900;   59.000;   70.000
320.321;  -51.925; -497.000; -467.000
320.457;   58.150;  475.000;  662.000
320.593;  -62.400; -375.000; -382.000
320.729; -102.125; -732.000; -734.000
320.866;  -70.725; -577.000; -635.000
321.002; -109.200; -759.000; -809.000
321.138;  -39.775; -135.000; -211.000
321.274;    7.950; -148.000; -115.000
321.410;  -57.475; -585.000; -353.000
321.546;  -99.800;-1011.000; -911.000
321.683;    6.325;  400.000;  185.000
321.819;  -16.475;  -48.000; -117.000
321.955; -122.925; -743.000; -722.000
322.091;  -64.250; -585.000; -540.000
322.227;  -51.000; -382.000; -202.000
322.363;  -63.350; -320.000; -215.000
322.499;  -50.350; -343.000; -331.000
322.635;   96.875;  636.000;  443.000
322.771;   -8.425; -139.000;   12.000
322.907;   29.350;  129.000;  327.000
323.043;  -50.975; -115.000; -206.000
323.179;  -55.925; -394.000; -363.000
323.315;  -57.225; -401.000; -371.000
323.451;   13.175; -328.000; -236.000
323.587;   44.050;  -60.000;  -77.000
323.723;  -54.500; -682.000; -601.000
323.859;  -21.975; -258.000;  -76.000
323.995;  -59.050; -467.000; -409.000
324.131; -125.050; -967.000; -892.000
324.267;  -49.775; -254.000; -276.000
324.402; -132.625; -960.000; -983.000
324.538;  -39.675; -279.000; -104.000
324.674;    2.325;  164.000;   77.000
324.810;   32.750;  226.000;  308.000
324.946;  -42.775; -810.000; -658.000
325.082;  -75.025; -568.000; -475.000
325.217;  -13.875;  -62.000;   16.000
325.353; -104.725; -764.000; -659.000
325.489;  -93.900; -540.000; -506.000
325.625;  -66.725; -579.000; -525.000
325.760;   75.125;  517.000;  376.000
325.896;    2.100; -515.000; -702.000
326.032;  -58.300; -403.000; -352.000
326.168;  -81.600; -462.000; -369.000
326.303;  -72.425; -352.000; -461.000
326.439;  -20.800; -336.000; -276.000
326.575;    7.025; -190.000;  -29.000
326.710;  -33.825; -156.000;  -30.000
326.846;  -10.500;  146.000;  103.000
326.982;  -94.800; -530.000; -548.000
327.117;  -57.400; -481.000; -442.000
327.253;  -77.650; -745.000; -742.000
327.388; -152.625;-1137.000;-1153.000
327.524;  -95.075; -811.000; -578.000
327.659;  -26.250;  -58.000;  -22.000
327.795;  -23.475;   69.000;   45.000
327.931;  -65.300; -723.000; -499.000
328.066;  -35.300; -417.000; -276.000
328.202;  -28.025;   12.000; -129.000
328.337;  104.250;  957.000;  713.000
328.473;   20.775;  -12.000;  -74.000
328.608;  -38.850; -256.000; -267.000
328.743; -109.150; -799.000; -664.000
328.879;   -7.350;  214.000;  114.000
329.014;  -27.725; -102.000; -122.000
329.150; -100.825; -358.000; -483.000
329.285;  -88.025; -465.000; -466.000
329.421;  -46.200; -548.000; -246.000
329.556;  -11.575;  -36.000;   85.000
329.691; -114.750; -633.000; -615.000
329.827;  -83.250; -626.000; -480.000
329.962;  -44.025;  131.000; -301.000
330.097;  -84.275; -673.000; -585.000
330.233;  -53.750; -410.000; -223.000
330.368; -115.225; -839.000; -628.000
330.503;  -15.225;    3.000;   98.000
330.638;  -18.200;  -93.000; -125.000
330.774;  -80.500; -609.000; -530.000
330.909;  -47.525; -434.000; -244.000
331.044;  -95.400; -714.000; -708.000
331.179; -167.250;-1217.000;-1109.000
331.315;   -7.900;   77.000;   20.000
331.450;   12.175;  157.000;  285.000
331.585;  -89.875; -805.000; -706.000
331.720;  -87.750; -510.000; -460.000
331.855;  -11.475;  -35.000; -102.000
331.990;  420.025;   62.000;  138.000
332.126;  199.575; -110.000;   71.000
332.261;    8.175; -379.000; -265.000
332.396;   18.725; -135.000; -242.000
332.531;  -55.300;-1074.000;-1031.000
332.666;   90.225; -519.000; -363.000
332.801;  -98.750; -726.000; -807.000
332.936;  -28.600; -192.000; -122.000
333.071; -138.375; -870.000; -817.000
333.206;   14.950;  307.000;  379.000
333.341;   17.650;  344.000;  418.000
333.476;  -92.550; -627.000; -623.000
333.611;  -52.150; -251.000; -173.000
333.746;  -46.375; -381.000; -464.000
333.881; -127.700; -973.000; -935.000
334.016; -118.400; -936.000; -917.000
334.151; -110.300; -746.000; -702.000
334.286;    5.925;  152.000;  186.000
334.421;  -25.275; -125.000; -178.000
334.556;  -82.325; -611.000; -567.000
334.690;  -86.400; -631.000; -577.000
334.825;   43.450;  381.000;   83.000
334.960;  -67.150; -285.000; -413.000
335.095;   -3.825;  135.000;  -91.000
335.230;  -92.050; -722.000; -738.000
335.365; -120.700;-1084.000; -990.000
335.499; -125.325;-1108.000;-1037.000
335.634;   -2.300;    9.000;  534.000
335.769;  -92.475; -755.000; -720.000
335.904;  -54.050; -603.000; -561.000
336.038;  -50.850; -735.000; -657.000
336.173; -113.600;-1206.000;-1194.000
336.308;   25.150; -116.000; -189.000
336.443;   58.075; -544.000; -634.000
336.577;  -55.600; -936.000; -787.000
336.712;   77.775;   -4.000;  -12.000
336.847;  -22.700; -724.000; -607.000
336.981;   58.800; -272.000; -208.000
337.116;  293.325;  615.000;  501.000
337.250;  118.525; -434.000; -421.000
337.385;  482.325; -297.000; -208.000
337.520;  217.175; -632.000; -603.000
337.654;  -28.325; -215.000; -126.000
337.789; -136.975; -989.000; -933.000
337.923;  -33.275; -104.000; -205.000
338.058; -116.525; -673.000; -738.000
338.192;  -65.350; -611.000; -488.000
338.327;  -21.000;  -18.000; -155.000
338.461;  -72.850; -299.000; -469.000
338.596;  -88.600; -780.000; -638.000
338.730;  -89.575; -767.000; -803.000
338.865;  160.025;  -46.000; -140.000
338.999;    4.500; -846.000; -702.000
339.134;    1.675; -634.000; -536.000
339.268;   33.500; -741.000; -603.000
339.403;  562.325; -740.000; -775.000
339.537;  265.750; -894.000; -820.000
339.671; -105.475; -829.000; -813.000
339.806;  -29.675; -556.000; -512.000
339.940;   35.850; -261.000; -235.000
340.074; -111.850; -685.000; -510.000
340.209;  -56.525; -351.000; -230.000
340.343;  -97.175; -517.000; -573.000
340.477;  109.700;  998.000; 1036.000
340.612;   15.000;-1033.000; -900.000
340.746;  234.800; -199.000; -243.000
340.880; -105.500; -924.000; -785.000
341.014;  -33.750;  -45.000; -154.000
341.149; -114.775; -756.000; -718.000
341.283; -114.525; -839.000; -754.000
341.417; -138.375;-1124.000; -938.000
341.551;  -36.550; -768.000; -708.000
341.685;  -65.675; -633.000; -611.000
341.820;  -56.325; -562.000; -493.000
341.954;  -48.800; -218.000; -349.000
342.088; -159.150;-1102.000;-1019.000
342.222;   46.425;  565.000;  618.000
342.356;  -79.475; -395.000; -335.000
342.490; -120.525; -880.000; -841.000
342.624;  -66.975; -339.000; -242.000
342.758;  -50.100; -364.000; -312.000
342.892; -107.150; -710.000; -585.000
343.026;  -49.975;  -58.000; -116.000
343.160;  -62.450; -426.000; -376.000
343.294;  -81.375; -474.000; -337.000
343.428;  -63.050; -488.000; -448.000
343.562;  -33.825; -172.000;  -23.000
343.696;  -55.525; -385.000; -314.000
343.830;  -61.200; -362.000; -356.000
343.964;  -23.150; -231.000; -168.000
344.098;  290.975;  199.000;   70.000
344.232;  247.875; -266.000; -127.000
344.366;   79.275; -567.000; -453.000
344.500;  -54.325; -665.000; -744.000
344.634;  -40.350; -324.000; -164.000
344.768;  -66.400; -531.000; -341.000
344.902;   -2.700;  278.000;  256.000
345.035;  -86.925; -556.000; -496.000
345.169; -143.300; -933.000; -656.000
345.303;  -65.475; -308.000; -482.000
345.437; -106.225; -826.000; -717.000
345.571;  -65.050; -675.000; -594.000
345.704;  -73.875; -309.000; -532.000
345.838;  -26.375; -331.000; -284.000
345.972;  -60.050; -543.000; -495.000
346.106;  244.600; -179.000; -190.000
346.239;  478.325; -312.000; -243.000
346.373;   -9.025; -343.000; -302.000
346.507; -129.775; -950.000; -962.000
346.640;   19.350;  -30.000;   13.000
346.774;  -94.250; -650.000; -797.000
346.908;  -28.275; -138.000;  -11.000
347.041; -112.250; -646.000; -593.000
347.175;  -11.825;  259.000;   27.000
347.309;  -96.825; -698.000; -628.000
347.442; -124.700; -883.000; -732.000
347.576;  112.275;  670.000;  668.000
347.709;   32.975; -123.000;  -52.000
347.843; -125.825; -933.000; -825.000
347.976;   17.525;  235.000;  294.000
348.110; -178.450;-1268.000;-1186.000
348.243; -120.125; -679.000; -772.000
348.377;   -9.150;  -26.000;   60.000
348.510;   51.100;  403.000;  540.000
348.644;  -59.350;  -37.000; -159.000
348.777;  -11.900;  180.000;  191.000
348.911;  -69.050; -142.000; -112.000
349.044;   70.925;  471.000;  448.000
349.178;  -42.150;-1069.000;-1006.000
349.311;  115.325;  141.000;  255.000
349.444;   32.375; -927.000; -813.000
349.578;  -34.725; -347.000; -200.000
349.711; -125.225; -959.000; -862.000
349.845;  -74.500; -661.000; -591.000
349.978; -166.600;-1224.000;-1137.000
350.111;  -91.925; -546.000; -612.000
350.244;  -97.300; -596.000; -700.000
350.378;  -54.750; -392.000; -393.000
350.511;  -76.250; -393.000; -426.000
350.644; -109.350; -808.000; -806.000
350.778;    4.675;  168.000;  104.000
350.911;  -22.450;  134.000;  140.000
351.044;  -96.525; -685.000; -615.000
351.177;  -57.900; -321.000; -281.000
351.310;  -45.975;    3.000; -131.000
351.444; -110.600; -888.000; -788.000
351.577;   33.075;  140.000;   90.000
351.710;   55.900;  593.000;  417.000
351.843;  -38.900; -165.000;  -77.000
351.976;  -19.975;  149.000;  -79.000
352.109; -102.600; -621.000; -612.000
352.242;  -45.625; -464.000; -419.000
352.376;  -81.000; -580.000; -636.000
352.509;    9.025; -437.000; -356.000
352.642;  -96.500; -654.000; -604.000
352.775;  -15.125; -141.000;  -98.000
352.908; -127.075; -933.000; -904.000
353.041; -120.700; -814.000; -824.000
353.174;  -60.150; -551.000; -424.000
353.307;  -96.000; -753.000; -764.000
353.440;   46.875;  541.000;  453.000
353.573; -112.550; -957.000;-1008.000
353.706;  -66.125; -384.000; -558.000
353.839;  -43.300; -264.000; -220.000
353.971;  -95.125; -657.000; -512.000
354.104; -119.775; -896.000; -835.000
354.237;  -76.625; -627.000; -662.000
354.370; -101.275; -846.000; -879.000
354.503; -176.875;-1231.000;-1308.000
354.636;  -31.675; -529.000; -348.000
354.769; -130.300; -937.000; -860.000
354.902;  -27.250; -230.000; -139.000
355.034;  -16.050; -164.000; -220.000
355.167;  -27.025; -262.000; -162.000
355.300;  -65.425;-1061.000; -880.000
355.433; 1424.875;  -71.000;  -14.000
355.565; 2226.475; -402.000; -384.000
355.698;  571.725; -356.000; -296.000
355.831;  -20.550; -882.000; -801.000
355.964;    7.000; -285.000; -170.000
356.096;  -91.775; -856.000; -843.000
356.229;   -7.475; -523.000; -530.000
356.362;  524.575; -373.000; -266.000
356.494;  903.050; -229.000; -162.000
356.627;  319.475;  269.000;  377.000
356.760;  885.575;  120.000;   53.000
356.892; 1488.325; -286.000; -601.000
357.025;  319.100;  403.000;  389.000
357.157;  221.625; -167.000; -179.000
357.290; 1218.650; -856.000; -713.000
357.423;  384.200; -667.000; -556.000
357.555;   91.900; -217.000; -228.000
357.688;  113.275; -483.000; -364.000
357.820;  166.075; -870.000; -877.000
357.953; 1506.525; -563.000; -589.000
358.085;  227.425; -632.000; -612.000
358.218;   99.525;-1131.000; -932.000
358.350;   52.225;  -58.000;  312.000
358.483; -162.950;-1300.000;-1187.000
358.615; -133.200;-1182.000;-1078.000
358.747; -140.925;-1187.000;-1058.000
358.880;  -60.225; -810.000; -744.000
359.012;  -46.950; -376.000; -202.000
359.145;  -66.525; -480.000; -511.000
359.277;  -72.275; -962.000; -913.000
359.409; 1251.625;  536.000;  231.000
359.542;  275.150; -738.000; -688.000
359.674;   21.050;   46.000;   13.000
359.806;  -74.325; -565.000; -438.000
359.939;  -39.975; -617.000; -516.000
360.071;   26.900; -583.000; -579.000
360.203;  -28.875; -411.000; -364.000
360.335;   27.100;  164.000;  -16.000
360.468;   89.225; -249.000; -307.000
360.600; 1338.575; -547.000; -454.000
360.732; 4262.175; -546.000; -423.000
360.864;  653.925;-1216.000;-1044.000
360.996;   49.450; -516.000; -554.000
361.129;  -35.050; -389.000; -598.000
361.261;  -19.850;  110.000; -113.000
361.393;  -41.575; -252.000; -214.000
361.525;   -5.125;   94.000;  244.000
361.657; -109.600; -821.000; -703.000
361.789;  -43.375; -139.000; -155.000
361.921;  -52.950; -642.000; -593.000
362.053;   82.750;  524.000;  541.000
362.185;   -8.850;  288.000;   72.000
362.318; -105.775; -709.000; -705.000
362.450;   31.225;  294.000;  444.000
362.582;  -92.475; -913.000; -870.000
362.714;  -74.000; -353.000; -332.000
362.846;  -96.375; -606.000; -490.000
362.978; -137.450; -941.000; -811.000
363.109;  -42.100; -161.000; -260.000
363.241;  129.075; -739.000; -749.000
363.373;  599.975; -649.000; -564.000
363.505; 1047.200; -186.000;  -91.000
363.637;  225.825; -787.000; -601.000
363.769; -137.400;-1067.000;-1080.000
363.901;  -83.525; -596.000; -654.000
364.033; -155.175;-1103.000;-1062.000
364.165;  -29.925; -283.000; -283.000
364.296;   94.125; -316.000; -177.000
364.428;  187.475;-1344.000;-1220.000
364.560;  -68.200; -679.000; -661.000
364.692;  -93.150; -738.000; -835.000
364.824;   -7.675; -588.000; -456.000
364.955;  494.750; -402.000; -564.000
365.087; 1704.875;-1097.000; -852.000
365.219;  110.825; -686.000; -816.000
365.351;  -74.675; -526.000; -572.000
365.482;   21.175;  300.000;  240.000
365.614;  -73.575; -402.000; -314.000
365.746; -114.300; -729.000; -752.000
365.877;  -82.175; -706.000; -672.000
366.009;  402.800;  -35.000;  -62.000
366.141;  -31.700;-1249.000;-1134.000
366.272; -111.675; -803.000; -719.000
366.404; -113.400;-1005.000; -874.000
366.535;  -16.400; -139.000;  -12.000
366.667; -108.425; -644.000; -649.000
366.799;   21.875;  353.000;  203.000
366.930; -127.600; -862.000; -996.000
367.062;  180.525; -639.000; -613.000
367.193;  345.700; -872.000; -842.000
367.325;  -55.100; -580.000; -684.000
367.456;    4.325; -246.000;   31.000
367.588;  278.525; -371.000; -318.000
367.719;   51.200;  -44.000;  -45.000
367.851;  -47.900; -222.000; -241.000
367.982; -115.025; -875.000; -732.000
368.113;  -16.100; -475.000; -358.000
368.245; -147.425; -960.000; -841.000
368.376;  -54.450; -254.000; -302.000
368.508;  -62.350; -188.000; -263.000
368.639; -162.025;-1166.000;-1034.000
368.770;  -84.150; -670.000; -589.000
368.902; -114.475; -836.000; -926.000
369.033; -116.400; -906.000; -855.000
369.164;  -35.700; -720.000; -653.000
369.296; -108.700; -452.000; -601.000
369.427;  -39.400; -209.000; -144.000
369.558;  -83.500; -593.000; -377.000
369.689;  -98.475; -721.000; -569.000
369.821; -131.850; -951.000; -845.000
369.952;  -28.350;   42.000; -108.000
370.083;  -53.075; -229.000; -108.000
370.214; -105.800; -735.000; -650.000
370.345;  -25.500;   65.000;   81.000
370.477; -115.925; -810.000; -790.000
370.608;   19.400; -328.000; -264.000
370.739; -139.225;-1233.000;-1292.000
370.870; -118.450;-1102.000; -923.000
371.001;  -23.350; -378.000; -467.000
371.132; -105.925; -754.000; -735.000
371.263;  -37.225;  -42.000; -148.000
371.394; -142.900; -841.000; -748.000
371.525;   18.350;  345.000;  225.000
371.657; -116.050; -808.000; -670.000
371.788;   24.425;  103.000;  199.000
371.919;   20.225; -384.000; -304.000
372.050; 1258.800;  -91.000; -156.000
372.181;  377.425; -188.000; -294.000
372.311;   92.900;   42.000; -127.000
372.442;  -43.000; -457.000; -451.000
372.573;  -54.425; -444.000; -340.000
372.704; -149.550;-1008.000; -980.000
372.835;  -37.000; -228.000; -289.000
372.966;  -92.750; -646.000; -554.000
373.097; -102.900; -575.000; -711.000
373.228;  -96.400; -717.000; -542.000
373.359;  -56.550; -824.000; -536.000
373.490;  185.900; -881.000; -727.000
373.620;  236.225;-1001.000; -803.000
373.751;  505.175; -332.000; -396.000
373.882;  185.650; -663.000; -733.000
374.013;  -25.450; -449.000; -262.000
374.143;  -92.175; -581.000; -659.000
374.274; -133.300; -987.000; -908.000
374.405;   43.175; -388.000; -276.000
374.536;  102.575; -526.000; -387.000
374.666;  273.375; -759.000; -807.000
374.797;  -15.725; -817.000; -868.000
374.928;  168.500; -710.000; -560.000
375.058;  184.250; -535.000; -500.000
375.189;   -0.575;  -59.000;  -93.000
375.320; -121.800; -928.000;-1034.000
375.450;  -59.500; -625.000; -616.000
375.581;  -40.050; -526.000; -436.000
375.712;  -52.800; -574.000; -250.000
375.842;   16.125; -438.000; -415.000
375.973;  -14.050; -554.000; -513.000
376.103; -104.050; -665.000; -648.000
376.234;  -92.850; -531.000; -552.000
376.364; -127.850; -944.000; -867.000
376.495;  118.475;  925.000;  529.000
376.625;  -59.475; -472.000; -485.000
376.756;  -69.450; -709.000; -678.000
376.886; -144.825;-1178.000;-1026.000
377.017;  150.800;-1048.000;-1061.000
377.147;  643.200; -786.000; -782.000
377.278;   84.425;  174.000;  228.000
377.408; -122.150; -801.000; -815.000
377.538; -107.575; -707.000; -693.000
377.669;  -90.100; -537.000; -613.000
377.799; -109.675; -645.000; -635.000
377.929;  -85.325; -610.000; -428.000
378.060; -144.500; -781.000; -847.000
378.190;  -39.300; -726.000; -531.000
378.320;  -56.900; -401.000; -406.000
378.451;  -24.125; -131.000;  -22.000
378.581;  -29.400;  -67.000; -110.000
378.711;   82.175; 1035.000;  866.000
378.841;  -84.250; -533.000; -675.000
378.972; -126.650; -871.000; -751.000
379.102;  -60.025; -652.000; -579.000
379.232;  -61.050; -126.000;  -73.000
379.362; -134.975;-1001.000; -885.000
379.492;  -58.475; -373.000; -424.000
379.623;   28.500;    0.000;  111.000
379.753; -122.550;-1107.000; -974.000
379.883;   59.675;   59.000;  156.000
380.013;  -93.000;-1081.000;-1017.000
380.143; -123.100;-1097.000;-1056.000
380.273; -124.200; -985.000; -861.000
380.403;  -12.925; -344.000; -257.000
380.533;  -47.925; -651.000; -664.000
380.663;    3.025;  173.000;  128.000
380.793; -158.700;-1027.000;-1074.000
380.923;  -35.500; -103.000;  -34.000
381.053; -108.325; -613.000; -623.000
381.183;  -61.175; -106.000; -248.000
381.313;  -76.725; -656.000; -470.000
381.443;  -49.500; -692.000; -473.000
381.573;  -41.075; -402.000; -409.000
381.703;  -94.525;-1249.000;-1095.000
381.833; -193.200;-1454.000;-1336.000
381.963;   20.650; -134.000;  -87.000
382.093;  398.300; -925.000; -909.000
382.223;   80.175; -713.000; -602.000
382.353;  -82.200; -801.000; -608.000
382.482;   -4.300;-1091.000; -964.000
382.612;  166.325; -872.000; -644.000
382.742;   63.000; -695.000; -622.000
382.872;  -18.450; -565.000; -551.000
383.002;    7.600;  347.000; -132.000
383.131;  -24.975; -226.000; -160.000
383.261;  -53.425; -706.000; -768.000
383.391;  327.725; -552.000; -377.000
383.521; 5081.675;  451.000;  263.000
383.650; 1509.375; -947.000; -904.000
383.780;   28.225; -783.000; -656.000
383.910;   84.500;  880.000;  802.000
384.039;  -98.575; -794.000; -656.000
384.169;  -77.325;-1205.000;-1017.000
384.299;  -96.975; -650.000; -662.000
384.428; -120.750; -764.000; -680.000
384.558;  -70.900; -308.000; -275.000
384.687;  -79.600; -414.000; -334.000
384.817;  -25.325;   75.000;   -2.000
384.947;  -38.025; -234.000; -141.000
385.076;  142.725;  982.000;  912.000
385.206;   41.000;  369.000;  480.000
385.335;  -75.800; -549.000; -417.000
385.465; -119.750; -655.000; -663.000
385.594;    9.050;  -53.000;  -44.000
385.724;   27.500; -868.000; -838.000
385.853;  -22.475; -296.000; -270.000
385.982;  330.775; -743.000; -787.000
386.112;  643.525;-1052.000; -871.000
386.241;   -0.575; -307.000; -312.000
386.371;  -29.550; -174.000;  -87.000
386.500;  -70.250; -825.000; -789.000
386.629;  -24.150; -874.000; -817.000
386.759;   69.225;  -43.000;   68.000
386.888;  -31.500; -170.000; -250.000
387.017; -104.050; -648.000; -620.000
387.147; -128.475; -771.000; -798.000
387.276;  -69.175; -410.000; -397.000
387.405;  -45.425; -398.000; -342.000
387.535;  -72.625; -452.000; -361.000
387.664;  -70.425; -692.000; -620.000
387.793;  -10.375; -198.000; -113.000
387.922;  125.825;  255.000;  200.000
388.052;  -67.875; -576.000; -423.000
388.181;  -70.175; -342.000; -472.000
388.310; -111.625; -889.000; -710.000
388.439; -115.900; -749.000; -742.000
388.568;   34.550;  365.000;  244.000
388.697;  226.775; -756.000; -653.000
388.826;  -14.825; -768.000; -666.000
388.956;  -37.825; -285.000; -307.000
389.085;  -61.100; -347.000; -287.000
389.214; -116.825; -842.000; -872.000
389.343;  -77.675; -645.000; -413.000
389.472;  544.375;  126.000;  149.000
389.601;  631.825;   91.000;    0.000
389.730;  -29.000; -568.000; -687.000
389.859;   11.000;  226.000;   46.000
389.988;   20.050; -423.000; -408.000
390.117;   37.825; -168.000; -146.000
390.246;  -50.625; -331.000; -320.000
390.375;  -68.150; -673.000; -626.000
390.504; -113.500; -703.000; -621.000
390.633; -127.800; -672.000; -726.000
390.761; -108.550; -732.000; -645.000
390.890;  -28.950;   -4.000; -130.000
391.019;  -80.500; -421.000; -441.000
391.148; -143.250; -826.000; -855.000
391.277;  -87.375; -576.000; -493.000
391.406; -127.775; -821.000; -805.000
391.534;    1.500;  574.000; -301.000
391.663;  -96.125; -583.000; -645.000
391.792; -120.175; -673.000; -701.000
391.921;  -23.575;   -3.000;   15.000
392.050;   -3.250; -287.000; -228.000
392.178; -142.500;-1206.000;-1061.000
392.307;  -47.175; -758.000; -712.000
392.436;  -59.500; -427.000; -641.000
392.564;   -8.225;  166.000;   -6.000
392.693; -118.875; -860.000; -682.000
392.822;  -12.875; -529.000; -534.000
392.950;  -35.525; -880.000; -714.000
393.079;   49.125; -188.000; -328.000
393.208;  -52.050; -488.000; -511.000
393.336;  -45.725; -170.000; -145.000
393.465;  -62.575; -317.000; -199.000
393.593;  -10.250;   62.000;   79.000
393.722; -157.000;-1121.000; -916.000
393.850;  -25.250; -188.000;  -61.000
393.979; -156.300; -926.000; -805.000
394.107;  -75.825; -517.000; -537.000
394.236;  -61.025; -570.000; -507.000
394.364;   93.500;  383.000;  206.000
394.493;   53.950; -911.000; -767.000
394.621;  -14.600; -955.000; -916.000
394.750; 1133.725; -873.000; -923.000
394.878; 4365.975; -247.000; -149.000
395.007; 6407.975; -721.000; -807.000
395.135;  566.850; -790.000; -721.000
395.263;  -62.000;-1038.000;-1040.000
395.392;  -12.475;  -25.000; -107.000
395.520; -119.100; -818.000; -679.000
395.648; -136.225; -865.000; -915.000
395.777;  -80.650; -366.000; -405.000
395.905;  -88.350; -449.000; -564.000
396.033;  -16.075;  217.000;  172.000
396.162;   98.400; -399.000; -453.000
396.290;  101.900;  -17.000;   -2.000
396.418;  -61.600; -555.000; -514.000
396.546;  -92.975; -571.000; -466.000
396.674; -140.875; -850.000; -878.000
396.803;  -31.200;  -72.000;  -23.000
396.931;  -36.075; -179.000; -199.000
397.059; -126.325;-1026.000; -989.000
397.187; -151.850;-1026.000; -975.000
397.315; -148.775; -884.000; -649.000
397.443; -105.975; -592.000; -443.000
397.572;  -96.875; -578.000; -424.000
397.700; -106.575; -607.000; -614.000
397.828;  -23.525;  120.000;  -90.000
397.956;  -43.975; -508.000; -478.000
398.084;  -30.775; -767.000; -626.000
398.212;   -3.550;  137.000;  124.000
398.340;  -23.100;  -56.000;  159.000
398.468;  -46.825; -390.000; -169.000
398.596; -165.175; -993.000; -953.000
398.724; -123.800; -762.000; -767.000
398.852; -159.750;-1024.000; -976.000
398.980; -102.600; -560.000; -560.000
399.108; -100.450; -982.000; -735.000
399.236;  -18.275;   13.000;    8.000
399.363;  -14.225;  222.000;  196.000
399.491;  -77.575; -404.000; -398.000
399.619; -126.350; -829.000; -800.000
399.747; -116.900; -859.000; -771.000
399.875;   32.350;  220.000;  234.000
400.003;  -74.100; -359.000; -284.000
400.130;  -95.800; -421.000; -341.000
400.258;  -52.300;  -83.000;   38.000
400.386;  -67.525; -352.000; -168.000
400.514;  -96.050; -526.000; -587.000
400.641; -151.150; -928.000; -802.000
400.769; -165.450; -979.000; -888.000
400.897; -125.900; -838.000; -793.000
401.025;  -46.525; -166.000; -152.000
401.152;  -13.325;  220.000;   38.000
401.280;  -90.150; -430.000; -429.000
401.408; -117.075; -712.000; -576.000
401.535; -118.800; -735.000; -758.000
401.663; -200.725;-1134.000;-1054.000
401.790; -106.125; -514.000; -525.000
401.918;    9.250;  436.000;  405.000
402.046;  -30.175;  134.000;  122.000
402.173;  -49.775;  -18.000;    7.000
402.301;  -80.075; -519.000; -397.000
402.428;   11.725;  528.000;  383.000
402.556; -159.075;-1188.000; -913.000
402.683;  -51.225;  -20.000;   -1.000
402.811;  -29.050;  -37.000; -206.000
402.938;  -25.200;   20.000;   27.000
403.066;  -14.500; -574.000; -558.000
403.193;   85.925;  299.000;  239.000
403.321;   48.800; -396.000; -574.000
403.448;   96.800;   83.000;   27.000
403.575;   28.925;  -90.000;  -46.000
403.703; -111.250; -732.000; -557.000
403.830;  -78.875; -531.000; -496.000
403.957; -120.975;-1117.000;-1023.000
404.085;   13.000;  -61.000; -172.000
404.212;  109.250;  -50.000;   63.000
404.339;  424.425; -566.000; -306.000
404.467; 8874.025; -612.000; -524.000
404.594; 5388.300; -287.000; -227.000
404.721;  903.700; -869.000; -764.000
404.848;   86.650; -113.000; -202.000
404.976; -123.150; -856.000; -783.000
405.103;  -23.725;  -14.000;  -82.000
405.230;   -5.500;  190.000;  226.000
405.357;   23.300;  117.000;   44.000
405.484;  421.000;  -49.000;    5.000
405.612;  107.125; -548.000; -563.000
405.739;  -65.225; -488.000; -243.000
405.866;   59.025;  669.000;  385.000
405.993;  -61.575; -398.000; -102.000
406.120; -142.800; -801.000; -887.000
406.247;  -78.850; -323.000; -342.000
406.374;  104.050;  540.000;  629.000
406.501;  -76.300; -632.000; -702.000
406.628; -124.525; -621.000; -589.000
406.755; -134.700; -803.000; -620.000
406.882;  -81.800; -228.000; -277.000
407.009; -113.375; -719.000; -628.000
407.136;  -62.800; -480.000; -401.000
407.263;  -64.575; -939.000; -829.000
407.390;  -95.700; -692.000; -614.000
407.517; -178.825;-1139.000;-1187.000
407.644;  -70.875; -332.000; -256.000
407.771;  -79.600; -249.000; -287.000
407.898;  -14.825;  168.000;  328.000
408.025;  -76.100; -421.000; -313.000
408.151;  -22.050;   82.000;  153.000
408.278;  -77.425; -267.000; -216.000
408.405; -145.875; -931.000; -899.000
408.532; -103.375; -549.000; -542.000
408.659; -130.225; -677.000; -648.000
408.785; -186.700;-1298.000;-1170.000
408.912;  -85.375; -412.000; -296.000
409.039; -115.375; -610.000; -686.000
409.166; -123.025; -591.000; -555.000
409.292; -114.400; -571.000; -534.000
409.419; -115.275; -665.000; -649.000
409.546;  -90.200; -431.000; -192.000
409.672; -122.750; -713.000; -545.000
409.799;  -39.200;  -36.000;   34.000
409.926;  -54.350; -180.000; -179.000
410.052; -178.075;-1127.000;-1091.000
410.179;  -84.875; -368.000; -392.000
410.305;  -89.325; -375.000; -493.000
410.432;  -44.300; -220.000; -333.000
410.558;  -92.650; -305.000; -380.000
410.685; -122.550; -688.000; -431.000
410.812; -107.725; -409.000; -588.000
410.938; -135.650; -964.000; -808.000
411.065; -111.350; -671.000; -645.000
411.191;  -46.375; -189.000; -174.000
411.317; -136.025; -823.000; -742.000
411.444;  -83.600; -317.000; -246.000
411.570;  -77.425; -339.000; -294.000
411.697; -133.100; -758.000; -752.000
411.823; -175.350; -989.000; -999.000
411.949;  -40.925;  -56.000;   17.000
412.076; -114.475; -539.000; -519.000
412.202; -137.550; -758.000; -757.000
412.329; -143.075; -798.000; -752.000
412.455; -115.050; -821.000; -657.000
412.581;  -27.025;  -15.000;  172.000
412.707;  -99.000; -540.000; -457.000
412.834;   -2.075;  156.000;  219.000
412.960;  -97.875; -785.000; -784.000
413.086; -115.025; -743.000; -701.000
413.212;   92.975;  604.000;  578.000
413.339;  -95.025; -685.000; -701.000
413.465;  -61.525; -364.000; -310.000
413.591; -120.875; -757.000; -474.000
413.717;  -67.200; -358.000; -366.000
413.843; -143.100; -839.000; -861.000
413.969;  -57.000;  -47.000; -292.000
414.096;  -96.425; -679.000; -679.000
414.222;  -11.000;  -33.000;   85.000
414.348;  -71.850; -652.000; -385.000
414.474;  -10.875;   38.000;  -52.000
414.600;  -19.250; -126.000; -144.000
414.726;  -25.000;  -96.000;  -55.000
414.852;  -44.975; -365.000; -342.000
414.978;   39.450;  104.000;  -18.000
415.104;   49.750;   38.000;   80.000
415.230;   26.125; -329.000; -330.000
415.356;   59.925; -409.000; -514.000
415.482;  209.275;   13.000;  -35.000
415.608;  396.575; -247.000; -323.000
415.734; 1303.050;   67.000;   38.000
415.860;26986.575; -875.000; -767.000
415.986;22043.700; -685.000; -607.000
416.111; 2044.900; -798.000; -652.000
416.237;  459.350; -424.000; -571.000
416.363; 1654.000; -765.000; -733.000
416.489; 6632.375; -324.000; -251.000
416.615;  901.525; -707.000; -742.000
416.741;   44.625; -677.000; -784.000
416.866;  -65.825; -673.000; -736.000
416.992;  -95.900; -801.000; -818.000
417.118;  -29.400;  -41.000;  -80.000
417.244;  -88.800; -798.000; -531.000
417.369;  -81.950; -801.000; -612.000
417.495;  -24.200; -325.000; -254.000
417.621;  -73.900;-1015.000; -803.000
417.746;   -6.400; -579.000; -572.000
417.872;   55.650; -254.000; -144.000
417.998;  111.750; -515.000; -530.000
418.123; 1524.825;-1073.000; -845.000
418.249; 8454.175; -512.000; -601.000
418.374; 1424.650; -916.000; -824.000
418.500;  216.375; -383.000; -482.000
418.626;  177.550;   70.000;  -59.000
418.751;  135.875; -549.000; -448.000
418.877;  305.600; -637.000; -643.000
419.002; 2510.875; -688.000; -560.000
419.128;19190.900; -930.000; -721.000
419.253; 5411.875; -967.000; -837.000
419.379;  741.275; -391.000; -338.000
419.504;  571.975;  325.000;  415.000
419.629;  815.700; -393.000; -212.000
419.755; 5289.725; -317.000; -254.000
419.880;34576.725;  -98.000;   67.000
420.006;17225.725; -280.000; -221.000
420.131;42819.150; -662.000; -775.000
420.256; 6865.450; -315.000; -316.000
420.382;  918.500; -665.000; -687.000
420.507;  149.350; -649.000; -778.000
420.632;   33.350; -337.000; -339.000
420.758;   34.200; -251.000; -425.000
420.883; -104.375; -876.000; -672.000
421.008; -114.475; -775.000; -619.000
421.133;  -91.300; -509.000; -467.000
421.259;  -59.100; -325.000; -259.000
421.384; -135.025; -834.000; -693.000
421.509; -129.775;-1052.000; -862.000
421.634;  130.175; -936.000; -820.000
421.759;   65.125; -359.000; -327.000
421.885; -107.225; -717.000; -656.000
422.010;  -97.075; -673.000; -542.000
422.135; -151.350; -695.000; -727.000
422.260;   -2.375;  340.000;  280.000
422.385;  -45.725;   12.000;  -98.000
422.510;  -16.000;  151.000;  -26.000
422.635;  -34.150;  -87.000;  -43.000
422.760;  -27.925; -766.000; -791.000
422.885;   10.925;  -57.000;  -80.000
423.010;  -30.725; -112.000; -169.000
423.135; -103.175; -481.000; -561.000
423.260;  -55.350; -150.000; -245.000
423.385;   15.350;  476.000;  222.000
423.510;  -12.950;   71.000;  -22.000
423.635;   -9.575;  133.000;   45.000
423.760;   36.725;  383.000;  328.000
423.885;   13.150;  336.000;  391.000
424.010;  -24.275;  -68.000;  -13.000
424.135;  -25.850;    5.000;  -33.000
424.259;  -81.075; -654.000; -457.000
424.384;  -48.275; -279.000; -272.000
424.509;  -28.250; -260.000; -186.000
424.634; -104.700; -761.000; -623.000
424.759;  -44.900; -688.000; -544.000
424.883;  -30.125; -506.000; -527.000
425.008;  196.700; -502.000; -410.000
425.133; 2818.200; -679.000; -653.000
425.258; 1517.950; -517.000; -381.000
425.382;  478.925; -867.000; -774.000
425.507; 1102.650; -487.000; -543.000
425.632;  372.175; -802.000; -663.000
425.756;  691.425; -256.000; -146.000
425.881;10116.100; -831.000; -857.000
426.006;30947.175; -604.000; -355.000
426.130; 5061.975; -696.000; -508.000
426.255;  685.425; -611.000; -491.000
426.379;  265.225; -189.000; -577.000
426.504;  480.775;  660.000;  544.000
426.629; 5531.100; -519.000; -466.000
426.753; 4282.500;   64.000;  -46.000
426.878;  528.275; -252.000; -288.000
427.002;  296.175; -651.000; -668.000
427.127; 2043.600;  -35.000; -158.000
427.251;17055.400;  372.000;  401.000
427.375; 5521.475; -191.000; -173.000
427.500; 1296.125; -616.000; -610.000
427.624;  387.625; -234.000; -400.000
427.749;   74.650; -216.000; -225.000
427.873;  -27.150; -499.000; -412.000
427.997;  -41.925; -222.000; -230.000
428.122;   55.525;  795.000;  703.000
428.246;   19.250;  433.000;  434.000
428.371; -146.225; -869.000; -773.000
428.495; -120.500; -624.000; -646.000
428.619;  -56.450; -186.000; -117.000
428.743;   -9.350;   65.000;  132.000
428.868;  -82.750; -732.000; -643.000
428.992;  454.675; -219.000; -326.000
429.116;  161.300; -329.000; -357.000
429.240;   83.200;  419.000;  426.000
429.365;  -47.675; -454.000; -574.000
429.489;  -60.475; -638.000; -647.000
429.613;   32.550; -236.000; -177.000
429.737;   80.675; -563.000; -432.000
429.861;  360.600; -247.000; -133.000
429.985; 7792.875; -425.000; -305.000
430.109; 9887.750; -770.000; -908.000
430.234; 1205.675;   76.000;  -50.000
430.358;  139.275; -250.000; -160.000
430.482;  -41.325; -672.000; -564.000
430.606;  -76.975; -655.000; -375.000
430.730;  -71.200; -437.000; -388.000
430.854;  -91.475; -909.000; -835.000
430.978; -108.250; -795.000; -764.000
431.102;  -98.350; -499.000; -422.000
431.226; -127.975; -874.000; -815.000
431.350;   14.650;  345.000;  422.000
431.474;  -99.275; -661.000; -373.000
431.597; -160.100;-1060.000; -848.000
431.721;  -82.375; -276.000; -267.000
431.845; -129.600; -704.000; -472.000
431.969;  -90.750; -304.000; -349.000
432.093;  -81.500; -395.000; -317.000
432.217;  -25.125;   32.000;   82.000
432.341;  -97.900; -523.000; -518.000
432.464;  -18.300;   96.000;   40.000
432.588;  -16.575; -401.000; -329.000
432.712;   -5.275;  -52.000;  -52.000
432.836;   54.075;  213.000;  263.000
432.959;   15.875; -372.000; -311.000
433.083;  164.800;   11.000;    2.000
433.207;  561.825;  285.000;  930.000
433.330; 7586.150; -391.000; -200.000
433.454;10362.525; -654.000; -638.000
433.578; 5738.200;  583.000;  278.000
433.701; 1244.125; -623.000; -675.000
433.825;  148.900; -292.000; -299.000
433.949;   46.350;   28.000;  -72.000
434.072;  -33.400; -410.000; -323.000
434.196;  -27.325; -309.000; -117.000
434.319; 3619.425;25482.000;25124.000
434.443;  853.925; -656.000; -603.000
434.566; 4077.675;  281.000;   62.000
434.690;  846.500; -637.000; -383.000
434.813;  124.975; -251.000; -173.000
434.937;  -58.175; -569.000; -696.000
435.060;  -78.800; -423.000; -332.000
435.184;  -35.200; -492.000; -217.000
435.307;   -0.450;  159.000;  102.000
435.431;  -41.975;  -40.000;   24.000
435.554;  -71.075; -399.000; -240.000
435.677;  -93.750; -350.000; -258.000
435.801;  -50.475;  -25.000;   49.000
435.924;  -44.000;    1.000;  -67.000
436.048; -145.475;-1019.000; -732.000
436.171;  -92.725; -240.000;  -66.000
436.294;  -18.925; -248.000; -229.000
436.417;  227.225; -963.000; -849.000
436.541;  -22.825; -814.000; -840.000
436.664;  -46.550; -242.000; -316.000
436.787;  -34.475;   13.000;  113.000
436.910; -122.075; -792.000; -422.000
437.034;  -22.825;  142.000;  143.000
437.157;  -19.575;  -11.000;    0.000
437.280;  -96.000; -392.000; -292.000
437.403; -153.775; -982.000; -869.000
437.526;   -6.450; -903.000; -865.000
437.649;  397.750; -505.000; -332.000
437.772;  -29.250; -692.000; -540.000
437.896;   60.025;  700.000;  544.000
438.019; -116.975; -758.000; -503.000
438.142; -116.875; -596.000; -506.000
438.265; -114.275; -639.000; -670.000
438.388;   15.050; -520.000; -410.000
438.511;  -68.450; -597.000; -394.000
438.634;  -87.875; -247.000; -125.000
438.757; -151.325; -693.000; -619.000
438.880;  -55.300;  -34.000;  -57.000
439.003; -106.475; -417.000; -437.000
439.126;  -82.250; -287.000; -167.000
439.248;  -60.250;  -98.000; -139.000
439.371;  -47.025;    9.000;  -53.000
439.494;   17.650;  510.000;  439.000
439.617;  -74.900;   65.000;  -88.000
439.740; -166.975; -968.000; -816.000
439.863; -153.200; -755.000; -595.000
439.986; -120.675; -476.000; -431.000
440.108;  -57.150; -161.000; -112.000
440.231; -170.575; -950.000; -836.000
440.354;  -75.500;  -64.000; -150.000
440.477; -113.325; -566.000; -542.000
440.599;  -83.925; -200.000; -225.000
440.722; -134.875; -709.000; -586.000
440.845;   45.375;  751.000;  928.000
440.968; -110.550; -415.000; -311.000
441.090;  -85.825; -199.000;  -33.000
441.213; -176.325;-1021.000; -825.000
441.336;  -68.300; -159.000;   -5.000
441.458; -105.425; -549.000; -396.000
441.581; -135.750; -628.000; -629.000
441.703;  -73.950; -152.000;   13.000
441.826; -126.075; -557.000; -400.000
441.948;  -78.500;   56.000;   51.000
442.071;   22.500;  555.000;  424.000
442.193; -131.800; -531.000; -485.000
442.316;   -3.250;  152.000;   97.000
442.438;   71.200; -233.000;  -10.000
442.561;   60.150;  272.000;  262.000
442.683;   44.725; -809.000; -522.000
442.806;  211.525;   -8.000;   74.000
442.928; -121.625; -859.000; -604.000
443.051; -102.325; -577.000; -373.000
443.173;  -98.625; -341.000; -339.000
443.295;  -92.450; -263.000; -371.000
443.418;  -83.225; -321.000;  -29.000
443.540;  -56.350; -106.000;   -4.000
443.662; -148.225; -563.000; -465.000
443.785;  -29.250;  335.000;  199.000
443.907;  -98.550; -362.000; -208.000
444.029; -131.400; -767.000; -494.000
444.152; -153.700; -644.000; -554.000
444.274;  -55.225;  -18.000;  -24.000
444.396; -116.600; -461.000; -221.000
444.518; -139.050; -691.000; -454.000
444.640; -110.250; -268.000; -111.000
444.763;  -28.050;  388.000;  249.000
444.885; -125.325; -432.000; -392.000
445.007;  -37.800;   35.000;   86.000
445.129; -134.600; -610.000; -515.000
445.251; -117.100; -372.000; -439.000
445.373; -137.475; -537.000; -386.000
445.495;  -15.075;  242.000;  350.000
445.617;   27.525;  853.000;  753.000
445.739;  -76.900; -215.000;  -97.000
445.861;  -51.000; -245.000; -112.000
445.984;  -71.475; -267.000; -101.000
446.105;  -25.250; -418.000; -251.000
446.227;  100.775; -176.000;  -19.000
446.349;  -80.175; -358.000; -249.000
446.471; -134.775; -615.000; -448.000
446.593;  -90.950; -316.000;   19.000
446.715;  -41.625;  -67.000;   41.000
446.837;   35.500;  697.000;  832.000
446.959; -107.175; -457.000; -478.000
447.081; -135.600; -628.000; -518.000
447.203;   41.000;  862.000;  834.000
447.325;  -98.425; -270.000;   42.000
447.446;  -17.700;  286.000;  530.000
447.568; -153.575; -921.000; -803.000
447.690; -105.150; -236.000; -245.000
447.812; -146.900; -798.000; -519.000
447.933;  -46.275;  155.000;  127.000
448.055;  -78.475; -306.000; -261.000
448.177;   17.875;   31.000;   79.000
448.299; -109.675; -935.000; -727.000
448.420;  -25.375;  -25.000;  159.000
448.542;  -62.225;   -3.000;   33.000
448.664;  -23.200;  109.000;  322.000
448.785;  -49.450;  265.000;   83.000
448.907; -117.075; -614.000; -353.000
449.028;  -98.150; -771.000; -471.000
449.150;   32.225;  492.000;  589.000
449.272; -175.975;-1044.000; -913.000
449.393;   22.100;  612.000;  694.000
449.515; -142.575; -634.000; -581.000
449.636;  -71.825; -264.000; -155.000
449.758;   36.225;  763.000;  622.000
449.879;  -98.250; -498.000; -396.000
450.001;  -81.350; -149.000;  -49.000
450.122;  -39.350;  -95.000;  162.000
450.244;  -14.975;   37.000;  364.000
450.365;  -84.275; -495.000; -301.000
450.486;    0.100;   80.000;  268.000
450.608;   27.350;  393.000;  326.000
450.729;  100.575;  578.000;  645.000
450.850;   89.175; -574.000; -466.000
450.972; 1213.200; -552.000; -389.000
451.093; 7902.800;  190.000;  588.000
451.214; 4025.900; -516.000; -337.000
451.336;  692.725;  773.000;  579.000
451.457;   85.225;  264.000;  393.000
451.578;  -27.150; -118.000;  -74.000
451.699; -120.400; -546.000; -540.000
451.821;  -70.675; -284.000;  -50.000
451.942;   -2.400;  278.000;  285.000
452.063;   66.950;  228.000;  419.000
452.184;  802.350;  -54.000;  -49.000
452.305; 1697.850;  103.000;  170.000
452.427;  305.325; -549.000; -301.000
452.548;    3.925;   23.000;   79.000
452.669;  -57.425; -257.000;  -89.000
452.790;  -61.875;    3.000;  -18.000
452.911;  -27.975;  195.000;  259.000
453.032;  -83.075; -289.000;  -60.000
453.153;  -66.300;  -29.000;   81.000
453.274;   41.525;  737.000;  868.000
453.395;  -65.150;  -51.000;  175.000
453.516;   83.825; 1317.000; 1388.000
453.637; -102.400; -205.000; -150.000
453.758;  -72.925;   15.000;   69.000
453.879; -124.875; -462.000; -250.000
454.000;   59.625; 1086.000;  948.000
454.121; -124.175; -554.000; -326.000
454.242; -135.900; -599.000; -383.000
454.362;  -58.525;  -99.000;  114.000
454.483;  -11.600; -309.000; -229.000
454.604;   63.000;  512.000;  580.000
454.725; -140.000; -627.000; -555.000
454.846; -120.825; -474.000; -406.000
454.967;  -32.400;  230.000;  539.000
455.087;  -40.625;  179.000;  153.000
455.208;    5.325;  554.000;  856.000
455.329;  -58.225;  -22.000;   82.000
455.450;   56.500;  473.000;  633.000
455.570;  -66.850; -234.000; -211.000
455.691;  -47.000;  201.000;  407.000
455.812; -101.925; -270.000;  -92.000
455.932;  -74.200;  107.000;  -97.000
456.053;  -85.625;   36.000;   24.000
456.173; -106.725; -433.000; -355.000
456.294; -118.375; -476.000; -303.000
456.415;  -70.075;  -73.000;   70.000
456.535;  -42.400;  297.000;  273.000
456.656;  -41.775;  132.000;  240.000
456.776;  -60.000;    3.000;  298.000
456.897;   -6.275;  308.000;  513.000
457.017;  -78.500; -153.000;   -3.000
457.138; -123.675; -402.000; -249.000
457.258;  -37.650;  263.000;  224.000
457.379;  -17.475;  509.000;  521.000
457.499;  -29.525;  443.000;  432.000
457.620; -129.800; -407.000; -231.000
457.740;  -90.775; -132.000;  -11.000
457.860;  -76.400;   87.000;   44.000
457.981;  -51.975;  132.000;  124.000
458.101;  -83.975;  -89.000;   40.000
458.221;  -11.425;  336.000;  402.000
458.342;  -56.375;   -4.000;  -37.000
458.462;   48.675;  617.000;  352.000
458.582;   25.700; -302.000; -294.000
458.703;   61.775;  303.000;  154.000
458.823;    6.050;   22.000;  163.000
458.943;   44.825;  341.000;  467.000
459.063;  -10.900; 1124.000;  192.000
459.183;  -27.025;  328.000;  313.000
459.304;    2.750;  315.000;  517.000
459.424;  -49.525; -246.000;  -89.000
459.544;  457.575;  388.000;  764.000
459.664; 1297.275;  499.000;  506.000
459.784;  490.925; 1004.000; 1175.000
459.904;   84.725;  867.000;  744.000
460.024;   56.175;  867.000;  684.000
460.144;   -4.050;  449.000;  554.000
460.264;   -5.800;  515.000;  327.000
460.385;  -82.850; -145.000; -119.000
460.505;   16.925;  905.000;  858.000
460.625; -102.975;  -17.000;  -68.000
460.745;  -28.300;  396.000;  541.000
460.864;  -49.725;  153.000;  469.000
460.984;   25.250;  499.000;  573.000
461.104;  129.400; 1656.000; 1775.000
461.224;   -2.025;  657.000;  650.000
461.344;  -32.050;  431.000;  360.000
461.464;  -33.475;  258.000;  513.000
461.584;  -33.275;  283.000;  466.000
461.704;  -78.125;   58.000;  108.000
461.824;  -65.025;  238.000;  259.000
461.943;  -52.825;  191.000;  130.000
462.063;  -74.875;    2.000;  324.000
462.183;    3.000;  639.000;  717.000
462.303;   85.125; 1678.000; 1230.000
462.422;   19.250;  781.000;  840.000
462.542;  -42.700;  271.000;  391.000
462.662;   42.750;  353.000;  380.000
462.782;  324.475;  833.000;  572.000
462.901;  741.425;  545.000;  717.000
463.021;  380.325; 1702.000; 1638.000
463.141;    4.675;  337.000;  770.000
463.260;   -8.875;  614.000;  474.000
463.380;    0.500;  902.000;  884.000
463.499;  -48.150;  342.000;  332.000
463.619;  -46.875;  581.000;  559.000
463.738;  105.300; 1644.000;  903.000
463.858;   18.450;  657.000;  811.000
463.978;  -31.250;  542.000;  396.000
464.097;   57.475;  921.000; 1114.000
464.217;  147.550; 1196.000; 1143.000
464.336;  136.425; 1068.000; 1130.000
464.455;  -30.750;  328.000;  659.000
464.575;    2.250;  597.000;  602.000
464.694;  128.100; 1204.000; 1179.000
464.814;  144.475; 1190.000; 1138.000
464.933;   76.400; 1095.000; 1027.000
465.052;   91.925; 1412.000; 1054.000
465.172;   64.500;  922.000;  799.000
465.291;  105.425; 1376.000; 1320.000
465.410;    3.725;  462.000;  735.000
465.530;   71.325; 1355.000; 1310.000
465.649;   51.975; 1209.000; 1273.000
465.768;  117.000; 1673.000; 1508.000
465.888;   45.850;  941.000; 1174.000
466.007;   95.475; 1335.000; 1440.000
466.126;   -7.775;  721.000;  641.000
466.245;   33.550; 1176.000; 1187.000
466.364;   31.450;  950.000; 1060.000
466.484;   46.800; 1024.000; 1213.000
466.603;   21.775; 1101.000; 1222.000
466.722;   90.875; 1490.000; 1769.000
466.841;   63.800; 1151.000; 1401.000
466.960;   37.625; 1069.000;  972.000
467.079;  131.725; 1971.000; 1786.000
467.198;   33.200; 1238.000; 1181.000
467.317;   77.875; 1768.000; 1162.000
467.436;   66.075; 1709.000; 1261.000
467.555;  102.800; 1796.000; 1746.000
467.674;   51.575; 1227.000; 1329.000
467.793;   45.475; 1376.000; 1374.000
467.912;   70.425; 1658.000; 1539.000
468.031;  110.800; 2038.000; 1930.000
468.150;  112.675; 1842.000; 1837.000
468.269;  168.300; 2313.000; 2090.000
468.388;  174.475; 2168.000; 2339.000
468.507;  244.325; 2884.000; 2903.000
468.626;  267.000; 2555.000; 2541.000
468.744;  137.475; 2018.000; 2174.000
468.863;  188.950; 2312.000; 2523.000
468.982;   94.225; 1503.000; 1555.000
469.101;  227.625; 2788.000; 2692.000
469.220;  162.325; 2333.000; 2176.000
469.338;  254.725; 2935.000; 3051.000
469.457;  189.900; 2719.000; 2545.000
469.576;  338.850; 3953.000; 3784.000
469.695;  252.750; 2877.000; 3066.000
469.813;  408.350; 4148.000; 4192.000
469.932;  402.300; 4255.000; 4485.000
470.051;  459.450; 4075.000; 4161.000
470.169; 1013.650; 4470.000; 4338.000
470.288; 1985.550; 4700.000; 4809.000
470.406; 1154.900; 5059.000; 5194.000
470.525;  663.575; 6101.000; 5787.000
470.644;  641.075; 6847.000; 6794.000
470.762;  793.200; 8397.000; 7873.000
470.881;  922.725; 8651.000; 8464.000
470.999; 1072.825; 9685.000; 9151.000
471.118; 1123.150;11174.000;10711.000

