
Integration time [ms]: 200.000
Averaging Nr. [scans]: 10
Smoothing Nr. [pixels]: 0
Data measured with spectrometer [name]: 2101012U2
Wave   ;Sample   ;Dark     ;Reference
[nm]   ;[counts] ;[counts] ;[counts] 

197.733;   88.600;  516.000;  404.000
197.879; -174.800; -610.000; -634.000
198.025; -129.000; -475.000; -420.000
198.171; -153.300; -602.000; -612.000
198.317;  -74.200; -401.000; -316.000
198.463; -156.600; -655.000; -404.000
198.609;   35.700;  181.000; -137.000
198.755; -181.700; -644.000; -410.000
198.901; -145.200; -505.000; -424.000
199.047; -147.000; -615.000; -488.000
199.193;  -84.200; -230.000; -468.000
199.339; -101.100; -222.000; -369.000
199.485;   61.700;  330.000;  271.000
199.631;   25.500;  227.000;  310.000
199.777; -117.100; -466.000; -398.000
199.923; -131.900; -610.000; -424.000
200.069;    1.100; -141.000;  -58.000
200.215;  119.300;  128.000;  453.000
200.361;   70.200;  243.000;  477.000
200.507; -128.500; -600.000; -373.000
200.653;  -77.900; -371.000; -194.000
200.798;  -87.700; -215.000; -125.000
200.944;  -33.600; -146.000;  -41.000
201.090;   70.200;   61.000;  222.000
201.236;   -7.900; -116.000; -158.000
201.382;  249.200;  874.000;  903.000
201.528;  -12.500;  -58.000;  -48.000
201.674;  -82.300; -386.000; -293.000
201.819; -126.700; -540.000; -439.000
201.965; -193.000; -699.000; -447.000
202.111;  -80.100; -273.000; -226.000
202.257;  -94.400; -250.000; -238.000
202.402;   16.000;   13.000;  -36.000
202.548;  -49.800; -169.000; -116.000
202.694;  167.200;  410.000; -183.000
202.840; -144.400; -603.000; -531.000
202.985; -182.300; -681.000; -639.000
203.131; -224.900; -832.000; -666.000
203.277;  -67.300; -199.000; -262.000
203.423; -101.700; -434.000; -520.000
203.568; -101.800; -462.000; -237.000
203.714; -132.700; -535.000; -542.000
203.860; -143.100; -682.000; -641.000
204.005;    3.200;  112.000;  167.000
204.151;  157.400;  561.000;  556.000
204.296;  -95.600; -354.000; -221.000
204.442; -178.900; -600.000; -547.000
204.588; -173.500; -592.000; -579.000
204.733;   66.600;  178.000;  168.000
204.879; -284.100;-1018.000; -822.000
205.025;   26.000;  -99.000;  126.000
205.170;   -0.200;  -17.000;   94.000
205.316;  171.500;  438.000;  661.000
205.461; -192.400; -698.000; -554.000
205.607;  186.700;  609.000;  665.000
205.752; -182.600; -626.000; -551.000
205.898; -134.900; -501.000; -391.000
206.043; -141.100; -578.000; -506.000
206.189;  -68.600; -243.000; -285.000
206.334;  166.000;  554.000;  606.000
206.480;  162.600;  409.000;  239.000
206.625; -162.700; -529.000; -552.000
206.771; -108.400; -451.000; -373.000
206.916;  -60.700; -210.000; -537.000
207.062; -157.700; -545.000; -591.000
207.207; -135.100; -546.000; -443.000
207.353;   80.400;  185.000;  460.000
207.498;   17.000;  196.000;   85.000
207.643; -126.200; -501.000; -370.000
207.789; -280.200;-1069.000; -910.000
207.934; -207.300; -665.000; -713.000
208.080;  -30.500; -154.000;   66.000
208.225;   -8.600;  -22.000;  -57.000
208.370; -175.900; -727.000; -619.000
208.516; -159.100; -741.000; -487.000
208.661;  -28.900; -127.000;  -69.000
208.806;  -57.000; -165.000; -171.000
208.952; -254.600;-1044.000; -731.000
209.097;  169.200;  378.000;  349.000
209.242;  -94.300; -307.000; -382.000
209.387;   82.300;  392.000;  350.000
209.533; -121.400; -321.000; -350.000
209.678;  155.800;  472.000;  543.000
209.823; -126.200; -408.000; -310.000
209.969; -219.900; -860.000; -757.000
210.114; -228.000; -907.000; -719.000
210.259; -257.500; -939.000; -889.000
210.404;   -6.600; -171.000;  103.000
210.549;   35.400;  108.000;    3.000
210.695;  -20.400;   -3.000;  -95.000
210.840;   75.600;   94.000;   67.000
210.985; -142.100; -484.000; -303.000
211.130;  135.400;  268.000;  406.000
211.275;    7.800;  207.000;  199.000
211.420;  -86.100; -300.000; -289.000
211.566; -141.500; -536.000; -489.000
211.711;   70.900;  218.000;  157.000
211.856; -128.200; -545.000; -519.000
212.001;   42.200;  151.000;   44.000
212.146;   23.400;  153.000;   49.000
212.291;  -32.600; -210.000; -186.000
212.436;  -54.800; -280.000;   -6.000
212.581; -158.600; -685.000; -653.000
212.726; -165.900; -487.000; -538.000
212.871;  -89.400; -552.000; -217.000
213.016; -312.000;-1172.000;-1029.000
213.161;  139.800;  406.000;  291.000
213.306; -166.900; -435.000; -577.000
213.451; -217.600; -778.000; -689.000
213.596;  -97.800; -455.000; -347.000
213.741;  -96.500; -448.000; -538.000
213.886; -169.200; -498.000; -517.000
214.031;  -64.100; -294.000; -124.000
214.176; -110.200; -408.000; -341.000
214.321;  -38.100; -296.000; -157.000
214.466;  -42.100; -163.000;  -43.000
214.611;   10.700;  -61.000;  -10.000
214.756; -233.000; -948.000; -858.000
214.901;  -60.000; -388.000; -226.000
215.046; -247.600; -797.000; -825.000
215.191;   23.200;  128.000;   35.000
215.336;  -17.000; -157.000;  -19.000
215.480; -150.700; -684.000; -505.000
215.625;  -10.100; -175.000;  -19.000
215.770; -174.300; -757.000; -662.000
215.915;    0.800;   -5.000;  -97.000
216.060;    9.300; -113.000;  -21.000
216.205; -237.100; -731.000; -779.000
216.349; -145.400; -470.000; -533.000
216.494; -300.600; -939.000; -867.000
216.639; -220.100; -823.000; -888.000
216.784; -175.500; -577.000; -525.000
216.929;  104.100;  392.000;  281.000
217.073;  -25.500; -244.000;  -31.000
217.218;   32.600;   78.000;  -47.000
217.363; -220.200; -656.000; -618.000
217.507; -164.400; -623.000; -588.000
217.652; -250.300; -845.000; -874.000
217.797; -199.600; -708.000; -659.000
217.942; -246.400; -856.000; -720.000
218.086;  122.000;  608.000;  539.000
218.231;  -46.400; -174.000;  -26.000
218.376;  -66.300; -337.000; -229.000
218.520;    8.900;  -41.000;   96.000
218.665;  -56.000; -338.000; -204.000
218.810;  -93.000; -275.000; -233.000
218.954;   35.000;  201.000;   35.000
219.099; -237.800; -713.000; -963.000
219.243; -158.900; -589.000; -554.000
219.388;  -36.500; -264.000; -136.000
219.532;   -6.100; -116.000; -116.000
219.677; -153.800; -564.000; -521.000
219.822;   -1.300;   33.000;   89.000
219.966;   23.000;   17.000;  -99.000
220.111;  -64.600; -328.000;  -40.000
220.255; -208.300; -797.000; -750.000
220.400;  -41.600; -180.000; -146.000
220.544; -154.200; -516.000; -450.000
220.689; -127.400; -422.000; -451.000
220.833;  -70.000; -123.000;  -58.000
220.978;  -79.700; -393.000; -563.000
221.122;   39.700;  319.000;  307.000
221.267; -227.200; -906.000; -837.000
221.411; -140.500; -478.000; -394.000
221.555;   -1.000; -104.000;  -23.000
221.700; -123.800; -329.000; -222.000
221.844;   49.900;  255.000;  272.000
221.989;  -91.800; -328.000; -311.000
222.133;  -56.800; -289.000; -307.000
222.277;  -12.300;    5.000;   78.000
222.422;   10.800;  227.000;  113.000
222.566;  -64.400; -381.000; -214.000
222.711;  -99.200; -414.000; -479.000
222.855; -145.600; -643.000; -586.000
222.999; -186.100; -642.000; -717.000
223.144;  -61.600; -195.000; -194.000
223.288;  122.500;  423.000;  251.000
223.432;   48.100;  184.000;  230.000
223.576;   62.900;  152.000;  -21.000
223.721;  101.100;  364.000;  273.000
223.865; -135.400; -472.000; -475.000
224.009;  453.700; 1673.000; 1631.000
224.153; -189.600; -660.000; -671.000
224.298; -134.200; -531.000; -489.000
224.442;  -14.900;  -74.000;  -33.000
224.586;   -9.900; -169.000; -106.000
224.730; -212.200; -858.000; -670.000
224.875; -247.500; -739.000; -688.000
225.019;   25.100;  102.000;  188.000
225.163;  126.500;  208.000;  341.000
225.307;   58.500;   97.000;  -91.000
225.451;  137.100;  360.000;  481.000
225.595;   79.900;  264.000;  176.000
225.739;  -45.700; -170.000;  -94.000
225.884;   43.000;   86.000;    5.000
226.028; -196.900; -760.000; -626.000
226.172;  -65.600; -260.000; -273.000
226.316; -290.900; -941.000; -902.000
226.460; -155.800; -645.000; -493.000
226.604; -116.100; -406.000; -400.000
226.748; -221.000; -836.000; -733.000
226.892;  -36.100; -227.000; -181.000
227.036;  -98.000; -537.000; -447.000
227.180; -130.500; -551.000; -375.000
227.324; -137.800; -561.000; -580.000
227.468; -250.900; -819.000; -717.000
227.612;    5.300;  242.000;  -28.000
227.756; -194.400; -845.000; -698.000
227.900;  114.500;  342.000;  441.000
228.044; -121.500; -509.000; -290.000
228.188;  148.900;  448.000;  568.000
228.332; -162.400; -546.000; -472.000
228.476;  -51.900; -223.000; -149.000
228.620;  -54.700; -210.000; -150.000
228.764;  119.100;  431.000;  349.000
228.908;   -7.500; -155.000;   30.000
229.052; -148.800; -615.000; -528.000
229.195;  -42.900; -172.000;   13.000
229.339;  -67.600; -235.000; -305.000
229.483;  -35.600;    5.000; -162.000
229.627;    6.400; -156.000;  139.000
229.771;  -89.400; -218.000; -294.000
229.915;   27.600;  230.000;   79.000
230.059; -179.600; -648.000; -663.000
230.202;  -59.600; -370.000; -317.000
230.346;  -42.400; -107.000;  107.000
230.490; -138.400; -489.000; -521.000
230.634; -251.800; -736.000; -553.000
230.777;  178.500;  478.000;  509.000
230.921; -106.100; -450.000; -359.000
231.065;  -96.300; -246.000; -286.000
231.209;   57.100;  261.000;  265.000
231.352;   49.800;   54.000;   40.000
231.496;   42.600;  568.000;  188.000
231.640; -170.300; -693.000; -621.000
231.783;  136.300;  546.000;  525.000
231.927;  -70.000; -294.000; -365.000
232.071; -245.700; -962.000; -736.000
232.214; -235.200; -980.000; -764.000
232.358; -222.500; -683.000; -599.000
232.502;   -2.200;  -19.000;    7.000
232.645; -297.700;-1090.000; -927.000
232.789;  -69.200; -257.000; -218.000
232.933; -101.700; -407.000; -224.000
233.076; -261.900;-1038.000; -897.000
233.220; -184.500; -752.000; -777.000
233.363; -152.500; -669.000; -477.000
233.507;  139.900;  371.000;  129.000
233.650; -210.700; -764.000; -834.000
233.794;   97.100;  438.000;  461.000
233.938; -132.400; -530.000; -362.000
234.081;  -19.800;  -93.000;   31.000
234.225; -152.600; -631.000; -539.000
234.368; -210.500; -773.000; -723.000
234.512;  -55.600; -385.000; -299.000
234.655; -190.200; -582.000; -555.000
234.798; -117.500; -493.000; -466.000
234.942; -265.800; -884.000;-1002.000
235.085; -183.500; -651.000; -443.000
235.229; -143.300; -405.000; -410.000
235.372;  -80.200; -247.000; -191.000
235.516; -108.800; -397.000; -321.000
235.659;   81.000;   92.000;  121.000
235.802;  -16.600;  -38.000;  -22.000
235.946;   44.000;  335.000;  215.000
236.089;   78.200;  126.000;  250.000
236.233;  105.500;  275.000;  298.000
236.376;  -99.600; -235.000; -378.000
236.519;  -95.700; -297.000; -319.000
236.663;  -44.100; -215.000; -117.000
236.806; -277.300;-1029.000; -999.000
236.949;  136.500;  543.000;  431.000
237.092;  103.800;  412.000;  391.000
237.236; -164.800; -589.000; -502.000
237.379;  158.200;  352.000;  428.000
237.522; -245.000; -879.000; -768.000
237.666;  -55.100; -271.000;   18.000
237.809; -248.700; -851.000; -823.000
237.952;   92.100;  469.000;  271.000
238.095;  -94.500; -447.000; -442.000
238.238;  192.600;  688.000;  700.000
238.382;   14.900;  166.000;  103.000
238.525; -163.500; -598.000; -511.000
238.668; -288.400;-1060.000; -985.000
238.811; -153.600; -638.000; -643.000
238.954; -118.300; -483.000; -334.000
239.097;  207.300;  617.000;  664.000
239.241;   83.500;  394.000;  326.000
239.384;  -66.000; -254.000; -214.000
239.527; -116.100; -424.000; -224.000
239.670; -307.000; -994.000;-1091.000
239.813; -230.900; -696.000; -658.000
239.956;  202.000;  579.000;  473.000
240.099; -237.700; -778.000; -725.000
240.242;  160.800;  428.000;  432.000
240.385;  111.200;  466.000;  450.000
240.528; -154.000; -706.000; -473.000
240.671;   56.100;  189.000;  134.000
240.814;  -80.800; -441.000; -158.000
240.957; -200.600; -767.000; -578.000
241.100; -196.200; -779.000; -755.000
241.243; -307.900;-1234.000; -893.000
241.386; -132.200; -508.000; -379.000
241.529; -173.100; -735.000; -547.000
241.672; -115.100; -566.000; -495.000
241.815; -228.500; -832.000; -808.000
241.958;  -26.000; -125.000; -182.000
242.101; -178.100; -545.000; -390.000
242.244;  -81.400; -270.000; -325.000
242.387;  -81.800; -304.000; -246.000
242.530;  108.800;  470.000;  134.000
242.673;  -67.100; -381.000; -309.000
242.815; -262.000; -925.000; -899.000
242.958; -156.000; -482.000; -381.000
243.101;   21.600;  132.000;  187.000
243.244; -159.600; -564.000; -521.000
243.387;  -88.400; -313.000; -316.000
243.530; -187.500; -657.000; -674.000
243.672;   16.400;   43.000;  -92.000
243.815; -111.600; -355.000; -283.000
243.958;   15.300;   98.000;  -26.000
244.101;   13.100;   59.000;  -16.000
244.243;  -27.200;  -47.000;  101.000
244.386; -231.000; -761.000; -630.000
244.529;  -38.100; -132.000; -139.000
244.672; -304.600;-1154.000; -951.000
244.814; -185.500; -621.000; -794.000
244.957; -133.800; -380.000; -304.000
245.100; -179.400; -489.000; -489.000
245.242; -103.100; -387.000; -374.000
245.385;  -10.600;  -59.000;  -39.000
245.528; -257.100; -871.000; -705.000
245.670;  197.800;  612.000;  634.000
245.813; -185.800; -599.000; -547.000
245.956;  -62.500; -324.000; -275.000
246.098; -159.500; -508.000; -650.000
246.241;   40.400;  194.000;   48.000
246.383;  -13.100; -119.000;  -73.000
246.526; -135.900; -454.000; -525.000
246.669; -237.200; -889.000; -780.000
246.811;   48.300;  172.000;   -1.000
246.954; -145.700; -512.000; -426.000
247.096;  -46.500;  -84.000;   -6.000
247.239; -121.400; -482.000; -445.000
247.381; -129.900; -647.000; -488.000
247.524;  194.600;  645.000;  679.000
247.666;  -13.700;   58.000;   11.000
247.809; -255.500; -887.000; -691.000
247.951;   -4.600;  -75.000;  138.000
248.094;   91.800;  432.000;  308.000
248.236; -344.100;-1262.000;-1238.000
248.378;  -26.100; -356.000;  -81.000
248.521;  -51.500; -334.000; -337.000
248.663;  -78.800; -236.000; -267.000
248.806;  -35.200; -300.000; -266.000
248.948; -163.900; -886.000; -763.000
249.090;  -96.700; -428.000; -398.000
249.233; -101.000; -344.000; -381.000
249.375; -127.700; -474.000; -451.000
249.518;  -25.300;  -83.000; -133.000
249.660;   24.900; -103.000;    3.000
249.802; -374.500;-1303.000;-1189.000
249.945; -125.300; -612.000; -540.000
250.087; -245.300; -834.000; -768.000
250.229; -106.800; -362.000; -480.000
250.371; -138.400; -494.000; -439.000
250.514; -133.500; -310.000; -244.000
250.656;   -8.600;   69.000;  102.000
250.798; -213.200; -849.000; -800.000
250.940; -127.700; -322.000; -322.000
251.083;  -59.300; -335.000; -111.000
251.225;  133.000;  338.000;  310.000
251.367;  -92.500; -274.000; -373.000
251.509;  -67.600; -265.000; -210.000
251.651; -222.000; -731.000; -671.000
251.794;  112.400;  538.000;  632.000
251.936; -208.400; -821.000; -747.000
252.078; -167.900; -540.000; -461.000
252.220; -112.600; -645.000; -477.000
252.362;  182.900;  344.000;  462.000
252.504; -136.300; -677.000; -584.000
252.646; -226.300; -875.000; -722.000
252.788;   10.200;   14.000; -128.000
252.931;  -75.700; -257.000; -253.000
253.073;  -60.100; -376.000; -317.000
253.215;   29.500;  141.000;  122.000
253.357;   -7.400;   82.000; -153.000
253.499;  -90.400; -374.000; -234.000
253.641; -164.900; -749.000; -594.000
253.783; -143.700; -609.000; -527.000
253.925; -150.700; -586.000; -591.000
254.067; -225.500; -744.000; -667.000
254.209;  -22.400; -391.000; -259.000
254.351; -261.300; -865.000; -883.000
254.493; -128.300; -441.000; -417.000
254.635; -194.800; -936.000; -818.000
254.777; -185.300; -752.000; -687.000
254.918; -172.400; -512.000; -430.000
255.060; -108.700; -551.000; -395.000
255.202;  -93.200; -473.000; -261.000
255.344; -146.100; -658.000; -455.000
255.486; -132.400; -471.000; -406.000
255.628; -218.700; -780.000; -781.000
255.770; -178.200; -676.000; -536.000
255.912; -107.000; -559.000; -468.000
256.053; -161.700; -730.000; -508.000
256.195;  332.100; 1008.000;  903.000
256.337; -206.000; -861.000; -595.000
256.479;  164.000;  532.000;  416.000
256.621; -104.200; -394.000; -212.000
256.762; -206.900; -789.000; -742.000
256.904;  121.200;  485.000;  487.000
257.046;  -72.200; -381.000; -271.000
257.188;  -72.100; -351.000; -264.000
257.329; -128.800; -525.000; -464.000
257.471; -224.300; -939.000; -807.000
257.613; -117.500; -584.000; -498.000
257.755; -302.500;-1073.000; -982.000
257.896;   86.100;  286.000;  392.000
258.038; -119.400; -403.000; -352.000
258.180;  -80.800; -354.000; -279.000
258.321; -162.600; -581.000; -457.000
258.463;   -2.400;  -71.000;  133.000
258.605; -166.600; -562.000; -570.000
258.746; -186.200; -886.000; -772.000
258.888; -306.000;-1026.000;-1020.000
259.029;   47.900;  121.000;   -8.000
259.171; -178.300; -614.000; -550.000
259.313;   25.200;  -49.000;  -47.000
259.454; -131.500; -536.000; -414.000
259.596;  -90.800; -483.000; -390.000
259.737; -167.000; -590.000; -474.000
259.879;   69.400;  217.000;  311.000
260.020;  261.100;  901.000;  636.000
260.162;  -33.500; -146.000; -253.000
260.303; -227.500; -768.000; -687.000
260.445; -149.100; -609.000; -613.000
260.586;   63.200;  392.000;  157.000
260.728;  -54.900; -360.000; -248.000
260.869; -118.000; -350.000; -343.000
261.011;  167.300;  706.000;  537.000
261.152; -139.600; -479.000; -319.000
261.293; -127.000; -576.000; -595.000
261.435;  -59.600; -219.000; -184.000
261.576;  -96.500; -455.000; -325.000
261.718;  143.100;  420.000;  470.000
261.859; -263.300; -940.000; -949.000
262.000; -258.700; -951.000;-1016.000
262.142;  -26.600;  -52.000;  -60.000
262.283; -218.800; -808.000; -691.000
262.424; -153.900; -666.000; -625.000
262.566; -295.900;-1161.000; -983.000
262.707; -232.400; -840.000; -830.000
262.848; -229.100; -769.000; -726.000
262.990;  -76.000; -362.000; -345.000
263.131;  166.800;  650.000;  681.000
263.272;   -1.600;  -61.000;  -41.000
263.413; -190.600; -589.000; -561.000
263.555; -124.900; -669.000; -143.000
263.696; -151.400; -550.000; -641.000
263.837; -138.300; -449.000; -551.000
263.978;    7.200;   -5.000;  -77.000
264.119; -103.400; -283.000; -264.000
264.261; -200.400; -847.000; -630.000
264.402;    0.700;   33.000;   40.000
264.543; -154.200; -509.000; -524.000
264.684;    8.600;   61.000;  -50.000
264.825; -138.000; -816.000; -538.000
264.966;   36.400;  -84.000;  -67.000
265.107; -243.100; -646.000; -670.000
265.248; -228.800; -825.000; -812.000
265.390;    9.800;  152.000;   -9.000
265.531;  -36.500; -238.000; -107.000
265.672; -181.000; -557.000; -630.000
265.813;  146.300;  563.000;  439.000
265.954; -276.900; -959.000; -940.000
266.095;  -10.000; -372.000; -322.000
266.236; -178.700; -686.000; -548.000
266.377;  -95.600; -243.000; -297.000
266.518; -114.500; -619.000; -547.000
266.659;   58.400;  170.000;  268.000
266.800;   12.100;   83.000;   85.000
266.941; -148.600; -487.000; -478.000
267.082;   41.000;  354.000;   99.000
267.223; -107.100; -344.000; -273.000
267.364; -213.800; -892.000; -686.000
267.504;  -11.200;    3.000;  135.000
267.645;   48.900;  160.000;   67.000
267.786;  -36.700; -147.000;  -86.000
267.927; -116.000; -473.000; -379.000
268.068;  -30.500; -186.000;  -61.000
268.209;  -96.200; -175.000; -413.000
268.350; -115.900; -388.000; -532.000
268.490; -163.500; -648.000; -521.000
268.631;   75.900;  127.000;  225.000
268.772; -216.300; -874.000; -647.000
268.913;  -96.800; -328.000; -476.000
269.054;  -43.500; -117.000;   12.000
269.194;  -58.100; -418.000; -402.000
269.335; -320.700;-1137.000;-1074.000
269.476;    2.800;   33.000;  -35.000
269.617;  -61.400; -347.000; -392.000
269.757; -182.600; -713.000; -646.000
269.898; -207.000; -856.000; -613.000
270.039;  -91.200; -415.000; -405.000
270.180; -245.700; -952.000; -816.000
270.320;   -9.500; -190.000; -250.000
270.461;  -48.900; -277.000; -249.000
270.602;    5.700; -186.000; -156.000
270.742; -232.500; -868.000; -943.000
270.883; -127.800; -442.000; -390.000
271.023; -113.500; -358.000; -357.000
271.164; -125.700; -607.000; -528.000
271.305; -209.800; -666.000; -654.000
271.445; -205.400; -722.000; -683.000
271.586; -121.500; -462.000; -283.000
271.726;  -72.600; -397.000; -322.000
271.867; -120.100; -594.000; -534.000
272.008;  310.000; -473.000; -285.000
272.148;  279.300;  462.000;  468.000
272.289;   33.700; -113.000; -181.000
272.429;   71.400;   19.000;  185.000
272.570; -178.600; -633.000; -737.000
272.710; -178.600; -825.000; -775.000
272.851;  -14.600;  113.000; -130.000
272.991; -313.100;-1173.000;-1077.000
273.131; -146.700; -419.000; -459.000
273.272; -193.000; -683.000; -723.000
273.412;   20.000; -143.000;  -31.000
273.553;  -90.800; -488.000; -507.000
273.693;  307.300;  913.000;  858.000
273.834; -183.900; -894.000; -692.000
273.974; -146.200; -664.000; -615.000
274.114; -176.300; -772.000; -560.000
274.255;  171.300;  414.000;  373.000
274.395;   35.500; -180.000; -125.000
274.535;  110.400;  199.000;  350.000
274.676;   76.100;  225.000;   94.000
274.816;   65.100;  110.000;   34.000
274.956; -129.200; -624.000; -690.000
275.097; -138.000;-1014.000; -922.000
275.237; -222.600; -913.000; -803.000
275.377; -187.300; -778.000; -689.000
275.517; -277.300; -878.000; -937.000
275.658;  -94.800; -590.000; -555.000
275.798; -158.600; -606.000; -413.000
275.938;   77.700;  215.000;  323.000
276.078; -168.400; -626.000; -395.000
276.218;   36.400;   99.000;  104.000
276.359; -258.100;-1026.000;-1024.000
276.499; -115.400; -605.000; -446.000
276.639;  -54.200; -305.000; -151.000
276.779;  -73.400; -475.000; -357.000
276.919; -195.400; -783.000; -624.000
277.059;  -39.700; -261.000; -212.000
277.199;  -42.100; -357.000; -259.000
277.340;  147.100;  287.000;  175.000
277.480; -174.200; -840.000; -693.000
277.620;   86.000;  192.000;   16.000
277.760; -383.300;-1533.000;-1294.000
277.900;   29.900;  113.000;   33.000
278.040;  112.100;  137.000;  159.000
278.180;  104.400;  270.000;  170.000
278.320;   12.400;   21.000;   56.000
278.460; -134.000; -443.000; -469.000
278.600; -138.800; -708.000; -598.000
278.740;  139.700;  448.000;  224.000
278.880;  -77.000; -768.000; -791.000
279.020;   65.100; -194.000; -144.000
279.160; -169.700; -672.000; -595.000
279.300; -216.500; -926.000; -873.000
279.440; -163.100; -709.000; -622.000
279.579;  -66.100;-1014.000; -929.000
279.719;  -89.700; -410.000; -394.000
279.859;  145.600;   -4.000;   41.000
279.999;   78.300; -208.000;  101.000
280.139;  -39.600; -435.000; -387.000
280.279; -161.200; -708.000; -745.000
280.419;  -16.600; -229.000; -147.000
280.559;   -5.200; -259.000; -180.000
280.698; -131.400; -790.000; -639.000
280.838; -145.100; -778.000; -800.000
280.978; -167.600; -846.000; -790.000
281.118; -200.000; -811.000; -704.000
281.257;   34.400;   24.000;    6.000
281.397; -189.800;-1094.000; -960.000
281.537; -156.800; -599.000; -712.000
281.677;   -4.100; -150.000; -101.000
281.816; -159.600; -700.000; -630.000
281.956;  -37.100; -193.000; -257.000
282.096;  -89.000; -539.000; -396.000
282.235; -212.300; -672.000; -638.000
282.375;  -33.600; -243.000;  -98.000
282.515; -200.300; -715.000; -707.000
282.654;   91.700;   29.000;  106.000
282.794;   79.700;  388.000;  244.000
282.934; -112.200; -530.000; -491.000
283.073; -236.700;-1030.000; -857.000
283.213;  -71.000; -460.000; -467.000
283.353;  -13.300; -408.000; -349.000
283.492;   -9.400; -264.000; -296.000
283.632;  -65.500; -254.000; -168.000
283.771; -165.700; -859.000; -730.000
283.911;  -59.000; -369.000; -260.000
284.050; -230.900; -794.000; -748.000
284.190; -293.500;-1229.000;-1096.000
284.329; -241.400;-1055.000; -964.000
284.469;  -97.700; -516.000; -591.000
284.608;  -88.900; -559.000; -598.000
284.748; -151.800; -614.000; -570.000
284.887;   24.500;  -87.000;  -20.000
285.027; -231.600; -844.000; -892.000
285.166;  -39.000; -192.000; -249.000
285.306;   95.200; -116.000;  -33.000
285.445;  -39.000; -229.000; -343.000
285.584; -111.400; -630.000; -494.000
285.724;  -78.500; -282.000; -322.000
285.863; -213.800; -857.000; -507.000
286.002; -108.200; -366.000; -276.000
286.142; -201.100; -715.000; -622.000
286.281; -114.800; -525.000; -493.000
286.420; -111.800; -554.000; -417.000
286.560;  230.600;  653.000;  623.000
286.699; -259.800; -958.000; -912.000
286.838; -136.500; -590.000; -591.000
286.978; -157.700; -533.000; -537.000
287.117; -261.500;-1085.000; -950.000
287.256;  -51.300; -228.000; -211.000
287.395;  -50.300; -197.000; -378.000
287.535;  -94.500; -370.000; -298.000
287.674; -124.500; -509.000; -484.000
287.813;  122.700;  661.000;  533.000
287.952; -234.300;-1010.000; -871.000
288.091; -282.600;-1049.000; -915.000
288.231;   58.700;   13.000;   15.000
288.370; -326.800;-1217.000;-1200.000
288.509; -144.300; -728.000; -645.000
288.648; -160.300; -770.000; -548.000
288.787;  -35.800; -243.000;  -87.000
288.926; -106.700; -454.000; -475.000
289.065;  272.700;  859.000;  672.000
289.204;  -81.900; -377.000; -217.000
289.344; -152.700; -791.000; -690.000
289.483;   86.100;  416.000;  304.000
289.622;  -39.800; -291.000; -149.000
289.761;   -1.700; -309.000; -166.000
289.900; -190.600; -785.000; -626.000
290.039;  -24.800;  -12.000;  -95.000
290.178;  -27.000; -274.000; -180.000
290.317; -119.900; -618.000; -479.000
290.456;  -85.100; -463.000; -451.000
290.595; -278.700; -961.000; -833.000
290.734; -230.100; -904.000; -891.000
290.873; -103.700; -456.000; -420.000
291.011; -187.700; -833.000; -843.000
291.150; -181.800; -770.000; -682.000
291.289;  -12.300; -343.000; -110.000
291.428; -159.200; -599.000; -480.000
291.567;  -89.800; -370.000; -442.000
291.706;   25.100;  109.000;  154.000
291.845; -131.500; -597.000; -505.000
291.984; -309.500;-1234.000;-1061.000
292.122;  174.900;  602.000;  582.000
292.261;  160.200;  620.000;  463.000
292.400;   60.100; -144.000;  211.000
292.539; -234.900; -959.000; -813.000
292.678;  -43.800; -325.000; -300.000
292.816; -290.300;-1136.000; -965.000
292.955; -148.200; -844.000; -684.000
293.094;    2.100; -173.000; -337.000
293.233;  -98.200; -556.000; -400.000
293.371;  -46.200; -225.000;  -84.000
293.510; -203.200; -866.000; -780.000
293.649; -211.800; -959.000; -924.000
293.787;  -80.700;-1083.000;-1012.000
293.926;   19.100; -113.000;  -32.000
294.065;  -68.900; -379.000; -290.000
294.203;  120.200;  298.000;  406.000
294.342;   68.700;   74.000;  156.000
294.481;11762.200;51180.000; -836.000
294.619;  -14.900; -425.000; -582.000
294.758; -264.500;-1230.000;-1137.000
294.896;  201.200; -125.000;    5.000
295.035; -235.600;-1040.000;-1006.000
295.174; -205.700;-1082.000; -954.000
295.312;  -54.600; -323.000; -203.000
295.451;  -16.500; -307.000; -428.000
295.589;  -30.700; -389.000; -518.000
295.728;   79.300; -292.000; -165.000
295.866;   55.300;  -36.000;  -51.000
296.005;  -99.400; -584.000; -341.000
296.143;  -88.800; -558.000; -596.000
296.282; -198.000; -957.000; -881.000
296.420; -147.100; -657.000; -557.000
296.559; -103.800; -892.000; -633.000
296.697;   93.700; -847.000; -665.000
296.835;  185.400;-1141.000;-1002.000
296.974;  181.200;  -23.000;   39.000
297.112;   74.800; -443.000; -504.000
297.251; -106.400; -815.000; -755.000
297.389;  225.900; -576.000; -438.000
297.527;  131.600; -145.000;  -83.000
297.666;  -67.600; -486.000; -438.000
297.804;  -53.300; -404.000; -264.000
297.942;   44.300; -136.000; -161.000
298.081;   36.400; -183.000;   63.000
298.219;  146.100;  -17.000;  -19.000
298.357;  125.300; -144.000;  -71.000
298.495;   61.400; -810.000; -812.000
298.634;  220.900;  245.000;  219.000
298.772;  150.000; -220.000; -338.000
298.910;  -65.300; -309.000; -182.000
299.048;    3.000; -130.000; -153.000
299.187;  -12.000; -350.000; -250.000
299.325;   64.400;   52.000;  122.000
299.463;  142.800; -389.000; -299.000
299.601;  280.300; -327.000; -271.000
299.739; -165.600; -908.000; -883.000
299.877; -116.000; -791.000; -703.000
300.016;  -86.900;-1095.000; -935.000
300.154;  377.200;  -19.000; -161.000
300.292;  187.900; -428.000; -348.000
300.430;  120.400; -408.000; -291.000
300.568; -179.700; -940.000; -874.000
300.706;  -63.300; -366.000; -469.000
300.844; -120.900;-1108.000; -979.000
300.982;  287.800;  246.000;  282.000
301.120; -189.500; -965.000; -866.000
301.258;  -91.500; -812.000; -705.000
301.396;  112.100;  104.000;  -41.000
301.534;  206.700; -218.000; -293.000
301.672;   47.900; -664.000; -521.000
301.810;  116.000; -613.000; -545.000
301.948;  325.800;   53.000;  149.000
302.086; 1174.800; -250.000;  -32.000
302.224; 2022.900; -610.000; -585.000
302.362;  155.600; -558.000; -622.000
302.500;   -5.700; -923.000; -893.000
302.638;  272.200;  128.000;  245.000
302.776;   36.300; -352.000; -408.000
302.913;  160.900;  447.000;  236.000
303.051;   34.300;  -86.000;  -23.000
303.189;  174.100;   90.000;  118.000
303.327;  -50.400; -341.000; -256.000
303.465; -141.400; -832.000; -588.000
303.603; -168.800; -805.000; -604.000
303.740;  277.900;  417.000;  241.000
303.878;   45.200; -800.000; -759.000
304.016; -174.000; -915.000; -790.000
304.154; -225.100;-1123.000;-1152.000
304.291;  -27.300; -505.000; -554.000
304.429;   55.400;  102.000;   74.000
304.567; -219.700; -908.000; -893.000
304.705;  -65.700; -408.000; -515.000
304.842;  222.800; -616.000; -540.000
304.980;  160.600;  215.000;   35.000
305.118;  130.400; -367.000; -365.000
305.255; -112.400; -945.000; -927.000
305.393;  173.500;  178.000;  239.000
305.531; -190.000;-1173.000; -956.000
305.668; -110.000; -663.000; -582.000
305.806;  169.200; -358.000; -439.000
305.943;  202.300; -629.000; -637.000
306.081;  164.000; -378.000; -267.000
306.219; -160.900; -863.000; -748.000
306.356;   24.600;  158.000;   27.000
306.494;  291.600;  981.000;  761.000
306.631;   73.200;  -11.000;  -55.000
306.769;   37.800; -613.000; -485.000
306.906;   31.300; -284.000; -258.000
307.044;  -52.100; -473.000; -488.000
307.181;  -83.900; -410.000; -332.000
307.319;   72.800;  112.000;   87.000
307.456; -278.300;-1191.000;-1153.000
307.594; -148.700; -980.000; -727.000
307.731;   11.700; -371.000; -164.000
307.868;   50.500;  -15.000;   20.000
308.006; -239.600; -961.000; -847.000
308.143;  -89.000; -618.000; -330.000
308.281;  501.700;  -37.000; -254.000
308.418;   44.600; -748.000; -640.000
308.555;  -89.300; -400.000; -250.000
308.693;  -95.100; -577.000; -573.000
308.830; -151.600; -712.000; -657.000
308.967;   51.000; -215.000;  -95.000
309.105;   -6.900; -507.000; -396.000
309.242;  185.200; -468.000; -367.000
309.379;  951.000; -577.000; -655.000
309.517;  -14.700; -936.000; -948.000
309.654; -169.800; -910.000; -734.000
309.791;  -79.100; -662.000; -580.000
309.928; -181.600; -977.000; -914.000
310.065;  428.200;  819.000;  697.000
310.203;   14.000; -825.000; -850.000
310.340;   84.800; -465.000; -321.000
310.477; -119.500; -412.000; -516.000
310.614;  -35.100; -383.000; -473.000
310.751;  -93.200; -427.000; -518.000
310.889;    9.100;    1.000;   11.000
311.026; -270.000;-1161.000; -939.000
311.163;  -49.600; -386.000; -380.000
311.300;  -81.900; -512.000; -479.000
311.437; -103.300; -658.000; -619.000
311.574; -261.200;-1226.000; -985.000
311.711;  -91.900; -595.000; -433.000
311.848;   27.700; -380.000; -388.000
311.985;   84.800;  270.000;   93.000
312.122; -202.300; -932.000; -762.000
312.259; -166.700; -941.000; -994.000
312.396;  -87.300; -508.000; -551.000
312.533; -145.900; -812.000; -790.000
312.670; -231.900;-1070.000; -898.000
312.807;  -22.400; -352.000; -367.000
312.944; -103.000; -513.000; -611.000
313.081;    4.900; -150.000; -415.000
313.218; -192.800;-1111.000; -867.000
313.355;   69.900; -531.000; -449.000
313.492;   71.200; -455.000; -292.000
313.629;  325.200;  815.000;  735.000
313.766; -273.100;-1176.000;-1008.000
313.902;   58.700; -186.000;   21.000
314.039;  -68.400; -372.000; -289.000
314.176;  136.300;  286.000;  192.000
314.313; -109.300; -569.000; -473.000
314.450; -117.600; -788.000; -684.000
314.587;  -81.300; -468.000; -480.000
314.723;   78.300;  -78.000;  130.000
314.860;  150.500;  318.000;  332.000
314.997;  140.900;  223.000;  142.000
315.134;  -35.500; -385.000; -368.000
315.270;  -15.100; -480.000; -496.000
315.407; -192.800;-1094.000; -967.000
315.544;  -82.700; -657.000; -538.000
315.681;  -61.900; -681.000; -565.000
315.817;  110.400; -133.000; -176.000
315.954;   52.800; -613.000; -392.000
316.091; -212.900;-1045.000;-1023.000
316.227;   32.300;  -71.000; -179.000
316.364;   61.400;   23.000;    6.000
316.500;  -30.200; -113.000; -300.000
316.637;  -44.300; -181.000; -302.000
316.774; -145.500; -625.000; -358.000
316.910; -129.600; -598.000; -629.000
317.047;  -80.900; -487.000; -351.000
317.183;  -90.100; -435.000; -566.000
317.320;  -29.500; -367.000; -321.000
317.456;  -98.700; -733.000; -805.000
317.593; -129.300; -598.000; -641.000
317.729;   68.900;  168.000;  -67.000
317.866; -381.200;-1434.000;-1285.000
318.002; -147.300; -708.000; -948.000
318.139; -128.300; -883.000; -867.000
318.275; -214.900;-1003.000; -738.000
318.412;  -65.200; -517.000; -336.000
318.548;  -37.300; -751.000; -720.000
318.685; -175.900; -985.000; -888.000
318.821; -148.900; -762.000; -735.000
318.957;   13.400;   34.000;  -23.000
319.094;  131.900;  297.000;  154.000
319.230;  -78.200; -756.000; -742.000
319.367;  259.100; -471.000; -520.000
319.503;  143.200; -538.000; -436.000
319.639; -179.500; -877.000; -793.000
319.775;  -88.400; -750.000; -685.000
319.912;  -62.300; -424.000; -519.000
320.048; -139.300;-1184.000;-1184.000
320.184;  166.300;   59.000;   70.000
320.321;  -83.800; -497.000; -467.000
320.457;  177.500;  475.000;  662.000
320.593;  -81.500; -375.000; -382.000
320.729; -175.500; -732.000; -734.000
320.866; -105.800; -577.000; -635.000
321.002; -147.100; -759.000; -809.000
321.138;    6.300; -135.000; -211.000
321.274;  172.600; -148.000; -115.000
321.410;  -15.600; -585.000; -353.000
321.546;  -34.100;-1011.000; -911.000
321.683;  152.500;  400.000;  185.000
321.819;   72.400;  -48.000; -117.000
321.955; -184.800; -743.000; -722.000
322.091;  -51.700; -585.000; -540.000
322.227;    4.200; -382.000; -202.000
322.363;   14.400; -320.000; -215.000
322.499;  -59.800; -343.000; -331.000
322.635;  375.800;  636.000;  443.000
322.771;  122.400; -139.000;   12.000
322.907;  232.200;  129.000;  327.000
323.043;   -4.300; -115.000; -206.000
323.179;  -10.200; -394.000; -363.000
323.315;  102.000; -401.000; -371.000
323.451;  269.300; -328.000; -236.000
323.587;  212.300;  -60.000;  -77.000
323.723;  105.200; -682.000; -601.000
323.859;  -15.400; -258.000;  -76.000
323.995;    1.500; -467.000; -409.000
324.131; -245.100; -967.000; -892.000
324.267;  -53.900; -254.000; -276.000
324.402; -215.000; -960.000; -983.000
324.538;   42.300; -279.000; -104.000
324.674;   91.200;  164.000;   77.000
324.810;  388.500;  226.000;  308.000
324.946;  102.800; -810.000; -658.000
325.082;  -91.100; -568.000; -475.000
325.217;   24.100;  -62.000;   16.000
325.353; -145.300; -764.000; -659.000
325.489; -112.400; -540.000; -506.000
325.625;  -80.900; -579.000; -525.000
325.760;  162.700;  517.000;  376.000
325.896;  -56.100; -515.000; -702.000
326.032;  -92.200; -403.000; -352.000
326.168;  -48.300; -462.000; -369.000
326.303;  -66.100; -352.000; -461.000
326.439;  -29.700; -336.000; -276.000
326.575;   36.400; -190.000;  -29.000
326.710;   41.300; -156.000;  -30.000
326.846;   35.800;  146.000;  103.000
326.982; -150.300; -530.000; -548.000
327.117; -121.000; -481.000; -442.000
327.253; -133.800; -745.000; -742.000
327.388; -260.800;-1137.000;-1153.000
327.524;  -14.700; -811.000; -578.000
327.659;   -1.600;  -58.000;  -22.000
327.795;   24.800;   69.000;   45.000
327.931; -155.600; -723.000; -499.000
328.066;    4.600; -417.000; -276.000
328.202;  111.500;   12.000; -129.000
328.337;  268.600;  957.000;  713.000
328.473;   17.600;  -12.000;  -74.000
328.608;    4.700; -256.000; -267.000
328.743; -125.100; -799.000; -664.000
328.879;   72.600;  214.000;  114.000
329.014;  -98.800; -102.000; -122.000
329.150; -112.700; -358.000; -483.000
329.285;  -87.900; -465.000; -466.000
329.421;  -38.000; -548.000; -246.000
329.556;   25.600;  -36.000;   85.000
329.691; -146.300; -633.000; -615.000
329.827; -143.600; -626.000; -480.000
329.962;  -43.800;  131.000; -301.000
330.097; -110.800; -673.000; -585.000
330.233;  -81.300; -410.000; -223.000
330.368; -213.400; -839.000; -628.000
330.503;   61.400;    3.000;   98.000
330.638;   80.500;  -93.000; -125.000
330.774;  -81.500; -609.000; -530.000
330.909;  -36.800; -434.000; -244.000
331.044; -152.900; -714.000; -708.000
331.179; -288.400;-1217.000;-1109.000
331.315;   58.700;   77.000;   20.000
331.450;   76.700;  157.000;  285.000
331.585; -165.700; -805.000; -706.000
331.720; -115.400; -510.000; -460.000
331.855;   26.100;  -35.000; -102.000
331.990;  390.400;   62.000;  138.000
332.126;  232.100; -110.000;   71.000
332.261;  -14.800; -379.000; -265.000
332.396;   33.500; -135.000; -242.000
332.531; -218.800;-1074.000;-1031.000
332.666;   40.900; -519.000; -363.000
332.801; -149.100; -726.000; -807.000
332.936;   12.300; -192.000; -122.000
333.071; -260.400; -870.000; -817.000
333.206;   82.800;  307.000;  379.000
333.341;  133.700;  344.000;  418.000
333.476; -124.900; -627.000; -623.000
333.611;  -25.500; -251.000; -173.000
333.746;  -30.200; -381.000; -464.000
333.881; -162.500; -973.000; -935.000
334.016; -178.300; -936.000; -917.000
334.151; -205.600; -746.000; -702.000
334.286;  113.400;  152.000;  186.000
334.421;   33.900; -125.000; -178.000
334.556; -102.200; -611.000; -567.000
334.690; -105.000; -631.000; -577.000
334.825;  183.100;  381.000;   83.000
334.960;  -84.400; -285.000; -413.000
335.095;   53.800;  135.000;  -91.000
335.230; -141.600; -722.000; -738.000
335.365; -209.000;-1084.000; -990.000
335.499; -213.800;-1108.000;-1037.000
335.634;  102.000;    9.000;  534.000
335.769; -143.100; -755.000; -720.000
335.904;  -44.400; -603.000; -561.000
336.038;  -30.000; -735.000; -657.000
336.173; -159.400;-1206.000;-1194.000
336.308;   71.100; -116.000; -189.000
336.443;   89.200; -544.000; -634.000
336.577; -113.000; -936.000; -787.000
336.712;  201.000;   -4.000;  -12.000
336.847;    0.700; -724.000; -607.000
336.981;  212.300; -272.000; -208.000
337.116;  693.500;  615.000;  501.000
337.250;  373.200; -434.000; -421.000
337.385;  361.500; -297.000; -208.000
337.520;   81.100; -632.000; -603.000
337.654;  -60.300; -215.000; -126.000
337.789; -227.100; -989.000; -933.000
337.923;  -35.300; -104.000; -205.000
338.058; -105.500; -673.000; -738.000
338.192;    4.400; -611.000; -488.000
338.327;   64.700;  -18.000; -155.000
338.461;  -65.100; -299.000; -469.000
338.596; -148.700; -780.000; -638.000
338.730; -155.400; -767.000; -803.000
338.865;  151.700;  -46.000; -140.000
338.999; -111.100; -846.000; -702.000
339.134;  -55.000; -634.000; -536.000
339.268;   36.200; -741.000; -603.000
339.403;  546.900; -740.000; -775.000
339.537;  110.900; -894.000; -820.000
339.671; -193.000; -829.000; -813.000
339.806; -118.000; -556.000; -512.000
339.940;   44.400; -261.000; -235.000
340.074; -118.000; -685.000; -510.000
340.209;  -49.400; -351.000; -230.000
340.343; -144.300; -517.000; -573.000
340.477;  363.500;  998.000; 1036.000
340.612; -119.200;-1033.000; -900.000
340.746;  199.900; -199.000; -243.000
340.880; -106.900; -924.000; -785.000
341.014;   -5.300;  -45.000; -154.000
341.149; -209.000; -756.000; -718.000
341.283; -187.900; -839.000; -754.000
341.417; -114.300;-1124.000; -938.000
341.551;  404.200; -768.000; -708.000
341.685;  -16.200; -633.000; -611.000
341.820;  -85.100; -562.000; -493.000
341.954;  -58.700; -218.000; -349.000
342.088; -246.300;-1102.000;-1019.000
342.222;  140.200;  565.000;  618.000
342.356;  -93.500; -395.000; -335.000
342.490; -113.200; -880.000; -841.000
342.624;  -55.700; -339.000; -242.000
342.758;   32.400; -364.000; -312.000
342.892; -112.200; -710.000; -585.000
343.026;  -16.500;  -58.000; -116.000
343.160;  -76.700; -426.000; -376.000
343.294;  -94.200; -474.000; -337.000
343.428;   13.800; -488.000; -448.000
343.562;    8.300; -172.000;  -23.000
343.696;   14.900; -385.000; -314.000
343.830;   33.900; -362.000; -356.000
343.964;   87.800; -231.000; -168.000
344.098; 1998.000;  199.000;   70.000
344.232; 1592.700; -266.000; -127.000
344.366;  194.500; -567.000; -453.000
344.500;  188.500; -665.000; -744.000
344.634;  144.200; -324.000; -164.000
344.768;   43.900; -531.000; -341.000
344.902;  114.800;  278.000;  256.000
345.035;  -79.800; -556.000; -496.000
345.169; -223.200; -933.000; -656.000
345.303;   11.100; -308.000; -482.000
345.437;  -84.600; -826.000; -717.000
345.571; -115.000; -675.000; -594.000
345.704;  -86.400; -309.000; -532.000
345.838;   14.100; -331.000; -284.000
345.972;  -34.700; -543.000; -495.000
346.106;  295.200; -179.000; -190.000
346.239;  819.700; -312.000; -243.000
346.373;   82.000; -343.000; -302.000
346.507; -230.700; -950.000; -962.000
346.640;  336.600;  -30.000;   13.000
346.774;  -33.200; -650.000; -797.000
346.908;   43.000; -138.000;  -11.000
347.041; -136.600; -646.000; -593.000
347.175;   68.300;  259.000;   27.000
347.309;  -83.800; -698.000; -628.000
347.442; -171.400; -883.000; -732.000
347.576;  647.000;  670.000;  668.000
347.709;  481.100; -123.000;  -52.000
347.843; -151.200; -933.000; -825.000
347.976;  133.300;  235.000;  294.000
348.110; -326.800;-1268.000;-1186.000
348.243; -164.800; -679.000; -772.000
348.377;   72.700;  -26.000;   60.000
348.510;  189.100;  403.000;  540.000
348.644;  -29.800;  -37.000; -159.000
348.777;   63.000;  180.000;  191.000
348.911;  -42.000; -142.000; -112.000
349.044;  419.700;  471.000;  448.000
349.178;  368.900;-1069.000;-1006.000
349.311;  306.600;  141.000;  255.000
349.444;  -29.000; -927.000; -813.000
349.578;   11.800; -347.000; -200.000
349.711; -136.900; -959.000; -862.000
349.845;   47.800; -661.000; -591.000
349.978; -267.900;-1224.000;-1137.000
350.111; -107.200; -546.000; -612.000
350.244; -132.300; -596.000; -700.000
350.378;   60.700; -392.000; -393.000
350.511;  -82.200; -393.000; -426.000
350.644; -187.000; -808.000; -806.000
350.778;   77.900;  168.000;  104.000
350.911;   80.600;  134.000;  140.000
351.044; -118.400; -685.000; -615.000
351.177;  -16.900; -321.000; -281.000
351.310;   10.900;    3.000; -131.000
351.444;  -70.600; -888.000; -788.000
351.577;  297.300;  140.000;   90.000
351.710;  301.800;  593.000;  417.000
351.843;  -16.600; -165.000;  -77.000
351.976;   82.200;  149.000;  -79.000
352.109; -125.000; -621.000; -612.000
352.242;   18.900; -464.000; -419.000
352.376;  -55.200; -580.000; -636.000
352.509;  460.400; -437.000; -356.000
352.642;   68.600; -654.000; -604.000
352.775;  187.100; -141.000;  -98.000
352.908; -194.400; -933.000; -904.000
353.041; -153.800; -814.000; -824.000
353.174;  -57.600; -551.000; -424.000
353.307; -133.700; -753.000; -764.000
353.440;  208.900;  541.000;  453.000
353.573; -181.600; -957.000;-1008.000
353.706;  -16.100; -384.000; -558.000
353.839;    9.900; -264.000; -220.000
353.971; -154.300; -657.000; -512.000
354.104; -109.300; -896.000; -835.000
354.237;  -53.000; -627.000; -662.000
354.370; -112.500; -846.000; -879.000
354.503; -306.300;-1231.000;-1308.000
354.636;   22.000; -529.000; -348.000
354.769; -189.300; -937.000; -860.000
354.902;   45.400; -230.000; -139.000
355.034;   17.300; -164.000; -220.000
355.167;   23.200; -262.000; -162.000
355.300; -146.300;-1061.000; -880.000
355.433; 1550.100;  -71.000;  -14.000
355.565; 2309.400; -402.000; -384.000
355.698;  615.200; -356.000; -296.000
355.831;   51.100; -882.000; -801.000
355.964;  233.900; -285.000; -170.000
356.096; -111.000; -856.000; -843.000
356.229;   91.200; -523.000; -530.000
356.362;  536.200; -373.000; -266.000
356.494;  935.700; -229.000; -162.000
356.627; 1058.900;  269.000;  377.000
356.760; 1096.500;  120.000;   53.000
356.892; 1482.400; -286.000; -601.000
357.025; 1383.700;  403.000;  389.000
357.157; 1311.800; -167.000; -179.000
357.290;  857.100; -856.000; -713.000
357.423;  314.900; -667.000; -556.000
357.555;  276.700; -217.000; -228.000
357.688;  296.700; -483.000; -364.000
357.820;  818.000; -870.000; -877.000
357.953; 6975.000; -563.000; -589.000
358.085; 1554.000; -632.000; -612.000
358.218; 2840.800;-1131.000; -932.000
358.350;  546.500;  -58.000;  312.000
358.483; -187.500;-1300.000;-1187.000
358.615;   49.600;-1182.000;-1078.000
358.747;  -25.500;-1187.000;-1058.000
358.880;  133.800; -810.000; -744.000
359.012;   75.500; -376.000; -202.000
359.145;  -44.400; -480.000; -511.000
359.277;  158.600; -962.000; -913.000
359.409; 5839.800;  536.000;  231.000
359.542; 1509.400; -738.000; -688.000
359.674;  180.600;   46.000;   13.000
359.806;  -80.200; -565.000; -438.000
359.939;  -56.300; -617.000; -516.000
360.071;  -28.200; -583.000; -579.000
360.203;   -4.800; -411.000; -364.000
360.335;  156.100;  164.000;  -16.000
360.468;  373.200; -249.000; -307.000
360.600; 4441.100; -547.000; -454.000
360.732; 4080.800; -546.000; -423.000
360.864;  535.000;-1216.000;-1044.000
360.996;  684.600; -516.000; -554.000
361.129;  174.500; -389.000; -598.000
361.261;  126.600;  110.000; -113.000
361.393;  -13.600; -252.000; -214.000
361.525;  133.700;   94.000;  244.000
361.657;  -59.300; -821.000; -703.000
361.789;   87.400; -139.000; -155.000
361.921;  579.400; -642.000; -593.000
362.053;  633.800;  524.000;  541.000
362.185;  164.700;  288.000;   72.000
362.318;  -68.800; -709.000; -705.000
362.450;  409.100;  294.000;  444.000
362.582;  461.900; -913.000; -870.000
362.714;   11.100; -353.000; -332.000
362.846; -141.400; -606.000; -490.000
362.978; -219.900; -941.000; -811.000
363.109;  177.900; -161.000; -260.000
363.241;  982.900; -739.000; -749.000
363.373;  713.300; -649.000; -564.000
363.505; 1068.200; -186.000;  -91.000
363.637;  242.800; -787.000; -601.000
363.769; -163.900;-1067.000;-1080.000
363.901;  -93.200; -596.000; -654.000
364.033; -165.000;-1103.000;-1062.000
364.165;   42.500; -283.000; -283.000
364.296;  171.500; -316.000; -177.000
364.428;   50.700;-1344.000;-1220.000
364.560; -107.800; -679.000; -661.000
364.692;  -90.700; -738.000; -835.000
364.824;  699.000; -588.000; -456.000
364.955;  807.600; -402.000; -564.000
365.087; 1168.600;-1097.000; -852.000
365.219;   24.900; -686.000; -816.000
365.351;  -90.600; -526.000; -572.000
365.482;  175.900;  300.000;  240.000
365.614;  -48.200; -402.000; -314.000
365.746; -149.400; -729.000; -752.000
365.877; -181.100; -706.000; -672.000
366.009;  424.300;  -35.000;  -62.000
366.141; -184.600;-1249.000;-1134.000
366.272; -163.300; -803.000; -719.000
366.404; -194.000;-1005.000; -874.000
366.535;   48.600; -139.000;  -12.000
366.667; -181.700; -644.000; -649.000
366.799;  157.100;  353.000;  203.000
366.930; -168.900; -862.000; -996.000
367.062;  261.500; -639.000; -613.000
367.193;  168.400; -872.000; -842.000
367.325;  -64.600; -580.000; -684.000
367.456;  252.200; -246.000;   31.000
367.588;  309.500; -371.000; -318.000
367.719;   98.000;  -44.000;  -45.000
367.851;   20.500; -222.000; -241.000
367.982;  -31.200; -875.000; -732.000
368.113;  267.400; -475.000; -358.000
368.245; -151.100; -960.000; -841.000
368.376;   33.600; -254.000; -302.000
368.508;   22.200; -188.000; -263.000
368.639; -232.100;-1166.000;-1034.000
368.770;   40.100; -670.000; -589.000
368.902;  -57.000; -836.000; -926.000
369.033; -181.500; -906.000; -855.000
369.164;  -60.900; -720.000; -653.000
369.296; -164.600; -452.000; -601.000
369.427;   66.500; -209.000; -144.000
369.558;  -16.900; -593.000; -377.000
369.689; -137.000; -721.000; -569.000
369.821; -233.000; -951.000; -845.000
369.952;   30.500;   42.000; -108.000
370.083;  -54.800; -229.000; -108.000
370.214; -100.800; -735.000; -650.000
370.345;   49.800;   65.000;   81.000
370.477; -125.000; -810.000; -790.000
370.608;  530.100; -328.000; -264.000
370.739;  -57.400;-1233.000;-1292.000
370.870;   10.800;-1102.000; -923.000
371.001;  274.500; -378.000; -467.000
371.132; -128.700; -754.000; -735.000
371.263;   22.700;  -42.000; -148.000
371.394; -202.900; -841.000; -748.000
371.525;  122.300;  345.000;  225.000
371.657; -110.400; -808.000; -670.000
371.788;  214.900;  103.000;  199.000
371.919;  446.300; -384.000; -304.000
372.050; 7555.900;  -91.000; -156.000
372.181; 2172.900; -188.000; -294.000
372.311;  841.900;   42.000; -127.000
372.442;  132.700; -457.000; -451.000
372.573;   34.700; -444.000; -340.000
372.704; -168.400;-1008.000; -980.000
372.835;  234.700; -228.000; -289.000
372.966;  -57.100; -646.000; -554.000
373.097;  -65.500; -575.000; -711.000
373.228;    0.200; -717.000; -542.000
373.359;  365.500; -824.000; -536.000
373.490; 2120.000; -881.000; -727.000
373.620; 2478.500;-1001.000; -803.000
373.751; 3898.500; -332.000; -396.000
373.882; 1726.100; -663.000; -733.000
374.013;  223.000; -449.000; -262.000
374.143;  -35.200; -581.000; -659.000
374.274; -181.300; -987.000; -908.000
374.405;  416.300; -388.000; -276.000
374.536; 1050.400; -526.000; -387.000
374.666; 2455.500; -759.000; -807.000
374.797;  564.700; -817.000; -868.000
374.928; 2032.600; -710.000; -560.000
375.058; 1932.100; -535.000; -500.000
375.189;  251.100;  -59.000;  -93.000
375.320; -175.300; -928.000;-1034.000
375.450;  -61.300; -625.000; -616.000
375.581;  -54.000; -526.000; -436.000
375.712;   13.700; -574.000; -250.000
375.842;  735.100; -438.000; -415.000
375.973;  493.600; -554.000; -513.000
376.103;   -7.200; -665.000; -648.000
376.234; -119.500; -531.000; -552.000
376.364;  -17.800; -944.000; -867.000
376.495;  782.000;  925.000;  529.000
376.625;  138.700; -472.000; -485.000
376.756;  210.600; -709.000; -678.000
376.886;  -94.600;-1178.000;-1026.000
377.017;   35.600;-1048.000;-1061.000
377.147;  499.500; -786.000; -782.000
377.278;  203.400;  174.000;  228.000
377.408; -217.700; -801.000; -815.000
377.538; -139.300; -707.000; -693.000
377.669; -106.900; -537.000; -613.000
377.799;  -97.500; -645.000; -635.000
377.929;  -33.500; -610.000; -428.000
378.060; -224.500; -781.000; -847.000
378.190;  -93.000; -726.000; -531.000
378.320;  -19.100; -401.000; -406.000
378.451;   95.800; -131.000;  -22.000
378.581;   93.100;  -67.000; -110.000
378.711;  412.700; 1035.000;  866.000
378.841;   48.900; -533.000; -675.000
378.972;  -85.600; -871.000; -751.000
379.102;   57.100; -652.000; -579.000
379.232;    4.300; -126.000;  -73.000
379.362; -149.900;-1001.000; -885.000
379.492;   99.700; -373.000; -424.000
379.623;  294.900;    0.000;  111.000
379.753; -134.700;-1107.000; -974.000
379.883;  510.000;   59.000;  156.000
380.013;   80.200;-1081.000;-1017.000
380.143; -139.100;-1097.000;-1056.000
380.273; -115.200; -985.000; -861.000
380.403;   66.500; -344.000; -257.000
380.533;   24.800; -651.000; -664.000
380.663;  220.500;  173.000;  128.000
380.793; -128.900;-1027.000;-1074.000
380.923;   27.500; -103.000;  -34.000
381.053;  -98.800; -613.000; -623.000
381.183;    3.100; -106.000; -248.000
381.313;  182.200; -656.000; -470.000
381.443;  116.800; -692.000; -473.000
381.573;  581.100; -402.000; -409.000
381.703;  733.800;-1249.000;-1095.000
381.833; -186.200;-1454.000;-1336.000
381.963;  256.900; -134.000;  -87.000
382.093; 2874.100; -925.000; -909.000
382.223;  820.200; -713.000; -602.000
382.353;   43.300; -801.000; -608.000
382.482;  918.100;-1091.000; -964.000
382.612; 1612.700; -872.000; -644.000
382.742;  923.200; -695.000; -622.000
382.872;  675.400; -565.000; -551.000
383.002;  199.900;  347.000; -132.000
383.131;   23.300; -226.000; -160.000
383.261;  -27.800; -706.000; -768.000
383.391;  584.400; -552.000; -377.000
383.521; 4721.800;  451.000;  263.000
383.650;  938.500; -947.000; -904.000
383.780;  -22.800; -783.000; -656.000
383.910;  301.400;  880.000;  802.000
384.039;  170.900; -794.000; -656.000
384.169;  541.000;-1205.000;-1017.000
384.299;   56.300; -650.000; -662.000
384.428;  -87.900; -764.000; -680.000
384.558;   15.700; -308.000; -275.000
384.687;   33.100; -414.000; -334.000
384.817;  137.700;   75.000;   -2.000
384.947;  170.000; -234.000; -141.000
385.076;  714.300;  982.000;  912.000
385.206;  298.700;  369.000;  480.000
385.335;   34.300; -549.000; -417.000
385.465;  -63.200; -655.000; -663.000
385.594;  401.200;  -53.000;  -44.000
385.724; 1030.800; -868.000; -838.000
385.853;  357.900; -296.000; -270.000
385.982; 3113.200; -743.000; -787.000
386.112; 4478.500;-1052.000; -871.000
386.241;  358.400; -307.000; -312.000
386.371;  103.400; -174.000;  -87.000
386.500;   70.000; -825.000; -789.000
386.629;  107.500; -874.000; -817.000
386.759;  246.100;  -43.000;   68.000
386.888;  126.500; -170.000; -250.000
387.017;  -17.300; -648.000; -620.000
387.147;  -25.200; -771.000; -798.000
387.276;  105.900; -410.000; -397.000
387.405;  117.400; -398.000; -342.000
387.535;  -21.700; -452.000; -361.000
387.664;  -83.900; -692.000; -620.000
387.793;  228.400; -198.000; -113.000
387.922; 1305.300;  255.000;  200.000
388.052;  185.500; -576.000; -423.000
388.181;  215.000; -342.000; -472.000
388.310;  238.600; -889.000; -710.000
388.439;   71.000; -749.000; -742.000
388.568;  505.200;  365.000;  244.000
388.697; 2342.600; -756.000; -653.000
388.826;  513.300; -768.000; -666.000
388.956;  218.800; -285.000; -307.000
389.085;   31.400; -347.000; -287.000
389.214; -137.500; -842.000; -872.000
389.343;  -63.200; -645.000; -413.000
389.472;  742.400;  126.000;  149.000
389.601; 1038.000;   91.000;    0.000
389.730;  127.800; -568.000; -687.000
389.859;  239.100;  226.000;   46.000
389.988;  518.000; -423.000; -408.000
390.117;  356.700; -168.000; -146.000
390.246;   89.000; -331.000; -320.000
390.375;  333.800; -673.000; -626.000
390.504;  -77.500; -703.000; -621.000
390.633; -132.900; -672.000; -726.000
390.761;  -21.900; -732.000; -645.000
390.890;  156.100;   -4.000; -130.000
391.019;   16.300; -421.000; -441.000
391.148; -201.200; -826.000; -855.000
391.277;  -19.000; -576.000; -493.000
391.406;  -64.100; -821.000; -805.000
391.534;  128.500;  574.000; -301.000
391.663;  -18.400; -583.000; -645.000
391.792; -115.100; -673.000; -701.000
391.921;  335.100;   -3.000;   15.000
392.050;  527.100; -287.000; -228.000
392.178;  -19.100;-1206.000;-1061.000
392.307;  410.900; -758.000; -712.000
392.436;  206.800; -427.000; -641.000
392.564;  122.700;  166.000;   -6.000
392.693; -129.800; -860.000; -682.000
392.822;  540.500; -529.000; -534.000
392.950;  258.400; -880.000; -714.000
393.079;  796.400; -188.000; -328.000
393.208;  116.700; -488.000; -511.000
393.336;   56.300; -170.000; -145.000
393.465;  -39.600; -317.000; -199.000
393.593;   91.000;   62.000;   79.000
393.722; -241.700;-1121.000; -916.000
393.850;    0.700; -188.000;  -61.000
393.979; -244.000; -926.000; -805.000
394.107;  -91.800; -517.000; -537.000
394.236;   14.500; -570.000; -507.000
394.364;  625.400;  383.000;  206.000
394.493;  986.300; -911.000; -767.000
394.621;   13.500; -955.000; -916.000
394.750; 1156.500; -873.000; -923.000
394.878; 4849.000; -247.000; -149.000
395.007; 6111.500; -721.000; -807.000
395.135;  464.300; -790.000; -721.000
395.263; -169.200;-1038.000;-1040.000
395.392;   72.100;  -25.000; -107.000
395.520; -219.800; -818.000; -679.000
395.648; -124.200; -865.000; -915.000
395.777;   32.400; -366.000; -405.000
395.905;  -16.300; -449.000; -564.000
396.033;  131.300;  217.000;  172.000
396.162; 1692.400; -399.000; -453.000
396.290; 1400.900;  -17.000;   -2.000
396.418;  359.200; -555.000; -514.000
396.546; -103.100; -571.000; -466.000
396.674; -158.800; -850.000; -878.000
396.803;   87.100;  -72.000;  -23.000
396.931;  309.000; -179.000; -199.000
397.059;  207.500;-1026.000; -989.000
397.187; -184.900;-1026.000; -975.000
397.315; -188.400; -884.000; -649.000
397.443; -161.500; -592.000; -443.000
397.572; -130.000; -578.000; -424.000
397.700;   65.800; -607.000; -614.000
397.828;   87.700;  120.000;  -90.000
397.956;  -73.500; -508.000; -478.000
398.084;  -90.100; -767.000; -626.000
398.212;  119.300;  137.000;  124.000
398.340;  100.000;  -56.000;  159.000
398.468;  166.900; -390.000; -169.000
398.596; -250.000; -993.000; -953.000
398.724; -211.000; -762.000; -767.000
398.852; -293.600;-1024.000; -976.000
398.980;  -41.900; -560.000; -560.000
399.108;  -52.500; -982.000; -735.000
399.236;   96.200;   13.000;    8.000
399.363;  107.000;  222.000;  196.000
399.491;  -63.200; -404.000; -398.000
399.619; -197.600; -829.000; -800.000
399.747; -146.600; -859.000; -771.000
399.875;  238.800;  220.000;  234.000
400.003;  -24.700; -359.000; -284.000
400.130; -120.700; -421.000; -341.000
400.258;   15.300;  -83.000;   38.000
400.386;  -61.800; -352.000; -168.000
400.514;   -7.900; -526.000; -587.000
400.641;  -98.700; -928.000; -802.000
400.769; -211.400; -979.000; -888.000
400.897;  -77.400; -838.000; -793.000
401.025;   94.300; -166.000; -152.000
401.152;   80.400;  220.000;   38.000
401.280;  -87.300; -430.000; -429.000
401.408; -191.600; -712.000; -576.000
401.535; -157.100; -735.000; -758.000
401.663; -335.800;-1134.000;-1054.000
401.790; -111.600; -514.000; -525.000
401.918;  127.200;  436.000;  405.000
402.046;   39.900;  134.000;  122.000
402.173;   -9.600;  -18.000;    7.000
402.301;  -75.800; -519.000; -397.000
402.428;  163.900;  528.000;  383.000
402.556; -259.100;-1188.000; -913.000
402.683;  -34.700;  -20.000;   -1.000
402.811;   17.200;  -37.000; -206.000
402.938;   48.600;   20.000;   27.000
403.066;  483.400; -574.000; -558.000
403.193;  721.000;  299.000;  239.000
403.321;  569.900; -396.000; -574.000
403.448;  680.900;   83.000;   27.000
403.575;  314.700;  -90.000;  -46.000
403.703; -115.000; -732.000; -557.000
403.830;  -68.500; -531.000; -496.000
403.957; -238.900;-1117.000;-1023.000
404.085;   98.000;  -61.000; -172.000
404.212;  273.000;  -50.000;   63.000
404.339;  484.200; -566.000; -306.000
404.467; 9312.000; -612.000; -524.000
404.594; 6350.900; -287.000; -227.000
404.721; 1690.200; -869.000; -764.000
404.848;  236.400; -113.000; -202.000
404.976; -162.700; -856.000; -783.000
405.103;   17.300;  -14.000;  -82.000
405.230;   49.900;  190.000;  226.000
405.357;  121.600;  117.000;   44.000
405.484;  476.000;  -49.000;    5.000
405.612;   72.800; -548.000; -563.000
405.739;  -41.800; -488.000; -243.000
405.866;  265.600;  669.000;  385.000
405.993;  -19.500; -398.000; -102.000
406.120; -200.600; -801.000; -887.000
406.247;  -44.600; -323.000; -342.000
406.374; 1116.800;  540.000;  629.000
406.501;  337.400; -632.000; -702.000
406.628;  -86.700; -621.000; -589.000
406.755; -138.700; -803.000; -620.000
406.882;   -3.500; -228.000; -277.000
407.009; -162.400; -719.000; -628.000
407.136;  224.600; -480.000; -401.000
407.263;  377.300; -939.000; -829.000
407.390;  -40.000; -692.000; -614.000
407.517; -211.900;-1139.000;-1187.000
407.644;  -25.700; -332.000; -256.000
407.771;  -87.700; -249.000; -287.000
407.898;   74.000;  168.000;  328.000
408.025;  -58.000; -421.000; -313.000
408.151;   66.000;   82.000;  153.000
408.278;  -66.600; -267.000; -216.000
408.405; -196.000; -931.000; -899.000
408.532;  -64.700; -549.000; -542.000
408.659; -199.100; -677.000; -648.000
408.785; -326.800;-1298.000;-1170.000
408.912;  -64.700; -412.000; -296.000
409.039; -171.300; -610.000; -686.000
409.166; -135.800; -591.000; -555.000
409.292; -153.300; -571.000; -534.000
409.419; -192.800; -665.000; -649.000
409.546; -120.000; -431.000; -192.000
409.672; -164.000; -713.000; -545.000
409.799;   60.000;  -36.000;   34.000
409.926;  -19.200; -180.000; -179.000
410.052; -299.500;-1127.000;-1091.000
410.179;  -61.700; -368.000; -392.000
410.305;  -98.400; -375.000; -493.000
410.432;    8.900; -220.000; -333.000
410.558; -103.200; -305.000; -380.000
410.685; -127.200; -688.000; -431.000
410.812; -163.400; -409.000; -588.000
410.938; -213.800; -964.000; -808.000
411.065; -154.900; -671.000; -645.000
411.191;   36.700; -189.000; -174.000
411.317; -174.800; -823.000; -742.000
411.444;  -58.400; -317.000; -246.000
411.570;  -59.700; -339.000; -294.000
411.697; -192.100; -758.000; -752.000
411.823; -271.500; -989.000; -999.000
411.949;   17.300;  -56.000;   17.000
412.076; -152.700; -539.000; -519.000
412.202; -164.400; -758.000; -757.000
412.329; -194.700; -798.000; -752.000
412.455; -186.800; -821.000; -657.000
412.581;   39.700;  -15.000;  172.000
412.707;  -59.500; -540.000; -457.000
412.834;  125.400;  156.000;  219.000
412.960; -105.200; -785.000; -784.000
413.086; -149.900; -743.000; -701.000
413.212;  450.500;  604.000;  578.000
413.339;  -34.000; -685.000; -701.000
413.465;   78.900; -364.000; -310.000
413.591;  -98.800; -757.000; -474.000
413.717;  -49.300; -358.000; -366.000
413.843; -226.800; -839.000; -861.000
413.969;  -39.600;  -47.000; -292.000
414.096; -144.300; -679.000; -679.000
414.222;   66.800;  -33.000;   85.000
414.348;   29.900; -652.000; -385.000
414.474;  280.400;   38.000;  -52.000
414.600;    3.200; -126.000; -144.000
414.726;   54.300;  -96.000;  -55.000
414.852;  -75.300; -365.000; -342.000
414.978;  116.400;  104.000;  -18.000
415.104;  148.100;   38.000;   80.000
415.230;   58.200; -329.000; -330.000
415.356;  103.400; -409.000; -514.000
415.482;  440.700;   13.000;  -35.000
415.608;  555.100; -247.000; -323.000
415.734; 1735.800;   67.000;   38.000
415.860;35444.300; -875.000; -767.000
415.986;23129.600; -685.000; -607.000
416.111; 1865.500; -798.000; -652.000
416.237;  443.700; -424.000; -571.000
416.363; 1967.400; -765.000; -733.000
416.489; 6418.200; -324.000; -251.000
416.615;  595.800; -707.000; -742.000
416.741;  -31.300; -677.000; -784.000
416.866; -149.300; -673.000; -736.000
416.992; -213.900; -801.000; -818.000
417.118;   22.200;  -41.000;  -80.000
417.244;  -63.600; -798.000; -531.000
417.369; -115.300; -801.000; -612.000
417.495;   52.500; -325.000; -254.000
417.621; -105.800;-1015.000; -803.000
417.746;   59.900; -579.000; -572.000
417.872;  140.500; -254.000; -144.000
417.998;   92.400; -515.000; -530.000
418.123; 1905.500;-1073.000; -845.000
418.249; 8512.700; -512.000; -601.000
418.374; 1031.200; -916.000; -824.000
418.500;  201.300; -383.000; -482.000
418.626;  281.500;   70.000;  -59.000
418.751;  241.800; -549.000; -448.000
418.877;  362.600; -637.000; -643.000
419.002; 3232.900; -688.000; -560.000
419.128;20180.500; -930.000; -721.000
419.253; 4393.800; -967.000; -837.000
419.379;  591.800; -391.000; -338.000
419.504;  733.800;  325.000;  415.000
419.629;  850.800; -393.000; -212.000
419.755; 5910.400; -317.000; -254.000
419.880;31400.000;  -98.000;   67.000
420.006;18899.600; -280.000; -221.000
420.131;47196.300; -662.000; -775.000
420.256; 6166.800; -315.000; -316.000
420.382;  856.300; -665.000; -687.000
420.507;   99.500; -649.000; -778.000
420.632;  367.300; -337.000; -339.000
420.758;  616.700; -251.000; -425.000
420.883; -109.100; -876.000; -672.000
421.008; -143.900; -775.000; -619.000
421.133; -118.100; -509.000; -467.000
421.259;  -33.500; -325.000; -259.000
421.384; -136.900; -834.000; -693.000
421.509;   37.500;-1052.000; -862.000
421.634; 2975.600; -936.000; -820.000
421.759; 1172.300; -359.000; -327.000
421.885;  -38.600; -717.000; -656.000
422.010;  -69.300; -673.000; -542.000
422.135; -243.800; -695.000; -727.000
422.260;  150.400;  340.000;  280.000
422.385;   12.100;   12.000;  -98.000
422.510;   79.300;  151.000;  -26.000
422.635;   88.100;  -87.000;  -43.000
422.760;  175.700; -766.000; -791.000
422.885;  163.600;  -57.000;  -80.000
423.010;   11.900; -112.000; -169.000
423.135;  -96.600; -481.000; -561.000
423.260;   90.500; -150.000; -245.000
423.385;  201.400;  476.000;  222.000
423.510;  137.500;   71.000;  -22.000
423.635;  244.900;  133.000;   45.000
423.760;  228.500;  383.000;  328.000
423.885;  164.500;  336.000;  391.000
424.010;  129.300;  -68.000;  -13.000
424.135;  -12.300;    5.000;  -33.000
424.259; -135.300; -654.000; -457.000
424.384;  -49.000; -279.000; -272.000
424.509;   48.500; -260.000; -186.000
424.634; -152.600; -761.000; -623.000
424.759;   -4.000; -688.000; -544.000
424.883;    0.600; -506.000; -527.000
425.008;  335.500; -502.000; -410.000
425.133; 3404.300; -679.000; -653.000
425.258; 1404.200; -517.000; -381.000
425.382; 2180.600; -867.000; -774.000
425.507; 5038.500; -487.000; -543.000
425.632;  737.200; -802.000; -663.000
425.756;  731.300; -256.000; -146.000
425.881;10141.000; -831.000; -857.000
426.006;24450.000; -604.000; -355.000
426.130; 3595.200; -696.000; -508.000
426.255;  481.600; -611.000; -491.000
426.379;  295.500; -189.000; -577.000
426.504;  772.600;  660.000;  544.000
426.629; 7214.100; -519.000; -466.000
426.753; 4430.100;   64.000;  -46.000
426.878;  603.100; -252.000; -288.000
427.002;  371.500; -651.000; -668.000
427.127; 2931.800;  -35.000; -158.000
427.251;18333.100;  372.000;  401.000
427.375; 4681.200; -191.000; -173.000
427.500; 4607.300; -616.000; -610.000
427.624; 1403.600; -234.000; -400.000
427.749;  284.800; -216.000; -225.000
427.873;   35.400; -499.000; -412.000
427.997;   15.100; -222.000; -230.000
428.122;  274.000;  795.000;  703.000
428.246;  253.100;  433.000;  434.000
428.371; -192.500; -869.000; -773.000
428.495; -142.200; -624.000; -646.000
428.619;   28.000; -186.000; -117.000
428.743;  130.100;   65.000;  132.000
428.868;  136.600; -732.000; -643.000
428.992; 2948.900; -219.000; -326.000
429.116; 1148.400; -329.000; -357.000
429.240;  671.900;  419.000;  426.000
429.365;   48.800; -454.000; -574.000
429.489;   33.500; -638.000; -647.000
429.613;  121.600; -236.000; -177.000
429.737;  158.500; -563.000; -432.000
429.861;  578.400; -247.000; -133.000
429.985; 9831.900; -425.000; -305.000
430.109; 9565.600; -770.000; -908.000
430.234; 1158.000;   76.000;  -50.000
430.358;  163.000; -250.000; -160.000
430.482;  -61.900; -672.000; -564.000
430.606;  -34.400; -655.000; -375.000
430.730;  167.400; -437.000; -388.000
430.854;  432.100; -909.000; -835.000
430.978;  -24.000; -795.000; -764.000
431.102;  -55.900; -499.000; -422.000
431.226;  -82.300; -874.000; -815.000
431.350;  209.600;  345.000;  422.000
431.474;  -29.500; -661.000; -373.000
431.597; -231.700;-1060.000; -848.000
431.721; -107.000; -276.000; -267.000
431.845; -236.000; -704.000; -472.000
431.969; -105.200; -304.000; -349.000
432.093; -152.800; -395.000; -317.000
432.217;   38.800;   32.000;   82.000
432.341;  -92.000; -523.000; -518.000
432.464;  113.800;   96.000;   40.000
432.588;  568.200; -401.000; -329.000
432.712;  295.400;  -52.000;  -52.000
432.836;  166.800;  213.000;  263.000
432.959;    4.500; -372.000; -311.000
433.083;  201.000;   11.000;    2.000
433.207;  652.800;  285.000;  930.000
433.330; 8463.300; -391.000; -200.000
433.454; 9323.500; -654.000; -638.000
433.578; 5660.300;  583.000;  278.000
433.701;  971.700; -623.000; -675.000
433.825;  368.000; -292.000; -299.000
433.949;  587.100;   28.000;  -72.000
434.072;  255.500; -410.000; -323.000
434.196;   35.100; -309.000; -117.000
434.319; 7900.100;25482.000;25124.000
434.443; 1442.100; -656.000; -603.000
434.566; 4282.200;  281.000;   62.000
434.690;  639.800; -637.000; -383.000
434.813;  195.500; -251.000; -173.000
434.937; -109.100; -569.000; -696.000
435.060;   15.300; -423.000; -332.000
435.184;  958.900; -492.000; -217.000
435.307;  477.100;  159.000;  102.000
435.431;   90.700;  -40.000;   24.000
435.554;  -98.900; -399.000; -240.000
435.677;  -78.200; -350.000; -258.000
435.801;    0.300;  -25.000;   49.000
435.924;  111.700;    1.000;  -67.000
436.048; -160.700;-1019.000; -732.000
436.171;  -70.200; -240.000;  -66.000
436.294;   15.400; -248.000; -229.000
436.417;  124.300; -963.000; -849.000
436.541; -126.600; -814.000; -840.000
436.664;  -12.900; -242.000; -316.000
436.787;   59.900;   13.000;  113.000
436.910; -166.200; -792.000; -422.000
437.034;  126.300;  142.000;  143.000
437.157;  295.100;  -11.000;    0.000
437.280;  -13.200; -392.000; -292.000
437.403;  -89.400; -982.000; -869.000
437.526; 1855.300; -903.000; -865.000
437.649; 5649.200; -505.000; -332.000
437.772;  776.600; -692.000; -540.000
437.896;  357.900;  700.000;  544.000
438.019;  -89.500; -758.000; -503.000
438.142;  -82.900; -596.000; -506.000
438.265;   99.100; -639.000; -670.000
438.388; 1471.800; -520.000; -410.000
438.511;  289.700; -597.000; -394.000
438.634;   -3.700; -247.000; -125.000
438.757; -208.000; -693.000; -619.000
438.880;   17.800;  -34.000;  -57.000
439.003;  -92.400; -417.000; -437.000
439.126;  -63.500; -287.000; -167.000
439.248;  -66.500;  -98.000; -139.000
439.371;  -38.000;    9.000;  -53.000
439.494;  135.700;  510.000;  439.000
439.617;  -30.900;   65.000;  -88.000
439.740; -298.900; -968.000; -816.000
439.863; -234.500; -755.000; -595.000
439.986; -163.300; -476.000; -431.000
440.108;  -42.600; -161.000; -112.000
440.231; -224.900; -950.000; -836.000
440.354;   -1.900;  -64.000; -150.000
440.477;  176.900; -566.000; -542.000
440.599;  104.900; -200.000; -225.000
440.722; -200.600; -709.000; -586.000
440.845;  201.200;  751.000;  928.000
440.968; -116.500; -415.000; -311.000
441.090;  -52.800; -199.000;  -33.000
441.213; -278.700;-1021.000; -825.000
441.336;  -59.100; -159.000;   -5.000
441.458; -103.900; -549.000; -396.000
441.581;  -99.400; -628.000; -629.000
441.703;  -95.600; -152.000;   13.000
441.826; -192.800; -557.000; -400.000
441.948;  -35.000;   56.000;   51.000
442.071;  137.100;  555.000;  424.000
442.193; -172.900; -531.000; -485.000
442.316;  105.500;  152.000;   97.000
442.438;  136.400; -233.000;  -10.000
442.561;  218.700;  272.000;  262.000
442.683; 1516.100; -809.000; -522.000
442.806; 2753.800;   -8.000;   74.000
442.928;  136.900; -859.000; -604.000
443.051;  -38.700; -577.000; -373.000
443.173; -128.400; -341.000; -339.000
443.295; -132.500; -263.000; -371.000
443.418;  -69.000; -321.000;  -29.000
443.540;   58.000; -106.000;   -4.000
443.662; -155.700; -563.000; -465.000
443.785;   46.100;  335.000;  199.000
443.907; -162.000; -362.000; -208.000
444.029; -215.500; -767.000; -494.000
444.152; -244.600; -644.000; -554.000
444.274;    9.600;  -18.000;  -24.000
444.396; -142.600; -461.000; -221.000
444.518; -230.800; -691.000; -454.000
444.640; -144.500; -268.000; -111.000
444.763;   36.800;  388.000;  249.000
444.885; -180.800; -432.000; -392.000
445.007;   10.400;   35.000;   86.000
445.129; -177.400; -610.000; -515.000
445.251; -126.300; -372.000; -439.000
445.373; -210.500; -537.000; -386.000
445.495;   66.300;  242.000;  350.000
445.617;  185.700;  853.000;  753.000
445.739;  -66.300; -215.000;  -97.000
445.861;   -5.300; -245.000; -112.000
445.984;   23.100; -267.000; -101.000
446.105;  594.200; -418.000; -251.000
446.227; 1420.700; -176.000;  -19.000
446.349;   32.500; -358.000; -249.000
446.471; -166.200; -615.000; -448.000
446.593;  -52.500; -316.000;   19.000
446.715;   57.900;  -67.000;   41.000
446.837;  232.600;  697.000;  832.000
446.959; -147.100; -457.000; -478.000
447.081; -214.200; -628.000; -518.000
447.203;  195.100;  862.000;  834.000
447.325; -136.800; -270.000;   42.000
447.446;   84.700;  286.000;  530.000
447.568; -260.500; -921.000; -803.000
447.690; -107.200; -236.000; -245.000
447.812; -226.900; -798.000; -519.000
447.933;   -9.600;  155.000;  127.000
448.055;  -64.000; -306.000; -261.000
448.177;  439.000;   31.000;   79.000
448.299;  197.100; -935.000; -727.000
448.420;   96.100;  -25.000;  159.000
448.542;  -13.300;   -3.000;   33.000
448.664;    5.900;  109.000;  322.000
448.785;  -14.000;  265.000;   83.000
448.907;  -83.500; -614.000; -353.000
449.028;   26.900; -771.000; -471.000
449.150;  193.900;  492.000;  589.000
449.272; -312.700;-1044.000; -913.000
449.393;  154.700;  612.000;  694.000
449.515; -214.900; -634.000; -581.000
449.636;  -65.500; -264.000; -155.000
449.758;  243.600;  763.000;  622.000
449.879; -120.200; -498.000; -396.000
450.001; -114.000; -149.000;  -49.000
450.122;  -14.400;  -95.000;  162.000
450.244;   28.900;   37.000;  364.000
450.365;  -92.500; -495.000; -301.000
450.486;   14.700;   80.000;  268.000
450.608;   81.400;  393.000;  326.000
450.729;  218.500;  578.000;  645.000
450.850;   11.400; -574.000; -466.000
450.972; 1190.200; -552.000; -389.000
451.093; 7705.600;  190.000;  588.000
451.214; 2795.800; -516.000; -337.000
451.336;  589.100;  773.000;  579.000
451.457;  160.200;  264.000;  393.000
451.578;  -27.900; -118.000;  -74.000
451.699; -156.900; -546.000; -540.000
451.821;  -78.600; -284.000;  -50.000
451.942;   69.500;  278.000;  285.000
452.063;  100.700;  228.000;  419.000
452.184;  989.300;  -54.000;  -49.000
452.305; 1795.700;  103.000;  170.000
452.427;  166.000; -549.000; -301.000
452.548;   19.000;   23.000;   79.000
452.669;  -23.000; -257.000;  -89.000
452.790;  -23.900;    3.000;  -18.000
452.911;   91.200;  195.000;  259.000
453.032;  -63.200; -289.000;  -60.000
453.153;    5.600;  -29.000;   81.000
453.274;  210.000;  737.000;  868.000
453.395;  -20.500;  -51.000;  175.000
453.516;  346.800; 1317.000; 1388.000
453.637;  -38.300; -205.000; -150.000
453.758;  -59.800;   15.000;   69.000
453.879; -166.100; -462.000; -250.000
454.000;  227.200; 1086.000;  948.000
454.121; -140.100; -554.000; -326.000
454.242; -171.000; -599.000; -383.000
454.362;  -26.100;  -99.000;  114.000
454.483;   -4.700; -309.000; -229.000
454.604;  199.500;  512.000;  580.000
454.725; -183.700; -627.000; -555.000
454.846; -182.000; -474.000; -406.000
454.967;   14.900;  230.000;  539.000
455.087;    4.600;  179.000;  153.000
455.208;   95.000;  554.000;  856.000
455.329;  -68.000;  -22.000;   82.000
455.450;  128.400;  473.000;  633.000
455.570; -132.500; -234.000; -211.000
455.691;  -23.500;  201.000;  407.000
455.812; -167.600; -270.000;  -92.000
455.932;  -51.100;  107.000;  -97.000
456.053; -104.200;   36.000;   24.000
456.173; -158.900; -433.000; -355.000
456.294; -213.800; -476.000; -303.000
456.415;  -62.000;  -73.000;   70.000
456.535;   32.000;  297.000;  273.000
456.656;  -17.600;  132.000;  240.000
456.776;  -59.000;    3.000;  298.000
456.897;   86.600;  308.000;  513.000
457.017;  -86.200; -153.000;   -3.000
457.138; -143.900; -402.000; -249.000
457.258;   61.800;  263.000;  224.000
457.379;   66.500;  509.000;  521.000
457.499;   21.000;  443.000;  432.000
457.620; -204.900; -407.000; -231.000
457.740; -152.800; -132.000;  -11.000
457.860;  -11.500;   87.000;   44.000
457.981;  -19.600;  132.000;  124.000
458.101;  -58.900;  -89.000;   40.000
458.221;   10.200;  336.000;  402.000
458.342;  -43.000;   -4.000;  -37.000
458.462;   95.300;  617.000;  352.000
458.582;  -24.500; -302.000; -294.000
458.703;   51.200;  303.000;  154.000
458.823;   28.800;   22.000;  163.000
458.943;  115.000;  341.000;  467.000
459.063;   37.300; 1124.000;  192.000
459.183;    5.000;  328.000;  313.000
459.304;  100.900;  315.000;  517.000
459.424;  -79.900; -246.000;  -89.000
459.544;  682.700;  388.000;  764.000
459.664; 1368.100;  499.000;  506.000
459.784;  591.000; 1004.000; 1175.000
459.904;  183.100;  867.000;  744.000
460.024;  247.200;  867.000;  684.000
460.144;  104.800;  449.000;  554.000
460.264;   55.200;  515.000;  327.000
460.385; -128.600; -145.000; -119.000
460.505;  155.400;  905.000;  858.000
460.625;  -94.000;  -17.000;  -68.000
460.745;   60.200;  396.000;  541.000
460.864;    0.400;  153.000;  469.000
460.984;  123.700;  499.000;  573.000
461.104;  361.100; 1656.000; 1775.000
461.224;  107.800;  657.000;  650.000
461.344;   17.900;  431.000;  360.000
461.464;   27.400;  258.000;  513.000
461.584;   57.000;  283.000;  466.000
461.704;  -46.000;   58.000;  108.000
461.824;  -49.100;  238.000;  259.000
461.943;  -22.600;  191.000;  130.000
462.063;  -89.500;    2.000;  324.000
462.183;  158.000;  639.000;  717.000
462.303;  300.300; 1678.000; 1230.000
462.422;  124.600;  781.000;  840.000
462.542;   -1.900;  271.000;  391.000
462.662;  164.800;  353.000;  380.000
462.782;  486.100;  833.000;  572.000
462.901;  874.600;  545.000;  717.000
463.021;  593.100; 1702.000; 1638.000
463.141;   22.700;  337.000;  770.000
463.260;   50.900;  614.000;  474.000
463.380;  106.700;  902.000;  884.000
463.499;  -27.900;  342.000;  332.000
463.619;   -1.800;  581.000;  559.000
463.738;  299.400; 1644.000;  903.000
463.858;   56.700;  657.000;  811.000
463.978;   -8.900;  542.000;  396.000
464.097;  191.800;  921.000; 1114.000
464.217;  268.900; 1196.000; 1143.000
464.336;  281.000; 1068.000; 1130.000
464.455;   11.800;  328.000;  659.000
464.575;  157.700;  597.000;  602.000
464.694;  419.600; 1204.000; 1179.000
464.814;  300.800; 1190.000; 1138.000
464.933;  246.000; 1095.000; 1027.000
465.052;  280.200; 1412.000; 1054.000
465.172;  245.200;  922.000;  799.000
465.291;  343.200; 1376.000; 1320.000
465.410;   84.800;  462.000;  735.000
465.530;  289.400; 1355.000; 1310.000
465.649;  195.800; 1209.000; 1273.000
465.768;  392.900; 1673.000; 1508.000
465.888;  177.600;  941.000; 1174.000
466.007;  282.500; 1335.000; 1440.000
466.126;   54.100;  721.000;  641.000
466.245;  174.000; 1176.000; 1187.000
466.364;   69.400;  950.000; 1060.000
466.484;  145.900; 1024.000; 1213.000
466.603;  202.800; 1101.000; 1222.000
466.722;  337.500; 1490.000; 1769.000
466.841;  251.700; 1151.000; 1401.000
466.960;  152.000; 1069.000;  972.000
467.079;  355.100; 1971.000; 1786.000
467.198;  154.900; 1238.000; 1181.000
467.317;  249.100; 1768.000; 1162.000
467.436;  225.700; 1709.000; 1261.000
467.555;  325.000; 1796.000; 1746.000
467.674;  196.500; 1227.000; 1329.000
467.793;  157.700; 1376.000; 1374.000
467.912;  231.700; 1658.000; 1539.000
468.031;  375.700; 2038.000; 1930.000
468.150;  364.700; 1842.000; 1837.000
468.269;  498.900; 2313.000; 2090.000
468.388;  489.800; 2168.000; 2339.000
468.507;  594.700; 2884.000; 2903.000
468.626;  623.000; 2555.000; 2541.000
468.744;  339.700; 2018.000; 2174.000
468.863;  454.500; 2312.000; 2523.000
468.982;  252.600; 1503.000; 1555.000
469.101;  546.700; 2788.000; 2692.000
469.220;  366.500; 2333.000; 2176.000
469.338;  563.200; 2935.000; 3051.000
469.457;  464.900; 2719.000; 2545.000
469.576;  760.300; 3953.000; 3784.000
469.695;  542.700; 2877.000; 3066.000
469.813;  982.700; 4148.000; 4192.000
469.932;  845.800; 4255.000; 4485.000
470.051;  931.100; 4075.000; 4161.000
470.169; 1714.400; 4470.000; 4338.000
470.288; 2638.700; 4700.000; 4809.000
470.406; 1596.700; 5059.000; 5194.000
470.525; 1299.600; 6101.000; 5787.000
470.644; 1420.100; 6847.000; 6794.000
470.762; 1724.100; 8397.000; 7873.000
470.881; 1910.300; 8651.000; 8464.000
470.999; 2178.200; 9685.000; 9151.000
471.118; 2279.300;11174.000;10711.000

