
Integration time [ms]: 200.000
Averaging Nr. [scans]: 10
Smoothing Nr. [pixels]: 0
Data measured with spectrometer [name]: 2101012U2
Wave   ;Sample   ;Dark     ;Reference
[nm]   ;[counts] ;[counts] ;[counts] 

197.733;  170.100;  516.000;  404.000
197.879; -182.500; -610.000; -634.000
198.025;  -84.700; -475.000; -420.000
198.171; -169.400; -602.000; -612.000
198.317;  -58.700; -401.000; -316.000
198.463; -132.900; -655.000; -404.000
198.609;   28.900;  181.000; -137.000
198.755; -170.000; -644.000; -410.000
198.901; -139.300; -505.000; -424.000
199.047; -153.400; -615.000; -488.000
199.193;  -97.300; -230.000; -468.000
199.339;  -92.200; -222.000; -369.000
199.485;   89.300;  330.000;  271.000
199.631;   54.700;  227.000;  310.000
199.777;  -82.700; -466.000; -398.000
199.923; -139.300; -610.000; -424.000
200.069;   -5.000; -141.000;  -58.000
200.215;  107.200;  128.000;  453.000
200.361;   86.600;  243.000;  477.000
200.507; -138.500; -600.000; -373.000
200.653;  -48.000; -371.000; -194.000
200.798;  -51.000; -215.000; -125.000
200.944;    6.400; -146.000;  -41.000
201.090;   51.900;   61.000;  222.000
201.236;   10.300; -116.000; -158.000
201.382;  258.100;  874.000;  903.000
201.528;   32.400;  -58.000;  -48.000
201.674; -124.600; -386.000; -293.000
201.819; -108.300; -540.000; -439.000
201.965; -166.900; -699.000; -447.000
202.111;  -45.400; -273.000; -226.000
202.257;  -74.100; -250.000; -238.000
202.402;   23.900;   13.000;  -36.000
202.548;  -92.500; -169.000; -116.000
202.694;  177.700;  410.000; -183.000
202.840; -177.800; -603.000; -531.000
202.985; -155.900; -681.000; -639.000
203.131; -203.000; -832.000; -666.000
203.277;  -39.100; -199.000; -262.000
203.423; -125.300; -434.000; -520.000
203.568;  -71.300; -462.000; -237.000
203.714; -140.100; -535.000; -542.000
203.860; -171.200; -682.000; -641.000
204.005;   28.600;  112.000;  167.000
204.151;  158.700;  561.000;  556.000
204.296;  -93.100; -354.000; -221.000
204.442; -114.500; -600.000; -547.000
204.588; -161.500; -592.000; -579.000
204.733;   64.100;  178.000;  168.000
204.879; -263.700;-1018.000; -822.000
205.025;   16.400;  -99.000;  126.000
205.170;   -2.700;  -17.000;   94.000
205.316;  158.200;  438.000;  661.000
205.461; -174.000; -698.000; -554.000
205.607;  187.000;  609.000;  665.000
205.752; -177.500; -626.000; -551.000
205.898;  -94.000; -501.000; -391.000
206.043; -172.100; -578.000; -506.000
206.189;  -70.400; -243.000; -285.000
206.334;  155.100;  554.000;  606.000
206.480;  183.100;  409.000;  239.000
206.625; -174.000; -529.000; -552.000
206.771; -102.100; -451.000; -373.000
206.916;  -75.200; -210.000; -537.000
207.062; -139.100; -545.000; -591.000
207.207; -141.700; -546.000; -443.000
207.353;  130.200;  185.000;  460.000
207.498;   25.100;  196.000;   85.000
207.643;  -72.900; -501.000; -370.000
207.789; -249.400;-1069.000; -910.000
207.934; -198.800; -665.000; -713.000
208.080;  -69.200; -154.000;   66.000
208.225;    8.300;  -22.000;  -57.000
208.370; -177.200; -727.000; -619.000
208.516; -160.300; -741.000; -487.000
208.661;  -51.600; -127.000;  -69.000
208.806;   -8.100; -165.000; -171.000
208.952; -268.100;-1044.000; -731.000
209.097;  183.800;  378.000;  349.000
209.242; -126.700; -307.000; -382.000
209.387;   82.900;  392.000;  350.000
209.533; -115.700; -321.000; -350.000
209.678;  164.200;  472.000;  543.000
209.823; -134.400; -408.000; -310.000
209.969; -215.400; -860.000; -757.000
210.114; -207.900; -907.000; -719.000
210.259; -258.900; -939.000; -889.000
210.404;  -27.800; -171.000;  103.000
210.549;   49.600;  108.000;    3.000
210.695;  -47.400;   -3.000;  -95.000
210.840;   89.400;   94.000;   67.000
210.985; -119.000; -484.000; -303.000
211.130;  164.700;  268.000;  406.000
211.275;   42.500;  207.000;  199.000
211.420; -116.900; -300.000; -289.000
211.566; -163.200; -536.000; -489.000
211.711;   82.100;  218.000;  157.000
211.856; -154.500; -545.000; -519.000
212.001;   38.300;  151.000;   44.000
212.146;   27.600;  153.000;   49.000
212.291;  -40.800; -210.000; -186.000
212.436;  -69.800; -280.000;   -6.000
212.581; -159.800; -685.000; -653.000
212.726; -151.700; -487.000; -538.000
212.871;  -72.900; -552.000; -217.000
213.016; -324.500;-1172.000;-1029.000
213.161;  142.500;  406.000;  291.000
213.306; -171.100; -435.000; -577.000
213.451; -214.900; -778.000; -689.000
213.596;  -78.800; -455.000; -347.000
213.741; -115.900; -448.000; -538.000
213.886; -191.300; -498.000; -517.000
214.031;  -45.600; -294.000; -124.000
214.176; -107.000; -408.000; -341.000
214.321;  -18.700; -296.000; -157.000
214.466;  -65.300; -163.000;  -43.000
214.611;   16.500;  -61.000;  -10.000
214.756; -254.900; -948.000; -858.000
214.901;  -68.600; -388.000; -226.000
215.046; -272.000; -797.000; -825.000
215.191;   26.900;  128.000;   35.000
215.336;  -55.300; -157.000;  -19.000
215.480; -116.900; -684.000; -505.000
215.625;  -44.700; -175.000;  -19.000
215.770; -162.000; -757.000; -662.000
215.915;   14.100;   -5.000;  -97.000
216.060;    6.900; -113.000;  -21.000
216.205; -235.900; -731.000; -779.000
216.349; -161.000; -470.000; -533.000
216.494; -293.200; -939.000; -867.000
216.639; -226.000; -823.000; -888.000
216.784; -207.300; -577.000; -525.000
216.929;  125.000;  392.000;  281.000
217.073;   11.000; -244.000;  -31.000
217.218;   40.200;   78.000;  -47.000
217.363; -190.300; -656.000; -618.000
217.507; -164.600; -623.000; -588.000
217.652; -253.500; -845.000; -874.000
217.797; -191.900; -708.000; -659.000
217.942; -233.400; -856.000; -720.000
218.086;  172.900;  608.000;  539.000
218.231;  -56.700; -174.000;  -26.000
218.376;  -32.200; -337.000; -229.000
218.520;    9.500;  -41.000;   96.000
218.665;  -45.100; -338.000; -204.000
218.810;  -67.600; -275.000; -233.000
218.954;   37.300;  201.000;   35.000
219.099; -219.000; -713.000; -963.000
219.243; -152.000; -589.000; -554.000
219.388;  -40.700; -264.000; -136.000
219.532;  -27.100; -116.000; -116.000
219.677; -149.700; -564.000; -521.000
219.822;   14.300;   33.000;   89.000
219.966;    9.100;   17.000;  -99.000
220.111;  -75.800; -328.000;  -40.000
220.255; -206.600; -797.000; -750.000
220.400;  -22.900; -180.000; -146.000
220.544; -150.100; -516.000; -450.000
220.689;  -92.000; -422.000; -451.000
220.833;  -24.700; -123.000;  -58.000
220.978;  -88.000; -393.000; -563.000
221.122;   60.000;  319.000;  307.000
221.267; -220.000; -906.000; -837.000
221.411; -152.800; -478.000; -394.000
221.555;    8.000; -104.000;  -23.000
221.700; -109.800; -329.000; -222.000
221.844;   64.800;  255.000;  272.000
221.989;  -93.400; -328.000; -311.000
222.133;  -89.800; -289.000; -307.000
222.277;  -37.900;    5.000;   78.000
222.422;   42.200;  227.000;  113.000
222.566;  -94.600; -381.000; -214.000
222.711; -100.900; -414.000; -479.000
222.855; -163.700; -643.000; -586.000
222.999; -149.200; -642.000; -717.000
223.144;  -61.800; -195.000; -194.000
223.288;  114.700;  423.000;  251.000
223.432;   36.300;  184.000;  230.000
223.576;   44.800;  152.000;  -21.000
223.721;   73.500;  364.000;  273.000
223.865;  -91.200; -472.000; -475.000
224.009;  549.000; 1673.000; 1631.000
224.153; -155.700; -660.000; -671.000
224.298; -147.000; -531.000; -489.000
224.442;  -22.100;  -74.000;  -33.000
224.586;  -16.600; -169.000; -106.000
224.730; -184.000; -858.000; -670.000
224.875; -222.000; -739.000; -688.000
225.019;   53.400;  102.000;  188.000
225.163;  116.400;  208.000;  341.000
225.307;   39.200;   97.000;  -91.000
225.451;  124.100;  360.000;  481.000
225.595;   83.200;  264.000;  176.000
225.739;  -31.600; -170.000;  -94.000
225.884;   26.000;   86.000;    5.000
226.028; -186.500; -760.000; -626.000
226.172;  -73.600; -260.000; -273.000
226.316; -257.100; -941.000; -902.000
226.460; -125.200; -645.000; -493.000
226.604; -118.300; -406.000; -400.000
226.748; -177.200; -836.000; -733.000
226.892;  -67.000; -227.000; -181.000
227.036;  -48.700; -537.000; -447.000
227.180; -129.800; -551.000; -375.000
227.324; -139.000; -561.000; -580.000
227.468; -248.000; -819.000; -717.000
227.612;   10.700;  242.000;  -28.000
227.756; -227.900; -845.000; -698.000
227.900;  117.200;  342.000;  441.000
228.044; -121.500; -509.000; -290.000
228.188;  123.400;  448.000;  568.000
228.332; -188.200; -546.000; -472.000
228.476;  -22.400; -223.000; -149.000
228.620;  -21.900; -210.000; -150.000
228.764;  177.200;  431.000;  349.000
228.908;  -40.200; -155.000;   30.000
229.052;  -95.700; -615.000; -528.000
229.195;  -31.100; -172.000;   13.000
229.339;  -51.600; -235.000; -305.000
229.483;  -73.700;    5.000; -162.000
229.627;   17.700; -156.000;  139.000
229.771; -107.900; -218.000; -294.000
229.915;   17.700;  230.000;   79.000
230.059; -176.800; -648.000; -663.000
230.202;  -55.200; -370.000; -317.000
230.346;  -14.800; -107.000;  107.000
230.490; -143.200; -489.000; -521.000
230.634; -213.700; -736.000; -553.000
230.777;  141.900;  478.000;  509.000
230.921; -118.300; -450.000; -359.000
231.065;  -82.000; -246.000; -286.000
231.209;   39.600;  261.000;  265.000
231.352;   66.100;   54.000;   40.000
231.496;   30.000;  568.000;  188.000
231.640; -163.900; -693.000; -621.000
231.783;  113.700;  546.000;  525.000
231.927;  -80.600; -294.000; -365.000
232.071; -241.400; -962.000; -736.000
232.214; -212.000; -980.000; -764.000
232.358; -166.700; -683.000; -599.000
232.502;   36.000;  -19.000;    7.000
232.645; -282.600;-1090.000; -927.000
232.789;  -40.000; -257.000; -218.000
232.933;  -52.300; -407.000; -224.000
233.076; -253.200;-1038.000; -897.000
233.220; -185.500; -752.000; -777.000
233.363; -151.100; -669.000; -477.000
233.507;  137.100;  371.000;  129.000
233.650; -173.400; -764.000; -834.000
233.794;   92.500;  438.000;  461.000
233.938; -107.700; -530.000; -362.000
234.081;   -8.100;  -93.000;   31.000
234.225; -123.900; -631.000; -539.000
234.368; -213.900; -773.000; -723.000
234.512;  -79.600; -385.000; -299.000
234.655; -183.000; -582.000; -555.000
234.798; -109.500; -493.000; -466.000
234.942; -260.000; -884.000;-1002.000
235.085; -145.200; -651.000; -443.000
235.229; -156.500; -405.000; -410.000
235.372;  -99.500; -247.000; -191.000
235.516;  -99.300; -397.000; -321.000
235.659;   60.600;   92.000;  121.000
235.802;  -38.600;  -38.000;  -22.000
235.946;   66.900;  335.000;  215.000
236.089;   76.100;  126.000;  250.000
236.233;  135.600;  275.000;  298.000
236.376; -116.300; -235.000; -378.000
236.519;  -61.000; -297.000; -319.000
236.663;  -63.500; -215.000; -117.000
236.806; -271.700;-1029.000; -999.000
236.949;  148.400;  543.000;  431.000
237.092;  130.200;  412.000;  391.000
237.236; -165.100; -589.000; -502.000
237.379;  155.400;  352.000;  428.000
237.522; -227.400; -879.000; -768.000
237.666;  -18.700; -271.000;   18.000
237.809; -244.900; -851.000; -823.000
237.952;   76.000;  469.000;  271.000
238.095; -155.400; -447.000; -442.000
238.238;  192.600;  688.000;  700.000
238.382;   -0.400;  166.000;  103.000
238.525; -180.700; -598.000; -511.000
238.668; -272.900;-1060.000; -985.000
238.811; -149.700; -638.000; -643.000
238.954;  -94.300; -483.000; -334.000
239.097;  211.600;  617.000;  664.000
239.241;   53.500;  394.000;  326.000
239.384;  -73.600; -254.000; -214.000
239.527; -141.000; -424.000; -224.000
239.670; -293.900; -994.000;-1091.000
239.813; -206.300; -696.000; -658.000
239.956;  177.400;  579.000;  473.000
240.099; -225.800; -778.000; -725.000
240.242;  154.700;  428.000;  432.000
240.385;   94.600;  466.000;  450.000
240.528; -145.000; -706.000; -473.000
240.671;   58.600;  189.000;  134.000
240.814;  -74.600; -441.000; -158.000
240.957; -189.300; -767.000; -578.000
241.100; -189.800; -779.000; -755.000
241.243; -326.900;-1234.000; -893.000
241.386; -122.100; -508.000; -379.000
241.529; -158.600; -735.000; -547.000
241.672; -100.700; -566.000; -495.000
241.815; -219.500; -832.000; -808.000
241.958;  -39.700; -125.000; -182.000
242.101; -147.000; -545.000; -390.000
242.244;  -71.100; -270.000; -325.000
242.387;  -93.400; -304.000; -246.000
242.530;  172.100;  470.000;  134.000
242.673;  -71.200; -381.000; -309.000
242.815; -222.800; -925.000; -899.000
242.958; -173.300; -482.000; -381.000
243.101;   43.800;  132.000;  187.000
243.244; -169.100; -564.000; -521.000
243.387;  -63.200; -313.000; -316.000
243.530; -195.800; -657.000; -674.000
243.672;   24.600;   43.000;  -92.000
243.815;  -90.100; -355.000; -283.000
243.958;   28.000;   98.000;  -26.000
244.101;   17.300;   59.000;  -16.000
244.243;  -30.400;  -47.000;  101.000
244.386; -218.500; -761.000; -630.000
244.529;   -3.600; -132.000; -139.000
244.672; -325.600;-1154.000; -951.000
244.814; -208.000; -621.000; -794.000
244.957; -117.000; -380.000; -304.000
245.100; -143.100; -489.000; -489.000
245.242; -122.100; -387.000; -374.000
245.385;   16.400;  -59.000;  -39.000
245.528; -236.300; -871.000; -705.000
245.670;  201.300;  612.000;  634.000
245.813; -192.100; -599.000; -547.000
245.956;  -37.600; -324.000; -275.000
246.098; -129.000; -508.000; -650.000
246.241;   29.000;  194.000;   48.000
246.383;  -33.100; -119.000;  -73.000
246.526; -158.300; -454.000; -525.000
246.669; -247.200; -889.000; -780.000
246.811;   45.100;  172.000;   -1.000
246.954; -113.300; -512.000; -426.000
247.096;  -11.800;  -84.000;   -6.000
247.239; -159.300; -482.000; -445.000
247.381; -132.300; -647.000; -488.000
247.524;  217.900;  645.000;  679.000
247.666;  -36.900;   58.000;   11.000
247.809; -218.600; -887.000; -691.000
247.951;   11.300;  -75.000;  138.000
248.094;   61.800;  432.000;  308.000
248.236; -308.100;-1262.000;-1238.000
248.378;   17.100; -356.000;  -81.000
248.521;  -15.200; -334.000; -337.000
248.663;  -89.400; -236.000; -267.000
248.806;  -50.400; -300.000; -266.000
248.948; -191.900; -886.000; -763.000
249.090;  -65.500; -428.000; -398.000
249.233; -102.500; -344.000; -381.000
249.375; -108.900; -474.000; -451.000
249.518;  -20.300;  -83.000; -133.000
249.660;  -38.500; -103.000;    3.000
249.802; -365.000;-1303.000;-1189.000
249.945; -150.000; -612.000; -540.000
250.087; -231.800; -834.000; -768.000
250.229;  -80.600; -362.000; -480.000
250.371; -147.200; -494.000; -439.000
250.514; -109.400; -310.000; -244.000
250.656; -117.300;   69.000;  102.000
250.798; -226.400; -849.000; -800.000
250.940; -132.900; -322.000; -322.000
251.083;  -58.200; -335.000; -111.000
251.225;  157.100;  338.000;  310.000
251.367;  -65.100; -274.000; -373.000
251.509;  -61.200; -265.000; -210.000
251.651; -192.600; -731.000; -671.000
251.794;  115.300;  538.000;  632.000
251.936; -211.700; -821.000; -747.000
252.078; -162.300; -540.000; -461.000
252.220; -145.700; -645.000; -477.000
252.362;  164.300;  344.000;  462.000
252.504; -141.600; -677.000; -584.000
252.646; -219.800; -875.000; -722.000
252.788;   25.800;   14.000; -128.000
252.931;  -88.500; -257.000; -253.000
253.073;  -53.900; -376.000; -317.000
253.215;  -19.300;  141.000;  122.000
253.357;   -1.000;   82.000; -153.000
253.499;  -83.800; -374.000; -234.000
253.641; -168.200; -749.000; -594.000
253.783; -174.900; -609.000; -527.000
253.925; -191.400; -586.000; -591.000
254.067; -219.500; -744.000; -667.000
254.209;  -50.900; -391.000; -259.000
254.351; -282.700; -865.000; -883.000
254.493; -120.400; -441.000; -417.000
254.635; -210.600; -936.000; -818.000
254.777; -160.300; -752.000; -687.000
254.918; -134.600; -512.000; -430.000
255.060; -105.700; -551.000; -395.000
255.202;  -92.700; -473.000; -261.000
255.344; -145.400; -658.000; -455.000
255.486; -152.200; -471.000; -406.000
255.628; -222.700; -780.000; -781.000
255.770; -151.700; -676.000; -536.000
255.912; -111.100; -559.000; -468.000
256.053; -176.700; -730.000; -508.000
256.195;  363.500; 1008.000;  903.000
256.337; -223.700; -861.000; -595.000
256.479;  162.100;  532.000;  416.000
256.621; -107.300; -394.000; -212.000
256.762; -203.700; -789.000; -742.000
256.904;  118.700;  485.000;  487.000
257.046;  -46.800; -381.000; -271.000
257.188; -109.500; -351.000; -264.000
257.329; -134.000; -525.000; -464.000
257.471; -254.500; -939.000; -807.000
257.613; -111.700; -584.000; -498.000
257.755; -295.100;-1073.000; -982.000
257.896;  101.000;  286.000;  392.000
258.038; -107.600; -403.000; -352.000
258.180;  -70.100; -354.000; -279.000
258.321; -162.600; -581.000; -457.000
258.463;   11.000;  -71.000;  133.000
258.605; -176.500; -562.000; -570.000
258.746; -205.800; -886.000; -772.000
258.888; -328.700;-1026.000;-1020.000
259.029;   67.300;  121.000;   -8.000
259.171; -152.200; -614.000; -550.000
259.313;    4.200;  -49.000;  -47.000
259.454; -123.600; -536.000; -414.000
259.596; -111.800; -483.000; -390.000
259.737; -148.000; -590.000; -474.000
259.879;  120.200;  217.000;  311.000
260.020;  199.800;  901.000;  636.000
260.162;  -57.100; -146.000; -253.000
260.303; -235.600; -768.000; -687.000
260.445; -147.300; -609.000; -613.000
260.586;   47.700;  392.000;  157.000
260.728;  -81.200; -360.000; -248.000
260.869; -134.100; -350.000; -343.000
261.011;  191.900;  706.000;  537.000
261.152; -118.500; -479.000; -319.000
261.293; -160.200; -576.000; -595.000
261.435;  -51.800; -219.000; -184.000
261.576;  -90.400; -455.000; -325.000
261.718;   96.800;  420.000;  470.000
261.859; -231.200; -940.000; -949.000
262.000; -271.900; -951.000;-1016.000
262.142;  -13.200;  -52.000;  -60.000
262.283; -237.600; -808.000; -691.000
262.424; -178.900; -666.000; -625.000
262.566; -312.100;-1161.000; -983.000
262.707; -188.000; -840.000; -830.000
262.848; -205.200; -769.000; -726.000
262.990;  -76.600; -362.000; -345.000
263.131;  197.200;  650.000;  681.000
263.272;  -32.900;  -61.000;  -41.000
263.413; -183.200; -589.000; -561.000
263.555; -111.700; -669.000; -143.000
263.696; -177.400; -550.000; -641.000
263.837;  -92.000; -449.000; -551.000
263.978;   -9.200;   -5.000;  -77.000
264.119;  -92.800; -283.000; -264.000
264.261; -239.900; -847.000; -630.000
264.402;   14.300;   33.000;   40.000
264.543; -130.700; -509.000; -524.000
264.684;  -23.700;   61.000;  -50.000
264.825; -142.000; -816.000; -538.000
264.966;   17.200;  -84.000;  -67.000
265.107; -258.700; -646.000; -670.000
265.248; -217.600; -825.000; -812.000
265.390;   -5.600;  152.000;   -9.000
265.531;   -4.800; -238.000; -107.000
265.672; -170.500; -557.000; -630.000
265.813;  131.800;  563.000;  439.000
265.954; -305.500; -959.000; -940.000
266.095;   -6.100; -372.000; -322.000
266.236; -203.600; -686.000; -548.000
266.377;  -58.300; -243.000; -297.000
266.518; -155.200; -619.000; -547.000
266.659;   89.900;  170.000;  268.000
266.800;    2.700;   83.000;   85.000
266.941; -154.400; -487.000; -478.000
267.082;   37.700;  354.000;   99.000
267.223;  -85.200; -344.000; -273.000
267.364; -249.900; -892.000; -686.000
267.504;    4.900;    3.000;  135.000
267.645;   -7.900;  160.000;   67.000
267.786;  -53.400; -147.000;  -86.000
267.927; -146.500; -473.000; -379.000
268.068;   -6.500; -186.000;  -61.000
268.209; -113.600; -175.000; -413.000
268.350; -123.800; -388.000; -532.000
268.490; -188.600; -648.000; -521.000
268.631;  105.500;  127.000;  225.000
268.772; -212.100; -874.000; -647.000
268.913;  -71.800; -328.000; -476.000
269.054;  -62.900; -117.000;   12.000
269.194;  -83.400; -418.000; -402.000
269.335; -292.000;-1137.000;-1074.000
269.476;  -27.400;   33.000;  -35.000
269.617;  -99.100; -347.000; -392.000
269.757; -180.100; -713.000; -646.000
269.898; -207.800; -856.000; -613.000
270.039; -125.200; -415.000; -405.000
270.180; -252.400; -952.000; -816.000
270.320;  -12.700; -190.000; -250.000
270.461;  -93.900; -277.000; -249.000
270.602;    0.200; -186.000; -156.000
270.742; -244.300; -868.000; -943.000
270.883;  -92.700; -442.000; -390.000
271.023; -135.800; -358.000; -357.000
271.164; -112.200; -607.000; -528.000
271.305; -203.400; -666.000; -654.000
271.445; -182.700; -722.000; -683.000
271.586; -122.300; -462.000; -283.000
271.726;  -52.100; -397.000; -322.000
271.867; -113.500; -594.000; -534.000
272.008;  330.400; -473.000; -285.000
272.148;  255.600;  462.000;  468.000
272.289;   56.500; -113.000; -181.000
272.429;   62.200;   19.000;  185.000
272.570; -165.500; -633.000; -737.000
272.710; -201.700; -825.000; -775.000
272.851;  -29.300;  113.000; -130.000
272.991; -322.000;-1173.000;-1077.000
273.131; -134.700; -419.000; -459.000
273.272; -207.300; -683.000; -723.000
273.412;   14.900; -143.000;  -31.000
273.553;  -92.900; -488.000; -507.000
273.693;  309.000;  913.000;  858.000
273.834; -185.800; -894.000; -692.000
273.974; -114.400; -664.000; -615.000
274.114; -191.200; -772.000; -560.000
274.255;  158.700;  414.000;  373.000
274.395;   13.100; -180.000; -125.000
274.535;  117.500;  199.000;  350.000
274.676;   79.300;  225.000;   94.000
274.816;   28.700;  110.000;   34.000
274.956; -169.600; -624.000; -690.000
275.097; -132.300;-1014.000; -922.000
275.237; -228.100; -913.000; -803.000
275.377; -170.000; -778.000; -689.000
275.517; -292.200; -878.000; -937.000
275.658; -120.500; -590.000; -555.000
275.798; -121.200; -606.000; -413.000
275.938;   60.700;  215.000;  323.000
276.078; -165.100; -626.000; -395.000
276.218;   53.200;   99.000;  104.000
276.359; -269.800;-1026.000;-1024.000
276.499; -137.100; -605.000; -446.000
276.639;   -6.600; -305.000; -151.000
276.779; -115.700; -475.000; -357.000
276.919; -225.100; -783.000; -624.000
277.059;   -7.900; -261.000; -212.000
277.199;  -73.600; -357.000; -259.000
277.340;  130.900;  287.000;  175.000
277.480; -220.700; -840.000; -693.000
277.620;   83.100;  192.000;   16.000
277.760; -398.000;-1533.000;-1294.000
277.900;   46.800;  113.000;   33.000
278.040;   49.300;  137.000;  159.000
278.180;   94.400;  270.000;  170.000
278.320;   42.200;   21.000;   56.000
278.460; -151.400; -443.000; -469.000
278.600; -173.100; -708.000; -598.000
278.740;  135.800;  448.000;  224.000
278.880; -103.800; -768.000; -791.000
279.020;   48.700; -194.000; -144.000
279.160; -178.800; -672.000; -595.000
279.300; -209.000; -926.000; -873.000
279.440; -195.500; -709.000; -622.000
279.579;  -55.200;-1014.000; -929.000
279.719; -140.800; -410.000; -394.000
279.859;  160.100;   -4.000;   41.000
279.999;   50.800; -208.000;  101.000
280.139;  -55.700; -435.000; -387.000
280.279; -145.500; -708.000; -745.000
280.419;  -30.200; -229.000; -147.000
280.559;  -52.200; -259.000; -180.000
280.698; -138.100; -790.000; -639.000
280.838; -167.300; -778.000; -800.000
280.978; -204.500; -846.000; -790.000
281.118; -208.800; -811.000; -704.000
281.257;   33.000;   24.000;    6.000
281.397; -220.800;-1094.000; -960.000
281.537; -153.900; -599.000; -712.000
281.677;  -30.700; -150.000; -101.000
281.816; -145.000; -700.000; -630.000
281.956;  -17.400; -193.000; -257.000
282.096;  -78.200; -539.000; -396.000
282.235; -203.200; -672.000; -638.000
282.375;  -16.000; -243.000;  -98.000
282.515; -183.200; -715.000; -707.000
282.654;   71.800;   29.000;  106.000
282.794;   97.200;  388.000;  244.000
282.934; -109.600; -530.000; -491.000
283.073; -231.600;-1030.000; -857.000
283.213;  -97.700; -460.000; -467.000
283.353;  -68.400; -408.000; -349.000
283.492;  -46.200; -264.000; -296.000
283.632;  -75.900; -254.000; -168.000
283.771; -149.400; -859.000; -730.000
283.911;  -77.700; -369.000; -260.000
284.050; -187.300; -794.000; -748.000
284.190; -318.700;-1229.000;-1096.000
284.329; -265.100;-1055.000; -964.000
284.469; -101.100; -516.000; -591.000
284.608;  -94.700; -559.000; -598.000
284.748; -149.700; -614.000; -570.000
284.887;   30.200;  -87.000;  -20.000
285.027; -242.700; -844.000; -892.000
285.166;   -2.100; -192.000; -249.000
285.306;   48.200; -116.000;  -33.000
285.445;  -72.200; -229.000; -343.000
285.584; -165.400; -630.000; -494.000
285.724;  -46.400; -282.000; -322.000
285.863; -196.200; -857.000; -507.000
286.002;  -79.600; -366.000; -276.000
286.142; -182.800; -715.000; -622.000
286.281;  -98.500; -525.000; -493.000
286.420; -149.000; -554.000; -417.000
286.560;  236.200;  653.000;  623.000
286.699; -278.000; -958.000; -912.000
286.838; -158.600; -590.000; -591.000
286.978; -145.300; -533.000; -537.000
287.117; -231.000;-1085.000; -950.000
287.256;  -63.100; -228.000; -211.000
287.395;  -89.400; -197.000; -378.000
287.535;  -68.400; -370.000; -298.000
287.674; -104.200; -509.000; -484.000
287.813;  180.800;  661.000;  533.000
287.952; -231.100;-1010.000; -871.000
288.091; -275.800;-1049.000; -915.000
288.231;   88.200;   13.000;   15.000
288.370; -336.400;-1217.000;-1200.000
288.509; -160.300; -728.000; -645.000
288.648; -186.700; -770.000; -548.000
288.787;  -38.000; -243.000;  -87.000
288.926; -111.600; -454.000; -475.000
289.065;  274.200;  859.000;  672.000
289.204;  -83.200; -377.000; -217.000
289.344; -174.300; -791.000; -690.000
289.483;   60.000;  416.000;  304.000
289.622;   -3.400; -291.000; -149.000
289.761;  -30.700; -309.000; -166.000
289.900; -190.800; -785.000; -626.000
290.039;   -4.500;  -12.000;  -95.000
290.178;  -59.600; -274.000; -180.000
290.317; -143.500; -618.000; -479.000
290.456;  -89.500; -463.000; -451.000
290.595; -287.000; -961.000; -833.000
290.734; -258.300; -904.000; -891.000
290.873; -127.200; -456.000; -420.000
291.011; -190.900; -833.000; -843.000
291.150; -181.000; -770.000; -682.000
291.289;    3.400; -343.000; -110.000
291.428; -179.300; -599.000; -480.000
291.567;  -73.100; -370.000; -442.000
291.706;   45.300;  109.000;  154.000
291.845; -161.600; -597.000; -505.000
291.984; -348.900;-1234.000;-1061.000
292.122;  165.300;  602.000;  582.000
292.261;  116.200;  620.000;  463.000
292.400;   38.300; -144.000;  211.000
292.539; -205.000; -959.000; -813.000
292.678;  -31.400; -325.000; -300.000
292.816; -257.800;-1136.000; -965.000
292.955; -153.800; -844.000; -684.000
293.094;  -20.700; -173.000; -337.000
293.233; -112.100; -556.000; -400.000
293.371;  -54.700; -225.000;  -84.000
293.510; -203.000; -866.000; -780.000
293.649; -222.000; -959.000; -924.000
293.787; -129.600;-1083.000;-1012.000
293.926;   39.100; -113.000;  -32.000
294.065;  -70.900; -379.000; -290.000
294.203;  122.500;  298.000;  406.000
294.342;   71.000;   74.000;  156.000
294.481;11708.400;51180.000; -836.000
294.619;  -16.300; -425.000; -582.000
294.758; -305.300;-1230.000;-1137.000
294.896;  199.900; -125.000;    5.000
295.035; -257.400;-1040.000;-1006.000
295.174; -227.600;-1082.000; -954.000
295.312;  -69.600; -323.000; -203.000
295.451;    1.600; -307.000; -428.000
295.589;  -97.100; -389.000; -518.000
295.728;   69.800; -292.000; -165.000
295.866;   57.900;  -36.000;  -51.000
296.005; -113.800; -584.000; -341.000
296.143;  -94.300; -558.000; -596.000
296.282; -158.100; -957.000; -881.000
296.420; -173.100; -657.000; -557.000
296.559; -162.100; -892.000; -633.000
296.697;    7.300; -847.000; -665.000
296.835;  135.500;-1141.000;-1002.000
296.974;  111.500;  -23.000;   39.000
297.112;   63.100; -443.000; -504.000
297.251; -172.900; -815.000; -755.000
297.389;  172.900; -576.000; -438.000
297.527;  117.900; -145.000;  -83.000
297.666;  -73.400; -486.000; -438.000
297.804;  -98.100; -404.000; -264.000
297.942;   32.100; -136.000; -161.000
298.081;   45.100; -183.000;   63.000
298.219;  160.700;  -17.000;  -19.000
298.357;  123.700; -144.000;  -71.000
298.495;   78.600; -810.000; -812.000
298.634;  179.700;  245.000;  219.000
298.772;  115.600; -220.000; -338.000
298.910;  -46.500; -309.000; -182.000
299.048;   32.700; -130.000; -153.000
299.187;  -35.300; -350.000; -250.000
299.325;   83.800;   52.000;  122.000
299.463;  100.300; -389.000; -299.000
299.601;  178.600; -327.000; -271.000
299.739; -202.600; -908.000; -883.000
299.877; -136.400; -791.000; -703.000
300.016; -103.600;-1095.000; -935.000
300.154;  342.200;  -19.000; -161.000
300.292;  121.800; -428.000; -348.000
300.430;   61.400; -408.000; -291.000
300.568; -191.400; -940.000; -874.000
300.706;  -58.900; -366.000; -469.000
300.844; -158.000;-1108.000; -979.000
300.982;  242.000;  246.000;  282.000
301.120; -221.900; -965.000; -866.000
301.258; -100.400; -812.000; -705.000
301.396;  100.600;  104.000;  -41.000
301.534;  195.900; -218.000; -293.000
301.672;   30.200; -664.000; -521.000
301.810;   69.500; -613.000; -545.000
301.948;  298.900;   53.000;  149.000
302.086; 1074.600; -250.000;  -32.000
302.224; 1734.700; -610.000; -585.000
302.362;  117.500; -558.000; -622.000
302.500;  -33.000; -923.000; -893.000
302.638;  281.100;  128.000;  245.000
302.776;   19.400; -352.000; -408.000
302.913;  137.500;  447.000;  236.000
303.051;   51.400;  -86.000;  -23.000
303.189;  140.200;   90.000;  118.000
303.327;  -42.000; -341.000; -256.000
303.465; -127.200; -832.000; -588.000
303.603; -170.800; -805.000; -604.000
303.740;  255.100;  417.000;  241.000
303.878;   31.800; -800.000; -759.000
304.016; -162.200; -915.000; -790.000
304.154; -250.200;-1123.000;-1152.000
304.291;  -33.800; -505.000; -554.000
304.429;   15.200;  102.000;   74.000
304.567; -221.800; -908.000; -893.000
304.705; -113.200; -408.000; -515.000
304.842;  157.700; -616.000; -540.000
304.980;  126.200;  215.000;   35.000
305.118;  102.000; -367.000; -365.000
305.255; -130.600; -945.000; -927.000
305.393;  112.000;  178.000;  239.000
305.531; -217.000;-1173.000; -956.000
305.668;  -93.400; -663.000; -582.000
305.806;  221.500; -358.000; -439.000
305.943;  182.900; -629.000; -637.000
306.081;  108.300; -378.000; -267.000
306.219; -176.000; -863.000; -748.000
306.356;   22.300;  158.000;   27.000
306.494;  275.200;  981.000;  761.000
306.631;   34.800;  -11.000;  -55.000
306.769;   58.900; -613.000; -485.000
306.906;    9.200; -284.000; -258.000
307.044;  -98.200; -473.000; -488.000
307.181; -104.900; -410.000; -332.000
307.319;  108.200;  112.000;   87.000
307.456; -322.600;-1191.000;-1153.000
307.594; -157.400; -980.000; -727.000
307.731;    5.000; -371.000; -164.000
307.868;   47.900;  -15.000;   20.000
308.006; -226.800; -961.000; -847.000
308.143;  -88.800; -618.000; -330.000
308.281;  412.900;  -37.000; -254.000
308.418;   58.800; -748.000; -640.000
308.555;  -84.800; -400.000; -250.000
308.693;  -85.800; -577.000; -573.000
308.830; -184.700; -712.000; -657.000
308.967;    9.100; -215.000;  -95.000
309.105;  -44.700; -507.000; -396.000
309.242;  144.300; -468.000; -367.000
309.379;  776.800; -577.000; -655.000
309.517;  -72.500; -936.000; -948.000
309.654; -182.600; -910.000; -734.000
309.791;  -77.200; -662.000; -580.000
309.928; -226.400; -977.000; -914.000
310.065;  403.000;  819.000;  697.000
310.203;   12.000; -825.000; -850.000
310.340;   16.800; -465.000; -321.000
310.477; -130.000; -412.000; -516.000
310.614;  -86.700; -383.000; -473.000
310.751;  -99.800; -427.000; -518.000
310.889;   13.300;    1.000;   11.000
311.026; -285.600;-1161.000; -939.000
311.163;  -38.600; -386.000; -380.000
311.300; -139.000; -512.000; -479.000
311.437; -119.200; -658.000; -619.000
311.574; -296.400;-1226.000; -985.000
311.711;  -96.300; -595.000; -433.000
311.848;  -57.300; -380.000; -388.000
311.985;   36.700;  270.000;   93.000
312.122; -204.900; -932.000; -762.000
312.259; -192.600; -941.000; -994.000
312.396; -115.500; -508.000; -551.000
312.533; -102.000; -812.000; -790.000
312.670; -233.100;-1070.000; -898.000
312.807;  -56.200; -352.000; -367.000
312.944; -118.300; -513.000; -611.000
313.081;   -6.000; -150.000; -415.000
313.218; -202.800;-1111.000; -867.000
313.355;   17.800; -531.000; -449.000
313.492;   23.200; -455.000; -292.000
313.629;  310.500;  815.000;  735.000
313.766; -294.400;-1176.000;-1008.000
313.902;    4.500; -186.000;   21.000
314.039;  -79.300; -372.000; -289.000
314.176;   87.600;  286.000;  192.000
314.313; -111.700; -569.000; -473.000
314.450; -116.000; -788.000; -684.000
314.587; -115.200; -468.000; -480.000
314.723;   60.300;  -78.000;  130.000
314.860;   97.700;  318.000;  332.000
314.997;   79.700;  223.000;  142.000
315.134;  -71.200; -385.000; -368.000
315.270;  -31.100; -480.000; -496.000
315.407; -215.400;-1094.000; -967.000
315.544;  -82.100; -657.000; -538.000
315.681; -113.500; -681.000; -565.000
315.817;  104.300; -133.000; -176.000
315.954;   13.300; -613.000; -392.000
316.091; -224.100;-1045.000;-1023.000
316.227;    7.200;  -71.000; -179.000
316.364;   65.100;   23.000;    6.000
316.500;  -47.600; -113.000; -300.000
316.637;  -48.300; -181.000; -302.000
316.774; -156.600; -625.000; -358.000
316.910; -152.700; -598.000; -629.000
317.047;  -89.800; -487.000; -351.000
317.183;  -58.800; -435.000; -566.000
317.320;  -44.200; -367.000; -321.000
317.456; -118.300; -733.000; -805.000
317.593; -145.000; -598.000; -641.000
317.729;   38.800;  168.000;  -67.000
317.866; -400.300;-1434.000;-1285.000
318.002; -155.100; -708.000; -948.000
318.139; -215.700; -883.000; -867.000
318.275; -173.600;-1003.000; -738.000
318.412;  -82.500; -517.000; -336.000
318.548;  -55.700; -751.000; -720.000
318.685; -183.400; -985.000; -888.000
318.821; -146.100; -762.000; -735.000
318.957;  -16.000;   34.000;  -23.000
319.094;  135.000;  297.000;  154.000
319.230; -141.900; -756.000; -742.000
319.367;  225.400; -471.000; -520.000
319.503;  108.100; -538.000; -436.000
319.639; -148.500; -877.000; -793.000
319.775; -120.100; -750.000; -685.000
319.912;  -63.300; -424.000; -519.000
320.048; -156.300;-1184.000;-1184.000
320.184;  190.200;   59.000;   70.000
320.321;  -85.500; -497.000; -467.000
320.457;  215.500;  475.000;  662.000
320.593;  -91.000; -375.000; -382.000
320.729; -186.200; -732.000; -734.000
320.866; -115.200; -577.000; -635.000
321.002; -123.700; -759.000; -809.000
321.138;  -22.500; -135.000; -211.000
321.274;  143.500; -148.000; -115.000
321.410;  -40.800; -585.000; -353.000
321.546;  -53.200;-1011.000; -911.000
321.683;  149.000;  400.000;  185.000
321.819;   53.400;  -48.000; -117.000
321.955; -216.500; -743.000; -722.000
322.091;  -66.600; -585.000; -540.000
322.227;   -2.400; -382.000; -202.000
322.363;   -3.200; -320.000; -215.000
322.499;  -38.300; -343.000; -331.000
322.635;  348.000;  636.000;  443.000
322.771;   84.100; -139.000;   12.000
322.907;  222.600;  129.000;  327.000
323.043;  -25.800; -115.000; -206.000
323.179;  -58.500; -394.000; -363.000
323.315;   38.600; -401.000; -371.000
323.451;  224.600; -328.000; -236.000
323.587;  176.200;  -60.000;  -77.000
323.723;   41.300; -682.000; -601.000
323.859;   -3.100; -258.000;  -76.000
323.995;  -38.500; -467.000; -409.000
324.131; -235.300; -967.000; -892.000
324.267;  -47.900; -254.000; -276.000
324.402; -268.500; -960.000; -983.000
324.538;   21.500; -279.000; -104.000
324.674;   92.100;  164.000;   77.000
324.810;  333.600;  226.000;  308.000
324.946;   41.500; -810.000; -658.000
325.082; -110.000; -568.000; -475.000
325.217;    2.600;  -62.000;   16.000
325.353; -161.500; -764.000; -659.000
325.489; -111.900; -540.000; -506.000
325.625; -109.800; -579.000; -525.000
325.760;  163.100;  517.000;  376.000
325.896;  -38.100; -515.000; -702.000
326.032;  -71.400; -403.000; -352.000
326.168; -103.000; -462.000; -369.000
326.303;  -95.400; -352.000; -461.000
326.439;   -5.400; -336.000; -276.000
326.575;   29.300; -190.000;  -29.000
326.710;   80.900; -156.000;  -30.000
326.846;   10.300;  146.000;  103.000
326.982; -155.500; -530.000; -548.000
327.117; -147.000; -481.000; -442.000
327.253; -183.200; -745.000; -742.000
327.388; -240.200;-1137.000;-1153.000
327.524;  -18.000; -811.000; -578.000
327.659;  -15.200;  -58.000;  -22.000
327.795;   23.500;   69.000;   45.000
327.931; -144.600; -723.000; -499.000
328.066;    9.300; -417.000; -276.000
328.202;    0.000;   12.000; -129.000
328.337;  277.800;  957.000;  713.000
328.473;   -5.300;  -12.000;  -74.000
328.608;    8.800; -256.000; -267.000
328.743; -159.400; -799.000; -664.000
328.879;   71.800;  214.000;  114.000
329.014; -105.600; -102.000; -122.000
329.150; -118.500; -358.000; -483.000
329.285; -130.300; -465.000; -466.000
329.421;  -49.800; -548.000; -246.000
329.556;  -18.500;  -36.000;   85.000
329.691; -147.500; -633.000; -615.000
329.827; -125.300; -626.000; -480.000
329.962;  -47.800;  131.000; -301.000
330.097; -168.100; -673.000; -585.000
330.233;  -45.300; -410.000; -223.000
330.368; -222.300; -839.000; -628.000
330.503;   -5.600;    3.000;   98.000
330.638;   27.400;  -93.000; -125.000
330.774;  -84.100; -609.000; -530.000
330.909;  -65.600; -434.000; -244.000
331.044; -171.900; -714.000; -708.000
331.179; -313.700;-1217.000;-1109.000
331.315;   77.600;   77.000;   20.000
331.450;   57.200;  157.000;  285.000
331.585; -142.000; -805.000; -706.000
331.720; -150.200; -510.000; -460.000
331.855;    8.500;  -35.000; -102.000
331.990;  449.600;   62.000;  138.000
332.126;  287.300; -110.000;   71.000
332.261;   -6.100; -379.000; -265.000
332.396;    8.000; -135.000; -242.000
332.531; -212.800;-1074.000;-1031.000
332.666;   61.600; -519.000; -363.000
332.801; -143.900; -726.000; -807.000
332.936;   -2.900; -192.000; -122.000
333.071; -281.200; -870.000; -817.000
333.206;   81.200;  307.000;  379.000
333.341;  103.700;  344.000;  418.000
333.476; -121.300; -627.000; -623.000
333.611;  -55.300; -251.000; -173.000
333.746;  -58.400; -381.000; -464.000
333.881; -214.800; -973.000; -935.000
334.016; -239.100; -936.000; -917.000
334.151; -235.600; -746.000; -702.000
334.286;  107.600;  152.000;  186.000
334.421;   -2.900; -125.000; -178.000
334.556; -119.300; -611.000; -567.000
334.690; -153.200; -631.000; -577.000
334.825;  148.500;  381.000;   83.000
334.960; -105.200; -285.000; -413.000
335.095;   55.700;  135.000;  -91.000
335.230; -161.200; -722.000; -738.000
335.365; -242.200;-1084.000; -990.000
335.499; -253.500;-1108.000;-1037.000
335.634;   78.300;    9.000;  534.000
335.769; -167.700; -755.000; -720.000
335.904; -107.300; -603.000; -561.000
336.038;  -86.200; -735.000; -657.000
336.173; -201.100;-1206.000;-1194.000
336.308;   49.800; -116.000; -189.000
336.443;   72.100; -544.000; -634.000
336.577; -157.500; -936.000; -787.000
336.712;  135.900;   -4.000;  -12.000
336.847;  -48.900; -724.000; -607.000
336.981;  150.400; -272.000; -208.000
337.116;  500.000;  615.000;  501.000
337.250;  284.600; -434.000; -421.000
337.385;  447.600; -297.000; -208.000
337.520;  172.100; -632.000; -603.000
337.654;  -15.000; -215.000; -126.000
337.789; -219.000; -989.000; -933.000
337.923;  -37.300; -104.000; -205.000
338.058; -158.500; -673.000; -738.000
338.192;  -52.100; -611.000; -488.000
338.327;   11.400;  -18.000; -155.000
338.461;  -96.000; -299.000; -469.000
338.596; -141.700; -780.000; -638.000
338.730; -165.300; -767.000; -803.000
338.865;  204.000;  -46.000; -140.000
338.999;  -88.100; -846.000; -702.000
339.134;  -22.400; -634.000; -536.000
339.268;   36.100; -741.000; -603.000
339.403;  635.500; -740.000; -775.000
339.537;  205.600; -894.000; -820.000
339.671; -196.500; -829.000; -813.000
339.806;  -95.800; -556.000; -512.000
339.940;   55.100; -261.000; -235.000
340.074; -209.700; -685.000; -510.000
340.209;  -37.100; -351.000; -230.000
340.343; -152.400; -517.000; -573.000
340.477;  358.500;  998.000; 1036.000
340.612; -114.200;-1033.000; -900.000
340.746;  260.800; -199.000; -243.000
340.880; -102.400; -924.000; -785.000
341.014;   23.100;  -45.000; -154.000
341.149; -225.700; -756.000; -718.000
341.283; -199.700; -839.000; -754.000
341.417; -161.300;-1124.000; -938.000
341.551;  262.800; -768.000; -708.000
341.685;  -35.900; -633.000; -611.000
341.820;  -65.200; -562.000; -493.000
341.954;  -74.200; -218.000; -349.000
342.088; -257.700;-1102.000;-1019.000
342.222;  123.100;  565.000;  618.000
342.356; -109.600; -395.000; -335.000
342.490; -163.200; -880.000; -841.000
342.624;  -41.000; -339.000; -242.000
342.758;   31.700; -364.000; -312.000
342.892; -101.900; -710.000; -585.000
343.026;  -40.000;  -58.000; -116.000
343.160;  -78.300; -426.000; -376.000
343.294; -150.500; -474.000; -337.000
343.428;    7.000; -488.000; -448.000
343.562;   27.300; -172.000;  -23.000
343.696;   -4.400; -385.000; -314.000
343.830;  -51.100; -362.000; -356.000
343.964;   68.700; -231.000; -168.000
344.098; 1716.300;  199.000;   70.000
344.232; 1466.900; -266.000; -127.000
344.366;  146.800; -567.000; -453.000
344.500;  155.700; -665.000; -744.000
344.634;   67.000; -324.000; -164.000
344.768;   30.900; -531.000; -341.000
344.902;   85.800;  278.000;  256.000
345.035; -123.400; -556.000; -496.000
345.169; -232.500; -933.000; -656.000
345.303;  -41.600; -308.000; -482.000
345.437; -153.900; -826.000; -717.000
345.571;  -99.500; -675.000; -594.000
345.704; -122.300; -309.000; -532.000
345.838;  -16.700; -331.000; -284.000
345.972;  -30.800; -543.000; -495.000
346.106;  319.600; -179.000; -190.000
346.239;  827.000; -312.000; -243.000
346.373;   28.800; -343.000; -302.000
346.507; -293.800; -950.000; -962.000
346.640;  289.300;  -30.000;   13.000
346.774;  -58.100; -650.000; -797.000
346.908;    9.200; -138.000;  -11.000
347.041; -164.700; -646.000; -593.000
347.175;   53.400;  259.000;   27.000
347.309; -101.100; -698.000; -628.000
347.442; -170.400; -883.000; -732.000
347.576;  597.700;  670.000;  668.000
347.709;  413.900; -123.000;  -52.000
347.843; -172.500; -933.000; -825.000
347.976;  115.200;  235.000;  294.000
348.110; -317.000;-1268.000;-1186.000
348.243; -152.600; -679.000; -772.000
348.377;   17.500;  -26.000;   60.000
348.510;  167.800;  403.000;  540.000
348.644;  -30.100;  -37.000; -159.000
348.777;   34.200;  180.000;  191.000
348.911;  -47.300; -142.000; -112.000
349.044;  394.700;  471.000;  448.000
349.178;  270.900;-1069.000;-1006.000
349.311;  254.400;  141.000;  255.000
349.444;  -15.400; -927.000; -813.000
349.578;    6.700; -347.000; -200.000
349.711; -160.700; -959.000; -862.000
349.845;   19.600; -661.000; -591.000
349.978; -263.600;-1224.000;-1137.000
350.111; -124.100; -546.000; -612.000
350.244; -121.500; -596.000; -700.000
350.378;   43.300; -392.000; -393.000
350.511; -110.700; -393.000; -426.000
350.644; -185.200; -808.000; -806.000
350.778;   27.900;  168.000;  104.000
350.911;   66.700;  134.000;  140.000
351.044; -175.900; -685.000; -615.000
351.177;  -10.700; -321.000; -281.000
351.310;    6.300;    3.000; -131.000
351.444; -155.800; -888.000; -788.000
351.577;  240.900;  140.000;   90.000
351.710;  259.500;  593.000;  417.000
351.843;  -28.900; -165.000;  -77.000
351.976;   60.000;  149.000;  -79.000
352.109; -136.900; -621.000; -612.000
352.242;   -9.100; -464.000; -419.000
352.376; -104.500; -580.000; -636.000
352.509;  306.600; -437.000; -356.000
352.642;   15.900; -654.000; -604.000
352.775;  121.000; -141.000;  -98.000
352.908; -203.700; -933.000; -904.000
353.041; -168.400; -814.000; -824.000
353.174;  -85.100; -551.000; -424.000
353.307; -144.500; -753.000; -764.000
353.440;  164.600;  541.000;  453.000
353.573; -194.500; -957.000;-1008.000
353.706;  -94.000; -384.000; -558.000
353.839;  -21.400; -264.000; -220.000
353.971; -157.900; -657.000; -512.000
354.104; -132.200; -896.000; -835.000
354.237;  -67.200; -627.000; -662.000
354.370; -126.900; -846.000; -879.000
354.503; -326.400;-1231.000;-1308.000
354.636;  -14.600; -529.000; -348.000
354.769; -265.700; -937.000; -860.000
354.902;   24.300; -230.000; -139.000
355.034;   -8.400; -164.000; -220.000
355.167;    5.400; -262.000; -162.000
355.300; -163.500;-1061.000; -880.000
355.433; 1833.500;  -71.000;  -14.000
355.565; 2842.400; -402.000; -384.000
355.698;  711.700; -356.000; -296.000
355.831;  -43.300; -882.000; -801.000
355.964;  201.300; -285.000; -170.000
356.096; -138.900; -856.000; -843.000
356.229;   29.600; -523.000; -530.000
356.362;  594.000; -373.000; -266.000
356.494; 1161.200; -229.000; -162.000
356.627;  938.300;  269.000;  377.000
356.760; 1270.800;  120.000;   53.000
356.892; 1778.600; -286.000; -601.000
357.025; 1283.400;  403.000;  389.000
357.157; 1166.800; -167.000; -179.000
357.290; 1247.800; -856.000; -713.000
357.423;  354.000; -667.000; -556.000
357.555;  272.800; -217.000; -228.000
357.688;  229.000; -483.000; -364.000
357.820;  783.900; -870.000; -877.000
357.953; 6602.000; -563.000; -589.000
358.085; 1501.700; -632.000; -612.000
358.218; 2234.600;-1131.000; -932.000
358.350;  434.700;  -58.000;  312.000
358.483; -226.800;-1300.000;-1187.000
358.615;    1.600;-1182.000;-1078.000
358.747; -105.800;-1187.000;-1058.000
358.880;   77.500; -810.000; -744.000
359.012;   40.800; -376.000; -202.000
359.145;  -45.700; -480.000; -511.000
359.277;   91.500; -962.000; -913.000
359.409; 5429.900;  536.000;  231.000
359.542; 1382.300; -738.000; -688.000
359.674;  198.200;   46.000;   13.000
359.806;  -76.600; -565.000; -438.000
359.939;  -52.700; -617.000; -516.000
360.071;   -3.000; -583.000; -579.000
360.203;  -17.800; -411.000; -364.000
360.335;  135.600;  164.000;  -16.000
360.468;  355.800; -249.000; -307.000
360.600; 4335.400; -547.000; -454.000
360.732; 5016.500; -546.000; -423.000
360.864;  647.000;-1216.000;-1044.000
360.996;  556.700; -516.000; -554.000
361.129;  141.300; -389.000; -598.000
361.261;   77.300;  110.000; -113.000
361.393;  -46.500; -252.000; -214.000
361.525;  119.400;   94.000;  244.000
361.657;  -62.900; -821.000; -703.000
361.789;   80.100; -139.000; -155.000
361.921;  443.600; -642.000; -593.000
362.053;  508.700;  524.000;  541.000
362.185;  130.800;  288.000;   72.000
362.318;  -87.900; -709.000; -705.000
362.450;  309.000;  294.000;  444.000
362.582;  226.900; -913.000; -870.000
362.714;   -5.900; -353.000; -332.000
362.846; -126.000; -606.000; -490.000
362.978; -246.400; -941.000; -811.000
363.109;  132.600; -161.000; -260.000
363.241;  873.700; -739.000; -749.000
363.373;  810.200; -649.000; -564.000
363.505; 1239.200; -186.000;  -91.000
363.637;  311.900; -787.000; -601.000
363.769; -242.200;-1067.000;-1080.000
363.901;  -95.300; -596.000; -654.000
364.033; -234.400;-1103.000;-1062.000
364.165;   55.700; -283.000; -283.000
364.296;  170.200; -316.000; -177.000
364.428;  118.500;-1344.000;-1220.000
364.560; -121.000; -679.000; -661.000
364.692; -108.400; -738.000; -835.000
364.824;  528.800; -588.000; -456.000
364.955;  867.400; -402.000; -564.000
365.087; 1643.700;-1097.000; -852.000
365.219;   82.500; -686.000; -816.000
365.351; -116.100; -526.000; -572.000
365.482;  142.900;  300.000;  240.000
365.614;  -56.800; -402.000; -314.000
365.746; -152.200; -729.000; -752.000
365.877; -195.100; -706.000; -672.000
366.009;  511.500;  -35.000;  -62.000
366.141; -154.100;-1249.000;-1134.000
366.272; -195.200; -803.000; -719.000
366.404; -211.400;-1005.000; -874.000
366.535;   42.800; -139.000;  -12.000
366.667; -206.200; -644.000; -649.000
366.799;  126.300;  353.000;  203.000
366.930; -180.700; -862.000; -996.000
367.062;  293.100; -639.000; -613.000
367.193;  273.100; -872.000; -842.000
367.325;  -98.900; -580.000; -684.000
367.456;  182.100; -246.000;   31.000
367.588;  356.600; -371.000; -318.000
367.719;   76.500;  -44.000;  -45.000
367.851;   22.200; -222.000; -241.000
367.982;  -87.300; -875.000; -732.000
368.113;  231.100; -475.000; -358.000
368.245; -215.900; -960.000; -841.000
368.376;    9.400; -254.000; -302.000
368.508;  -31.500; -188.000; -263.000
368.639; -223.700;-1166.000;-1034.000
368.770;   13.200; -670.000; -589.000
368.902; -102.300; -836.000; -926.000
369.033; -197.700; -906.000; -855.000
369.164;  -71.500; -720.000; -653.000
369.296; -194.900; -452.000; -601.000
369.427;   58.900; -209.000; -144.000
369.558;  -29.400; -593.000; -377.000
369.689; -108.700; -721.000; -569.000
369.821; -254.100; -951.000; -845.000
369.952;   40.500;   42.000; -108.000
370.083;  -77.200; -229.000; -108.000
370.214; -136.400; -735.000; -650.000
370.345;   32.400;   65.000;   81.000
370.477; -161.700; -810.000; -790.000
370.608;  435.200; -328.000; -264.000
370.739;  -99.500;-1233.000;-1292.000
370.870;  -27.700;-1102.000; -923.000
371.001;  236.800; -378.000; -467.000
371.132; -158.700; -754.000; -735.000
371.263;  -15.300;  -42.000; -148.000
371.394; -240.000; -841.000; -748.000
371.525;  128.000;  345.000;  225.000
371.657; -155.000; -808.000; -670.000
371.788;  191.000;  103.000;  199.000
371.919;  357.400; -384.000; -304.000
372.050; 6709.100;  -91.000; -156.000
372.181; 1909.000; -188.000; -294.000
372.311;  719.400;   42.000; -127.000
372.442;   83.100; -457.000; -451.000
372.573;  -13.000; -444.000; -340.000
372.704; -216.000;-1008.000; -980.000
372.835;  198.300; -228.000; -289.000
372.966; -122.100; -646.000; -554.000
373.097;  -80.700; -575.000; -711.000
373.228;  -44.500; -717.000; -542.000
373.359;  283.900; -824.000; -536.000
373.490; 1676.400; -881.000; -727.000
373.620; 2115.900;-1001.000; -803.000
373.751; 3361.400; -332.000; -396.000
373.882; 1447.000; -663.000; -733.000
374.013;  155.400; -449.000; -262.000
374.143;  -26.400; -581.000; -659.000
374.274; -218.200; -987.000; -908.000
374.405;  407.100; -388.000; -276.000
374.536;  873.500; -526.000; -387.000
374.666; 2043.600; -759.000; -807.000
374.797;  414.000; -817.000; -868.000
374.928; 1642.300; -710.000; -560.000
375.058; 1709.800; -535.000; -500.000
375.189;  162.000;  -59.000;  -93.000
375.320; -182.800; -928.000;-1034.000
375.450;  -59.600; -625.000; -616.000
375.581;  -58.600; -526.000; -436.000
375.712;  -41.200; -574.000; -250.000
375.842;  614.100; -438.000; -415.000
375.973;  424.700; -554.000; -513.000
376.103;  -61.400; -665.000; -648.000
376.234; -102.000; -531.000; -552.000
376.364;  -46.700; -944.000; -867.000
376.495;  685.400;  925.000;  529.000
376.625;   30.700; -472.000; -485.000
376.756;  148.800; -709.000; -678.000
376.886; -139.700;-1178.000;-1026.000
377.017;  113.600;-1048.000;-1061.000
377.147;  664.800; -786.000; -782.000
377.278;  162.500;  174.000;  228.000
377.408; -226.500; -801.000; -815.000
377.538; -190.200; -707.000; -693.000
377.669; -126.100; -537.000; -613.000
377.799; -128.800; -645.000; -635.000
377.929;  -82.200; -610.000; -428.000
378.060; -210.200; -781.000; -847.000
378.190; -153.900; -726.000; -531.000
378.320;  -76.600; -401.000; -406.000
378.451;   26.600; -131.000;  -22.000
378.581;   37.000;  -67.000; -110.000
378.711;  356.900; 1035.000;  866.000
378.841;   33.900; -533.000; -675.000
378.972; -140.600; -871.000; -751.000
379.102;  -34.700; -652.000; -579.000
379.232;   -9.600; -126.000;  -73.000
379.362; -160.200;-1001.000; -885.000
379.492;   84.500; -373.000; -424.000
379.623;  266.500;    0.000;  111.000
379.753; -175.900;-1107.000; -974.000
379.883;  476.300;   59.000;  156.000
380.013;   51.800;-1081.000;-1017.000
380.143; -166.400;-1097.000;-1056.000
380.273; -159.300; -985.000; -861.000
380.403;   26.600; -344.000; -257.000
380.533;  -25.200; -651.000; -664.000
380.663;  209.300;  173.000;  128.000
380.793; -183.800;-1027.000;-1074.000
380.923;   38.500; -103.000;  -34.000
381.053; -154.500; -613.000; -623.000
381.183;   -2.400; -106.000; -248.000
381.313;   97.200; -656.000; -470.000
381.443;   97.100; -692.000; -473.000
381.573;  450.300; -402.000; -409.000
381.703;  601.300;-1249.000;-1095.000
381.833; -198.000;-1454.000;-1336.000
381.963;  222.200; -134.000;  -87.000
382.093; 2521.500; -925.000; -909.000
382.223;  743.000; -713.000; -602.000
382.353;   18.600; -801.000; -608.000
382.482;  718.500;-1091.000; -964.000
382.612; 1400.100; -872.000; -644.000
382.742;  851.600; -695.000; -622.000
382.872;  519.700; -565.000; -551.000
383.002;  199.900;  347.000; -132.000
383.131;    1.600; -226.000; -160.000
383.261;  -64.400; -706.000; -768.000
383.391;  558.800; -552.000; -377.000
383.521; 5950.000;  451.000;  263.000
383.650; 1301.800; -947.000; -904.000
383.780;   -6.900; -783.000; -656.000
383.910;  274.000;  880.000;  802.000
384.039;  133.600; -794.000; -656.000
384.169;  391.100;-1205.000;-1017.000
384.299;   11.000; -650.000; -662.000
384.428; -136.700; -764.000; -680.000
384.558;   -8.300; -308.000; -275.000
384.687;  -19.100; -414.000; -334.000
384.817;   97.100;   75.000;   -2.000
384.947;  113.800; -234.000; -141.000
385.076;  632.200;  982.000;  912.000
385.206;  262.400;  369.000;  480.000
385.335;    8.600; -549.000; -417.000
385.465; -109.700; -655.000; -663.000
385.594;  312.000;  -53.000;  -44.000
385.724;  794.000; -868.000; -838.000
385.853;  268.800; -296.000; -270.000
385.982; 2648.400; -743.000; -787.000
386.112; 3832.900;-1052.000; -871.000
386.241;  311.100; -307.000; -312.000
386.371;  131.800; -174.000;  -87.000
386.500;   51.800; -825.000; -789.000
386.629;  122.500; -874.000; -817.000
386.759;  171.800;  -43.000;   68.000
386.888;   97.600; -170.000; -250.000
387.017;  -96.400; -648.000; -620.000
387.147; -104.600; -771.000; -798.000
387.276;   64.700; -410.000; -397.000
387.405;   65.600; -398.000; -342.000
387.535;  -40.900; -452.000; -361.000
387.664;  -65.400; -692.000; -620.000
387.793;  175.700; -198.000; -113.000
387.922; 1069.100;  255.000;  200.000
388.052;  106.900; -576.000; -423.000
388.181;  119.000; -342.000; -472.000
388.310;   80.500; -889.000; -710.000
388.439;  -35.400; -749.000; -742.000
388.568;  440.200;  365.000;  244.000
388.697; 1972.300; -756.000; -653.000
388.826;  389.000; -768.000; -666.000
388.956;  135.900; -285.000; -307.000
389.085;  -21.500; -347.000; -287.000
389.214; -166.800; -842.000; -872.000
389.343;  -93.700; -645.000; -413.000
389.472;  858.800;  126.000;  149.000
389.601; 1005.400;   91.000;    0.000
389.730;   37.600; -568.000; -687.000
389.859;  185.500;  226.000;   46.000
389.988;  415.600; -423.000; -408.000
390.117;  254.500; -168.000; -146.000
390.246;   51.800; -331.000; -320.000
390.375;  234.700; -673.000; -626.000
390.504;  -73.900; -703.000; -621.000
390.633; -151.700; -672.000; -726.000
390.761;  -62.200; -732.000; -645.000
390.890;   93.900;   -4.000; -130.000
391.019;  -29.300; -421.000; -441.000
391.148; -221.000; -826.000; -855.000
391.277;  -51.300; -576.000; -493.000
391.406; -116.800; -821.000; -805.000
391.534;  127.000;  574.000; -301.000
391.663;  -74.000; -583.000; -645.000
391.792; -113.500; -673.000; -701.000
391.921;  245.200;   -3.000;   15.000
392.050;  385.400; -287.000; -228.000
392.178;  -61.000;-1206.000;-1061.000
392.307;  300.100; -758.000; -712.000
392.436;  159.000; -427.000; -641.000
392.564;   83.700;  166.000;   -6.000
392.693; -181.700; -860.000; -682.000
392.822;  448.000; -529.000; -534.000
392.950;  203.100; -880.000; -714.000
393.079;  620.500; -188.000; -328.000
393.208;   80.700; -488.000; -511.000
393.336;   45.400; -170.000; -145.000
393.465;  -37.100; -317.000; -199.000
393.593;   82.300;   62.000;   79.000
393.722; -257.200;-1121.000; -916.000
393.850;   -6.200; -188.000;  -61.000
393.979; -259.000; -926.000; -805.000
394.107; -110.200; -517.000; -537.000
394.236;   17.700; -570.000; -507.000
394.364;  576.000;  383.000;  206.000
394.493;  813.700; -911.000; -767.000
394.621;   52.700; -955.000; -916.000
394.750; 1390.400; -873.000; -923.000
394.878; 5638.800; -247.000; -149.000
395.007; 7386.100; -721.000; -807.000
395.135;  556.900; -790.000; -721.000
395.263; -136.400;-1038.000;-1040.000
395.392;   73.500;  -25.000; -107.000
395.520; -162.200; -818.000; -679.000
395.648; -153.600; -865.000; -915.000
395.777;    0.800; -366.000; -405.000
395.905;  -71.000; -449.000; -564.000
396.033;   98.900;  217.000;  172.000
396.162; 1427.900; -399.000; -453.000
396.290; 1203.200;  -17.000;   -2.000
396.418;  227.000; -555.000; -514.000
396.546; -113.000; -571.000; -466.000
396.674; -148.900; -850.000; -878.000
396.803;   58.500;  -72.000;  -23.000
396.931;  252.200; -179.000; -199.000
397.059;  103.900;-1026.000; -989.000
397.187; -168.200;-1026.000; -975.000
397.315; -218.100; -884.000; -649.000
397.443; -131.800; -592.000; -443.000
397.572; -141.200; -578.000; -424.000
397.700;   21.500; -607.000; -614.000
397.828;   33.600;  120.000;  -90.000
397.956;  -38.900; -508.000; -478.000
398.084;  -88.000; -767.000; -626.000
398.212;  129.000;  137.000;  124.000
398.340;   50.500;  -56.000;  159.000
398.468;   75.200; -390.000; -169.000
398.596; -226.500; -993.000; -953.000
398.724; -162.600; -762.000; -767.000
398.852; -278.900;-1024.000; -976.000
398.980;  -65.300; -560.000; -560.000
399.108;  -78.800; -982.000; -735.000
399.236;  136.900;   13.000;    8.000
399.363;   61.100;  222.000;  196.000
399.491;  -50.700; -404.000; -398.000
399.619; -211.300; -829.000; -800.000
399.747; -170.400; -859.000; -771.000
399.875;  194.800;  220.000;  234.000
400.003;  -49.500; -359.000; -284.000
400.130; -142.300; -421.000; -341.000
400.258;   14.900;  -83.000;   38.000
400.386;  -79.600; -352.000; -168.000
400.514;  -29.600; -526.000; -587.000
400.641; -114.400; -928.000; -802.000
400.769; -242.100; -979.000; -888.000
400.897; -163.700; -838.000; -793.000
401.025;    4.600; -166.000; -152.000
401.152;   68.600;  220.000;   38.000
401.280; -138.200; -430.000; -429.000
401.408; -192.100; -712.000; -576.000
401.535; -166.100; -735.000; -758.000
401.663; -338.300;-1134.000;-1054.000
401.790;  -75.400; -514.000; -525.000
401.918;  159.400;  436.000;  405.000
402.046;   27.000;  134.000;  122.000
402.173;   -8.200;  -18.000;    7.000
402.301;  -66.900; -519.000; -397.000
402.428;  113.200;  528.000;  383.000
402.556; -239.700;-1188.000; -913.000
402.683;    5.100;  -20.000;   -1.000
402.811;   26.400;  -37.000; -206.000
402.938;   44.700;   20.000;   27.000
403.066;  350.300; -574.000; -558.000
403.193;  618.300;  299.000;  239.000
403.321;  502.700; -396.000; -574.000
403.448;  619.700;   83.000;   27.000
403.575;  299.900;  -90.000;  -46.000
403.703; -154.100; -732.000; -557.000
403.830;  -74.200; -531.000; -496.000
403.957; -227.500;-1117.000;-1023.000
404.085;   64.700;  -61.000; -172.000
404.212;  229.300;  -50.000;   63.000
404.339;  553.700; -566.000; -306.000
404.467;11179.700; -612.000; -524.000
404.594; 6951.900; -287.000; -227.000
404.721; 1685.300; -869.000; -764.000
404.848;  236.700; -113.000; -202.000
404.976; -176.400; -856.000; -783.000
405.103;   59.700;  -14.000;  -82.000
405.230;   47.800;  190.000;  226.000
405.357;  103.500;  117.000;   44.000
405.484;  543.000;  -49.000;    5.000
405.612;   97.200; -548.000; -563.000
405.739;  -53.600; -488.000; -243.000
405.866;  220.400;  669.000;  385.000
405.993;  -56.100; -398.000; -102.000
406.120; -198.800; -801.000; -887.000
406.247;  -57.400; -323.000; -342.000
406.374;  943.400;  540.000;  629.000
406.501;  180.600; -632.000; -702.000
406.628; -124.700; -621.000; -589.000
406.755; -131.400; -803.000; -620.000
406.882;   -7.200; -228.000; -277.000
407.009; -139.100; -719.000; -628.000
407.136;  204.400; -480.000; -401.000
407.263;  270.600; -939.000; -829.000
407.390;  -91.200; -692.000; -614.000
407.517; -279.000;-1139.000;-1187.000
407.644;  -76.200; -332.000; -256.000
407.771;  -98.100; -249.000; -287.000
407.898;   84.000;  168.000;  328.000
408.025;  -77.300; -421.000; -313.000
408.151;   55.700;   82.000;  153.000
408.278; -117.500; -267.000; -216.000
408.405; -180.000; -931.000; -899.000
408.532; -103.900; -549.000; -542.000
408.659; -186.000; -677.000; -648.000
408.785; -358.900;-1298.000;-1170.000
408.912;  -66.200; -412.000; -296.000
409.039; -178.400; -610.000; -686.000
409.166; -139.700; -591.000; -555.000
409.292; -161.400; -571.000; -534.000
409.419; -180.300; -665.000; -649.000
409.546; -119.600; -431.000; -192.000
409.672; -163.800; -713.000; -545.000
409.799;   14.200;  -36.000;   34.000
409.926;  -45.000; -180.000; -179.000
410.052; -315.400;-1127.000;-1091.000
410.179;  -73.900; -368.000; -392.000
410.305; -112.200; -375.000; -493.000
410.432;  -21.200; -220.000; -333.000
410.558; -109.300; -305.000; -380.000
410.685; -167.800; -688.000; -431.000
410.812; -132.900; -409.000; -588.000
410.938; -203.000; -964.000; -808.000
411.065; -151.100; -671.000; -645.000
411.191;   20.300; -189.000; -174.000
411.317; -207.000; -823.000; -742.000
411.444;  -49.500; -317.000; -246.000
411.570; -100.300; -339.000; -294.000
411.697; -206.300; -758.000; -752.000
411.823; -307.400; -989.000; -999.000
411.949;   16.200;  -56.000;   17.000
412.076; -181.600; -539.000; -519.000
412.202; -158.100; -758.000; -757.000
412.329; -221.300; -798.000; -752.000
412.455; -136.200; -821.000; -657.000
412.581;  -32.300;  -15.000;  172.000
412.707;  -73.000; -540.000; -457.000
412.834;   81.400;  156.000;  219.000
412.960; -126.500; -785.000; -784.000
413.086; -159.600; -743.000; -701.000
413.212;  361.400;  604.000;  578.000
413.339;  -86.800; -685.000; -701.000
413.465;   71.000; -364.000; -310.000
413.591; -144.700; -757.000; -474.000
413.717;  -48.300; -358.000; -366.000
413.843; -213.900; -839.000; -861.000
413.969;  -63.800;  -47.000; -292.000
414.096; -135.400; -679.000; -679.000
414.222;   36.000;  -33.000;   85.000
414.348;   -8.200; -652.000; -385.000
414.474;  231.900;   38.000;  -52.000
414.600;   30.700; -126.000; -144.000
414.726;   29.500;  -96.000;  -55.000
414.852;  -75.900; -365.000; -342.000
414.978;  125.300;  104.000;  -18.000
415.104;  139.500;   38.000;   80.000
415.230;  112.600; -329.000; -330.000
415.356;  117.200; -409.000; -514.000
415.482;  424.100;   13.000;  -35.000
415.608;  539.200; -247.000; -323.000
415.734; 1955.200;   67.000;   38.000
415.860;39800.600; -875.000; -767.000
415.986;26037.600; -685.000; -607.000
416.111; 2129.700; -798.000; -652.000
416.237;  486.000; -424.000; -571.000
416.363; 2317.700; -765.000; -733.000
416.489; 7704.100; -324.000; -251.000
416.615;  770.500; -707.000; -742.000
416.741;    9.300; -677.000; -784.000
416.866; -145.900; -673.000; -736.000
416.992; -199.500; -801.000; -818.000
417.118;  -17.800;  -41.000;  -80.000
417.244;  -88.100; -798.000; -531.000
417.369; -123.900; -801.000; -612.000
417.495;   43.900; -325.000; -254.000
417.621; -133.400;-1015.000; -803.000
417.746;   66.600; -579.000; -572.000
417.872;  154.600; -254.000; -144.000
417.998;  154.900; -515.000; -530.000
418.123; 2228.500;-1073.000; -845.000
418.249;10151.600; -512.000; -601.000
418.374; 1318.000; -916.000; -824.000
418.500;  253.000; -383.000; -482.000
418.626;  290.900;   70.000;  -59.000
418.751;  283.600; -549.000; -448.000
418.877;  420.500; -637.000; -643.000
419.002; 3882.200; -688.000; -560.000
419.128;24092.700; -930.000; -721.000
419.253; 5247.400; -967.000; -837.000
419.379;  726.500; -391.000; -338.000
419.504;  800.800;  325.000;  415.000
419.629; 1015.000; -393.000; -212.000
419.755; 7256.600; -317.000; -254.000
419.880;39090.500;  -98.000;   67.000
420.006;22145.000; -280.000; -221.000
420.131;53887.800; -662.000; -775.000
420.256; 7011.900; -315.000; -316.000
420.382; 1007.300; -665.000; -687.000
420.507;  114.300; -649.000; -778.000
420.632;  293.700; -337.000; -339.000
420.758;  488.300; -251.000; -425.000
420.883; -122.900; -876.000; -672.000
421.008; -131.000; -775.000; -619.000
421.133; -101.100; -509.000; -467.000
421.259;  -10.500; -325.000; -259.000
421.384; -188.300; -834.000; -693.000
421.509;  -41.400;-1052.000; -862.000
421.634; 2255.700; -936.000; -820.000
421.759;  869.900; -359.000; -327.000
421.885;  -80.900; -717.000; -656.000
422.010; -108.700; -673.000; -542.000
422.135; -267.500; -695.000; -727.000
422.260;  140.500;  340.000;  280.000
422.385;  -26.800;   12.000;  -98.000
422.510;   97.300;  151.000;  -26.000
422.635;   96.500;  -87.000;  -43.000
422.760;  244.000; -766.000; -791.000
422.885;  143.400;  -57.000;  -80.000
423.010;   20.400; -112.000; -169.000
423.135; -131.300; -481.000; -561.000
423.260;   39.500; -150.000; -245.000
423.385;  209.200;  476.000;  222.000
423.510;  137.800;   71.000;  -22.000
423.635;  197.800;  133.000;   45.000
423.760;  194.500;  383.000;  328.000
423.885;  177.200;  336.000;  391.000
424.010;   71.800;  -68.000;  -13.000
424.135;   33.100;    5.000;  -33.000
424.259;  -96.100; -654.000; -457.000
424.384;  -47.600; -279.000; -272.000
424.509;   32.200; -260.000; -186.000
424.634; -153.300; -761.000; -623.000
424.759;  -29.000; -688.000; -544.000
424.883;  -10.200; -506.000; -527.000
425.008;  389.000; -502.000; -410.000
425.133; 3952.700; -679.000; -653.000
425.258; 1641.400; -517.000; -381.000
425.382; 1964.200; -867.000; -774.000
425.507; 4577.400; -487.000; -543.000
425.632;  774.900; -802.000; -663.000
425.756;  911.500; -256.000; -146.000
425.881;13176.300; -831.000; -857.000
426.006;31802.100; -604.000; -355.000
426.130; 4653.000; -696.000; -508.000
426.255;  588.300; -611.000; -491.000
426.379;  350.500; -189.000; -577.000
426.504;  818.900;  660.000;  544.000
426.629; 8217.400; -519.000; -466.000
426.753; 5077.800;   64.000;  -46.000
426.878;  650.600; -252.000; -288.000
427.002;  424.100; -651.000; -668.000
427.127; 3283.800;  -35.000; -158.000
427.251;21862.900;  372.000;  401.000
427.375; 5551.000; -191.000; -173.000
427.500; 4235.400; -616.000; -610.000
427.624; 1303.600; -234.000; -400.000
427.749;  235.500; -216.000; -225.000
427.873;  -62.700; -499.000; -412.000
427.997;    7.400; -222.000; -230.000
428.122;  228.200;  795.000;  703.000
428.246;  205.500;  433.000;  434.000
428.371; -221.900; -869.000; -773.000
428.495; -164.700; -624.000; -646.000
428.619;    7.100; -186.000; -117.000
428.743;   94.000;   65.000;  132.000
428.868;   96.700; -732.000; -643.000
428.992; 2611.800; -219.000; -326.000
429.116;  989.600; -329.000; -357.000
429.240;  556.100;  419.000;  426.000
429.365;    1.700; -454.000; -574.000
429.489;    3.900; -638.000; -647.000
429.613;   73.300; -236.000; -177.000
429.737;  155.100; -563.000; -432.000
429.861;  614.000; -247.000; -133.000
429.985;11368.500; -425.000; -305.000
430.109;11116.300; -770.000; -908.000
430.234; 1276.800;   76.000;  -50.000
430.358;  182.500; -250.000; -160.000
430.482;  -58.900; -672.000; -564.000
430.606;  -61.900; -655.000; -375.000
430.730;  110.200; -437.000; -388.000
430.854;  310.100; -909.000; -835.000
430.978;  -70.200; -795.000; -764.000
431.102;  -92.700; -499.000; -422.000
431.226; -120.300; -874.000; -815.000
431.350;  139.400;  345.000;  422.000
431.474;  -73.300; -661.000; -373.000
431.597; -258.800;-1060.000; -848.000
431.721;  -68.300; -276.000; -267.000
431.845; -213.400; -704.000; -472.000
431.969;  -67.200; -304.000; -349.000
432.093; -116.500; -395.000; -317.000
432.217;   40.100;   32.000;   82.000
432.341; -164.600; -523.000; -518.000
432.464;  105.600;   96.000;   40.000
432.588;  439.300; -401.000; -329.000
432.712;  217.000;  -52.000;  -52.000
432.836;  139.600;  213.000;  263.000
432.959;   43.000; -372.000; -311.000
433.083;  188.200;   11.000;    2.000
433.207;  819.000;  285.000;  930.000
433.330;10291.500; -391.000; -200.000
433.454;11438.700; -654.000; -638.000
433.578; 6762.000;  583.000;  278.000
433.701; 1207.500; -623.000; -675.000
433.825;  291.700; -292.000; -299.000
433.949;  437.400;   28.000;  -72.000
434.072;  124.600; -410.000; -323.000
434.196;   49.000; -309.000; -117.000
434.319; 7861.500;25482.000;25124.000
434.443; 1552.300; -656.000; -603.000
434.566; 5071.700;  281.000;   62.000
434.690;  754.200; -637.000; -383.000
434.813;  159.600; -251.000; -173.000
434.937; -105.300; -569.000; -696.000
435.060;  -41.600; -423.000; -332.000
435.184;  679.100; -492.000; -217.000
435.307;  349.800;  159.000;  102.000
435.431;   59.000;  -40.000;   24.000
435.554;  -80.400; -399.000; -240.000
435.677; -107.900; -350.000; -258.000
435.801;  -36.400;  -25.000;   49.000
435.924;   46.400;    1.000;  -67.000
436.048; -198.100;-1019.000; -732.000
436.171;  -74.300; -240.000;  -66.000
436.294;   24.000; -248.000; -229.000
436.417;  232.200; -963.000; -849.000
436.541; -140.200; -814.000; -840.000
436.664;  -35.800; -242.000; -316.000
436.787;   29.100;   13.000;  113.000
436.910; -157.900; -792.000; -422.000
437.034;   59.100;  142.000;  143.000
437.157;  218.100;  -11.000;    0.000
437.280;  -43.100; -392.000; -292.000
437.403; -118.900; -982.000; -869.000
437.526; 1378.300; -903.000; -865.000
437.649; 4303.000; -505.000; -332.000
437.772;  559.600; -692.000; -540.000
437.896;  280.900;  700.000;  544.000
438.019; -174.500; -758.000; -503.000
438.142; -128.400; -596.000; -506.000
438.265;   26.700; -639.000; -670.000
438.388; 1181.700; -520.000; -410.000
438.511;  197.400; -597.000; -394.000
438.634;  -13.600; -247.000; -125.000
438.757; -208.800; -693.000; -619.000
438.880;   33.100;  -34.000;  -57.000
439.003; -101.000; -417.000; -437.000
439.126;  -55.300; -287.000; -167.000
439.248;  -48.900;  -98.000; -139.000
439.371;  -36.000;    9.000;  -53.000
439.494;  129.700;  510.000;  439.000
439.617;  -26.300;   65.000;  -88.000
439.740; -298.700; -968.000; -816.000
439.863; -238.800; -755.000; -595.000
439.986; -200.800; -476.000; -431.000
440.108;  -47.000; -161.000; -112.000
440.231; -274.400; -950.000; -836.000
440.354;  -20.300;  -64.000; -150.000
440.477;  118.100; -566.000; -542.000
440.599;   42.600; -200.000; -225.000
440.722; -204.500; -709.000; -586.000
440.845;  234.800;  751.000;  928.000
440.968; -170.600; -415.000; -311.000
441.090;  -42.200; -199.000;  -33.000
441.213; -312.400;-1021.000; -825.000
441.336;  -23.300; -159.000;   -5.000
441.458; -102.300; -549.000; -396.000
441.581; -144.900; -628.000; -629.000
441.703;  -48.000; -152.000;   13.000
441.826; -149.900; -557.000; -400.000
441.948;  -39.800;   56.000;   51.000
442.071;  145.400;  555.000;  424.000
442.193; -170.600; -531.000; -485.000
442.316;  103.800;  152.000;   97.000
442.438;  112.900; -233.000;  -10.000
442.561;  204.100;  272.000;  262.000
442.683; 1149.500; -809.000; -522.000
442.806; 2144.700;   -8.000;   74.000
442.928;   33.400; -859.000; -604.000
443.051;  -61.900; -577.000; -373.000
443.173; -123.500; -341.000; -339.000
443.295; -121.600; -263.000; -371.000
443.418;  -99.000; -321.000;  -29.000
443.540;   58.900; -106.000;   -4.000
443.662; -174.800; -563.000; -465.000
443.785;   64.700;  335.000;  199.000
443.907; -177.400; -362.000; -208.000
444.029; -200.700; -767.000; -494.000
444.152; -245.700; -644.000; -554.000
444.274;   -4.700;  -18.000;  -24.000
444.396; -180.500; -461.000; -221.000
444.518; -211.400; -691.000; -454.000
444.640; -128.500; -268.000; -111.000
444.763;   43.600;  388.000;  249.000
444.885; -163.100; -432.000; -392.000
445.007;   -5.000;   35.000;   86.000
445.129; -180.300; -610.000; -515.000
445.251; -136.900; -372.000; -439.000
445.373; -197.300; -537.000; -386.000
445.495;   96.600;  242.000;  350.000
445.617;  174.100;  853.000;  753.000
445.739;  -63.400; -215.000;  -97.000
445.861;    8.000; -245.000; -112.000
445.984;  -10.200; -267.000; -101.000
446.105;  449.500; -418.000; -251.000
446.227; 1157.200; -176.000;  -19.000
446.349;    8.800; -358.000; -249.000
446.471; -139.100; -615.000; -448.000
446.593;  -64.300; -316.000;   19.000
446.715;   53.900;  -67.000;   41.000
446.837;  187.800;  697.000;  832.000
446.959; -118.900; -457.000; -478.000
447.081; -258.400; -628.000; -518.000
447.203;  222.900;  862.000;  834.000
447.325;  -98.200; -270.000;   42.000
447.446;   76.900;  286.000;  530.000
447.568; -249.100; -921.000; -803.000
447.690; -118.700; -236.000; -245.000
447.812; -254.700; -798.000; -519.000
447.933;   17.600;  155.000;  127.000
448.055;  -81.300; -306.000; -261.000
448.177;  399.100;   31.000;   79.000
448.299;  154.000; -935.000; -727.000
448.420;   96.100;  -25.000;  159.000
448.542; -101.000;   -3.000;   33.000
448.664;   36.300;  109.000;  322.000
448.785;  -20.500;  265.000;   83.000
448.907;  -88.400; -614.000; -353.000
449.028;  -27.400; -771.000; -471.000
449.150;  211.000;  492.000;  589.000
449.272; -329.300;-1044.000; -913.000
449.393;  140.100;  612.000;  694.000
449.515; -256.700; -634.000; -581.000
449.636;  -53.000; -264.000; -155.000
449.758;  214.900;  763.000;  622.000
449.879; -124.700; -498.000; -396.000
450.001;  -85.700; -149.000;  -49.000
450.122;    8.300;  -95.000;  162.000
450.244;  -34.800;   37.000;  364.000
450.365; -101.700; -495.000; -301.000
450.486;    9.600;   80.000;  268.000
450.608;  127.900;  393.000;  326.000
450.729;  187.600;  578.000;  645.000
450.850;   64.400; -574.000; -466.000
450.972; 1599.200; -552.000; -389.000
451.093; 9668.200;  190.000;  588.000
451.214; 3675.500; -516.000; -337.000
451.336;  709.300;  773.000;  579.000
451.457;  153.800;  264.000;  393.000
451.578;   -3.600; -118.000;  -74.000
451.699; -161.500; -546.000; -540.000
451.821;  -48.900; -284.000;  -50.000
451.942;   54.700;  278.000;  285.000
452.063;  125.100;  228.000;  419.000
452.184; 1234.900;  -54.000;  -49.000
452.305; 2125.700;  103.000;  170.000
452.427;  228.000; -549.000; -301.000
452.548;   23.400;   23.000;   79.000
452.669;  -41.900; -257.000;  -89.000
452.790;  -48.800;    3.000;  -18.000
452.911;   35.500;  195.000;  259.000
453.032;  -44.400; -289.000;  -60.000
453.153;  -44.300;  -29.000;   81.000
453.274;  192.100;  737.000;  868.000
453.395;  -30.700;  -51.000;  175.000
453.516;  313.800; 1317.000; 1388.000
453.637;  -76.300; -205.000; -150.000
453.758;  -44.400;   15.000;   69.000
453.879; -190.100; -462.000; -250.000
454.000;  232.300; 1086.000;  948.000
454.121; -164.800; -554.000; -326.000
454.242; -159.900; -599.000; -383.000
454.362;  -43.800;  -99.000;  114.000
454.483;   -2.700; -309.000; -229.000
454.604;  157.300;  512.000;  580.000
454.725; -222.800; -627.000; -555.000
454.846; -234.800; -474.000; -406.000
454.967;   14.600;  230.000;  539.000
455.087;  -37.700;  179.000;  153.000
455.208;  127.100;  554.000;  856.000
455.329;  -46.600;  -22.000;   82.000
455.450;  136.000;  473.000;  633.000
455.570; -143.300; -234.000; -211.000
455.691;  -23.300;  201.000;  407.000
455.812; -172.700; -270.000;  -92.000
455.932;  -62.600;  107.000;  -97.000
456.053;  -89.500;   36.000;   24.000
456.173; -161.700; -433.000; -355.000
456.294; -218.600; -476.000; -303.000
456.415;  -67.100;  -73.000;   70.000
456.535;  -31.900;  297.000;  273.000
456.656;  -31.200;  132.000;  240.000
456.776;  -95.000;    3.000;  298.000
456.897;   99.400;  308.000;  513.000
457.017;  -72.900; -153.000;   -3.000
457.138; -142.100; -402.000; -249.000
457.258;    6.000;  263.000;  224.000
457.379;   50.200;  509.000;  521.000
457.499;   13.500;  443.000;  432.000
457.620; -188.700; -407.000; -231.000
457.740; -104.900; -132.000;  -11.000
457.860;  -28.700;   87.000;   44.000
457.981;  -54.000;  132.000;  124.000
458.101;  -63.900;  -89.000;   40.000
458.221;   -1.400;  336.000;  402.000
458.342;  -87.900;   -4.000;  -37.000
458.462;  142.100;  617.000;  352.000
458.582;  -33.900; -302.000; -294.000
458.703;   73.600;  303.000;  154.000
458.823;    9.600;   22.000;  163.000
458.943;   81.400;  341.000;  467.000
459.063;   79.000; 1124.000;  192.000
459.183;  -19.000;  328.000;  313.000
459.304;   81.800;  315.000;  517.000
459.424;  -61.300; -246.000;  -89.000
459.544;  723.300;  388.000;  764.000
459.664; 1650.700;  499.000;  506.000
459.784;  601.300; 1004.000; 1175.000
459.904;  194.200;  867.000;  744.000
460.024;  221.900;  867.000;  684.000
460.144;  105.200;  449.000;  554.000
460.264;   34.900;  515.000;  327.000
460.385;  -90.700; -145.000; -119.000
460.505;  156.800;  905.000;  858.000
460.625; -117.300;  -17.000;  -68.000
460.745;   16.600;  396.000;  541.000
460.864;  -21.500;  153.000;  469.000
460.984;   97.300;  499.000;  573.000
461.104;  345.200; 1656.000; 1775.000
461.224;  107.900;  657.000;  650.000
461.344;   -4.300;  431.000;  360.000
461.464;   17.900;  258.000;  513.000
461.584;    7.500;  283.000;  466.000
461.704;  -38.200;   58.000;  108.000
461.824;  -20.400;  238.000;  259.000
461.943;  -12.800;  191.000;  130.000
462.063; -113.100;    2.000;  324.000
462.183;  148.500;  639.000;  717.000
462.303;  300.300; 1678.000; 1230.000
462.422;  146.200;  781.000;  840.000
462.542;    3.900;  271.000;  391.000
462.662;  138.400;  353.000;  380.000
462.782;  561.900;  833.000;  572.000
462.901;  994.500;  545.000;  717.000
463.021;  594.600; 1702.000; 1638.000
463.141;   34.200;  337.000;  770.000
463.260;   18.600;  614.000;  474.000
463.380;  135.900;  902.000;  884.000
463.499;  -18.900;  342.000;  332.000
463.619;   -8.400;  581.000;  559.000
463.738;  266.800; 1644.000;  903.000
463.858;  110.000;  657.000;  811.000
463.978;   -1.000;  542.000;  396.000
464.097;  161.300;  921.000; 1114.000
464.217;  291.200; 1196.000; 1143.000
464.336;  289.300; 1068.000; 1130.000
464.455;   -8.300;  328.000;  659.000
464.575;  154.900;  597.000;  602.000
464.694;  409.900; 1204.000; 1179.000
464.814;  326.300; 1190.000; 1138.000
464.933;  221.100; 1095.000; 1027.000
465.052;  319.900; 1412.000; 1054.000
465.172;  185.600;  922.000;  799.000
465.291;  357.500; 1376.000; 1320.000
465.410;  102.700;  462.000;  735.000
465.530;  250.600; 1355.000; 1310.000
465.649;  218.400; 1209.000; 1273.000
465.768;  308.900; 1673.000; 1508.000
465.888;  192.100;  941.000; 1174.000
466.007;  268.700; 1335.000; 1440.000
466.126;   49.100;  721.000;  641.000
466.245;  188.000; 1176.000; 1187.000
466.364;   78.300;  950.000; 1060.000
466.484;  192.900; 1024.000; 1213.000
466.603;  143.200; 1101.000; 1222.000
466.722;  336.900; 1490.000; 1769.000
466.841;  206.600; 1151.000; 1401.000
466.960;  165.900; 1069.000;  972.000
467.079;  317.200; 1971.000; 1786.000
467.198;  148.100; 1238.000; 1181.000
467.317;  234.400; 1768.000; 1162.000
467.436;  246.400; 1709.000; 1261.000
467.555;  332.600; 1796.000; 1746.000
467.674;  226.400; 1227.000; 1329.000
467.793;  162.500; 1376.000; 1374.000
467.912;  225.200; 1658.000; 1539.000
468.031;  336.000; 2038.000; 1930.000
468.150;  372.000; 1842.000; 1837.000
468.269;  478.500; 2313.000; 2090.000
468.388;  523.800; 2168.000; 2339.000
468.507;  586.500; 2884.000; 2903.000
468.626;  620.900; 2555.000; 2541.000
468.744;  389.400; 2018.000; 2174.000
468.863;  450.500; 2312.000; 2523.000
468.982;  257.000; 1503.000; 1555.000
469.101;  522.000; 2788.000; 2692.000
469.220;  337.600; 2333.000; 2176.000
469.338;  583.800; 2935.000; 3051.000
469.457;  467.700; 2719.000; 2545.000
469.576;  758.700; 3953.000; 3784.000
469.695;  540.300; 2877.000; 3066.000
469.813;  937.100; 4148.000; 4192.000
469.932;  895.700; 4255.000; 4485.000
470.051;  924.400; 4075.000; 4161.000
470.169; 1810.700; 4470.000; 4338.000
470.288; 2940.600; 4700.000; 4809.000
470.406; 1688.500; 5059.000; 5194.000
470.525; 1369.600; 6101.000; 5787.000
470.644; 1402.000; 6847.000; 6794.000
470.762; 1729.300; 8397.000; 7873.000
470.881; 1877.500; 8651.000; 8464.000
470.999; 2150.800; 9685.000; 9151.000
471.118; 2293.700;11174.000;10711.000

