
Integration time [ms]: 200.000
Averaging Nr. [scans]: 10
Smoothing Nr. [pixels]: 0
Data measured with spectrometer [name]: 2101012U2
Wave   ;Sample   ;Dark     ;Reference
[nm]   ;[counts] ;[counts] ;[counts] 

197.733;  116.700;  516.000;  404.000
197.879; -191.500; -610.000; -634.000
198.025; -121.700; -475.000; -420.000
198.171; -142.100; -602.000; -612.000
198.317;  -80.900; -401.000; -316.000
198.463; -131.100; -655.000; -404.000
198.609;   59.700;  181.000; -137.000
198.755; -160.500; -644.000; -410.000
198.901; -135.900; -505.000; -424.000
199.047; -139.400; -615.000; -488.000
199.193; -110.200; -230.000; -468.000
199.339; -101.700; -222.000; -369.000
199.485;   69.200;  330.000;  271.000
199.631;   42.800;  227.000;  310.000
199.777; -125.000; -466.000; -398.000
199.923; -123.400; -610.000; -424.000
200.069;  -27.300; -141.000;  -58.000
200.215;  144.600;  128.000;  453.000
200.361;   88.300;  243.000;  477.000
200.507; -145.900; -600.000; -373.000
200.653;  -66.800; -371.000; -194.000
200.798;  -60.200; -215.000; -125.000
200.944;  -38.700; -146.000;  -41.000
201.090;   70.900;   61.000;  222.000
201.236;  -25.700; -116.000; -158.000
201.382;  310.600;  874.000;  903.000
201.528;   11.700;  -58.000;  -48.000
201.674;  -84.800; -386.000; -293.000
201.819; -153.900; -540.000; -439.000
201.965; -150.000; -699.000; -447.000
202.111;  -75.700; -273.000; -226.000
202.257;  -44.900; -250.000; -238.000
202.402;   13.400;   13.000;  -36.000
202.548;  -60.400; -169.000; -116.000
202.694;  174.300;  410.000; -183.000
202.840; -151.200; -603.000; -531.000
202.985; -146.200; -681.000; -639.000
203.131; -200.400; -832.000; -666.000
203.277;  -50.200; -199.000; -262.000
203.423;  -83.200; -434.000; -520.000
203.568;  -86.400; -462.000; -237.000
203.714; -135.800; -535.000; -542.000
203.860; -164.900; -682.000; -641.000
204.005;   -5.100;  112.000;  167.000
204.151;  137.500;  561.000;  556.000
204.296; -106.500; -354.000; -221.000
204.442; -172.200; -600.000; -547.000
204.588; -149.900; -592.000; -579.000
204.733;   24.700;  178.000;  168.000
204.879; -276.100;-1018.000; -822.000
205.025;   18.000;  -99.000;  126.000
205.170;   15.700;  -17.000;   94.000
205.316;  152.000;  438.000;  661.000
205.461; -186.800; -698.000; -554.000
205.607;  206.100;  609.000;  665.000
205.752; -159.300; -626.000; -551.000
205.898; -133.500; -501.000; -391.000
206.043; -115.200; -578.000; -506.000
206.189;  -66.700; -243.000; -285.000
206.334;  209.700;  554.000;  606.000
206.480;  172.300;  409.000;  239.000
206.625; -162.000; -529.000; -552.000
206.771; -119.300; -451.000; -373.000
206.916;  -66.200; -210.000; -537.000
207.062; -131.200; -545.000; -591.000
207.207;  -95.900; -546.000; -443.000
207.353;  101.000;  185.000;  460.000
207.498;   39.200;  196.000;   85.000
207.643; -103.000; -501.000; -370.000
207.789; -257.600;-1069.000; -910.000
207.934; -183.300; -665.000; -713.000
208.080;  -66.100; -154.000;   66.000
208.225;  -62.800;  -22.000;  -57.000
208.370; -153.200; -727.000; -619.000
208.516; -177.000; -741.000; -487.000
208.661;  -37.000; -127.000;  -69.000
208.806;  -50.100; -165.000; -171.000
208.952; -231.700;-1044.000; -731.000
209.097;  155.000;  378.000;  349.000
209.242;  -96.900; -307.000; -382.000
209.387;   98.700;  392.000;  350.000
209.533; -110.400; -321.000; -350.000
209.678;  142.000;  472.000;  543.000
209.823;  -87.900; -408.000; -310.000
209.969; -201.900; -860.000; -757.000
210.114; -214.100; -907.000; -719.000
210.259; -260.500; -939.000; -889.000
210.404;   -2.200; -171.000;  103.000
210.549;   13.100;  108.000;    3.000
210.695;  -38.400;   -3.000;  -95.000
210.840;   76.600;   94.000;   67.000
210.985; -104.200; -484.000; -303.000
211.130;  146.000;  268.000;  406.000
211.275;   33.700;  207.000;  199.000
211.420; -106.900; -300.000; -289.000
211.566; -155.700; -536.000; -489.000
211.711;   31.400;  218.000;  157.000
211.856; -136.000; -545.000; -519.000
212.001;   12.600;  151.000;   44.000
212.146;   29.100;  153.000;   49.000
212.291;  -46.100; -210.000; -186.000
212.436;  -41.200; -280.000;   -6.000
212.581; -162.500; -685.000; -653.000
212.726; -163.600; -487.000; -538.000
212.871;  -88.800; -552.000; -217.000
213.016; -316.600;-1172.000;-1029.000
213.161;  130.800;  406.000;  291.000
213.306; -147.900; -435.000; -577.000
213.451; -184.300; -778.000; -689.000
213.596;  -99.100; -455.000; -347.000
213.741; -133.900; -448.000; -538.000
213.886; -156.500; -498.000; -517.000
214.031;  -69.500; -294.000; -124.000
214.176;  -96.300; -408.000; -341.000
214.321;    2.700; -296.000; -157.000
214.466;  -34.500; -163.000;  -43.000
214.611;  -11.800;  -61.000;  -10.000
214.756; -263.700; -948.000; -858.000
214.901;  -56.000; -388.000; -226.000
215.046; -250.500; -797.000; -825.000
215.191;   60.400;  128.000;   35.000
215.336;  -35.100; -157.000;  -19.000
215.480; -155.000; -684.000; -505.000
215.625;   20.400; -175.000;  -19.000
215.770; -143.500; -757.000; -662.000
215.915;  -25.100;   -5.000;  -97.000
216.060;  -10.500; -113.000;  -21.000
216.205; -227.700; -731.000; -779.000
216.349; -152.700; -470.000; -533.000
216.494; -264.100; -939.000; -867.000
216.639; -240.600; -823.000; -888.000
216.784; -177.100; -577.000; -525.000
216.929;  101.500;  392.000;  281.000
217.073;  -12.400; -244.000;  -31.000
217.218;   30.700;   78.000;  -47.000
217.363; -143.400; -656.000; -618.000
217.507; -148.900; -623.000; -588.000
217.652; -254.600; -845.000; -874.000
217.797; -174.400; -708.000; -659.000
217.942; -210.800; -856.000; -720.000
218.086;  173.000;  608.000;  539.000
218.231;  -54.500; -174.000;  -26.000
218.376;  -87.600; -337.000; -229.000
218.520;   29.700;  -41.000;   96.000
218.665;  -35.400; -338.000; -204.000
218.810;  -76.400; -275.000; -233.000
218.954;   20.900;  201.000;   35.000
219.099; -222.100; -713.000; -963.000
219.243; -151.400; -589.000; -554.000
219.388;  -21.600; -264.000; -136.000
219.532;  -11.900; -116.000; -116.000
219.677; -138.800; -564.000; -521.000
219.822;    8.800;   33.000;   89.000
219.966;    9.800;   17.000;  -99.000
220.111;  -67.500; -328.000;  -40.000
220.255; -187.400; -797.000; -750.000
220.400;  -51.300; -180.000; -146.000
220.544; -130.100; -516.000; -450.000
220.689; -116.000; -422.000; -451.000
220.833;   -6.500; -123.000;  -58.000
220.978;  -80.300; -393.000; -563.000
221.122;   61.300;  319.000;  307.000
221.267; -264.100; -906.000; -837.000
221.411; -135.100; -478.000; -394.000
221.555;    0.900; -104.000;  -23.000
221.700; -105.100; -329.000; -222.000
221.844;   75.400;  255.000;  272.000
221.989;  -77.600; -328.000; -311.000
222.133;  -63.300; -289.000; -307.000
222.277;    5.700;    5.000;   78.000
222.422;    9.500;  227.000;  113.000
222.566;  -48.100; -381.000; -214.000
222.711; -112.300; -414.000; -479.000
222.855; -156.600; -643.000; -586.000
222.999; -184.700; -642.000; -717.000
223.144;  -65.900; -195.000; -194.000
223.288;  118.800;  423.000;  251.000
223.432;   22.800;  184.000;  230.000
223.576;   37.400;  152.000;  -21.000
223.721;  105.600;  364.000;  273.000
223.865; -116.100; -472.000; -475.000
224.009;  548.000; 1673.000; 1631.000
224.153; -170.900; -660.000; -671.000
224.298; -138.900; -531.000; -489.000
224.442;  -38.300;  -74.000;  -33.000
224.586;  -26.800; -169.000; -106.000
224.730; -196.100; -858.000; -670.000
224.875; -203.800; -739.000; -688.000
225.019;   55.400;  102.000;  188.000
225.163;  109.100;  208.000;  341.000
225.307;   67.700;   97.000;  -91.000
225.451;  114.300;  360.000;  481.000
225.595;   99.800;  264.000;  176.000
225.739;  -14.600; -170.000;  -94.000
225.884;   -4.700;   86.000;    5.000
226.028; -192.100; -760.000; -626.000
226.172;  -55.500; -260.000; -273.000
226.316; -232.400; -941.000; -902.000
226.460; -144.300; -645.000; -493.000
226.604;  -69.300; -406.000; -400.000
226.748; -231.600; -836.000; -733.000
226.892;  -49.600; -227.000; -181.000
227.036;  -92.000; -537.000; -447.000
227.180;  -86.200; -551.000; -375.000
227.324; -150.000; -561.000; -580.000
227.468; -224.800; -819.000; -717.000
227.612;   37.000;  242.000;  -28.000
227.756; -207.100; -845.000; -698.000
227.900;   82.500;  342.000;  441.000
228.044;  -93.100; -509.000; -290.000
228.188;  124.300;  448.000;  568.000
228.332; -168.200; -546.000; -472.000
228.476;  -26.800; -223.000; -149.000
228.620;  -60.900; -210.000; -150.000
228.764;  150.800;  431.000;  349.000
228.908;  -58.100; -155.000;   30.000
229.052; -126.300; -615.000; -528.000
229.195;  -27.500; -172.000;   13.000
229.339;  -33.600; -235.000; -305.000
229.483;  -45.500;    5.000; -162.000
229.627;    5.100; -156.000;  139.000
229.771;  -71.200; -218.000; -294.000
229.915;   -5.700;  230.000;   79.000
230.059; -191.500; -648.000; -663.000
230.202;  -71.200; -370.000; -317.000
230.346;  -24.600; -107.000;  107.000
230.490; -121.900; -489.000; -521.000
230.634; -199.000; -736.000; -553.000
230.777;  173.500;  478.000;  509.000
230.921;  -98.500; -450.000; -359.000
231.065;  -88.600; -246.000; -286.000
231.209;   68.300;  261.000;  265.000
231.352;   58.500;   54.000;   40.000
231.496;   31.900;  568.000;  188.000
231.640; -174.800; -693.000; -621.000
231.783;  127.200;  546.000;  525.000
231.927; -108.700; -294.000; -365.000
232.071; -244.700; -962.000; -736.000
232.214; -240.900; -980.000; -764.000
232.358; -207.500; -683.000; -599.000
232.502;   28.400;  -19.000;    7.000
232.645; -264.800;-1090.000; -927.000
232.789;  -31.100; -257.000; -218.000
232.933;  -71.600; -407.000; -224.000
233.076; -250.300;-1038.000; -897.000
233.220; -205.000; -752.000; -777.000
233.363; -165.700; -669.000; -477.000
233.507;  129.900;  371.000;  129.000
233.650; -221.300; -764.000; -834.000
233.794;  115.000;  438.000;  461.000
233.938; -151.800; -530.000; -362.000
234.081;  -15.200;  -93.000;   31.000
234.225; -151.100; -631.000; -539.000
234.368; -201.000; -773.000; -723.000
234.512;  -89.900; -385.000; -299.000
234.655; -150.300; -582.000; -555.000
234.798; -157.600; -493.000; -466.000
234.942; -282.500; -884.000;-1002.000
235.085; -162.500; -651.000; -443.000
235.229;  -94.900; -405.000; -410.000
235.372;  -58.000; -247.000; -191.000
235.516; -106.000; -397.000; -321.000
235.659;   32.800;   92.000;  121.000
235.802;  -10.700;  -38.000;  -22.000
235.946;   93.100;  335.000;  215.000
236.089;   60.000;  126.000;  250.000
236.233;  126.000;  275.000;  298.000
236.376;  -72.100; -235.000; -378.000
236.519; -109.200; -297.000; -319.000
236.663;  -33.200; -215.000; -117.000
236.806; -280.000;-1029.000; -999.000
236.949;  171.100;  543.000;  431.000
237.092;  120.000;  412.000;  391.000
237.236; -136.300; -589.000; -502.000
237.379;  153.800;  352.000;  428.000
237.522; -223.200; -879.000; -768.000
237.666;    5.400; -271.000;   18.000
237.809; -233.000; -851.000; -823.000
237.952;   72.700;  469.000;  271.000
238.095; -117.600; -447.000; -442.000
238.238;  158.900;  688.000;  700.000
238.382;   55.700;  166.000;  103.000
238.525; -133.600; -598.000; -511.000
238.668; -271.500;-1060.000; -985.000
238.811; -141.600; -638.000; -643.000
238.954; -114.100; -483.000; -334.000
239.097;  210.800;  617.000;  664.000
239.241;   79.000;  394.000;  326.000
239.384;  -84.200; -254.000; -214.000
239.527; -121.800; -424.000; -224.000
239.670; -312.700; -994.000;-1091.000
239.813; -225.000; -696.000; -658.000
239.956;  163.200;  579.000;  473.000
240.099; -210.300; -778.000; -725.000
240.242;  138.500;  428.000;  432.000
240.385;  104.900;  466.000;  450.000
240.528; -140.600; -706.000; -473.000
240.671;   52.600;  189.000;  134.000
240.814;  -75.600; -441.000; -158.000
240.957; -192.400; -767.000; -578.000
241.100; -189.400; -779.000; -755.000
241.243; -268.000;-1234.000; -893.000
241.386; -112.000; -508.000; -379.000
241.529; -159.400; -735.000; -547.000
241.672; -137.100; -566.000; -495.000
241.815; -210.400; -832.000; -808.000
241.958;  -46.800; -125.000; -182.000
242.101; -130.900; -545.000; -390.000
242.244;  -66.000; -270.000; -325.000
242.387;  -89.800; -304.000; -246.000
242.530;  145.600;  470.000;  134.000
242.673;  -92.400; -381.000; -309.000
242.815; -235.800; -925.000; -899.000
242.958; -114.800; -482.000; -381.000
243.101;   56.300;  132.000;  187.000
243.244; -150.200; -564.000; -521.000
243.387;  -77.000; -313.000; -316.000
243.530; -187.700; -657.000; -674.000
243.672;    3.400;   43.000;  -92.000
243.815;  -79.300; -355.000; -283.000
243.958;    1.800;   98.000;  -26.000
244.101;   26.400;   59.000;  -16.000
244.243;  -54.100;  -47.000;  101.000
244.386; -201.800; -761.000; -630.000
244.529;   -0.100; -132.000; -139.000
244.672; -294.400;-1154.000; -951.000
244.814; -217.600; -621.000; -794.000
244.957;  -35.000; -380.000; -304.000
245.100; -142.900; -489.000; -489.000
245.242; -100.600; -387.000; -374.000
245.385;  -36.300;  -59.000;  -39.000
245.528; -243.000; -871.000; -705.000
245.670;  170.200;  612.000;  634.000
245.813; -123.400; -599.000; -547.000
245.956;  -82.900; -324.000; -275.000
246.098; -172.400; -508.000; -650.000
246.241;   15.000;  194.000;   48.000
246.383;   -9.600; -119.000;  -73.000
246.526; -147.900; -454.000; -525.000
246.669; -232.800; -889.000; -780.000
246.811;   20.500;  172.000;   -1.000
246.954; -129.900; -512.000; -426.000
247.096;   -1.800;  -84.000;   -6.000
247.239; -101.600; -482.000; -445.000
247.381; -117.100; -647.000; -488.000
247.524;  223.400;  645.000;  679.000
247.666;   17.800;   58.000;   11.000
247.809; -220.700; -887.000; -691.000
247.951;  -19.100;  -75.000;  138.000
248.094;   92.500;  432.000;  308.000
248.236; -347.800;-1262.000;-1238.000
248.378;   13.600; -356.000;  -81.000
248.521;  -54.400; -334.000; -337.000
248.663;  -54.100; -236.000; -267.000
248.806;  -72.700; -300.000; -266.000
248.948; -216.700; -886.000; -763.000
249.090;  -99.600; -428.000; -398.000
249.233;  -73.400; -344.000; -381.000
249.375; -114.900; -474.000; -451.000
249.518;  -29.300;  -83.000; -133.000
249.660;    9.400; -103.000;    3.000
249.802; -344.400;-1303.000;-1189.000
249.945; -175.800; -612.000; -540.000
250.087; -235.600; -834.000; -768.000
250.229; -120.500; -362.000; -480.000
250.371; -145.500; -494.000; -439.000
250.514; -117.500; -310.000; -244.000
250.656; -117.000;   69.000;  102.000
250.798; -198.300; -849.000; -800.000
250.940; -106.400; -322.000; -322.000
251.083;  -32.400; -335.000; -111.000
251.225;  126.300;  338.000;  310.000
251.367; -100.800; -274.000; -373.000
251.509;  -61.900; -265.000; -210.000
251.651; -194.600; -731.000; -671.000
251.794;  146.900;  538.000;  632.000
251.936; -208.800; -821.000; -747.000
252.078; -154.100; -540.000; -461.000
252.220; -142.000; -645.000; -477.000
252.362;  166.700;  344.000;  462.000
252.504; -162.500; -677.000; -584.000
252.646; -227.300; -875.000; -722.000
252.788;    7.900;   14.000; -128.000
252.931;  -64.500; -257.000; -253.000
253.073;  -69.800; -376.000; -317.000
253.215;   12.200;  141.000;  122.000
253.357;  -14.200;   82.000; -153.000
253.499;  -82.700; -374.000; -234.000
253.641; -173.800; -749.000; -594.000
253.783; -185.100; -609.000; -527.000
253.925; -201.300; -586.000; -591.000
254.067; -221.700; -744.000; -667.000
254.209;  -54.900; -391.000; -259.000
254.351; -278.200; -865.000; -883.000
254.493; -136.700; -441.000; -417.000
254.635; -224.700; -936.000; -818.000
254.777; -167.800; -752.000; -687.000
254.918; -168.900; -512.000; -430.000
255.060;  -93.600; -551.000; -395.000
255.202; -112.700; -473.000; -261.000
255.344; -155.600; -658.000; -455.000
255.486; -125.500; -471.000; -406.000
255.628; -231.500; -780.000; -781.000
255.770; -173.100; -676.000; -536.000
255.912; -122.500; -559.000; -468.000
256.053; -151.000; -730.000; -508.000
256.195;  341.200; 1008.000;  903.000
256.337; -195.900; -861.000; -595.000
256.479;  159.400;  532.000;  416.000
256.621;  -58.300; -394.000; -212.000
256.762; -193.900; -789.000; -742.000
256.904;  147.300;  485.000;  487.000
257.046; -106.900; -381.000; -271.000
257.188;  -79.100; -351.000; -264.000
257.329; -169.700; -525.000; -464.000
257.471; -239.700; -939.000; -807.000
257.613; -132.900; -584.000; -498.000
257.755; -273.600;-1073.000; -982.000
257.896;   80.500;  286.000;  392.000
258.038; -117.000; -403.000; -352.000
258.180;  -68.800; -354.000; -279.000
258.321; -149.100; -581.000; -457.000
258.463;   20.600;  -71.000;  133.000
258.605; -169.900; -562.000; -570.000
258.746; -170.900; -886.000; -772.000
258.888; -304.100;-1026.000;-1020.000
259.029;   37.700;  121.000;   -8.000
259.171; -196.100; -614.000; -550.000
259.313;   15.600;  -49.000;  -47.000
259.454; -133.000; -536.000; -414.000
259.596;  -88.700; -483.000; -390.000
259.737; -131.500; -590.000; -474.000
259.879;   80.100;  217.000;  311.000
260.020;  256.500;  901.000;  636.000
260.162;  -28.300; -146.000; -253.000
260.303; -237.600; -768.000; -687.000
260.445; -146.100; -609.000; -613.000
260.586;  111.200;  392.000;  157.000
260.728;  -29.900; -360.000; -248.000
260.869; -112.500; -350.000; -343.000
261.011;  176.500;  706.000;  537.000
261.152;  -99.500; -479.000; -319.000
261.293; -134.300; -576.000; -595.000
261.435;  -53.600; -219.000; -184.000
261.576;  -62.100; -455.000; -325.000
261.718;  133.900;  420.000;  470.000
261.859; -245.500; -940.000; -949.000
262.000; -255.100; -951.000;-1016.000
262.142;   -9.500;  -52.000;  -60.000
262.283; -218.400; -808.000; -691.000
262.424; -178.800; -666.000; -625.000
262.566; -278.500;-1161.000; -983.000
262.707; -218.500; -840.000; -830.000
262.848; -210.500; -769.000; -726.000
262.990;  -62.200; -362.000; -345.000
263.131;  172.200;  650.000;  681.000
263.272;   -0.900;  -61.000;  -41.000
263.413; -158.900; -589.000; -561.000
263.555; -118.500; -669.000; -143.000
263.696; -151.900; -550.000; -641.000
263.837; -126.600; -449.000; -551.000
263.978;   15.000;   -5.000;  -77.000
264.119;  -57.600; -283.000; -264.000
264.261; -217.600; -847.000; -630.000
264.402;   42.300;   33.000;   40.000
264.543; -139.500; -509.000; -524.000
264.684;  -15.900;   61.000;  -50.000
264.825; -126.000; -816.000; -538.000
264.966;   15.000;  -84.000;  -67.000
265.107; -208.000; -646.000; -670.000
265.248; -225.500; -825.000; -812.000
265.390;   16.700;  152.000;   -9.000
265.531;  -14.400; -238.000; -107.000
265.672; -127.000; -557.000; -630.000
265.813;  153.600;  563.000;  439.000
265.954; -271.500; -959.000; -940.000
266.095;  -12.800; -372.000; -322.000
266.236; -182.700; -686.000; -548.000
266.377;  -60.900; -243.000; -297.000
266.518; -124.900; -619.000; -547.000
266.659;   70.000;  170.000;  268.000
266.800;   36.800;   83.000;   85.000
266.941; -123.800; -487.000; -478.000
267.082;   78.900;  354.000;   99.000
267.223;  -74.200; -344.000; -273.000
267.364; -215.800; -892.000; -686.000
267.504;    0.200;    3.000;  135.000
267.645;   31.700;  160.000;   67.000
267.786;  -55.400; -147.000;  -86.000
267.927; -103.300; -473.000; -379.000
268.068;  -12.600; -186.000;  -61.000
268.209;  -89.500; -175.000; -413.000
268.350;  -92.400; -388.000; -532.000
268.490; -166.700; -648.000; -521.000
268.631;   81.300;  127.000;  225.000
268.772; -195.900; -874.000; -647.000
268.913;  -89.400; -328.000; -476.000
269.054;    6.900; -117.000;   12.000
269.194;  -80.900; -418.000; -402.000
269.335; -324.500;-1137.000;-1074.000
269.476;  -38.500;   33.000;  -35.000
269.617;  -76.700; -347.000; -392.000
269.757; -179.800; -713.000; -646.000
269.898; -182.900; -856.000; -613.000
270.039; -147.400; -415.000; -405.000
270.180; -273.500; -952.000; -816.000
270.320;  -35.500; -190.000; -250.000
270.461;  -69.000; -277.000; -249.000
270.602;    6.600; -186.000; -156.000
270.742; -219.100; -868.000; -943.000
270.883;  -71.500; -442.000; -390.000
271.023;  -98.700; -358.000; -357.000
271.164; -161.400; -607.000; -528.000
271.305; -185.300; -666.000; -654.000
271.445; -152.000; -722.000; -683.000
271.586; -109.100; -462.000; -283.000
271.726; -103.500; -397.000; -322.000
271.867; -116.500; -594.000; -534.000
272.008;  306.200; -473.000; -285.000
272.148;  285.400;  462.000;  468.000
272.289;   16.900; -113.000; -181.000
272.429;   55.500;   19.000;  185.000
272.570; -177.900; -633.000; -737.000
272.710; -179.400; -825.000; -775.000
272.851;  -21.400;  113.000; -130.000
272.991; -270.000;-1173.000;-1077.000
273.131; -133.200; -419.000; -459.000
273.272; -178.900; -683.000; -723.000
273.412;   37.100; -143.000;  -31.000
273.553;  -60.800; -488.000; -507.000
273.693;  308.800;  913.000;  858.000
273.834; -170.000; -894.000; -692.000
273.974; -128.600; -664.000; -615.000
274.114; -153.100; -772.000; -560.000
274.255;  207.000;  414.000;  373.000
274.395;   27.800; -180.000; -125.000
274.535;  125.200;  199.000;  350.000
274.676;   74.500;  225.000;   94.000
274.816;   53.900;  110.000;   34.000
274.956; -132.700; -624.000; -690.000
275.097; -151.600;-1014.000; -922.000
275.237; -200.500; -913.000; -803.000
275.377; -173.900; -778.000; -689.000
275.517; -244.100; -878.000; -937.000
275.658; -103.600; -590.000; -555.000
275.798;  -62.500; -606.000; -413.000
275.938;   72.800;  215.000;  323.000
276.078; -155.900; -626.000; -395.000
276.218;   30.300;   99.000;  104.000
276.359; -236.500;-1026.000;-1024.000
276.499;  -95.600; -605.000; -446.000
276.639;  -44.200; -305.000; -151.000
276.779;  -71.600; -475.000; -357.000
276.919; -172.500; -783.000; -624.000
277.059;  -18.700; -261.000; -212.000
277.199;  -48.300; -357.000; -259.000
277.340;  129.500;  287.000;  175.000
277.480; -192.800; -840.000; -693.000
277.620;   90.400;  192.000;   16.000
277.760; -351.900;-1533.000;-1294.000
277.900;   94.600;  113.000;   33.000
278.040;   78.900;  137.000;  159.000
278.180;   90.800;  270.000;  170.000
278.320;   37.800;   21.000;   56.000
278.460; -147.100; -443.000; -469.000
278.600; -157.100; -708.000; -598.000
278.740;  135.400;  448.000;  224.000
278.880;  -10.000; -768.000; -791.000
279.020;   60.800; -194.000; -144.000
279.160; -201.500; -672.000; -595.000
279.300; -226.900; -926.000; -873.000
279.440; -167.700; -709.000; -622.000
279.579;  -75.800;-1014.000; -929.000
279.719;  -87.700; -410.000; -394.000
279.859;  109.000;   -4.000;   41.000
279.999;  101.900; -208.000;  101.000
280.139;  -60.600; -435.000; -387.000
280.279; -135.900; -708.000; -745.000
280.419;    5.300; -229.000; -147.000
280.559;  -21.100; -259.000; -180.000
280.698; -156.400; -790.000; -639.000
280.838; -139.600; -778.000; -800.000
280.978; -196.100; -846.000; -790.000
281.118; -211.700; -811.000; -704.000
281.257;   53.600;   24.000;    6.000
281.397; -194.600;-1094.000; -960.000
281.537; -146.700; -599.000; -712.000
281.677;  -24.900; -150.000; -101.000
281.816; -150.700; -700.000; -630.000
281.956;  -38.100; -193.000; -257.000
282.096;  -89.600; -539.000; -396.000
282.235; -178.100; -672.000; -638.000
282.375;  -27.400; -243.000;  -98.000
282.515; -186.100; -715.000; -707.000
282.654;   90.400;   29.000;  106.000
282.794;  110.200;  388.000;  244.000
282.934;  -59.600; -530.000; -491.000
283.073; -220.900;-1030.000; -857.000
283.213; -103.000; -460.000; -467.000
283.353;    7.100; -408.000; -349.000
283.492;  -42.100; -264.000; -296.000
283.632;  -48.300; -254.000; -168.000
283.771; -170.800; -859.000; -730.000
283.911;  -42.900; -369.000; -260.000
284.050; -176.100; -794.000; -748.000
284.190; -295.300;-1229.000;-1096.000
284.329; -261.900;-1055.000; -964.000
284.469;  -75.300; -516.000; -591.000
284.608;  -79.700; -559.000; -598.000
284.748; -159.900; -614.000; -570.000
284.887;   18.600;  -87.000;  -20.000
285.027; -237.400; -844.000; -892.000
285.166;  -49.400; -192.000; -249.000
285.306;   92.400; -116.000;  -33.000
285.445;  -45.000; -229.000; -343.000
285.584; -162.300; -630.000; -494.000
285.724;  -72.200; -282.000; -322.000
285.863; -163.600; -857.000; -507.000
286.002; -108.000; -366.000; -276.000
286.142; -174.500; -715.000; -622.000
286.281; -101.900; -525.000; -493.000
286.420; -102.900; -554.000; -417.000
286.560;  249.300;  653.000;  623.000
286.699; -228.700; -958.000; -912.000
286.838; -119.400; -590.000; -591.000
286.978; -144.000; -533.000; -537.000
287.117; -259.500;-1085.000; -950.000
287.256;  -30.900; -228.000; -211.000
287.395;  -83.700; -197.000; -378.000
287.535;  -70.400; -370.000; -298.000
287.674; -123.900; -509.000; -484.000
287.813;  177.800;  661.000;  533.000
287.952; -233.600;-1010.000; -871.000
288.091; -245.900;-1049.000; -915.000
288.231;   81.400;   13.000;   15.000
288.370; -305.200;-1217.000;-1200.000
288.509; -149.500; -728.000; -645.000
288.648; -151.900; -770.000; -548.000
288.787;  -30.700; -243.000;  -87.000
288.926;  -95.200; -454.000; -475.000
289.065;  276.000;  859.000;  672.000
289.204;  -68.700; -377.000; -217.000
289.344; -161.600; -791.000; -690.000
289.483;  108.300;  416.000;  304.000
289.622;  -40.900; -291.000; -149.000
289.761;   25.800; -309.000; -166.000
289.900; -160.400; -785.000; -626.000
290.039;   14.700;  -12.000;  -95.000
290.178;  -46.100; -274.000; -180.000
290.317;  -92.500; -618.000; -479.000
290.456; -101.200; -463.000; -451.000
290.595; -226.100; -961.000; -833.000
290.734; -238.100; -904.000; -891.000
290.873; -115.300; -456.000; -420.000
291.011; -226.500; -833.000; -843.000
291.150; -160.400; -770.000; -682.000
291.289;  -38.300; -343.000; -110.000
291.428; -147.400; -599.000; -480.000
291.567;  -77.900; -370.000; -442.000
291.706;   38.300;  109.000;  154.000
291.845; -144.600; -597.000; -505.000
291.984; -290.500;-1234.000;-1061.000
292.122;  202.000;  602.000;  582.000
292.261;  148.200;  620.000;  463.000
292.400;   47.500; -144.000;  211.000
292.539; -217.300; -959.000; -813.000
292.678;  -39.100; -325.000; -300.000
292.816; -296.600;-1136.000; -965.000
292.955; -145.800; -844.000; -684.000
293.094;   11.400; -173.000; -337.000
293.233;  -78.000; -556.000; -400.000
293.371;  -35.500; -225.000;  -84.000
293.510; -191.600; -866.000; -780.000
293.649; -226.800; -959.000; -924.000
293.787;  -76.900;-1083.000;-1012.000
293.926;   28.300; -113.000;  -32.000
294.065;  -49.700; -379.000; -290.000
294.203;  153.100;  298.000;  406.000
294.342;  144.300;   74.000;  156.000
294.481;12951.500;51180.000; -836.000
294.619;  -43.800; -425.000; -582.000
294.758; -222.800;-1230.000;-1137.000
294.896;  188.900; -125.000;    5.000
295.035; -205.000;-1040.000;-1006.000
295.174; -212.800;-1082.000; -954.000
295.312;  -17.800; -323.000; -203.000
295.451;   24.100; -307.000; -428.000
295.589;  -53.700; -389.000; -518.000
295.728;   80.000; -292.000; -165.000
295.866;   81.300;  -36.000;  -51.000
296.005; -107.800; -584.000; -341.000
296.143; -101.300; -558.000; -596.000
296.282; -187.700; -957.000; -881.000
296.420; -155.300; -657.000; -557.000
296.559;  -98.700; -892.000; -633.000
296.697;  105.800; -847.000; -665.000
296.835;  207.100;-1141.000;-1002.000
296.974;  168.700;  -23.000;   39.000
297.112;   77.400; -443.000; -504.000
297.251; -103.200; -815.000; -755.000
297.389;  199.300; -576.000; -438.000
297.527;  159.000; -145.000;  -83.000
297.666;  -66.600; -486.000; -438.000
297.804;  -74.100; -404.000; -264.000
297.942;   -5.300; -136.000; -161.000
298.081;   83.200; -183.000;   63.000
298.219;  190.100;  -17.000;  -19.000
298.357;  138.300; -144.000;  -71.000
298.495;  120.200; -810.000; -812.000
298.634;  189.500;  245.000;  219.000
298.772;  156.300; -220.000; -338.000
298.910;  -12.000; -309.000; -182.000
299.048;   41.200; -130.000; -153.000
299.187;  -33.500; -350.000; -250.000
299.325;   71.500;   52.000;  122.000
299.463;  183.300; -389.000; -299.000
299.601;  295.300; -327.000; -271.000
299.739; -135.300; -908.000; -883.000
299.877; -116.900; -791.000; -703.000
300.016;  -94.000;-1095.000; -935.000
300.154;  363.300;  -19.000; -161.000
300.292;  151.100; -428.000; -348.000
300.430;  130.100; -408.000; -291.000
300.568; -160.000; -940.000; -874.000
300.706;  -62.100; -366.000; -469.000
300.844;  -79.200;-1108.000; -979.000
300.982;  280.400;  246.000;  282.000
301.120; -199.400; -965.000; -866.000
301.258;  -84.100; -812.000; -705.000
301.396;  117.400;  104.000;  -41.000
301.534;  240.700; -218.000; -293.000
301.672;   51.000; -664.000; -521.000
301.810;  130.500; -613.000; -545.000
301.948;  343.800;   53.000;  149.000
302.086; 1172.200; -250.000;  -32.000
302.224; 1983.400; -610.000; -585.000
302.362;  111.200; -558.000; -622.000
302.500;   -0.100; -923.000; -893.000
302.638;  297.700;  128.000;  245.000
302.776;   69.800; -352.000; -408.000
302.913;  102.100;  447.000;  236.000
303.051;   42.300;  -86.000;  -23.000
303.189;  166.300;   90.000;  118.000
303.327;  -45.600; -341.000; -256.000
303.465; -124.200; -832.000; -588.000
303.603; -121.500; -805.000; -604.000
303.740;  261.300;  417.000;  241.000
303.878;   91.900; -800.000; -759.000
304.016; -136.300; -915.000; -790.000
304.154; -196.500;-1123.000;-1152.000
304.291;  -20.200; -505.000; -554.000
304.429;   78.200;  102.000;   74.000
304.567; -227.600; -908.000; -893.000
304.705;  -45.300; -408.000; -515.000
304.842;  241.200; -616.000; -540.000
304.980;  187.100;  215.000;   35.000
305.118;  122.100; -367.000; -365.000
305.255;  -32.900; -945.000; -927.000
305.393;  150.700;  178.000;  239.000
305.531; -148.700;-1173.000; -956.000
305.668; -114.000; -663.000; -582.000
305.806;  218.600; -358.000; -439.000
305.943;  192.300; -629.000; -637.000
306.081;  173.400; -378.000; -267.000
306.219; -194.400; -863.000; -748.000
306.356;   47.700;  158.000;   27.000
306.494;  335.400;  981.000;  761.000
306.631;   66.200;  -11.000;  -55.000
306.769;   48.600; -613.000; -485.000
306.906;   52.300; -284.000; -258.000
307.044;  -22.700; -473.000; -488.000
307.181;  -27.200; -410.000; -332.000
307.319;  173.200;  112.000;   87.000
307.456; -308.500;-1191.000;-1153.000
307.594; -157.600; -980.000; -727.000
307.731;   39.900; -371.000; -164.000
307.868;   39.300;  -15.000;   20.000
308.006; -204.300; -961.000; -847.000
308.143;  -64.700; -618.000; -330.000
308.281;  433.500;  -37.000; -254.000
308.418;   55.100; -748.000; -640.000
308.555;  -58.400; -400.000; -250.000
308.693; -104.400; -577.000; -573.000
308.830; -140.900; -712.000; -657.000
308.967;   28.100; -215.000;  -95.000
309.105;    1.200; -507.000; -396.000
309.242;  142.700; -468.000; -367.000
309.379;  854.600; -577.000; -655.000
309.517;  -37.900; -936.000; -948.000
309.654; -166.200; -910.000; -734.000
309.791;  -90.600; -662.000; -580.000
309.928; -147.700; -977.000; -914.000
310.065;  443.200;  819.000;  697.000
310.203;   38.600; -825.000; -850.000
310.340;  100.200; -465.000; -321.000
310.477;  -74.000; -412.000; -516.000
310.614;  -70.300; -383.000; -473.000
310.751;  -55.900; -427.000; -518.000
310.889;   17.100;    1.000;   11.000
311.026; -237.700;-1161.000; -939.000
311.163;  -46.700; -386.000; -380.000
311.300;  -77.600; -512.000; -479.000
311.437;  -90.700; -658.000; -619.000
311.574; -241.900;-1226.000; -985.000
311.711;  -62.600; -595.000; -433.000
311.848;  -20.800; -380.000; -388.000
311.985;  103.400;  270.000;   93.000
312.122; -165.600; -932.000; -762.000
312.259; -196.700; -941.000; -994.000
312.396;  -92.300; -508.000; -551.000
312.533;  -86.400; -812.000; -790.000
312.670; -200.900;-1070.000; -898.000
312.807;   -3.900; -352.000; -367.000
312.944;  -64.800; -513.000; -611.000
313.081;   -8.900; -150.000; -415.000
313.218; -161.200;-1111.000; -867.000
313.355;   63.000; -531.000; -449.000
313.492;   73.200; -455.000; -292.000
313.629;  346.800;  815.000;  735.000
313.766; -242.300;-1176.000;-1008.000
313.902;   50.000; -186.000;   21.000
314.039;    0.000; -372.000; -289.000
314.176;  136.500;  286.000;  192.000
314.313; -121.500; -569.000; -473.000
314.450;  -89.300; -788.000; -684.000
314.587;  -46.000; -468.000; -480.000
314.723;   70.300;  -78.000;  130.000
314.860;  137.300;  318.000;  332.000
314.997;  134.800;  223.000;  142.000
315.134;   15.000; -385.000; -368.000
315.270;   11.000; -480.000; -496.000
315.407; -178.300;-1094.000; -967.000
315.544;  -59.500; -657.000; -538.000
315.681;  -69.000; -681.000; -565.000
315.817;  124.100; -133.000; -176.000
315.954;   67.200; -613.000; -392.000
316.091; -217.500;-1045.000;-1023.000
316.227;    5.900;  -71.000; -179.000
316.364;   61.500;   23.000;    6.000
316.500;  -23.300; -113.000; -300.000
316.637;  -25.900; -181.000; -302.000
316.774; -109.100; -625.000; -358.000
316.910; -146.700; -598.000; -629.000
317.047; -115.000; -487.000; -351.000
317.183;  -96.700; -435.000; -566.000
317.320;  -38.900; -367.000; -321.000
317.456; -143.800; -733.000; -805.000
317.593; -120.700; -598.000; -641.000
317.729;   47.100;  168.000;  -67.000
317.866; -344.800;-1434.000;-1285.000
318.002; -113.300; -708.000; -948.000
318.139; -130.900; -883.000; -867.000
318.275; -169.200;-1003.000; -738.000
318.412;  -70.100; -517.000; -336.000
318.548;  -16.800; -751.000; -720.000
318.685; -137.800; -985.000; -888.000
318.821; -166.900; -762.000; -735.000
318.957;   11.700;   34.000;  -23.000
319.094;  101.000;  297.000;  154.000
319.230;  -55.200; -756.000; -742.000
319.367;  292.000; -471.000; -520.000
319.503;  158.600; -538.000; -436.000
319.639; -158.300; -877.000; -793.000
319.775;  -85.400; -750.000; -685.000
319.912;  -79.300; -424.000; -519.000
320.048; -152.300;-1184.000;-1184.000
320.184;  170.500;   59.000;   70.000
320.321;  -83.400; -497.000; -467.000
320.457;  171.300;  475.000;  662.000
320.593;  -53.000; -375.000; -382.000
320.729; -149.500; -732.000; -734.000
320.866; -117.800; -577.000; -635.000
321.002; -124.500; -759.000; -809.000
321.138;   26.200; -135.000; -211.000
321.274;  195.100; -148.000; -115.000
321.410;  -45.600; -585.000; -353.000
321.546;  -19.600;-1011.000; -911.000
321.683;  195.200;  400.000;  185.000
321.819;   63.100;  -48.000; -117.000
321.955; -165.100; -743.000; -722.000
322.091;  -71.100; -585.000; -540.000
322.227;    7.100; -382.000; -202.000
322.363;   -3.400; -320.000; -215.000
322.499;   -0.200; -343.000; -331.000
322.635;  357.200;  636.000;  443.000
322.771;  118.000; -139.000;   12.000
322.907;  267.800;  129.000;  327.000
323.043;    5.800; -115.000; -206.000
323.179;  -11.600; -394.000; -363.000
323.315;  126.700; -401.000; -371.000
323.451;  288.900; -328.000; -236.000
323.587;  169.300;  -60.000;  -77.000
323.723;   70.400; -682.000; -601.000
323.859;    5.900; -258.000;  -76.000
323.995;  -40.400; -467.000; -409.000
324.131; -180.700; -967.000; -892.000
324.267;  -46.600; -254.000; -276.000
324.402; -194.100; -960.000; -983.000
324.538;    0.700; -279.000; -104.000
324.674;  103.900;  164.000;   77.000
324.810;  427.200;  226.000;  308.000
324.946;  157.700; -810.000; -658.000
325.082;  -46.600; -568.000; -475.000
325.217;   47.000;  -62.000;   16.000
325.353; -167.000; -764.000; -659.000
325.489; -117.100; -540.000; -506.000
325.625;  -86.800; -579.000; -525.000
325.760;  156.600;  517.000;  376.000
325.896;  -46.300; -515.000; -702.000
326.032;  -74.800; -403.000; -352.000
326.168;  -66.100; -462.000; -369.000
326.303;  -54.500; -352.000; -461.000
326.439;    2.800; -336.000; -276.000
326.575;   58.300; -190.000;  -29.000
326.710;   29.600; -156.000;  -30.000
326.846;   38.800;  146.000;  103.000
326.982; -172.600; -530.000; -548.000
327.117; -122.500; -481.000; -442.000
327.253; -185.800; -745.000; -742.000
327.388; -234.700;-1137.000;-1153.000
327.524;   12.700; -811.000; -578.000
327.659;   22.700;  -58.000;  -22.000
327.795;   20.200;   69.000;   45.000
327.931;  -90.000; -723.000; -499.000
328.066;    9.000; -417.000; -276.000
328.202;   94.200;   12.000; -129.000
328.337;  257.800;  957.000;  713.000
328.473;   63.900;  -12.000;  -74.000
328.608;   18.100; -256.000; -267.000
328.743; -121.400; -799.000; -664.000
328.879;   89.300;  214.000;  114.000
329.014;  -88.200; -102.000; -122.000
329.150; -110.800; -358.000; -483.000
329.285;  -97.000; -465.000; -466.000
329.421;  -27.500; -548.000; -246.000
329.556;   24.600;  -36.000;   85.000
329.691; -159.600; -633.000; -615.000
329.827; -118.600; -626.000; -480.000
329.962;  -63.000;  131.000; -301.000
330.097; -132.700; -673.000; -585.000
330.233;   -9.700; -410.000; -223.000
330.368; -197.100; -839.000; -628.000
330.503;   24.500;    3.000;   98.000
330.638;   64.300;  -93.000; -125.000
330.774;  -57.400; -609.000; -530.000
330.909;  -40.100; -434.000; -244.000
331.044; -117.000; -714.000; -708.000
331.179; -306.200;-1217.000;-1109.000
331.315;   70.500;   77.000;   20.000
331.450;  114.300;  157.000;  285.000
331.585; -134.800; -805.000; -706.000
331.720;  -85.400; -510.000; -460.000
331.855;   31.900;  -35.000; -102.000
331.990;  325.300;   62.000;  138.000
332.126;  178.700; -110.000;   71.000
332.261;   -8.900; -379.000; -265.000
332.396;   13.200; -135.000; -242.000
332.531; -160.600;-1074.000;-1031.000
332.666;   30.900; -519.000; -363.000
332.801; -152.100; -726.000; -807.000
332.936;   18.700; -192.000; -122.000
333.071; -245.100; -870.000; -817.000
333.206;   99.800;  307.000;  379.000
333.341;  114.500;  344.000;  418.000
333.476; -135.900; -627.000; -623.000
333.611;  -36.600; -251.000; -173.000
333.746;  -46.800; -381.000; -464.000
333.881; -167.400; -973.000; -935.000
334.016; -198.600; -936.000; -917.000
334.151; -184.000; -746.000; -702.000
334.286;  120.100;  152.000;  186.000
334.421;   41.500; -125.000; -178.000
334.556; -100.300; -611.000; -567.000
334.690; -112.500; -631.000; -577.000
334.825;  214.700;  381.000;   83.000
334.960;  -67.100; -285.000; -413.000
335.095;   99.200;  135.000;  -91.000
335.230; -127.400; -722.000; -738.000
335.365; -205.800;-1084.000; -990.000
335.499; -188.500;-1108.000;-1037.000
335.634;  103.900;    9.000;  534.000
335.769; -146.700; -755.000; -720.000
335.904;  -64.200; -603.000; -561.000
336.038;  -30.600; -735.000; -657.000
336.173; -175.400;-1206.000;-1194.000
336.308;  105.600; -116.000; -189.000
336.443;   17.500; -544.000; -634.000
336.577;  -88.200; -936.000; -787.000
336.712;  209.600;   -4.000;  -12.000
336.847;  -40.300; -724.000; -607.000
336.981;  186.700; -272.000; -208.000
337.116;  648.000;  615.000;  501.000
337.250;  397.400; -434.000; -421.000
337.385;  344.500; -297.000; -208.000
337.520;   56.400; -632.000; -603.000
337.654;  -16.600; -215.000; -126.000
337.789; -202.100; -989.000; -933.000
337.923;   -0.600; -104.000; -205.000
338.058; -122.800; -673.000; -738.000
338.192;    5.700; -611.000; -488.000
338.327;   50.000;  -18.000; -155.000
338.461;  -84.100; -299.000; -469.000
338.596; -120.000; -780.000; -638.000
338.730; -152.300; -767.000; -803.000
338.865;  135.600;  -46.000; -140.000
338.999; -107.300; -846.000; -702.000
339.134;  -41.800; -634.000; -536.000
339.268;    7.600; -741.000; -603.000
339.403;  440.400; -740.000; -775.000
339.537;   98.600; -894.000; -820.000
339.671; -179.700; -829.000; -813.000
339.806; -128.400; -556.000; -512.000
339.940;   43.600; -261.000; -235.000
340.074; -184.600; -685.000; -510.000
340.209;  -38.200; -351.000; -230.000
340.343; -127.800; -517.000; -573.000
340.477;  350.900;  998.000; 1036.000
340.612; -122.600;-1033.000; -900.000
340.746;  158.900; -199.000; -243.000
340.880; -103.400; -924.000; -785.000
341.014;   22.700;  -45.000; -154.000
341.149; -177.800; -756.000; -718.000
341.283; -183.100; -839.000; -754.000
341.417; -111.300;-1124.000; -938.000
341.551;  400.000; -768.000; -708.000
341.685;  -23.300; -633.000; -611.000
341.820;  -80.800; -562.000; -493.000
341.954;  -16.100; -218.000; -349.000
342.088; -250.800;-1102.000;-1019.000
342.222;  144.400;  565.000;  618.000
342.356;  -79.600; -395.000; -335.000
342.490; -107.800; -880.000; -841.000
342.624;  -39.200; -339.000; -242.000
342.758;   68.000; -364.000; -312.000
342.892;  -65.500; -710.000; -585.000
343.026;  -29.300;  -58.000; -116.000
343.160;  -83.100; -426.000; -376.000
343.294;  -97.400; -474.000; -337.000
343.428;    5.800; -488.000; -448.000
343.562;   55.000; -172.000;  -23.000
343.696;   14.200; -385.000; -314.000
343.830;   21.500; -362.000; -356.000
343.964;   70.000; -231.000; -168.000
344.098; 2029.900;  199.000;   70.000
344.232; 1718.600; -266.000; -127.000
344.366;  136.200; -567.000; -453.000
344.500;  179.500; -665.000; -744.000
344.634;  165.200; -324.000; -164.000
344.768;   67.400; -531.000; -341.000
344.902;  110.300;  278.000;  256.000
345.035;  -97.200; -556.000; -496.000
345.169; -215.800; -933.000; -656.000
345.303;   -6.600; -308.000; -482.000
345.437;  -49.200; -826.000; -717.000
345.571; -127.500; -675.000; -594.000
345.704;  -55.200; -309.000; -532.000
345.838;   45.600; -331.000; -284.000
345.972;  -12.300; -543.000; -495.000
346.106;  257.400; -179.000; -190.000
346.239;  756.500; -312.000; -243.000
346.373;   92.200; -343.000; -302.000
346.507; -216.300; -950.000; -962.000
346.640;  365.500;  -30.000;   13.000
346.774;  -22.500; -650.000; -797.000
346.908;   41.300; -138.000;  -11.000
347.041; -122.300; -646.000; -593.000
347.175;   60.600;  259.000;   27.000
347.309;  -36.000; -698.000; -628.000
347.442; -128.700; -883.000; -732.000
347.576;  683.600;  670.000;  668.000
347.709;  509.100; -123.000;  -52.000
347.843; -111.000; -933.000; -825.000
347.976;  141.700;  235.000;  294.000
348.110; -302.200;-1268.000;-1186.000
348.243; -180.200; -679.000; -772.000
348.377;   70.200;  -26.000;   60.000
348.510;  178.600;  403.000;  540.000
348.644;   -3.000;  -37.000; -159.000
348.777;   59.700;  180.000;  191.000
348.911;  -19.000; -142.000; -112.000
349.044;  419.500;  471.000;  448.000
349.178;  418.300;-1069.000;-1006.000
349.311;  266.200;  141.000;  255.000
349.444;  -38.900; -927.000; -813.000
349.578;   -7.900; -347.000; -200.000
349.711; -133.300; -959.000; -862.000
349.845;   65.500; -661.000; -591.000
349.978; -228.800;-1224.000;-1137.000
350.111;  -92.400; -546.000; -612.000
350.244;  -98.500; -596.000; -700.000
350.378;   52.700; -392.000; -393.000
350.511;  -78.200; -393.000; -426.000
350.644; -185.600; -808.000; -806.000
350.778;   75.900;  168.000;  104.000
350.911;   76.800;  134.000;  140.000
351.044; -139.700; -685.000; -615.000
351.177;   27.900; -321.000; -281.000
351.310;   34.700;    3.000; -131.000
351.444;  -96.100; -888.000; -788.000
351.577;  310.200;  140.000;   90.000
351.710;  269.600;  593.000;  417.000
351.843;   19.800; -165.000;  -77.000
351.976;   48.000;  149.000;  -79.000
352.109;  -88.600; -621.000; -612.000
352.242;   37.700; -464.000; -419.000
352.376;  -37.000; -580.000; -636.000
352.509;  435.100; -437.000; -356.000
352.642;   77.700; -654.000; -604.000
352.775;  208.500; -141.000;  -98.000
352.908; -169.900; -933.000; -904.000
353.041; -155.400; -814.000; -824.000
353.174;  -46.200; -551.000; -424.000
353.307; -133.000; -753.000; -764.000
353.440;  194.200;  541.000;  453.000
353.573; -210.600; -957.000;-1008.000
353.706;  -56.200; -384.000; -558.000
353.839;    9.900; -264.000; -220.000
353.971; -112.700; -657.000; -512.000
354.104; -103.900; -896.000; -835.000
354.237;  -30.100; -627.000; -662.000
354.370; -141.700; -846.000; -879.000
354.503; -302.100;-1231.000;-1308.000
354.636;   -3.600; -529.000; -348.000
354.769; -204.900; -937.000; -860.000
354.902;   25.900; -230.000; -139.000
355.034;   14.800; -164.000; -220.000
355.167;   14.400; -262.000; -162.000
355.300; -143.400;-1061.000; -880.000
355.433; 1375.600;  -71.000;  -14.000
355.565; 2023.600; -402.000; -384.000
355.698;  530.000; -356.000; -296.000
355.831;    3.800; -882.000; -801.000
355.964;  289.000; -285.000; -170.000
356.096; -100.100; -856.000; -843.000
356.229;   91.800; -523.000; -530.000
356.362;  454.400; -373.000; -266.000
356.494;  818.300; -229.000; -162.000
356.627; 1063.400;  269.000;  377.000
356.760; 1015.200;  120.000;   53.000
356.892; 1249.100; -286.000; -601.000
357.025; 1452.000;  403.000;  389.000
357.157; 1345.000; -167.000; -179.000
357.290;  682.700; -856.000; -713.000
357.423;  239.400; -667.000; -556.000
357.555;  242.800; -217.000; -228.000
357.688;  307.400; -483.000; -364.000
357.820;  794.500; -870.000; -877.000
357.953; 6655.600; -563.000; -589.000
358.085; 1634.600; -632.000; -612.000
358.218; 2955.500;-1131.000; -932.000
358.350;  576.300;  -58.000;  312.000
358.483; -201.200;-1300.000;-1187.000
358.615;   63.100;-1182.000;-1078.000
358.747;   -2.800;-1187.000;-1058.000
358.880;  162.300; -810.000; -744.000
359.012;   51.500; -376.000; -202.000
359.145;  -10.900; -480.000; -511.000
359.277;  136.600; -962.000; -913.000
359.409; 5687.700;  536.000;  231.000
359.542; 1502.600; -738.000; -688.000
359.674;  192.700;   46.000;   13.000
359.806;  -80.800; -565.000; -438.000
359.939;  -29.100; -617.000; -516.000
360.071;  -17.800; -583.000; -579.000
360.203;  -24.900; -411.000; -364.000
360.335;  191.400;  164.000;  -16.000
360.468;  344.100; -249.000; -307.000
360.600; 4337.700; -547.000; -454.000
360.732; 3398.000; -546.000; -423.000
360.864;  424.400;-1216.000;-1044.000
360.996;  729.700; -516.000; -554.000
361.129;  184.600; -389.000; -598.000
361.261;   99.800;  110.000; -113.000
361.393;    8.800; -252.000; -214.000
361.525;  122.500;   94.000;  244.000
361.657;  -84.500; -821.000; -703.000
361.789;   80.400; -139.000; -155.000
361.921;  615.200; -642.000; -593.000
362.053;  632.800;  524.000;  541.000
362.185;  166.500;  288.000;   72.000
362.318;  -82.500; -709.000; -705.000
362.450;  411.900;  294.000;  444.000
362.582;  495.600; -913.000; -870.000
362.714;    5.700; -353.000; -332.000
362.846; -116.600; -606.000; -490.000
362.978; -236.300; -941.000; -811.000
363.109;  158.400; -161.000; -260.000
363.241;  982.700; -739.000; -749.000
363.373;  597.800; -649.000; -564.000
363.505;  851.200; -186.000;  -91.000
363.637;  250.700; -787.000; -601.000
363.769; -198.300;-1067.000;-1080.000
363.901;  -50.700; -596.000; -654.000
364.033; -172.800;-1103.000;-1062.000
364.165;   58.900; -283.000; -283.000
364.296;  155.100; -316.000; -177.000
364.428;  -24.200;-1344.000;-1220.000
364.560;  -70.100; -679.000; -661.000
364.692;  -83.300; -738.000; -835.000
364.824;  747.900; -588.000; -456.000
364.955;  735.600; -402.000; -564.000
365.087;  904.300;-1097.000; -852.000
365.219;   30.400; -686.000; -816.000
365.351;  -74.700; -526.000; -572.000
365.482;  185.800;  300.000;  240.000
365.614;    6.000; -402.000; -314.000
365.746; -154.400; -729.000; -752.000
365.877; -151.500; -706.000; -672.000
366.009;  346.600;  -35.000;  -62.000
366.141; -201.100;-1249.000;-1134.000
366.272; -132.400; -803.000; -719.000
366.404; -190.600;-1005.000; -874.000
366.535;   58.100; -139.000;  -12.000
366.667; -160.100; -644.000; -649.000
366.799;  110.800;  353.000;  203.000
366.930; -186.900; -862.000; -996.000
367.062;  203.300; -639.000; -613.000
367.193;   94.000; -872.000; -842.000
367.325;  -76.300; -580.000; -684.000
367.456;  239.400; -246.000;   31.000
367.588;  273.900; -371.000; -318.000
367.719;  100.300;  -44.000;  -45.000
367.851;   49.600; -222.000; -241.000
367.982;   -3.800; -875.000; -732.000
368.113;  322.400; -475.000; -358.000
368.245; -152.500; -960.000; -841.000
368.376;   37.800; -254.000; -302.000
368.508;   18.000; -188.000; -263.000
368.639; -221.200;-1166.000;-1034.000
368.770;   75.900; -670.000; -589.000
368.902;  -74.300; -836.000; -926.000
369.033; -146.900; -906.000; -855.000
369.164;  -97.200; -720.000; -653.000
369.296; -157.800; -452.000; -601.000
369.427;   65.500; -209.000; -144.000
369.558;  -51.500; -593.000; -377.000
369.689; -120.100; -721.000; -569.000
369.821; -211.400; -951.000; -845.000
369.952;    9.900;   42.000; -108.000
370.083;  -41.000; -229.000; -108.000
370.214; -108.700; -735.000; -650.000
370.345;   72.900;   65.000;   81.000
370.477; -108.200; -810.000; -790.000
370.608;  565.200; -328.000; -264.000
370.739;  -72.500;-1233.000;-1292.000
370.870;  -27.700;-1102.000; -923.000
371.001;  302.400; -378.000; -467.000
371.132;  -76.700; -754.000; -735.000
371.263;   37.100;  -42.000; -148.000
371.394; -203.200; -841.000; -748.000
371.525;  134.800;  345.000;  225.000
371.657; -117.300; -808.000; -670.000
371.788;  207.800;  103.000;  199.000
371.919;  426.700; -384.000; -304.000
372.050; 7608.000;  -91.000; -156.000
372.181; 2241.100; -188.000; -294.000
372.311;  893.900;   42.000; -127.000
372.442;  131.500; -457.000; -451.000
372.573;   28.600; -444.000; -340.000
372.704; -158.300;-1008.000; -980.000
372.835;  265.900; -228.000; -289.000
372.966;  -30.700; -646.000; -554.000
373.097;  -63.600; -575.000; -711.000
373.228;   18.400; -717.000; -542.000
373.359;  394.100; -824.000; -536.000
373.490; 2123.700; -881.000; -727.000
373.620; 2533.700;-1001.000; -803.000
373.751; 3964.700; -332.000; -396.000
373.882; 1723.500; -663.000; -733.000
374.013;  255.600; -449.000; -262.000
374.143;  -15.300; -581.000; -659.000
374.274; -120.800; -987.000; -908.000
374.405;  418.200; -388.000; -276.000
374.536; 1050.200; -526.000; -387.000
374.666; 2479.500; -759.000; -807.000
374.797;  585.900; -817.000; -868.000
374.928; 2012.000; -710.000; -560.000
375.058; 1950.700; -535.000; -500.000
375.189;  216.300;  -59.000;  -93.000
375.320; -159.500; -928.000;-1034.000
375.450;  -41.000; -625.000; -616.000
375.581;   -5.600; -526.000; -436.000
375.712;  -22.100; -574.000; -250.000
375.842;  795.300; -438.000; -415.000
375.973;  520.400; -554.000; -513.000
376.103;   39.300; -665.000; -648.000
376.234; -107.700; -531.000; -552.000
376.364;   -6.500; -944.000; -867.000
376.495;  741.600;  925.000;  529.000
376.625;  119.200; -472.000; -485.000
376.756;  207.300; -709.000; -678.000
376.886;  -87.900;-1178.000;-1026.000
377.017;   34.500;-1048.000;-1061.000
377.147;  367.100; -786.000; -782.000
377.278;  157.900;  174.000;  228.000
377.408; -164.900; -801.000; -815.000
377.538; -167.200; -707.000; -693.000
377.669;  -85.500; -537.000; -613.000
377.799;  -84.100; -645.000; -635.000
377.929;  -12.400; -610.000; -428.000
378.060; -188.500; -781.000; -847.000
378.190;  -42.300; -726.000; -531.000
378.320;  -54.600; -401.000; -406.000
378.451;   46.700; -131.000;  -22.000
378.581;   59.100;  -67.000; -110.000
378.711;  447.100; 1035.000;  866.000
378.841;   46.500; -533.000; -675.000
378.972;  -59.000; -871.000; -751.000
379.102;   73.700; -652.000; -579.000
379.232;   49.900; -126.000;  -73.000
379.362; -148.200;-1001.000; -885.000
379.492;  138.500; -373.000; -424.000
379.623;  333.900;    0.000;  111.000
379.753; -132.100;-1107.000; -974.000
379.883;  504.600;   59.000;  156.000
380.013;  106.600;-1081.000;-1017.000
380.143; -146.100;-1097.000;-1056.000
380.273; -145.200; -985.000; -861.000
380.403;   55.200; -344.000; -257.000
380.533;   22.600; -651.000; -664.000
380.663;  254.500;  173.000;  128.000
380.793;  -89.600;-1027.000;-1074.000
380.923;   37.100; -103.000;  -34.000
381.053;  -77.600; -613.000; -623.000
381.183;   20.300; -106.000; -248.000
381.313;  205.600; -656.000; -470.000
381.443;  174.900; -692.000; -473.000
381.573;  576.700; -402.000; -409.000
381.703;  778.700;-1249.000;-1095.000
381.833; -142.900;-1454.000;-1336.000
381.963;  300.500; -134.000;  -87.000
382.093; 2832.000; -925.000; -909.000
382.223;  854.500; -713.000; -602.000
382.353;   64.800; -801.000; -608.000
382.482;  988.300;-1091.000; -964.000
382.612; 1634.700; -872.000; -644.000
382.742;  863.200; -695.000; -622.000
382.872;  690.900; -565.000; -551.000
383.002;  229.700;  347.000; -132.000
383.131;   51.000; -226.000; -160.000
383.261;  -33.300; -706.000; -768.000
383.391;  504.500; -552.000; -377.000
383.521; 3840.400;  451.000;  263.000
383.650;  729.000; -947.000; -904.000
383.780;  -56.600; -783.000; -656.000
383.910;  311.100;  880.000;  802.000
384.039;  136.400; -794.000; -656.000
384.169;  559.100;-1205.000;-1017.000
384.299;   73.600; -650.000; -662.000
384.428;  -82.400; -764.000; -680.000
384.558;   26.000; -308.000; -275.000
384.687;   75.400; -414.000; -334.000
384.817;  161.500;   75.000;   -2.000
384.947;  166.700; -234.000; -141.000
385.076;  751.700;  982.000;  912.000
385.206;  312.300;  369.000;  480.000
385.335;   41.600; -549.000; -417.000
385.465;  -58.400; -655.000; -663.000
385.594;  372.700;  -53.000;  -44.000
385.724; 1094.000; -868.000; -838.000
385.853;  410.500; -296.000; -270.000
385.982; 3233.600; -743.000; -787.000
386.112; 4633.500;-1052.000; -871.000
386.241;  402.200; -307.000; -312.000
386.371;  129.100; -174.000;  -87.000
386.500;   93.700; -825.000; -789.000
386.629;  111.600; -874.000; -817.000
386.759;  223.900;  -43.000;   68.000
386.888;  167.100; -170.000; -250.000
387.017;    6.100; -648.000; -620.000
387.147;  -13.400; -771.000; -798.000
387.276;  153.600; -410.000; -397.000
387.405;  124.400; -398.000; -342.000
387.535;   40.600; -452.000; -361.000
387.664;  -61.200; -692.000; -620.000
387.793;  226.100; -198.000; -113.000
387.922; 1283.400;  255.000;  200.000
388.052;  185.600; -576.000; -423.000
388.181;  237.000; -342.000; -472.000
388.310;  230.300; -889.000; -710.000
388.439;   56.100; -749.000; -742.000
388.568;  516.000;  365.000;  244.000
388.697; 2449.400; -756.000; -653.000
388.826;  514.300; -768.000; -666.000
388.956;  248.400; -285.000; -307.000
389.085;   54.900; -347.000; -287.000
389.214; -107.600; -842.000; -872.000
389.343;  -49.600; -645.000; -413.000
389.472;  661.900;  126.000;  149.000
389.601;  912.200;   91.000;    0.000
389.730;  108.900; -568.000; -687.000
389.859;  236.500;  226.000;   46.000
389.988;  516.800; -423.000; -408.000
390.117;  348.300; -168.000; -146.000
390.246;  113.400; -331.000; -320.000
390.375;  353.200; -673.000; -626.000
390.504;  -34.900; -703.000; -621.000
390.633;  -99.900; -672.000; -726.000
390.761;  -47.700; -732.000; -645.000
390.890;  159.800;   -4.000; -130.000
391.019;   21.200; -421.000; -441.000
391.148; -178.900; -826.000; -855.000
391.277;  -25.600; -576.000; -493.000
391.406;  -46.400; -821.000; -805.000
391.534;   94.000;  574.000; -301.000
391.663;  -17.200; -583.000; -645.000
391.792; -117.500; -673.000; -701.000
391.921;  386.900;   -3.000;   15.000
392.050;  603.000; -287.000; -228.000
392.178;   56.200;-1206.000;-1061.000
392.307;  413.100; -758.000; -712.000
392.436;  202.800; -427.000; -641.000
392.564;  124.600;  166.000;   -6.000
392.693;  -93.800; -860.000; -682.000
392.822;  543.300; -529.000; -534.000
392.950;  314.800; -880.000; -714.000
393.079;  792.400; -188.000; -328.000
393.208;  124.200; -488.000; -511.000
393.336;   26.900; -170.000; -145.000
393.465;    6.900; -317.000; -199.000
393.593;   83.200;   62.000;   79.000
393.722; -225.700;-1121.000; -916.000
393.850;  -24.200; -188.000;  -61.000
393.979; -247.800; -926.000; -805.000
394.107;  -74.500; -517.000; -537.000
394.236;   18.200; -570.000; -507.000
394.364;  561.600;  383.000;  206.000
394.493;  902.000; -911.000; -767.000
394.621;   20.000; -955.000; -916.000
394.750;  934.900; -873.000; -923.000
394.878; 4126.900; -247.000; -149.000
395.007; 5134.900; -721.000; -807.000
395.135;  344.300; -790.000; -721.000
395.263; -120.800;-1038.000;-1040.000
395.392;   94.100;  -25.000; -107.000
395.520; -134.100; -818.000; -679.000
395.648; -100.600; -865.000; -915.000
395.777;   47.800; -366.000; -405.000
395.905;  -21.700; -449.000; -564.000
396.033;  132.900;  217.000;  172.000
396.162; 1517.200; -399.000; -453.000
396.290; 1252.700;  -17.000;   -2.000
396.418;  297.300; -555.000; -514.000
396.546;  -53.600; -571.000; -466.000
396.674; -144.800; -850.000; -878.000
396.803;  101.800;  -72.000;  -23.000
396.931;  321.900; -179.000; -199.000
397.059;  235.800;-1026.000; -989.000
397.187; -168.100;-1026.000; -975.000
397.315; -197.900; -884.000; -649.000
397.443; -117.300; -592.000; -443.000
397.572; -110.500; -578.000; -424.000
397.700;   84.800; -607.000; -614.000
397.828;   66.700;  120.000;  -90.000
397.956;  -67.300; -508.000; -478.000
398.084; -117.100; -767.000; -626.000
398.212;  165.300;  137.000;  124.000
398.340;  127.600;  -56.000;  159.000
398.468;  148.300; -390.000; -169.000
398.596; -192.100; -993.000; -953.000
398.724; -197.900; -762.000; -767.000
398.852; -288.300;-1024.000; -976.000
398.980;  -53.100; -560.000; -560.000
399.108;  -47.600; -982.000; -735.000
399.236;  178.500;   13.000;    8.000
399.363;   95.000;  222.000;  196.000
399.491;  -53.800; -404.000; -398.000
399.619; -185.500; -829.000; -800.000
399.747; -124.600; -859.000; -771.000
399.875;  242.400;  220.000;  234.000
400.003;  -26.200; -359.000; -284.000
400.130;  -94.400; -421.000; -341.000
400.258;  -21.000;  -83.000;   38.000
400.386;  -49.800; -352.000; -168.000
400.514;  -17.200; -526.000; -587.000
400.641;  -77.000; -928.000; -802.000
400.769; -216.900; -979.000; -888.000
400.897;  -67.900; -838.000; -793.000
401.025;   89.900; -166.000; -152.000
401.152;   89.500;  220.000;   38.000
401.280; -121.900; -430.000; -429.000
401.408; -176.600; -712.000; -576.000
401.535; -155.000; -735.000; -758.000
401.663; -301.600;-1134.000;-1054.000
401.790;  -96.300; -514.000; -525.000
401.918;  161.300;  436.000;  405.000
402.046;   27.300;  134.000;  122.000
402.173;    7.500;  -18.000;    7.000
402.301;  -42.500; -519.000; -397.000
402.428;  171.000;  528.000;  383.000
402.556; -213.700;-1188.000; -913.000
402.683;   26.400;  -20.000;   -1.000
402.811;   19.200;  -37.000; -206.000
402.938;   36.400;   20.000;   27.000
403.066;  495.300; -574.000; -558.000
403.193;  720.200;  299.000;  239.000
403.321;  594.900; -396.000; -574.000
403.448;  665.000;   83.000;   27.000
403.575;  329.000;  -90.000;  -46.000
403.703; -138.500; -732.000; -557.000
403.830; -105.400; -531.000; -496.000
403.957; -220.400;-1117.000;-1023.000
404.085;   56.900;  -61.000; -172.000
404.212;  249.100;  -50.000;   63.000
404.339;  362.600; -566.000; -306.000
404.467; 7758.300; -612.000; -524.000
404.594; 5680.200; -287.000; -227.000
404.721; 1574.300; -869.000; -764.000
404.848;  199.000; -113.000; -202.000
404.976; -143.400; -856.000; -783.000
405.103;   51.100;  -14.000;  -82.000
405.230;  104.900;  190.000;  226.000
405.357;  113.300;  117.000;   44.000
405.484;  435.900;  -49.000;    5.000
405.612;  106.700; -548.000; -563.000
405.739;  -60.900; -488.000; -243.000
405.866;  270.400;  669.000;  385.000
405.993;   -0.200; -398.000; -102.000
406.120; -223.400; -801.000; -887.000
406.247;  -45.300; -323.000; -342.000
406.374; 1139.300;  540.000;  629.000
406.501;  320.000; -632.000; -702.000
406.628;  -80.500; -621.000; -589.000
406.755; -121.600; -803.000; -620.000
406.882;  -10.900; -228.000; -277.000
407.009; -144.900; -719.000; -628.000
407.136;  249.100; -480.000; -401.000
407.263;  468.000; -939.000; -829.000
407.390;  -67.400; -692.000; -614.000
407.517; -211.100;-1139.000;-1187.000
407.644;  -32.800; -332.000; -256.000
407.771;  -64.200; -249.000; -287.000
407.898;   98.300;  168.000;  328.000
408.025;  -22.100; -421.000; -313.000
408.151;   47.600;   82.000;  153.000
408.278;  -58.200; -267.000; -216.000
408.405; -201.700; -931.000; -899.000
408.532;  -76.800; -549.000; -542.000
408.659; -171.000; -677.000; -648.000
408.785; -340.100;-1298.000;-1170.000
408.912;  -61.400; -412.000; -296.000
409.039; -171.700; -610.000; -686.000
409.166; -158.000; -591.000; -555.000
409.292; -135.800; -571.000; -534.000
409.419; -168.700; -665.000; -649.000
409.546;  -85.100; -431.000; -192.000
409.672; -140.400; -713.000; -545.000
409.799;   36.800;  -36.000;   34.000
409.926;  -26.400; -180.000; -179.000
410.052; -285.100;-1127.000;-1091.000
410.179;  -54.200; -368.000; -392.000
410.305;  -65.400; -375.000; -493.000
410.432;   25.500; -220.000; -333.000
410.558;  -79.600; -305.000; -380.000
410.685; -139.300; -688.000; -431.000
410.812; -129.900; -409.000; -588.000
410.938; -222.300; -964.000; -808.000
411.065; -116.100; -671.000; -645.000
411.191;   26.300; -189.000; -174.000
411.317; -167.200; -823.000; -742.000
411.444;  -66.500; -317.000; -246.000
411.570; -105.400; -339.000; -294.000
411.697; -186.500; -758.000; -752.000
411.823; -268.500; -989.000; -999.000
411.949;   27.000;  -56.000;   17.000
412.076; -170.000; -539.000; -519.000
412.202; -199.300; -758.000; -757.000
412.329; -143.300; -798.000; -752.000
412.455; -184.700; -821.000; -657.000
412.581;   24.700;  -15.000;  172.000
412.707;  -49.200; -540.000; -457.000
412.834;  118.500;  156.000;  219.000
412.960; -114.300; -785.000; -784.000
413.086; -170.600; -743.000; -701.000
413.212;  440.700;  604.000;  578.000
413.339;  -44.600; -685.000; -701.000
413.465;  102.200; -364.000; -310.000
413.591; -137.000; -757.000; -474.000
413.717;  -43.200; -358.000; -366.000
413.843; -222.200; -839.000; -861.000
413.969;  -13.500;  -47.000; -292.000
414.096; -159.100; -679.000; -679.000
414.222;   39.500;  -33.000;   85.000
414.348;   41.700; -652.000; -385.000
414.474;  280.800;   38.000;  -52.000
414.600;   52.200; -126.000; -144.000
414.726;   34.900;  -96.000;  -55.000
414.852;  -57.100; -365.000; -342.000
414.978;  118.500;  104.000;  -18.000
415.104;  151.900;   38.000;   80.000
415.230;   56.000; -329.000; -330.000
415.356;  140.000; -409.000; -514.000
415.482;  388.800;   13.000;  -35.000
415.608;  488.000; -247.000; -323.000
415.734; 1570.500;   67.000;   38.000
415.860;31351.400; -875.000; -767.000
415.986;20339.300; -685.000; -607.000
416.111; 1635.900; -798.000; -652.000
416.237;  308.300; -424.000; -571.000
416.363; 1643.900; -765.000; -733.000
416.489; 5537.500; -324.000; -251.000
416.615;  490.000; -707.000; -742.000
416.741;  -68.000; -677.000; -784.000
416.866; -143.500; -673.000; -736.000
416.992; -197.600; -801.000; -818.000
417.118;   27.400;  -41.000;  -80.000
417.244;  -50.600; -798.000; -531.000
417.369; -124.900; -801.000; -612.000
417.495;   74.700; -325.000; -254.000
417.621;  -86.100;-1015.000; -803.000
417.746;   28.400; -579.000; -572.000
417.872;  107.400; -254.000; -144.000
417.998;   72.000; -515.000; -530.000
418.123; 1560.300;-1073.000; -845.000
418.249; 7228.800; -512.000; -601.000
418.374;  898.600; -916.000; -824.000
418.500;  153.200; -383.000; -482.000
418.626;  255.000;   70.000;  -59.000
418.751;  209.800; -549.000; -448.000
418.877;  291.400; -637.000; -643.000
419.002; 2715.600; -688.000; -560.000
419.128;17145.200; -930.000; -721.000
419.253; 3656.300; -967.000; -837.000
419.379;  513.300; -391.000; -338.000
419.504;  617.600;  325.000;  415.000
419.629;  704.000; -393.000; -212.000
419.755; 4833.500; -317.000; -254.000
419.880;25948.400;  -98.000;   67.000
420.006;16150.800; -280.000; -221.000
420.131;41554.500; -662.000; -775.000
420.256; 5469.600; -315.000; -316.000
420.382;  724.700; -665.000; -687.000
420.507;   80.000; -649.000; -778.000
420.632;  402.100; -337.000; -339.000
420.758;  646.200; -251.000; -425.000
420.883;  -94.900; -876.000; -672.000
421.008; -120.900; -775.000; -619.000
421.133;  -94.800; -509.000; -467.000
421.259;  -31.600; -325.000; -259.000
421.384; -135.600; -834.000; -693.000
421.509;   47.300;-1052.000; -862.000
421.634; 3185.800; -936.000; -820.000
421.759; 1237.700; -359.000; -327.000
421.885;  -26.600; -717.000; -656.000
422.010; -105.000; -673.000; -542.000
422.135; -235.300; -695.000; -727.000
422.260;  150.300;  340.000;  280.000
422.385;  -17.300;   12.000;  -98.000
422.510;   75.700;  151.000;  -26.000
422.635;  149.200;  -87.000;  -43.000
422.760;  208.500; -766.000; -791.000
422.885;  157.400;  -57.000;  -80.000
423.010;   19.500; -112.000; -169.000
423.135; -114.100; -481.000; -561.000
423.260;   66.200; -150.000; -245.000
423.385;  202.300;  476.000;  222.000
423.510;  126.000;   71.000;  -22.000
423.635;  241.500;  133.000;   45.000
423.760;  192.900;  383.000;  328.000
423.885;  139.600;  336.000;  391.000
424.010;   91.200;  -68.000;  -13.000
424.135;   49.100;    5.000;  -33.000
424.259; -131.600; -654.000; -457.000
424.384;  -35.800; -279.000; -272.000
424.509;   46.600; -260.000; -186.000
424.634; -145.100; -761.000; -623.000
424.759;  -14.500; -688.000; -544.000
424.883;    2.200; -506.000; -527.000
425.008;  309.800; -502.000; -410.000
425.133; 2921.700; -679.000; -653.000
425.258; 1196.300; -517.000; -381.000
425.382; 2169.700; -867.000; -774.000
425.507; 5176.300; -487.000; -543.000
425.632;  705.100; -802.000; -663.000
425.756;  588.400; -256.000; -146.000
425.881; 8074.800; -831.000; -857.000
426.006;19414.900; -604.000; -355.000
426.130; 2966.200; -696.000; -508.000
426.255;  417.200; -611.000; -491.000
426.379;  228.100; -189.000; -577.000
426.504;  690.100;  660.000;  544.000
426.629; 6311.000; -519.000; -466.000
426.753; 3948.600;   64.000;  -46.000
426.878;  502.000; -252.000; -288.000
427.002;  313.700; -651.000; -668.000
427.127; 2560.200;  -35.000; -158.000
427.251;16068.800;  372.000;  401.000
427.375; 4111.500; -191.000; -173.000
427.500; 4523.200; -616.000; -610.000
427.624; 1494.400; -234.000; -400.000
427.749;  286.000; -216.000; -225.000
427.873;   46.800; -499.000; -412.000
427.997;  -19.000; -222.000; -230.000
428.122;  306.500;  795.000;  703.000
428.246;  266.500;  433.000;  434.000
428.371; -156.400; -869.000; -773.000
428.495; -141.600; -624.000; -646.000
428.619;   60.300; -186.000; -117.000
428.743;  137.100;   65.000;  132.000
428.868;  113.800; -732.000; -643.000
428.992; 2955.300; -219.000; -326.000
429.116; 1246.800; -329.000; -357.000
429.240;  751.800;  419.000;  426.000
429.365;   24.400; -454.000; -574.000
429.489;    7.000; -638.000; -647.000
429.613;  150.700; -236.000; -177.000
429.737;  115.600; -563.000; -432.000
429.861;  512.800; -247.000; -133.000
429.985; 8392.500; -425.000; -305.000
430.109; 8110.800; -770.000; -908.000
430.234;  988.700;   76.000;  -50.000
430.358;  208.000; -250.000; -160.000
430.482;  -43.000; -672.000; -564.000
430.606;  -23.600; -655.000; -375.000
430.730;  207.900; -437.000; -388.000
430.854;  414.900; -909.000; -835.000
430.978;  -33.400; -795.000; -764.000
431.102;  -12.800; -499.000; -422.000
431.226;  -52.200; -874.000; -815.000
431.350;  279.000;  345.000;  422.000
431.474;  -38.200; -661.000; -373.000
431.597; -201.800;-1060.000; -848.000
431.721; -104.700; -276.000; -267.000
431.845; -184.500; -704.000; -472.000
431.969; -108.700; -304.000; -349.000
432.093; -107.900; -395.000; -317.000
432.217;   46.700;   32.000;   82.000
432.341;  -64.500; -523.000; -518.000
432.464;  122.900;   96.000;   40.000
432.588;  561.000; -401.000; -329.000
432.712;  241.700;  -52.000;  -52.000
432.836;  155.400;  213.000;  263.000
432.959;   12.800; -372.000; -311.000
433.083;  132.900;   11.000;    2.000
433.207;  623.500;  285.000;  930.000
433.330; 7143.500; -391.000; -200.000
433.454; 7858.800; -654.000; -638.000
433.578; 4814.300;  583.000;  278.000
433.701;  819.100; -623.000; -675.000
433.825;  388.700; -292.000; -299.000
433.949;  637.000;   28.000;  -72.000
434.072;  332.000; -410.000; -323.000
434.196;   24.700; -309.000; -117.000
434.319; 7895.800;25482.000;25124.000
434.443; 1376.400; -656.000; -603.000
434.566; 3660.700;  281.000;   62.000
434.690;  540.800; -637.000; -383.000
434.813;  176.200; -251.000; -173.000
434.937;  -68.900; -569.000; -696.000
435.060;   45.800; -423.000; -332.000
435.184; 1019.100; -492.000; -217.000
435.307;  541.500;  159.000;  102.000
435.431;   90.500;  -40.000;   24.000
435.554;  -71.700; -399.000; -240.000
435.677; -107.700; -350.000; -258.000
435.801;   19.400;  -25.000;   49.000
435.924;   39.000;    1.000;  -67.000
436.048;  -85.500;-1019.000; -732.000
436.171;  -42.400; -240.000;  -66.000
436.294;   19.800; -248.000; -229.000
436.417;   89.100; -963.000; -849.000
436.541; -161.700; -814.000; -840.000
436.664;  -20.200; -242.000; -316.000
436.787;   58.900;   13.000;  113.000
436.910; -148.700; -792.000; -422.000
437.034;  149.000;  142.000;  143.000
437.157;  271.300;  -11.000;    0.000
437.280;    7.200; -392.000; -292.000
437.403;  -73.900; -982.000; -869.000
437.526; 1986.200; -903.000; -865.000
437.649; 5993.500; -505.000; -332.000
437.772;  872.200; -692.000; -540.000
437.896;  376.800;  700.000;  544.000
438.019; -111.000; -758.000; -503.000
438.142;  -93.400; -596.000; -506.000
438.265;  133.400; -639.000; -670.000
438.388; 1545.300; -520.000; -410.000
438.511;  317.300; -597.000; -394.000
438.634;  -29.800; -247.000; -125.000
438.757; -181.800; -693.000; -619.000
438.880;   39.700;  -34.000;  -57.000
439.003;  -81.600; -417.000; -437.000
439.126;  -56.300; -287.000; -167.000
439.248;  -29.900;  -98.000; -139.000
439.371;  -31.700;    9.000;  -53.000
439.494;  159.600;  510.000;  439.000
439.617;  -25.500;   65.000;  -88.000
439.740; -276.400; -968.000; -816.000
439.863; -233.300; -755.000; -595.000
439.986; -168.300; -476.000; -431.000
440.108;    4.800; -161.000; -112.000
440.231; -254.100; -950.000; -836.000
440.354;  -22.000;  -64.000; -150.000
440.477;  233.500; -566.000; -542.000
440.599;  132.700; -200.000; -225.000
440.722; -144.500; -709.000; -586.000
440.845;  204.100;  751.000;  928.000
440.968; -133.200; -415.000; -311.000
441.090;  -58.800; -199.000;  -33.000
441.213; -262.100;-1021.000; -825.000
441.336;  -60.900; -159.000;   -5.000
441.458;  -38.700; -549.000; -396.000
441.581;  -97.700; -628.000; -629.000
441.703;  -51.800; -152.000;   13.000
441.826; -180.000; -557.000; -400.000
441.948;  -14.800;   56.000;   51.000
442.071;  136.800;  555.000;  424.000
442.193; -181.300; -531.000; -485.000
442.316;   84.700;  152.000;   97.000
442.438;  146.100; -233.000;  -10.000
442.561;  241.800;  272.000;  262.000
442.683; 1615.000; -809.000; -522.000
442.806; 2878.100;   -8.000;   74.000
442.928;  127.200; -859.000; -604.000
443.051;  -76.400; -577.000; -373.000
443.173; -134.700; -341.000; -339.000
443.295;  -81.300; -263.000; -371.000
443.418;  -83.900; -321.000;  -29.000
443.540;   36.300; -106.000;   -4.000
443.662; -173.300; -563.000; -465.000
443.785;   79.200;  335.000;  199.000
443.907; -156.800; -362.000; -208.000
444.029; -182.400; -767.000; -494.000
444.152; -232.100; -644.000; -554.000
444.274;   15.700;  -18.000;  -24.000
444.396; -144.100; -461.000; -221.000
444.518; -180.600; -691.000; -454.000
444.640; -138.700; -268.000; -111.000
444.763;   37.900;  388.000;  249.000
444.885; -166.900; -432.000; -392.000
445.007;   14.400;   35.000;   86.000
445.129; -157.300; -610.000; -515.000
445.251; -152.600; -372.000; -439.000
445.373; -216.300; -537.000; -386.000
445.495;   63.700;  242.000;  350.000
445.617;  166.000;  853.000;  753.000
445.739; -101.900; -215.000;  -97.000
445.861;    8.400; -245.000; -112.000
445.984;    3.600; -267.000; -101.000
446.105;  608.500; -418.000; -251.000
446.227; 1403.900; -176.000;  -19.000
446.349;   89.400; -358.000; -249.000
446.471; -142.400; -615.000; -448.000
446.593;  -60.300; -316.000;   19.000
446.715;   50.600;  -67.000;   41.000
446.837;  229.500;  697.000;  832.000
446.959; -128.800; -457.000; -478.000
447.081; -193.300; -628.000; -518.000
447.203;  170.800;  862.000;  834.000
447.325; -107.600; -270.000;   42.000
447.446;   61.900;  286.000;  530.000
447.568; -246.100; -921.000; -803.000
447.690;  -75.000; -236.000; -245.000
447.812; -233.600; -798.000; -519.000
447.933;    4.800;  155.000;  127.000
448.055;  -82.700; -306.000; -261.000
448.177;  417.300;   31.000;   79.000
448.299;  273.000; -935.000; -727.000
448.420;   95.900;  -25.000;  159.000
448.542;  -22.700;   -3.000;   33.000
448.664;   55.700;  109.000;  322.000
448.785;   -5.000;  265.000;   83.000
448.907;  -60.000; -614.000; -353.000
449.028;   20.200; -771.000; -471.000
449.150;  184.000;  492.000;  589.000
449.272; -293.800;-1044.000; -913.000
449.393;  124.300;  612.000;  694.000
449.515; -217.300; -634.000; -581.000
449.636;  -64.800; -264.000; -155.000
449.758;  229.700;  763.000;  622.000
449.879;  -97.600; -498.000; -396.000
450.001;  -90.000; -149.000;  -49.000
450.122;   -3.300;  -95.000;  162.000
450.244;   60.300;   37.000;  364.000
450.365; -146.900; -495.000; -301.000
450.486;    6.100;   80.000;  268.000
450.608;   82.000;  393.000;  326.000
450.729;  187.300;  578.000;  645.000
450.850;  -34.200; -574.000; -466.000
450.972; 1010.200; -552.000; -389.000
451.093; 6266.300;  190.000;  588.000
451.214; 2370.200; -516.000; -337.000
451.336;  534.600;  773.000;  579.000
451.457;  124.300;  264.000;  393.000
451.578;  -29.000; -118.000;  -74.000
451.699; -172.100; -546.000; -540.000
451.821;  -53.700; -284.000;  -50.000
451.942;   50.600;  278.000;  285.000
452.063;   77.000;  228.000;  419.000
452.184;  858.300;  -54.000;  -49.000
452.305; 1470.500;  103.000;  170.000
452.427;  142.600; -549.000; -301.000
452.548;    2.400;   23.000;   79.000
452.669;   -8.000; -257.000;  -89.000
452.790;   22.500;    3.000;  -18.000
452.911;   56.300;  195.000;  259.000
453.032;  -56.600; -289.000;  -60.000
453.153;    0.200;  -29.000;   81.000
453.274;  210.400;  737.000;  868.000
453.395;  -16.000;  -51.000;  175.000
453.516;  348.000; 1317.000; 1388.000
453.637;    0.800; -205.000; -150.000
453.758;  -50.300;   15.000;   69.000
453.879; -151.800; -462.000; -250.000
454.000;  247.300; 1086.000;  948.000
454.121; -151.400; -554.000; -326.000
454.242; -168.900; -599.000; -383.000
454.362;  -29.700;  -99.000;  114.000
454.483;   18.300; -309.000; -229.000
454.604;  186.800;  512.000;  580.000
454.725; -189.000; -627.000; -555.000
454.846; -170.400; -474.000; -406.000
454.967;   10.200;  230.000;  539.000
455.087;   -7.800;  179.000;  153.000
455.208;  110.400;  554.000;  856.000
455.329;  -40.500;  -22.000;   82.000
455.450;  114.000;  473.000;  633.000
455.570; -113.500; -234.000; -211.000
455.691;  -31.700;  201.000;  407.000
455.812; -134.100; -270.000;  -92.000
455.932;  -54.000;  107.000;  -97.000
456.053; -102.600;   36.000;   24.000
456.173; -166.100; -433.000; -355.000
456.294; -188.000; -476.000; -303.000
456.415;  -41.400;  -73.000;   70.000
456.535;   27.800;  297.000;  273.000
456.656;  -20.800;  132.000;  240.000
456.776;  -71.700;    3.000;  298.000
456.897;   49.000;  308.000;  513.000
457.017;  -87.800; -153.000;   -3.000
457.138; -131.000; -402.000; -249.000
457.258;   47.700;  263.000;  224.000
457.379;   19.800;  509.000;  521.000
457.499;   35.900;  443.000;  432.000
457.620; -174.900; -407.000; -231.000
457.740; -117.800; -132.000;  -11.000
457.860;  -46.300;   87.000;   44.000
457.981;   28.700;  132.000;  124.000
458.101;  -79.300;  -89.000;   40.000
458.221;   46.100;  336.000;  402.000
458.342;  -55.500;   -4.000;  -37.000
458.462;  105.900;  617.000;  352.000
458.582;  -72.800; -302.000; -294.000
458.703;   31.100;  303.000;  154.000
458.823;  -20.500;   22.000;  163.000
458.943;  110.800;  341.000;  467.000
459.063;   69.100; 1124.000;  192.000
459.183;   32.900;  328.000;  313.000
459.304;   78.300;  315.000;  517.000
459.424;  -60.300; -246.000;  -89.000
459.544;  562.300;  388.000;  764.000
459.664; 1190.200;  499.000;  506.000
459.784;  507.400; 1004.000; 1175.000
459.904;  181.500;  867.000;  744.000
460.024;  259.100;  867.000;  684.000
460.144;  108.700;  449.000;  554.000
460.264;   55.900;  515.000;  327.000
460.385; -116.000; -145.000; -119.000
460.505;  128.700;  905.000;  858.000
460.625; -122.800;  -17.000;  -68.000
460.745;   40.200;  396.000;  541.000
460.864;  -36.200;  153.000;  469.000
460.984;  110.300;  499.000;  573.000
461.104;  374.400; 1656.000; 1775.000
461.224;  117.400;  657.000;  650.000
461.344;   26.800;  431.000;  360.000
461.464;   24.900;  258.000;  513.000
461.584;   48.800;  283.000;  466.000
461.704;  -28.100;   58.000;  108.000
461.824;  -68.200;  238.000;  259.000
461.943;  -57.800;  191.000;  130.000
462.063;  -58.200;    2.000;  324.000
462.183;  152.500;  639.000;  717.000
462.303;  306.700; 1678.000; 1230.000
462.422;  144.800;  781.000;  840.000
462.542;  -22.000;  271.000;  391.000
462.662;  111.800;  353.000;  380.000
462.782;  430.700;  833.000;  572.000
462.901;  715.900;  545.000;  717.000
463.021;  538.900; 1702.000; 1638.000
463.141;   27.700;  337.000;  770.000
463.260;   48.300;  614.000;  474.000
463.380;   80.300;  902.000;  884.000
463.499;   -1.700;  342.000;  332.000
463.619;    7.600;  581.000;  559.000
463.738;  334.600; 1644.000;  903.000
463.858;  102.100;  657.000;  811.000
463.978;   -7.100;  542.000;  396.000
464.097;  148.000;  921.000; 1114.000
464.217;  262.800; 1196.000; 1143.000
464.336;  263.200; 1068.000; 1130.000
464.455;  -14.700;  328.000;  659.000
464.575;  199.300;  597.000;  602.000
464.694;  431.300; 1204.000; 1179.000
464.814;  262.600; 1190.000; 1138.000
464.933;  221.900; 1095.000; 1027.000
465.052;  302.900; 1412.000; 1054.000
465.172;  266.500;  922.000;  799.000
465.291;  345.200; 1376.000; 1320.000
465.410;  116.500;  462.000;  735.000
465.530;  238.600; 1355.000; 1310.000
465.649;  228.300; 1209.000; 1273.000
465.768;  378.500; 1673.000; 1508.000
465.888;  202.000;  941.000; 1174.000
466.007;  281.900; 1335.000; 1440.000
466.126;   78.000;  721.000;  641.000
466.245;  133.600; 1176.000; 1187.000
466.364;  135.300;  950.000; 1060.000
466.484;  230.900; 1024.000; 1213.000
466.603;  134.100; 1101.000; 1222.000
466.722;  342.900; 1490.000; 1769.000
466.841;  224.900; 1151.000; 1401.000
466.960;  143.000; 1069.000;  972.000
467.079;  311.700; 1971.000; 1786.000
467.198;  193.000; 1238.000; 1181.000
467.317;  263.900; 1768.000; 1162.000
467.436;  195.400; 1709.000; 1261.000
467.555;  357.200; 1796.000; 1746.000
467.674;  214.900; 1227.000; 1329.000
467.793;  189.300; 1376.000; 1374.000
467.912;  255.400; 1658.000; 1539.000
468.031;  362.400; 2038.000; 1930.000
468.150;  360.600; 1842.000; 1837.000
468.269;  473.500; 2313.000; 2090.000
468.388;  503.500; 2168.000; 2339.000
468.507;  629.800; 2884.000; 2903.000
468.626;  680.300; 2555.000; 2541.000
468.744;  349.500; 2018.000; 2174.000
468.863;  482.900; 2312.000; 2523.000
468.982;  319.400; 1503.000; 1555.000
469.101;  543.000; 2788.000; 2692.000
469.220;  381.700; 2333.000; 2176.000
469.338;  592.500; 2935.000; 3051.000
469.457;  493.000; 2719.000; 2545.000
469.576;  812.800; 3953.000; 3784.000
469.695;  591.400; 2877.000; 3066.000
469.813;  905.400; 4148.000; 4192.000
469.932;  893.500; 4255.000; 4485.000
470.051;  926.000; 4075.000; 4161.000
470.169; 1527.000; 4470.000; 4338.000
470.288; 2371.300; 4700.000; 4809.000
470.406; 1499.100; 5059.000; 5194.000
470.525; 1325.100; 6101.000; 5787.000
470.644; 1360.300; 6847.000; 6794.000
470.762; 1746.600; 8397.000; 7873.000
470.881; 1892.100; 8651.000; 8464.000
470.999; 2103.800; 9685.000; 9151.000
471.118; 2336.600;11174.000;10711.000

