
Integration time [ms]: 100.000
Averaging Nr. [scans]: 40
Smoothing Nr. [pixels]: 0
Data measured with spectrometer [name]: 2101012U2
Wave   ;Sample   ;Dark     ;Reference
[nm]   ;[counts] ;[counts] ;[counts] 

197.733;   54.050;  516.000;  404.000
197.879;  -69.050; -610.000; -634.000
198.025;  -43.875; -475.000; -420.000
198.171;  -47.875; -602.000; -612.000
198.317;  -41.100; -401.000; -316.000
198.463;  -58.025; -655.000; -404.000
198.609;   36.525;  181.000; -137.000
198.755;  -67.500; -644.000; -410.000
198.901;  -72.450; -505.000; -424.000
199.047;  -53.275; -615.000; -488.000
199.193;  -39.850; -230.000; -468.000
199.339;  -42.325; -222.000; -369.000
199.485;   27.375;  330.000;  271.000
199.631;    3.600;  227.000;  310.000
199.777;  -43.775; -466.000; -398.000
199.923;  -56.800; -610.000; -424.000
200.069;   -9.575; -141.000;  -58.000
200.215;   42.050;  128.000;  453.000
200.361;   32.725;  243.000;  477.000
200.507;  -59.250; -600.000; -373.000
200.653;  -19.225; -371.000; -194.000
200.798;  -31.000; -215.000; -125.000
200.944;   -4.650; -146.000;  -41.000
201.090;   38.000;   61.000;  222.000
201.236;   -5.500; -116.000; -158.000
201.382;  115.375;  874.000;  903.000
201.528;   -0.925;  -58.000;  -48.000
201.674;  -43.750; -386.000; -293.000
201.819;  -63.725; -540.000; -439.000
201.965;  -78.050; -699.000; -447.000
202.111;  -25.350; -273.000; -226.000
202.257;  -34.400; -250.000; -238.000
202.402;  -10.475;   13.000;  -36.000
202.548;  -35.375; -169.000; -116.000
202.694;   62.475;  410.000; -183.000
202.840;  -61.700; -603.000; -531.000
202.985;  -63.225; -681.000; -639.000
203.131; -109.775; -832.000; -666.000
203.277;  -29.850; -199.000; -262.000
203.423;  -41.775; -434.000; -520.000
203.568;  -41.800; -462.000; -237.000
203.714;  -59.625; -535.000; -542.000
203.860;  -79.250; -682.000; -641.000
204.005;   20.675;  112.000;  167.000
204.151;   68.475;  561.000;  556.000
204.296;  -42.875; -354.000; -221.000
204.442;  -64.275; -600.000; -547.000
204.588;  -71.475; -592.000; -579.000
204.733;   12.500;  178.000;  168.000
204.879; -117.450;-1018.000; -822.000
205.025;   17.725;  -99.000;  126.000
205.170;    6.775;  -17.000;   94.000
205.316;   68.025;  438.000;  661.000
205.461;  -80.225; -698.000; -554.000
205.607;   83.050;  609.000;  665.000
205.752;  -68.825; -626.000; -551.000
205.898;  -65.850; -501.000; -391.000
206.043;  -42.875; -578.000; -506.000
206.189;  -50.175; -243.000; -285.000
206.334;   77.950;  554.000;  606.000
206.480;   70.625;  409.000;  239.000
206.625;  -75.550; -529.000; -552.000
206.771;  -39.450; -451.000; -373.000
206.916;  -23.375; -210.000; -537.000
207.062;  -74.850; -545.000; -591.000
207.207;  -63.525; -546.000; -443.000
207.353;   47.625;  185.000;  460.000
207.498;   17.225;  196.000;   85.000
207.643;  -51.125; -501.000; -370.000
207.789; -114.000;-1069.000; -910.000
207.934;  -86.400; -665.000; -713.000
208.080;  -32.925; -154.000;   66.000
208.225;   -3.875;  -22.000;  -57.000
208.370;  -82.675; -727.000; -619.000
208.516;  -80.800; -741.000; -487.000
208.661;  -19.450; -127.000;  -69.000
208.806;  -27.350; -165.000; -171.000
208.952; -110.700;-1044.000; -731.000
209.097;   59.700;  378.000;  349.000
209.242;  -39.975; -307.000; -382.000
209.387;   83.325;  392.000;  350.000
209.533;  -41.950; -321.000; -350.000
209.678;   65.125;  472.000;  543.000
209.823;  -52.675; -408.000; -310.000
209.969; -101.775; -860.000; -757.000
210.114;  -95.750; -907.000; -719.000
210.259; -107.825; -939.000; -889.000
210.404;   -2.175; -171.000;  103.000
210.549;    6.025;  108.000;    3.000
210.695;   -6.825;   -3.000;  -95.000
210.840;   32.275;   94.000;   67.000
210.985;  -57.075; -484.000; -303.000
211.130;   53.700;  268.000;  406.000
211.275;   15.150;  207.000;  199.000
211.420;  -61.700; -300.000; -289.000
211.566;  -67.175; -536.000; -489.000
211.711;   17.950;  218.000;  157.000
211.856;  -56.575; -545.000; -519.000
212.001;    1.350;  151.000;   44.000
212.146;   26.600;  153.000;   49.000
212.291;  -24.375; -210.000; -186.000
212.436;  -26.275; -280.000;   -6.000
212.581;  -89.800; -685.000; -653.000
212.726;  -63.100; -487.000; -538.000
212.871;  -58.675; -552.000; -217.000
213.016; -138.550;-1172.000;-1029.000
213.161;   53.400;  406.000;  291.000
213.306;  -54.075; -435.000; -577.000
213.451;  -95.275; -778.000; -689.000
213.596;  -49.450; -455.000; -347.000
213.741;  -48.800; -448.000; -538.000
213.886;  -73.750; -498.000; -517.000
214.031;  -28.125; -294.000; -124.000
214.176;  -53.500; -408.000; -341.000
214.321;  -21.900; -296.000; -157.000
214.466;  -24.825; -163.000;  -43.000
214.611;   -9.300;  -61.000;  -10.000
214.756; -115.875; -948.000; -858.000
214.901;  -28.175; -388.000; -226.000
215.046; -112.275; -797.000; -825.000
215.191;   10.400;  128.000;   35.000
215.336;   -8.900; -157.000;  -19.000
215.480;  -79.275; -684.000; -505.000
215.625;  -12.325; -175.000;  -19.000
215.770;  -84.225; -757.000; -662.000
215.915;   -9.975;   -5.000;  -97.000
216.060;    1.325; -113.000;  -21.000
216.205; -105.450; -731.000; -779.000
216.349;  -66.525; -470.000; -533.000
216.494; -134.850; -939.000; -867.000
216.639; -110.700; -823.000; -888.000
216.784;  -75.850; -577.000; -525.000
216.929;   42.600;  392.000;  281.000
217.073;   -6.275; -244.000;  -31.000
217.218;  -10.800;   78.000;  -47.000
217.363;  -73.300; -656.000; -618.000
217.507;  -78.625; -623.000; -588.000
217.652; -134.200; -845.000; -874.000
217.797;  -88.525; -708.000; -659.000
217.942;  -97.875; -856.000; -720.000
218.086;   59.675;  608.000;  539.000
218.231;  -16.675; -174.000;  -26.000
218.376;  -42.100; -337.000; -229.000
218.520;   -2.175;  -41.000;   96.000
218.665;  -26.325; -338.000; -204.000
218.810;  -30.075; -275.000; -233.000
218.954;   13.550;  201.000;   35.000
219.099; -107.600; -713.000; -963.000
219.243;  -74.625; -589.000; -554.000
219.388;  -32.125; -264.000; -136.000
219.532;  -13.825; -116.000; -116.000
219.677;  -72.875; -564.000; -521.000
219.822;   -7.625;   33.000;   89.000
219.966;    3.275;   17.000;  -99.000
220.111;  -39.825; -328.000;  -40.000
220.255;  -88.175; -797.000; -750.000
220.400;  -27.275; -180.000; -146.000
220.544;  -74.950; -516.000; -450.000
220.689;  -47.625; -422.000; -451.000
220.833;  -15.300; -123.000;  -58.000
220.978;  -51.550; -393.000; -563.000
221.122;   19.100;  319.000;  307.000
221.267; -122.600; -906.000; -837.000
221.411;  -58.050; -478.000; -394.000
221.555;  -18.950; -104.000;  -23.000
221.700;  -48.400; -329.000; -222.000
221.844;   38.325;  255.000;  272.000
221.989;  -29.675; -328.000; -311.000
222.133;  -37.750; -289.000; -307.000
222.277;   -3.025;    5.000;   78.000
222.422;   14.325;  227.000;  113.000
222.566;  -40.825; -381.000; -214.000
222.711;  -52.700; -414.000; -479.000
222.855;  -75.750; -643.000; -586.000
222.999;  -79.125; -642.000; -717.000
223.144;  -23.500; -195.000; -194.000
223.288;   46.925;  423.000;  251.000
223.432;   39.100;  184.000;  230.000
223.576;   21.325;  152.000;  -21.000
223.721;   47.125;  364.000;  273.000
223.865;  -55.125; -472.000; -475.000
224.009;  262.775; 1673.000; 1631.000
224.153;  -78.975; -660.000; -671.000
224.298;  -57.525; -531.000; -489.000
224.442;  -23.825;  -74.000;  -33.000
224.586;   -7.150; -169.000; -106.000
224.730;  -83.725; -858.000; -670.000
224.875; -105.650; -739.000; -688.000
225.019;    3.550;  102.000;  188.000
225.163;   49.325;  208.000;  341.000
225.307;   29.575;   97.000;  -91.000
225.451;   45.850;  360.000;  481.000
225.595;   39.425;  264.000;  176.000
225.739;   -3.625; -170.000;  -94.000
225.884;    9.300;   86.000;    5.000
226.028;  -87.075; -760.000; -626.000
226.172;  -32.125; -260.000; -273.000
226.316; -116.000; -941.000; -902.000
226.460;  -77.450; -645.000; -493.000
226.604;  -47.225; -406.000; -400.000
226.748; -100.550; -836.000; -733.000
226.892;  -30.550; -227.000; -181.000
227.036;  -50.050; -537.000; -447.000
227.180;  -54.350; -551.000; -375.000
227.324;  -62.725; -561.000; -580.000
227.468; -108.300; -819.000; -717.000
227.612;    2.275;  242.000;  -28.000
227.756;  -91.725; -845.000; -698.000
227.900;   46.475;  342.000;  441.000
228.044;  -61.675; -509.000; -290.000
228.188;   46.225;  448.000;  568.000
228.332;  -79.300; -546.000; -472.000
228.476;  -14.500; -223.000; -149.000
228.620;  -28.000; -210.000; -150.000
228.764;   59.525;  431.000;  349.000
228.908;  -27.600; -155.000;   30.000
229.052;  -58.625; -615.000; -528.000
229.195;   -6.800; -172.000;   13.000
229.339;  -25.175; -235.000; -305.000
229.483;  -20.000;    5.000; -162.000
229.627;   -7.600; -156.000;  139.000
229.771;  -40.050; -218.000; -294.000
229.915;   -0.075;  230.000;   79.000
230.059;  -82.000; -648.000; -663.000
230.202;  -46.350; -370.000; -317.000
230.346;  -28.150; -107.000;  107.000
230.490;  -66.100; -489.000; -521.000
230.634; -101.000; -736.000; -553.000
230.777;   62.650;  478.000;  509.000
230.921;  -47.350; -450.000; -359.000
231.065;  -40.850; -246.000; -286.000
231.209;   37.400;  261.000;  265.000
231.352;    7.275;   54.000;   40.000
231.496;   25.425;  568.000;  188.000
231.640;  -76.100; -693.000; -621.000
231.783;   72.675;  546.000;  525.000
231.927;  -45.550; -294.000; -365.000
232.071; -109.000; -962.000; -736.000
232.214; -112.850; -980.000; -764.000
232.358;  -97.875; -683.000; -599.000
232.502;   -0.350;  -19.000;    7.000
232.645; -115.675;-1090.000; -927.000
232.789;  -28.025; -257.000; -218.000
232.933;  -42.775; -407.000; -224.000
233.076; -111.500;-1038.000; -897.000
233.220; -105.500; -752.000; -777.000
233.363;  -81.125; -669.000; -477.000
233.507;   67.075;  371.000;  129.000
233.650; -100.625; -764.000; -834.000
233.794;   44.000;  438.000;  461.000
233.938;  -60.975; -530.000; -362.000
234.081;  -12.300;  -93.000;   31.000
234.225;  -66.625; -631.000; -539.000
234.368; -108.500; -773.000; -723.000
234.512;  -43.850; -385.000; -299.000
234.655;  -80.075; -582.000; -555.000
234.798;  -71.675; -493.000; -466.000
234.942; -117.400; -884.000;-1002.000
235.085;  -82.100; -651.000; -443.000
235.229;  -76.800; -405.000; -410.000
235.372;  -56.950; -247.000; -191.000
235.516;  -49.825; -397.000; -321.000
235.659;   18.775;   92.000;  121.000
235.802;  -20.775;  -38.000;  -22.000
235.946;   25.325;  335.000;  215.000
236.089;   37.225;  126.000;  250.000
236.233;   33.250;  275.000;  298.000
236.376;  -39.975; -235.000; -378.000
236.519;  -46.775; -297.000; -319.000
236.663;  -20.625; -215.000; -117.000
236.806; -130.750;-1029.000; -999.000
236.949;   49.675;  543.000;  431.000
237.092;   54.325;  412.000;  391.000
237.236;  -77.125; -589.000; -502.000
237.379;   53.900;  352.000;  428.000
237.522; -110.175; -879.000; -768.000
237.666;  -16.325; -271.000;   18.000
237.809; -122.400; -851.000; -823.000
237.952;   37.350;  469.000;  271.000
238.095;  -61.500; -447.000; -442.000
238.238;   66.100;  688.000;  700.000
238.382;   -2.975;  166.000;  103.000
238.525;  -77.575; -598.000; -511.000
238.668; -130.775;-1060.000; -985.000
238.811;  -80.250; -638.000; -643.000
238.954;  -39.625; -483.000; -334.000
239.097;   88.275;  617.000;  664.000
239.241;   25.300;  394.000;  326.000
239.384;  -32.450; -254.000; -214.000
239.527;  -54.950; -424.000; -224.000
239.670; -145.825; -994.000;-1091.000
239.813; -110.075; -696.000; -658.000
239.956;   83.350;  579.000;  473.000
240.099; -103.450; -778.000; -725.000
240.242;   54.275;  428.000;  432.000
240.385;   36.425;  466.000;  450.000
240.528;  -87.050; -706.000; -473.000
240.671;   20.050;  189.000;  134.000
240.814;  -43.275; -441.000; -158.000
240.957;  -95.600; -767.000; -578.000
241.100;  -89.600; -779.000; -755.000
241.243; -145.375;-1234.000; -893.000
241.386;  -69.875; -508.000; -379.000
241.529;  -81.025; -735.000; -547.000
241.672;  -72.600; -566.000; -495.000
241.815; -101.075; -832.000; -808.000
241.958;  -31.050; -125.000; -182.000
242.101;  -72.950; -545.000; -390.000
242.244;  -37.175; -270.000; -325.000
242.387;  -49.950; -304.000; -246.000
242.530;   52.050;  470.000;  134.000
242.673;  -34.375; -381.000; -309.000
242.815; -113.100; -925.000; -899.000
242.958;  -61.925; -482.000; -381.000
243.101;    6.125;  132.000;  187.000
243.244;  -88.275; -564.000; -521.000
243.387;  -54.925; -313.000; -316.000
243.530;  -97.175; -657.000; -674.000
243.672;   -4.575;   43.000;  -92.000
243.815;  -46.925; -355.000; -283.000
243.958;   -5.675;   98.000;  -26.000
244.101;    5.100;   59.000;  -16.000
244.243;  -28.775;  -47.000;  101.000
244.386; -102.150; -761.000; -630.000
244.529;  -30.300; -132.000; -139.000
244.672; -149.875;-1154.000; -951.000
244.814;  -90.150; -621.000; -794.000
244.957;  -38.650; -380.000; -304.000
245.100;  -69.950; -489.000; -489.000
245.242;  -57.600; -387.000; -374.000
245.385;  -14.925;  -59.000;  -39.000
245.528; -105.850; -871.000; -705.000
245.670;   76.475;  612.000;  634.000
245.813;  -92.250; -599.000; -547.000
245.956;  -30.175; -324.000; -275.000
246.098;  -57.025; -508.000; -650.000
246.241;   -4.325;  194.000;   48.000
246.383;  -24.575; -119.000;  -73.000
246.526;  -83.525; -454.000; -525.000
246.669; -109.750; -889.000; -780.000
246.811;   14.325;  172.000;   -1.000
246.954;  -58.650; -512.000; -426.000
247.096;  -27.575;  -84.000;   -6.000
247.239;  -68.375; -482.000; -445.000
247.381;  -67.675; -647.000; -488.000
247.524;   77.875;  645.000;  679.000
247.666;   -7.475;   58.000;   11.000
247.809; -116.100; -887.000; -691.000
247.951;  -22.775;  -75.000;  138.000
248.094;   28.700;  432.000;  308.000
248.236; -151.050;-1262.000;-1238.000
248.378;  -25.600; -356.000;  -81.000
248.521;  -45.150; -334.000; -337.000
248.663;  -32.500; -236.000; -267.000
248.806;  -36.500; -300.000; -266.000
248.948; -101.425; -886.000; -763.000
249.090;  -63.900; -428.000; -398.000
249.233;  -54.150; -344.000; -381.000
249.375;  -68.300; -474.000; -451.000
249.518;  -16.400;  -83.000; -133.000
249.660;   -1.925; -103.000;    3.000
249.802; -153.975;-1303.000;-1189.000
249.945;  -80.825; -612.000; -540.000
250.087; -111.875; -834.000; -768.000
250.229;  -54.800; -362.000; -480.000
250.371;  -63.200; -494.000; -439.000
250.514;  -63.200; -310.000; -244.000
250.656;   -3.650;   69.000;  102.000
250.798; -123.075; -849.000; -800.000
250.940;  -57.725; -322.000; -322.000
251.083;  -40.575; -335.000; -111.000
251.225;   43.125;  338.000;  310.000
251.367;  -48.175; -274.000; -373.000
251.509;  -32.275; -265.000; -210.000
251.651;  -99.725; -731.000; -671.000
251.794;   51.050;  538.000;  632.000
251.936; -119.625; -821.000; -747.000
252.078;  -76.225; -540.000; -461.000
252.220;  -79.325; -645.000; -477.000
252.362;   66.800;  344.000;  462.000
252.504;  -80.900; -677.000; -584.000
252.646; -107.700; -875.000; -722.000
252.788;   -6.750;   14.000; -128.000
252.931;  -48.575; -257.000; -253.000
253.073;  -52.900; -376.000; -317.000
253.215;    5.600;  141.000;  122.000
253.357;  -21.750;   82.000; -153.000
253.499;  -59.325; -374.000; -234.000
253.641;  -87.600; -749.000; -594.000
253.783;  -86.550; -609.000; -527.000
253.925;  -96.900; -586.000; -591.000
254.067; -104.525; -744.000; -667.000
254.209;  -39.900; -391.000; -259.000
254.351; -128.250; -865.000; -883.000
254.493;  -51.275; -441.000; -417.000
254.635; -132.950; -936.000; -818.000
254.777;  -91.575; -752.000; -687.000
254.918;  -60.425; -512.000; -430.000
255.060;  -66.775; -551.000; -395.000
255.202;  -57.800; -473.000; -261.000
255.344;  -86.400; -658.000; -455.000
255.486;  -72.675; -471.000; -406.000
255.628; -110.100; -780.000; -781.000
255.770;  -73.825; -676.000; -536.000
255.912;  -66.675; -559.000; -468.000
256.053;  -81.425; -730.000; -508.000
256.195;  142.875; 1008.000;  903.000
256.337;  -96.700; -861.000; -595.000
256.479;   46.600;  532.000;  416.000
256.621;  -47.275; -394.000; -212.000
256.762; -105.725; -789.000; -742.000
256.904;   58.100;  485.000;  487.000
257.046;  -39.750; -381.000; -271.000
257.188;  -42.075; -351.000; -264.000
257.329;  -79.425; -525.000; -464.000
257.471; -100.950; -939.000; -807.000
257.613;  -63.175; -584.000; -498.000
257.755; -138.100;-1073.000; -982.000
257.896;   27.100;  286.000;  392.000
258.038;  -55.900; -403.000; -352.000
258.180;  -42.350; -354.000; -279.000
258.321;  -76.625; -581.000; -457.000
258.463;  -19.100;  -71.000;  133.000
258.605;  -89.350; -562.000; -570.000
258.746; -101.225; -886.000; -772.000
258.888; -146.075;-1026.000;-1020.000
259.029;   17.325;  121.000;   -8.000
259.171;  -74.525; -614.000; -550.000
259.313;   -8.975;  -49.000;  -47.000
259.454;  -68.925; -536.000; -414.000
259.596;  -66.850; -483.000; -390.000
259.737;  -66.200; -590.000; -474.000
259.879;   34.400;  217.000;  311.000
260.020;   67.000;  901.000;  636.000
260.162;  -36.750; -146.000; -253.000
260.303; -106.550; -768.000; -687.000
260.445;  -78.000; -609.000; -613.000
260.586;   14.200;  392.000;  157.000
260.728;  -49.025; -360.000; -248.000
260.869;  -65.125; -350.000; -343.000
261.011;   69.375;  706.000;  537.000
261.152;  -66.225; -479.000; -319.000
261.293; -101.875; -576.000; -595.000
261.435;  -24.425; -219.000; -184.000
261.576;  -58.875; -455.000; -325.000
261.718;   40.650;  420.000;  470.000
261.859; -132.025; -940.000; -949.000
262.000; -129.175; -951.000;-1016.000
262.142;  -33.700;  -52.000;  -60.000
262.283; -100.050; -808.000; -691.000
262.424;  -78.175; -666.000; -625.000
262.566; -141.700;-1161.000; -983.000
262.707; -113.000; -840.000; -830.000
262.848; -114.775; -769.000; -726.000
262.990;  -53.100; -362.000; -345.000
263.131;   65.250;  650.000;  681.000
263.272;  -15.125;  -61.000;  -41.000
263.413;  -89.900; -589.000; -561.000
263.555;  -61.425; -669.000; -143.000
263.696;  -85.100; -550.000; -641.000
263.837;  -62.850; -449.000; -551.000
263.978;   -7.725;   -5.000;  -77.000
264.119;  -45.400; -283.000; -264.000
264.261; -115.150; -847.000; -630.000
264.402;   -8.825;   33.000;   40.000
264.543;  -77.250; -509.000; -524.000
264.684;   -4.625;   61.000;  -50.000
264.825;  -69.325; -816.000; -538.000
264.966;  -14.275;  -84.000;  -67.000
265.107; -107.250; -646.000; -670.000
265.248; -116.425; -825.000; -812.000
265.390;  -13.075;  152.000;   -9.000
265.531;  -36.125; -238.000; -107.000
265.672;  -95.300; -557.000; -630.000
265.813;   37.625;  563.000;  439.000
265.954; -154.950; -959.000; -940.000
266.095;  -33.075; -372.000; -322.000
266.236;  -92.700; -686.000; -548.000
266.377;  -42.175; -243.000; -297.000
266.518;  -64.300; -619.000; -547.000
266.659;    3.100;  170.000;  268.000
266.800;    5.175;   83.000;   85.000
266.941;  -87.325; -487.000; -478.000
267.082;   24.400;  354.000;   99.000
267.223;  -53.575; -344.000; -273.000
267.364; -116.350; -892.000; -686.000
267.504;  -12.675;    3.000;  135.000
267.645;   -8.250;  160.000;   67.000
267.786;  -43.050; -147.000;  -86.000
267.927;  -70.500; -473.000; -379.000
268.068;  -27.050; -186.000;  -61.000
268.209;  -42.125; -175.000; -413.000
268.350;  -62.775; -388.000; -532.000
268.490;  -99.050; -648.000; -521.000
268.631;   30.000;  127.000;  225.000
268.772; -100.575; -874.000; -647.000
268.913;  -66.775; -328.000; -476.000
269.054;  -21.775; -117.000;   12.000
269.194;  -52.150; -418.000; -402.000
269.335; -145.025;-1137.000;-1074.000
269.476;  -28.300;   33.000;  -35.000
269.617;  -48.225; -347.000; -392.000
269.757;  -96.325; -713.000; -646.000
269.898; -110.100; -856.000; -613.000
270.039;  -74.350; -415.000; -405.000
270.180; -127.900; -952.000; -816.000
270.320;  -34.825; -190.000; -250.000
270.461;  -33.775; -277.000; -249.000
270.602;  -36.750; -186.000; -156.000
270.742; -124.275; -868.000; -943.000
270.883;  -57.425; -442.000; -390.000
271.023;  -62.875; -358.000; -357.000
271.164;  -87.625; -607.000; -528.000
271.305;  -95.125; -666.000; -654.000
271.445;  -92.800; -722.000; -683.000
271.586;  -61.650; -462.000; -283.000
271.726;  -51.400; -397.000; -322.000
271.867;  -74.000; -594.000; -534.000
272.008;   64.650; -473.000; -285.000
272.148;   78.625;  462.000;  468.000
272.289;  -14.650; -113.000; -181.000
272.429;    4.750;   19.000;  185.000
272.570;  -91.650; -633.000; -737.000
272.710;  -97.275; -825.000; -775.000
272.851;  -33.325;  113.000; -130.000
272.991; -155.250;-1173.000;-1077.000
273.131;  -81.000; -419.000; -459.000
273.272; -101.125; -683.000; -723.000
273.412;  -15.600; -143.000;  -31.000
273.553;  -61.075; -488.000; -507.000
273.693;  105.275;  913.000;  858.000
273.834; -109.250; -894.000; -692.000
273.974;  -84.275; -664.000; -615.000
274.114;  -81.425; -772.000; -560.000
274.255;   37.575;  414.000;  373.000
274.395;  -10.000; -180.000; -125.000
274.535;   26.650;  199.000;  350.000
274.676;   27.575;  225.000;   94.000
274.816;   -3.250;  110.000;   34.000
274.956;  -81.250; -624.000; -690.000
275.097;  -91.675;-1014.000; -922.000
275.237; -112.125; -913.000; -803.000
275.377; -107.025; -778.000; -689.000
275.517; -151.900; -878.000; -937.000
275.658;  -85.550; -590.000; -555.000
275.798;  -79.725; -606.000; -413.000
275.938;   13.550;  215.000;  323.000
276.078;  -69.150; -626.000; -395.000
276.218;    3.550;   99.000;  104.000
276.359; -129.550;-1026.000;-1024.000
276.499;  -78.725; -605.000; -446.000
276.639;  -35.075; -305.000; -151.000
276.779;  -48.225; -475.000; -357.000
276.919;  -97.500; -783.000; -624.000
277.059;  -32.275; -261.000; -212.000
277.199;  -42.050; -357.000; -259.000
277.340;   28.400;  287.000;  175.000
277.480; -110.275; -840.000; -693.000
277.620;    3.900;  192.000;   16.000
277.760; -186.600;-1533.000;-1294.000
277.900;  -12.725;  113.000;   33.000
278.040;    5.900;  137.000;  159.000
278.180;   24.025;  270.000;  170.000
278.320;   -0.325;   21.000;   56.000
278.460;  -70.750; -443.000; -469.000
278.600;  -94.125; -708.000; -598.000
278.740;   43.350;  448.000;  224.000
278.880; -103.700; -768.000; -791.000
279.020;  -29.125; -194.000; -144.000
279.160;  -89.900; -672.000; -595.000
279.300; -126.950; -926.000; -873.000
279.440;  -82.500; -709.000; -622.000
279.579;  -71.000;-1014.000; -929.000
279.719;  -56.425; -410.000; -394.000
279.859;   34.350;   -4.000;   41.000
279.999;    0.125; -208.000;  101.000
280.139;  -55.975; -435.000; -387.000
280.279;  -87.725; -708.000; -745.000
280.419;  -34.575; -229.000; -147.000
280.559;  -50.900; -259.000; -180.000
280.698;  -99.525; -790.000; -639.000
280.838; -110.250; -778.000; -800.000
280.978; -101.525; -846.000; -790.000
281.118;  -95.450; -811.000; -704.000
281.257;   -7.600;   24.000;    6.000
281.397; -137.250;-1094.000; -960.000
281.537;  -96.025; -599.000; -712.000
281.677;  -16.700; -150.000; -101.000
281.816;  -88.900; -700.000; -630.000
281.956;  -26.550; -193.000; -257.000
282.096;  -49.175; -539.000; -396.000
282.235; -108.050; -672.000; -638.000
282.375;  -38.275; -243.000;  -98.000
282.515; -107.475; -715.000; -707.000
282.654;    6.775;   29.000;  106.000
282.794;   22.875;  388.000;  244.000
282.934;  -66.725; -530.000; -491.000
283.073; -128.975;-1030.000; -857.000
283.213;  -71.025; -460.000; -467.000
283.353;  -55.275; -408.000; -349.000
283.492;  -27.725; -264.000; -296.000
283.632;  -55.075; -254.000; -168.000
283.771; -102.375; -859.000; -730.000
283.911;  -54.925; -369.000; -260.000
284.050; -105.250; -794.000; -748.000
284.190; -148.975;-1229.000;-1096.000
284.329; -147.575;-1055.000; -964.000
284.469;  -65.225; -516.000; -591.000
284.608;  -65.200; -559.000; -598.000
284.748;  -87.000; -614.000; -570.000
284.887;  -19.475;  -87.000;  -20.000
285.027; -122.625; -844.000; -892.000
285.166;  -37.350; -192.000; -249.000
285.306;  -18.050; -116.000;  -33.000
285.445;  -49.400; -229.000; -343.000
285.584;  -83.850; -630.000; -494.000
285.724;  -61.500; -282.000; -322.000
285.863;  -99.850; -857.000; -507.000
286.002;  -59.075; -366.000; -276.000
286.142; -104.800; -715.000; -622.000
286.281;  -58.425; -525.000; -493.000
286.420;  -75.550; -554.000; -417.000
286.560;   84.775;  653.000;  623.000
286.699; -123.050; -958.000; -912.000
286.838;  -85.625; -590.000; -591.000
286.978;  -88.150; -533.000; -537.000
287.117; -143.250;-1085.000; -950.000
287.256;  -28.650; -228.000; -211.000
287.395;  -51.875; -197.000; -378.000
287.535;  -55.875; -370.000; -298.000
287.674;  -65.650; -509.000; -484.000
287.813;   54.875;  661.000;  533.000
287.952; -132.075;-1010.000; -871.000
288.091; -137.525;-1049.000; -915.000
288.231;  -10.425;   13.000;   15.000
288.370; -162.275;-1217.000;-1200.000
288.509;  -88.950; -728.000; -645.000
288.648;  -90.600; -770.000; -548.000
288.787;  -45.575; -243.000;  -87.000
288.926;  -89.200; -454.000; -475.000
289.065;   85.900;  859.000;  672.000
289.204;  -60.800; -377.000; -217.000
289.344; -102.800; -791.000; -690.000
289.483;    5.325;  416.000;  304.000
289.622;  -35.900; -291.000; -149.000
289.761;  -18.425; -309.000; -166.000
289.900; -109.100; -785.000; -626.000
290.039;  -23.475;  -12.000;  -95.000
290.178;  -49.925; -274.000; -180.000
290.317;  -86.075; -618.000; -479.000
290.456;  -57.350; -463.000; -451.000
290.595; -121.125; -961.000; -833.000
290.734; -134.575; -904.000; -891.000
290.873;  -68.850; -456.000; -420.000
291.011; -119.525; -833.000; -843.000
291.150; -119.425; -770.000; -682.000
291.289;  -50.725; -343.000; -110.000
291.428;  -92.400; -599.000; -480.000
291.567;  -62.500; -370.000; -442.000
291.706;    0.275;  109.000;  154.000
291.845;  -89.375; -597.000; -505.000
291.984; -157.650;-1234.000;-1061.000
292.122;   56.775;  602.000;  582.000
292.261;   49.475;  620.000;  463.000
292.400;   -3.425; -144.000;  211.000
292.539; -118.725; -959.000; -813.000
292.678;  -48.025; -325.000; -300.000
292.816; -150.325;-1136.000; -965.000
292.955; -101.950; -844.000; -684.000
293.094;  -37.375; -173.000; -337.000
293.233;  -68.125; -556.000; -400.000
293.371;  -30.225; -225.000;  -84.000
293.510; -103.850; -866.000; -780.000
293.649; -126.000; -959.000; -924.000
293.787; -125.975;-1083.000;-1012.000
293.926;  -24.250; -113.000;  -32.000
294.065;  -58.675; -379.000; -290.000
294.203;   50.450;  298.000;  406.000
294.342;   18.850;   74.000;  156.000
294.481; 5951.025;51180.000; -836.000
294.619;  -41.700; -425.000; -582.000
294.758; -141.150;-1230.000;-1137.000
294.896;   34.000; -125.000;    5.000
295.035; -136.250;-1040.000;-1006.000
295.174; -125.525;-1082.000; -954.000
295.312;  -50.600; -323.000; -203.000
295.451;  -47.850; -307.000; -428.000
295.589;  -64.100; -389.000; -518.000
295.728;    4.125; -292.000; -165.000
295.866;   -9.450;  -36.000;  -51.000
296.005;  -79.700; -584.000; -341.000
296.143;  -71.500; -558.000; -596.000
296.282; -111.475; -957.000; -881.000
296.420;  -86.225; -657.000; -557.000
296.559; -106.300; -892.000; -633.000
296.697;  -52.725; -847.000; -665.000
296.835;  -77.125;-1141.000;-1002.000
296.974;   15.950;  -23.000;   39.000
297.112;  -38.950; -443.000; -504.000
297.251;  -88.825; -815.000; -755.000
297.389;  -18.275; -576.000; -438.000
297.527;   -0.100; -145.000;  -83.000
297.666;  -58.275; -486.000; -438.000
297.804;  -44.350; -404.000; -264.000
297.942;  -16.450; -136.000; -161.000
298.081;   -1.900; -183.000;   63.000
298.219;    5.000;  -17.000;  -19.000
298.357;  -10.200; -144.000;  -71.000
298.495;  -48.225; -810.000; -812.000
298.634;   20.725;  245.000;  219.000
298.772;  -12.550; -220.000; -338.000
298.910;  -56.300; -309.000; -182.000
299.048;  -30.575; -130.000; -153.000
299.187;  -46.475; -350.000; -250.000
299.325;   -1.050;   52.000;  122.000
299.463;  -20.075; -389.000; -299.000
299.601;    3.075; -327.000; -271.000
299.739; -119.600; -908.000; -883.000
299.877;  -92.925; -791.000; -703.000
300.016;  -76.000;-1095.000; -935.000
300.154;   62.300;  -19.000; -161.000
300.292;  -25.900; -428.000; -348.000
300.430;  -31.700; -408.000; -291.000
300.568; -121.100; -940.000; -874.000
300.706;  -69.075; -366.000; -469.000
300.844; -115.825;-1108.000; -979.000
300.982;   74.425;  246.000;  282.000
301.120; -117.575; -965.000; -866.000
301.258;  -92.375; -812.000; -705.000
301.396;   13.600;  104.000;  -41.000
301.534;  -27.600; -218.000; -293.000
301.672;  -67.525; -664.000; -521.000
301.810;  -54.275; -613.000; -545.000
301.948;   36.175;   53.000;  149.000
302.086;  247.025; -250.000;  -32.000
302.224;  303.225; -610.000; -585.000
302.362;  -44.425; -558.000; -622.000
302.500;  -96.150; -923.000; -893.000
302.638;   20.675;  128.000;  245.000
302.776;  -34.500; -352.000; -408.000
302.913;   36.425;  447.000;  236.000
303.051;  -27.875;  -86.000;  -23.000
303.189;   19.875;   90.000;  118.000
303.327;  -46.425; -341.000; -256.000
303.465;  -94.325; -832.000; -588.000
303.603;  -81.100; -805.000; -604.000
303.740;   47.000;  417.000;  241.000
303.878;  -58.825; -800.000; -759.000
304.016; -107.700; -915.000; -790.000
304.154; -143.400;-1123.000;-1152.000
304.291;  -72.125; -505.000; -554.000
304.429;   -2.175;  102.000;   74.000
304.567; -130.700; -908.000; -893.000
304.705;  -65.950; -408.000; -515.000
304.842;  -19.400; -616.000; -540.000
304.980;   26.525;  215.000;   35.000
305.118;  -30.925; -367.000; -365.000
305.255; -122.050; -945.000; -927.000
305.393;   33.525;  178.000;  239.000
305.531; -125.775;-1173.000; -956.000
305.668;  -72.375; -663.000; -582.000
305.806;   14.525; -358.000; -439.000
305.943;    0.250; -629.000; -637.000
306.081;   -5.450; -378.000; -267.000
306.219; -115.500; -863.000; -748.000
306.356;    2.050;  158.000;   27.000
306.494;  118.775;  981.000;  761.000
306.631;    0.075;  -11.000;  -55.000
306.769;  -18.900; -613.000; -485.000
306.906;  -31.750; -284.000; -258.000
307.044;  -54.375; -473.000; -488.000
307.181;  -49.400; -410.000; -332.000
307.319;   14.725;  112.000;   87.000
307.456; -159.225;-1191.000;-1153.000
307.594; -116.625; -980.000; -727.000
307.731;  -25.275; -371.000; -164.000
307.868;   -1.300;  -15.000;   20.000
308.006; -122.175; -961.000; -847.000
308.143;  -72.050; -618.000; -330.000
308.281;   48.550;  -37.000; -254.000
308.418;  -59.575; -748.000; -640.000
308.555;  -74.550; -400.000; -250.000
308.693;  -77.600; -577.000; -573.000
308.830;  -93.750; -712.000; -657.000
308.967;   -9.500; -215.000;  -95.000
309.105;  -32.575; -507.000; -396.000
309.242;    8.850; -468.000; -367.000
309.379;   82.950; -577.000; -655.000
309.517;  -90.300; -936.000; -948.000
309.654; -105.525; -910.000; -734.000
309.791;  -74.075; -662.000; -580.000
309.928; -114.825; -977.000; -914.000
310.065;  146.875;  819.000;  697.000
310.203;  -59.500; -825.000; -850.000
310.340;  -40.250; -465.000; -321.000
310.477;  -68.950; -412.000; -516.000
310.614;  -63.500; -383.000; -473.000
310.751;  -66.500; -427.000; -518.000
310.889;  -15.700;    1.000;   11.000
311.026; -123.850;-1161.000; -939.000
311.163;  -56.000; -386.000; -380.000
311.300;  -73.500; -512.000; -479.000
311.437;  -71.475; -658.000; -619.000
311.574; -155.800;-1226.000; -985.000
311.711;  -45.825; -595.000; -433.000
311.848;  -36.725; -380.000; -388.000
311.985;    4.175;  270.000;   93.000
312.122; -110.575; -932.000; -762.000
312.259; -117.825; -941.000; -994.000
312.396;  -69.400; -508.000; -551.000
312.533;  -88.350; -812.000; -790.000
312.670; -127.975;-1070.000; -898.000
312.807;  -25.250; -352.000; -367.000
312.944;  -57.125; -513.000; -611.000
313.081;  -20.825; -150.000; -415.000
313.218;  -85.275;-1111.000; -867.000
313.355;  -18.700; -531.000; -449.000
313.492;  -12.075; -455.000; -292.000
313.629;  126.625;  815.000;  735.000
313.766; -136.000;-1176.000;-1008.000
313.902;   -3.225; -186.000;   21.000
314.039;  -52.500; -372.000; -289.000
314.176;   23.725;  286.000;  192.000
314.313;  -73.850; -569.000; -473.000
314.450;  -74.600; -788.000; -684.000
314.587;  -61.300; -468.000; -480.000
314.723;   11.900;  -78.000;  130.000
314.860;   40.850;  318.000;  332.000
314.997;   34.200;  223.000;  142.000
315.134;  -19.350; -385.000; -368.000
315.270;  -29.025; -480.000; -496.000
315.407; -108.325;-1094.000; -967.000
315.544;  -40.250; -657.000; -538.000
315.681;  -44.350; -681.000; -565.000
315.817;   36.575; -133.000; -176.000
315.954;   67.975; -613.000; -392.000
316.091; -117.275;-1045.000;-1023.000
316.227;  -24.175;  -71.000; -179.000
316.364;  -13.450;   23.000;    6.000
316.500;  -44.350; -113.000; -300.000
316.637;  -41.125; -181.000; -302.000
316.774;  -84.000; -625.000; -358.000
316.910;  -91.425; -598.000; -629.000
317.047;  -57.375; -487.000; -351.000
317.183;  -53.850; -435.000; -566.000
317.320;   21.425; -367.000; -321.000
317.456;  -48.075; -733.000; -805.000
317.593;  -94.725; -598.000; -641.000
317.729;   -0.725;  168.000;  -67.000
317.866; -192.450;-1434.000;-1285.000
318.002; -106.225; -708.000; -948.000
318.139; -119.200; -883.000; -867.000
318.275; -121.050;-1003.000; -738.000
318.412;  -52.975; -517.000; -336.000
318.548;  -74.775; -751.000; -720.000
318.685;  -94.025; -985.000; -888.000
318.821;  -95.575; -762.000; -735.000
318.957;  -13.125;   34.000;  -23.000
319.094;   18.100;  297.000;  154.000
319.230;  -95.250; -756.000; -742.000
319.367;    3.950; -471.000; -520.000
319.503;   -5.175; -538.000; -436.000
319.639; -112.325; -877.000; -793.000
319.775;  -84.350; -750.000; -685.000
319.912;  -68.250; -424.000; -519.000
320.048;  -93.750;-1184.000;-1184.000
320.184;   64.925;   59.000;   70.000
320.321;  -61.150; -497.000; -467.000
320.457;   62.925;  475.000;  662.000
320.593;  -58.075; -375.000; -382.000
320.729; -110.125; -732.000; -734.000
320.866;  -67.375; -577.000; -635.000
321.002;  -91.775; -759.000; -809.000
321.138;  -33.925; -135.000; -211.000
321.274;   24.625; -148.000; -115.000
321.410;  -51.800; -585.000; -353.000
321.546;  -98.650;-1011.000; -911.000
321.683;   40.525;  400.000;  185.000
321.819;  -21.025;  -48.000; -117.000
321.955; -112.450; -743.000; -722.000
322.091;  -73.850; -585.000; -540.000
322.227;  -35.775; -382.000; -202.000
322.363;  -37.200; -320.000; -215.000
322.499;  -52.325; -343.000; -331.000
322.635;  100.850;  636.000;  443.000
322.771;   -0.150; -139.000;   12.000
322.907;   52.450;  129.000;  327.000
323.043;  -34.825; -115.000; -206.000
323.179;  -55.100; -394.000; -363.000
323.315;  -46.650; -401.000; -371.000
323.451;   14.750; -328.000; -236.000
323.587;   59.700;  -60.000;  -77.000
323.723;  -48.100; -682.000; -601.000
323.859;  -24.100; -258.000;  -76.000
323.995;  -53.575; -467.000; -409.000
324.131; -128.350; -967.000; -892.000
324.267;  -44.075; -254.000; -276.000
324.402; -133.275; -960.000; -983.000
324.538;  -44.750; -279.000; -104.000
324.674;   -6.600;  164.000;   77.000
324.810;   47.600;  226.000;  308.000
324.946;  -51.250; -810.000; -658.000
325.082;  -77.000; -568.000; -475.000
325.217;  -19.150;  -62.000;   16.000
325.353; -105.975; -764.000; -659.000
325.489;  -94.175; -540.000; -506.000
325.625;  -82.900; -579.000; -525.000
325.760;   90.450;  517.000;  376.000
325.896;    1.000; -515.000; -702.000
326.032;  -56.075; -403.000; -352.000
326.168;  -63.375; -462.000; -369.000
326.303;  -50.900; -352.000; -461.000
326.439;  -12.300; -336.000; -276.000
326.575;   -8.950; -190.000;  -29.000
326.710;  -35.275; -156.000;  -30.000
326.846;   -6.650;  146.000;  103.000
326.982;  -98.200; -530.000; -548.000
327.117;  -74.100; -481.000; -442.000
327.253;  -86.150; -745.000; -742.000
327.388; -133.550;-1137.000;-1153.000
327.524;  -61.925; -811.000; -578.000
327.659;   -8.425;  -58.000;  -22.000
327.795;  -30.650;   69.000;   45.000
327.931;  -70.200; -723.000; -499.000
328.066;  -18.225; -417.000; -276.000
328.202;  -25.050;   12.000; -129.000
328.337;   89.500;  957.000;  713.000
328.473;   43.175;  -12.000;  -74.000
328.608;  -26.225; -256.000; -267.000
328.743; -103.425; -799.000; -664.000
328.879;    0.150;  214.000;  114.000
329.014;  -27.725; -102.000; -122.000
329.150; -100.850; -358.000; -483.000
329.285;  -72.300; -465.000; -466.000
329.421;  -59.650; -548.000; -246.000
329.556;  -20.775;  -36.000;   85.000
329.691;  -93.750; -633.000; -615.000
329.827;  -80.250; -626.000; -480.000
329.962;  -43.875;  131.000; -301.000
330.097;  -74.725; -673.000; -585.000
330.233;  -40.025; -410.000; -223.000
330.368; -122.750; -839.000; -628.000
330.503;  -20.650;    3.000;   98.000
330.638;   -6.325;  -93.000; -125.000
330.774;  -81.225; -609.000; -530.000
330.909;  -31.875; -434.000; -244.000
331.044; -107.175; -714.000; -708.000
331.179; -175.650;-1217.000;-1109.000
331.315;    1.525;   77.000;   20.000
331.450;   10.200;  157.000;  285.000
331.585;  -97.100; -805.000; -706.000
331.720;  -88.475; -510.000; -460.000
331.855;   -6.900;  -35.000; -102.000
331.990;  404.000;   62.000;  138.000
332.126;  190.200; -110.000;   71.000
332.261;    9.600; -379.000; -265.000
332.396;    5.500; -135.000; -242.000
332.531;  -46.675;-1074.000;-1031.000
332.666;   91.525; -519.000; -363.000
332.801;  -84.800; -726.000; -807.000
332.936;  -26.325; -192.000; -122.000
333.071; -114.675; -870.000; -817.000
333.206;    9.050;  307.000;  379.000
333.341;   42.475;  344.000;  418.000
333.476;  -76.050; -627.000; -623.000
333.611;  -32.050; -251.000; -173.000
333.746;  -50.400; -381.000; -464.000
333.881; -119.575; -973.000; -935.000
334.016; -117.675; -936.000; -917.000
334.151; -107.575; -746.000; -702.000
334.286;    4.025;  152.000;  186.000
334.421;   -2.025; -125.000; -178.000
334.556;  -71.075; -611.000; -567.000
334.690;  -77.450; -631.000; -577.000
334.825;   52.575;  381.000;   83.000
334.960;  -55.850; -285.000; -413.000
335.095;    7.650;  135.000;  -91.000
335.230;  -79.250; -722.000; -738.000
335.365; -123.625;-1084.000; -990.000
335.499; -109.325;-1108.000;-1037.000
335.634;   30.400;    9.000;  534.000
335.769;  -78.200; -755.000; -720.000
335.904;  -45.325; -603.000; -561.000
336.038;  -16.350; -735.000; -657.000
336.173;  -87.725;-1206.000;-1194.000
336.308;   49.900; -116.000; -189.000
336.443;   67.250; -544.000; -634.000
336.577;  -13.250; -936.000; -787.000
336.712;   96.950;   -4.000;  -12.000
336.847;   15.475; -724.000; -607.000
336.981;  112.150; -272.000; -208.000
337.116;  382.975;  615.000;  501.000
337.250;  182.775; -434.000; -421.000
337.385;  448.200; -297.000; -208.000
337.520;  208.575; -632.000; -603.000
337.654;  -39.125; -215.000; -126.000
337.789; -129.825; -989.000; -933.000
337.923;  -30.175; -104.000; -205.000
338.058; -113.825; -673.000; -738.000
338.192;  -54.575; -611.000; -488.000
338.327;   -5.000;  -18.000; -155.000
338.461;  -58.775; -299.000; -469.000
338.596;  -96.225; -780.000; -638.000
338.730;  -70.525; -767.000; -803.000
338.865;  151.025;  -46.000; -140.000
338.999;   16.550; -846.000; -702.000
339.134;    1.250; -634.000; -536.000
339.268;   37.975; -741.000; -603.000
339.403;  536.425; -740.000; -775.000
339.537;  258.675; -894.000; -820.000
339.671;  -96.325; -829.000; -813.000
339.806;  -29.225; -556.000; -512.000
339.940;   17.825; -261.000; -235.000
340.074;  -99.675; -685.000; -510.000
340.209;  -50.625; -351.000; -230.000
340.343;  -96.700; -517.000; -573.000
340.477;  132.625;  998.000; 1036.000
340.612;    3.000;-1033.000; -900.000
340.746;  232.600; -199.000; -243.000
340.880;  -92.650; -924.000; -785.000
341.014;  -27.125;  -45.000; -154.000
341.149; -118.300; -756.000; -718.000
341.283; -129.650; -839.000; -754.000
341.417; -121.250;-1124.000; -938.000
341.551;  -16.225; -768.000; -708.000
341.685;  -68.775; -633.000; -611.000
341.820;  -62.425; -562.000; -493.000
341.954;  -57.675; -218.000; -349.000
342.088; -157.500;-1102.000;-1019.000
342.222;   40.950;  565.000;  618.000
342.356;  -85.000; -395.000; -335.000
342.490; -110.175; -880.000; -841.000
342.624;  -57.475; -339.000; -242.000
342.758;  -53.500; -364.000; -312.000
342.892; -102.325; -710.000; -585.000
343.026;  -49.100;  -58.000; -116.000
343.160;  -80.025; -426.000; -376.000
343.294;  -90.625; -474.000; -337.000
343.428;  -71.725; -488.000; -448.000
343.562;  -32.025; -172.000;  -23.000
343.696;  -53.525; -385.000; -314.000
343.830;  -45.775; -362.000; -356.000
343.964;  -25.500; -231.000; -168.000
344.098;  404.900;  199.000;   70.000
344.232;  325.275; -266.000; -127.000
344.366;   74.575; -567.000; -453.000
344.500;  -34.350; -665.000; -744.000
344.634;  -22.825; -324.000; -164.000
344.768;  -64.000; -531.000; -341.000
344.902;   19.000;  278.000;  256.000
345.035;  -81.150; -556.000; -496.000
345.169; -129.375; -933.000; -656.000
345.303;  -60.050; -308.000; -482.000
345.437; -110.125; -826.000; -717.000
345.571;  -67.950; -675.000; -594.000
345.704;  -76.050; -309.000; -532.000
345.838;  -29.125; -331.000; -284.000
345.972;  -35.025; -543.000; -495.000
346.106;  232.900; -179.000; -190.000
346.239;  508.450; -312.000; -243.000
346.373;   -0.550; -343.000; -302.000
346.507; -136.600; -950.000; -962.000
346.640;   29.075;  -30.000;   13.000
346.774;  -76.950; -650.000; -797.000
346.908;  -36.800; -138.000;  -11.000
347.041;  -95.475; -646.000; -593.000
347.175;  -10.375;  259.000;   27.000
347.309; -103.525; -698.000; -628.000
347.442; -119.425; -883.000; -732.000
347.576;  142.250;  670.000;  668.000
347.709;   56.100; -123.000;  -52.000
347.843; -112.950; -933.000; -825.000
347.976;   16.950;  235.000;  294.000
348.110; -186.575;-1268.000;-1186.000
348.243; -104.425; -679.000; -772.000
348.377;   -8.425;  -26.000;   60.000
348.510;   32.500;  403.000;  540.000
348.644;  -38.200;  -37.000; -159.000
348.777;   -9.075;  180.000;  191.000
348.911;  -57.175; -142.000; -112.000
349.044;   78.175;  471.000;  448.000
349.178;    1.125;-1069.000;-1006.000
349.311;   90.900;  141.000;  255.000
349.444;   39.850; -927.000; -813.000
349.578;  -33.900; -347.000; -200.000
349.711; -124.950; -959.000; -862.000
349.845;  -65.275; -661.000; -591.000
349.978; -159.700;-1224.000;-1137.000
350.111;  -90.650; -546.000; -612.000
350.244;  -99.375; -596.000; -700.000
350.378;  -50.525; -392.000; -393.000
350.511;  -72.375; -393.000; -426.000
350.644; -106.650; -808.000; -806.000
350.778;   12.225;  168.000;  104.000
350.911;   -6.025;  134.000;  140.000
351.044; -100.775; -685.000; -615.000
351.177;  -59.250; -321.000; -281.000
351.310;  -20.525;    3.000; -131.000
351.444; -107.450; -888.000; -788.000
351.577;   41.225;  140.000;   90.000
351.710;   63.325;  593.000;  417.000
351.843;  -23.325; -165.000;  -77.000
351.976;   -1.550;  149.000;  -79.000
352.109;  -89.650; -621.000; -612.000
352.242;  -58.550; -464.000; -419.000
352.376;  -87.725; -580.000; -636.000
352.509;   30.400; -437.000; -356.000
352.642;  -68.450; -654.000; -604.000
352.775;    7.900; -141.000;  -98.000
352.908; -127.200; -933.000; -904.000
353.041; -114.425; -814.000; -824.000
353.174;  -60.550; -551.000; -424.000
353.307;  -88.300; -753.000; -764.000
353.440;   67.175;  541.000;  453.000
353.573;  -96.850; -957.000;-1008.000
353.706;  -33.750; -384.000; -558.000
353.839;  -34.475; -264.000; -220.000
353.971;  -86.375; -657.000; -512.000
354.104;  -98.550; -896.000; -835.000
354.237;  -81.300; -627.000; -662.000
354.370;  -94.800; -846.000; -879.000
354.503; -165.575;-1231.000;-1308.000
354.636;  -32.575; -529.000; -348.000
354.769; -103.175; -937.000; -860.000
354.902;  -39.150; -230.000; -139.000
355.034;   -8.525; -164.000; -220.000
355.167;  -11.550; -262.000; -162.000
355.300;  -55.525;-1061.000; -880.000
355.433; 1391.825;  -71.000;  -14.000
355.565; 2249.650; -402.000; -384.000
355.698;  581.000; -356.000; -296.000
355.831;    6.450; -882.000; -801.000
355.964;   41.150; -285.000; -170.000
356.096;  -62.300; -856.000; -843.000
356.229;    3.725; -523.000; -530.000
356.362;  515.950; -373.000; -266.000
356.494;  920.325; -229.000; -162.000
356.627;  341.250;  269.000;  377.000
356.760;  886.425;  120.000;   53.000
356.892; 1515.225; -286.000; -601.000
357.025;  385.625;  403.000;  389.000
357.157;  276.125; -167.000; -179.000
357.290; 1149.100; -856.000; -713.000
357.423;  370.425; -667.000; -556.000
357.555;  118.350; -217.000; -228.000
357.688;  190.025; -483.000; -364.000
357.820;  255.450; -870.000; -877.000
357.953; 1896.800; -563.000; -589.000
358.085;  301.600; -632.000; -612.000
358.218;  220.275;-1131.000; -932.000
358.350;   61.175;  -58.000;  312.000
358.483; -155.700;-1300.000;-1187.000
358.615; -122.450;-1182.000;-1078.000
358.747; -136.975;-1187.000;-1058.000
358.880;  -42.925; -810.000; -744.000
359.012;  -22.550; -376.000; -202.000
359.145;  -67.550; -480.000; -511.000
359.277;  -48.150; -962.000; -913.000
359.409; 1574.450;  536.000;  231.000
359.542;  370.275; -738.000; -688.000
359.674;   22.050;   46.000;   13.000
359.806;  -74.250; -565.000; -438.000
359.939;  -46.700; -617.000; -516.000
360.071;   32.500; -583.000; -579.000
360.203;  -27.850; -411.000; -364.000
360.335;   15.350;  164.000;  -16.000
360.468;  116.500; -249.000; -307.000
360.600; 1532.025; -547.000; -454.000
360.732; 4071.200; -546.000; -423.000
360.864;  638.100;-1216.000;-1044.000
360.996;   78.150; -516.000; -554.000
361.129;  -38.325; -389.000; -598.000
361.261;   -6.700;  110.000; -113.000
361.393;  -62.100; -252.000; -214.000
361.525;  -20.550;   94.000;  244.000
361.657;  -95.050; -821.000; -703.000
361.789;  -38.000; -139.000; -155.000
361.921;  -25.100; -642.000; -593.000
362.053;  100.050;  524.000;  541.000
362.185;   -1.825;  288.000;   72.000
362.318; -103.825; -709.000; -705.000
362.450;   49.725;  294.000;  444.000
362.582;  -68.525; -913.000; -870.000
362.714;  -58.500; -353.000; -332.000
362.846;  -84.000; -606.000; -490.000
362.978; -136.600; -941.000; -811.000
363.109;  -39.175; -161.000; -260.000
363.241;  178.100; -739.000; -749.000
363.373;  620.125; -649.000; -564.000
363.505;  997.825; -186.000;  -91.000
363.637;  219.275; -787.000; -601.000
363.769; -124.400;-1067.000;-1080.000
363.901;  -82.350; -596.000; -654.000
364.033; -131.325;-1103.000;-1062.000
364.165;  -37.425; -283.000; -283.000
364.296;   84.800; -316.000; -177.000
364.428;  174.400;-1344.000;-1220.000
364.560;  -64.800; -679.000; -661.000
364.692;  -98.375; -738.000; -835.000
364.824;   13.900; -588.000; -456.000
364.955;  489.875; -402.000; -564.000
365.087; 1589.675;-1097.000; -852.000
365.219;   88.550; -686.000; -816.000
365.351;  -65.575; -526.000; -572.000
365.482;   21.725;  300.000;  240.000
365.614;  -58.125; -402.000; -314.000
365.746; -110.900; -729.000; -752.000
365.877; -100.575; -706.000; -672.000
366.009;  402.300;  -35.000;  -62.000
366.141;  -26.800;-1249.000;-1134.000
366.272; -115.800; -803.000; -719.000
366.404; -126.050;-1005.000; -874.000
366.535;  -23.450; -139.000;  -12.000
366.667; -112.775; -644.000; -649.000
366.799;   18.900;  353.000;  203.000
366.930; -133.800; -862.000; -996.000
367.062;  172.200; -639.000; -613.000
367.193;  344.650; -872.000; -842.000
367.325;  -52.400; -580.000; -684.000
367.456;   19.025; -246.000;   31.000
367.588;  268.600; -371.000; -318.000
367.719;   38.500;  -44.000;  -45.000
367.851;  -58.200; -222.000; -241.000
367.982;  -99.700; -875.000; -732.000
368.113;   -3.925; -475.000; -358.000
368.245; -148.000; -960.000; -841.000
368.376;  -45.625; -254.000; -302.000
368.508;  -53.725; -188.000; -263.000
368.639; -148.100;-1166.000;-1034.000
368.770;  -83.950; -670.000; -589.000
368.902; -118.050; -836.000; -926.000
369.033; -117.750; -906.000; -855.000
369.164;  -42.950; -720.000; -653.000
369.296; -102.800; -452.000; -601.000
369.427;  -25.175; -209.000; -144.000
369.558;  -78.275; -593.000; -377.000
369.689;  -95.625; -721.000; -569.000
369.821; -128.600; -951.000; -845.000
369.952;  -33.550;   42.000; -108.000
370.083;  -48.400; -229.000; -108.000
370.214;  -94.025; -735.000; -650.000
370.345;  -27.325;   65.000;   81.000
370.477; -107.125; -810.000; -790.000
370.608;   62.500; -328.000; -264.000
370.739; -115.500;-1233.000;-1292.000
370.870; -108.100;-1102.000; -923.000
371.001;  -12.350; -378.000; -467.000
371.132;  -90.350; -754.000; -735.000
371.263;  -39.350;  -42.000; -148.000
371.394; -131.200; -841.000; -748.000
371.525;   14.575;  345.000;  225.000
371.657; -116.225; -808.000; -670.000
371.788;   26.350;  103.000;  199.000
371.919;   58.950; -384.000; -304.000
372.050; 1555.625;  -91.000; -156.000
372.181;  506.000; -188.000; -294.000
372.311;  141.550;   42.000; -127.000
372.442;  -24.725; -457.000; -451.000
372.573;  -54.000; -444.000; -340.000
372.704; -145.025;-1008.000; -980.000
372.835;   -7.350; -228.000; -289.000
372.966;  -82.625; -646.000; -554.000
373.097;  -90.250; -575.000; -711.000
373.228;  -79.175; -717.000; -542.000
373.359;  -26.800; -824.000; -536.000
373.490;  263.475; -881.000; -727.000
373.620;  348.200;-1001.000; -803.000
373.751;  686.125; -332.000; -396.000
373.882;  303.675; -663.000; -733.000
374.013;  -12.600; -449.000; -262.000
374.143;  -76.675; -581.000; -659.000
374.274; -114.850; -987.000; -908.000
374.405;   64.000; -388.000; -276.000
374.536;  152.275; -526.000; -387.000
374.666;  404.025; -759.000; -807.000
374.797;   25.075; -817.000; -868.000
374.928;  254.325; -710.000; -560.000
375.058;  277.300; -535.000; -500.000
375.189;   12.075;  -59.000;  -93.000
375.320; -109.850; -928.000;-1034.000
375.450;  -40.525; -625.000; -616.000
375.581;  -33.425; -526.000; -436.000
375.712;  -51.150; -574.000; -250.000
375.842;   41.475; -438.000; -415.000
375.973;   -8.550; -554.000; -513.000
376.103;  -94.575; -665.000; -648.000
376.234;  -92.650; -531.000; -552.000
376.364; -101.375; -944.000; -867.000
376.495;  155.550;  925.000;  529.000
376.625;  -54.325; -472.000; -485.000
376.756;  -38.375; -709.000; -678.000
376.886; -124.450;-1178.000;-1026.000
377.017;  134.425;-1048.000;-1061.000
377.147;  635.475; -786.000; -782.000
377.278;   81.025;  174.000;  228.000
377.408; -125.550; -801.000; -815.000
377.538; -110.400; -707.000; -693.000
377.669;  -83.125; -537.000; -613.000
377.799; -117.675; -645.000; -635.000
377.929;  -78.575; -610.000; -428.000
378.060; -125.925; -781.000; -847.000
378.190;  -38.925; -726.000; -531.000
378.320;  -50.150; -401.000; -406.000
378.451;  -10.950; -131.000;  -22.000
378.581;  -25.425;  -67.000; -110.000
378.711;  101.250; 1035.000;  866.000
378.841;  -68.650; -533.000; -675.000
378.972; -106.475; -871.000; -751.000
379.102;  -69.350; -652.000; -579.000
379.232;  -27.725; -126.000;  -73.000
379.362; -120.450;-1001.000; -885.000
379.492;  -54.775; -373.000; -424.000
379.623;   36.775;    0.000;  111.000
379.753; -111.950;-1107.000; -974.000
379.883;   83.425;   59.000;  156.000
380.013;  -57.300;-1081.000;-1017.000
380.143; -110.100;-1097.000;-1056.000
380.273;  -98.475; -985.000; -861.000
380.403;   18.200; -344.000; -257.000
380.533;  -25.200; -651.000; -664.000
380.663;   27.950;  173.000;  128.000
380.793; -149.075;-1027.000;-1074.000
380.923;  -43.275; -103.000;  -34.000
381.053;  -97.900; -613.000; -623.000
381.183;  -58.500; -106.000; -248.000
381.313;  -49.475; -656.000; -470.000
381.443;  -49.875; -692.000; -473.000
381.573;  -11.550; -402.000; -409.000
381.703;  -50.875;-1249.000;-1095.000
381.833; -174.750;-1454.000;-1336.000
381.963;   21.025; -134.000;  -87.000
382.093;  520.925; -925.000; -909.000
382.223;  124.050; -713.000; -602.000
382.353;  -78.625; -801.000; -608.000
382.482;   42.075;-1091.000; -964.000
382.612;  255.350; -872.000; -644.000
382.742;  122.625; -695.000; -622.000
382.872;    7.075; -565.000; -551.000
383.002;   12.575;  347.000; -132.000
383.131;  -24.250; -226.000; -160.000
383.261;  -49.475; -706.000; -768.000
383.391;  331.550; -552.000; -377.000
383.521; 4853.300;  451.000;  263.000
383.650; 1423.575; -947.000; -904.000
383.780;   27.300; -783.000; -656.000
383.910;   77.000;  880.000;  802.000
384.039;  -73.050; -794.000; -656.000
384.169;  -55.200;-1205.000;-1017.000
384.299;  -86.350; -650.000; -662.000
384.428; -110.000; -764.000; -680.000
384.558;  -75.125; -308.000; -275.000
384.687;  -77.875; -414.000; -334.000
384.817;  -10.050;   75.000;   -2.000
384.947;  -34.850; -234.000; -141.000
385.076;  151.625;  982.000;  912.000
385.206;   55.750;  369.000;  480.000
385.335;  -74.275; -549.000; -417.000
385.465; -124.150; -655.000; -663.000
385.594;   33.175;  -53.000;  -44.000
385.724;   79.200; -868.000; -838.000
385.853;    8.150; -296.000; -270.000
385.982;  471.625; -743.000; -787.000
386.112;  857.825;-1052.000; -871.000
386.241;   19.125; -307.000; -312.000
386.371;  -19.575; -174.000;  -87.000
386.500;  -39.550; -825.000; -789.000
386.629;  -10.775; -874.000; -817.000
386.759;   70.500;  -43.000;   68.000
386.888;  -22.050; -170.000; -250.000
387.017;  -96.150; -648.000; -620.000
387.147; -108.825; -771.000; -798.000
387.276;  -56.050; -410.000; -397.000
387.405;  -40.650; -398.000; -342.000
387.535;  -87.975; -452.000; -361.000
387.664;  -62.075; -692.000; -620.000
387.793;   -7.475; -198.000; -113.000
387.922;  190.575;  255.000;  200.000
388.052;  -40.650; -576.000; -423.000
388.181;  -65.800; -342.000; -472.000
388.310;  -88.225; -889.000; -710.000
388.439; -111.400; -749.000; -742.000
388.568;   64.675;  365.000;  244.000
388.697;  381.625; -756.000; -653.000
388.826;   23.450; -768.000; -666.000
388.956;  -38.250; -285.000; -307.000
389.085;  -63.375; -347.000; -287.000
389.214; -105.825; -842.000; -872.000
389.343;  -69.825; -645.000; -413.000
389.472;  532.225;  126.000;  149.000
389.601;  634.825;   91.000;    0.000
389.730;  -12.925; -568.000; -687.000
389.859;   27.025;  226.000;   46.000
389.988;   47.000; -423.000; -408.000
390.117;   34.550; -168.000; -146.000
390.246;  -37.525; -331.000; -320.000
390.375;  -43.500; -673.000; -626.000
390.504;  -99.300; -703.000; -621.000
390.633; -112.925; -672.000; -726.000
390.761;  -95.025; -732.000; -645.000
390.890;  -23.575;   -4.000; -130.000
391.019;  -65.450; -421.000; -441.000
391.148; -137.800; -826.000; -855.000
391.277; -101.925; -576.000; -493.000
391.406; -120.325; -821.000; -805.000
391.534;  -13.425;  574.000; -301.000
391.663; -103.050; -583.000; -645.000
391.792; -112.950; -673.000; -701.000
391.921;  -20.000;   -3.000;   15.000
392.050;   15.250; -287.000; -228.000
392.178; -128.275;-1206.000;-1061.000
392.307;  -15.825; -758.000; -712.000
392.436;  -32.750; -427.000; -641.000
392.564;   -2.025;  166.000;   -6.000
392.693; -111.250; -860.000; -682.000
392.822;   21.100; -529.000; -534.000
392.950;  -43.225; -880.000; -714.000
393.079;   88.775; -188.000; -328.000
393.208;  -49.450; -488.000; -511.000
393.336;  -34.825; -170.000; -145.000
393.465;  -65.850; -317.000; -199.000
393.593;  -16.400;   62.000;   79.000
393.722; -147.875;-1121.000; -916.000
393.850;  -41.400; -188.000;  -61.000
393.979; -134.675; -926.000; -805.000
394.107;  -75.125; -517.000; -537.000
394.236;  -43.575; -570.000; -507.000
394.364;  108.150;  383.000;  206.000
394.493;  118.575; -911.000; -767.000
394.621;   -8.800; -955.000; -916.000
394.750; 1150.125; -873.000; -923.000
394.878; 4408.225; -247.000; -149.000
395.007; 6431.975; -721.000; -807.000
395.135;  558.400; -790.000; -721.000
395.263;  -57.550;-1038.000;-1040.000
395.392;    2.475;  -25.000; -107.000
395.520; -116.075; -818.000; -679.000
395.648; -117.925; -865.000; -915.000
395.777;  -72.500; -366.000; -405.000
395.905;  -87.850; -449.000; -564.000
396.033;  -18.800;  217.000;  172.000
396.162;  169.525; -399.000; -453.000
396.290;  179.375;  -17.000;   -2.000
396.418;  -40.825; -555.000; -514.000
396.546;  -84.050; -571.000; -466.000
396.674; -142.575; -850.000; -878.000
396.803;  -25.625;  -72.000;  -23.000
396.931;  -26.575; -179.000; -199.000
397.059; -119.475;-1026.000; -989.000
397.187; -134.850;-1026.000; -975.000
397.315; -140.500; -884.000; -649.000
397.443; -100.900; -592.000; -443.000
397.572;  -92.525; -578.000; -424.000
397.700;  -89.725; -607.000; -614.000
397.828;  -20.575;  120.000;  -90.000
397.956;  -42.400; -508.000; -478.000
398.084;  -33.725; -767.000; -626.000
398.212;   -3.125;  137.000;  124.000
398.340;  -19.425;  -56.000;  159.000
398.468;  -38.350; -390.000; -169.000
398.596; -145.575; -993.000; -953.000
398.724; -136.600; -762.000; -767.000
398.852; -159.125;-1024.000; -976.000
398.980;  -83.500; -560.000; -560.000
399.108;  -97.325; -982.000; -735.000
399.236;   -9.500;   13.000;    8.000
399.363;   -6.425;  222.000;  196.000
399.491;  -73.975; -404.000; -398.000
399.619; -108.700; -829.000; -800.000
399.747;  -99.000; -859.000; -771.000
399.875;   44.300;  220.000;  234.000
400.003;  -81.450; -359.000; -284.000
400.130;  -94.425; -421.000; -341.000
400.258;  -39.350;  -83.000;   38.000
400.386;  -70.975; -352.000; -168.000
400.514;  -90.100; -526.000; -587.000
400.641; -136.975; -928.000; -802.000
400.769; -159.650; -979.000; -888.000
400.897; -118.000; -838.000; -793.000
401.025;  -42.275; -166.000; -152.000
401.152;  -20.875;  220.000;   38.000
401.280;  -96.300; -430.000; -429.000
401.408; -106.350; -712.000; -576.000
401.535; -119.600; -735.000; -758.000
401.663; -180.375;-1134.000;-1054.000
401.790;  -99.250; -514.000; -525.000
401.918;   15.775;  436.000;  405.000
402.046;  -13.250;  134.000;  122.000
402.173;  -37.975;  -18.000;    7.000
402.301;  -92.175; -519.000; -397.000
402.428;   39.450;  528.000;  383.000
402.556; -158.150;-1188.000; -913.000
402.683;  -34.725;  -20.000;   -1.000
402.811;  -32.275;  -37.000; -206.000
402.938;  -27.875;   20.000;   27.000
403.066;   22.275; -574.000; -558.000
403.193;  122.725;  299.000;  239.000
403.321;   69.600; -396.000; -574.000
403.448;  146.625;   83.000;   27.000
403.575;   57.850;  -90.000;  -46.000
403.703;  -95.900; -732.000; -557.000
403.830;  -70.775; -531.000; -496.000
403.957; -126.325;-1117.000;-1023.000
404.085;   20.675;  -61.000; -172.000
404.212;  110.275;  -50.000;   63.000
404.339;  422.600; -566.000; -306.000
404.467; 8857.925; -612.000; -524.000
404.594; 5433.425; -287.000; -227.000
404.721;  957.225; -869.000; -764.000
404.848;  104.500; -113.000; -202.000
404.976;  -98.425; -856.000; -783.000
405.103;  -13.775;  -14.000;  -82.000
405.230;    0.300;  190.000;  226.000
405.357;   33.750;  117.000;   44.000
405.484;  412.200;  -49.000;    5.000
405.612;  112.900; -548.000; -563.000
405.739;  -61.975; -488.000; -243.000
405.866;   50.625;  669.000;  385.000
405.993;  -53.750; -398.000; -102.000
406.120; -149.550; -801.000; -887.000
406.247;  -95.200; -323.000; -342.000
406.374;  122.550;  540.000;  629.000
406.501;  -60.800; -632.000; -702.000
406.628;  -97.025; -621.000; -589.000
406.755; -107.175; -803.000; -620.000
406.882;  -57.550; -228.000; -277.000
407.009; -106.350; -719.000; -628.000
407.136;  -53.200; -480.000; -401.000
407.263;  -46.900; -939.000; -829.000
407.390; -100.025; -692.000; -614.000
407.517; -183.475;-1139.000;-1187.000
407.644;  -70.400; -332.000; -256.000
407.771;  -80.100; -249.000; -287.000
407.898;   -9.625;  168.000;  328.000
408.025;  -91.400; -421.000; -313.000
408.151;  -23.900;   82.000;  153.000
408.278;  -75.275; -267.000; -216.000
408.405; -150.325; -931.000; -899.000
408.532;  -87.325; -549.000; -542.000
408.659; -115.050; -677.000; -648.000
408.785; -191.850;-1298.000;-1170.000
408.912;  -77.250; -412.000; -296.000
409.039; -106.375; -610.000; -686.000
409.166; -111.675; -591.000; -555.000
409.292; -110.750; -571.000; -534.000
409.419; -128.950; -665.000; -649.000
409.546; -103.125; -431.000; -192.000
409.672; -126.475; -713.000; -545.000
409.799;  -29.025;  -36.000;   34.000
409.926;  -51.150; -180.000; -179.000
410.052; -177.300;-1127.000;-1091.000
410.179;  -79.800; -368.000; -392.000
410.305;  -95.575; -375.000; -493.000
410.432;  -48.075; -220.000; -333.000
410.558;  -91.075; -305.000; -380.000
410.685; -120.275; -688.000; -431.000
410.812;  -99.800; -409.000; -588.000
410.938; -153.025; -964.000; -808.000
411.065;  -98.050; -671.000; -645.000
411.191;  -55.700; -189.000; -174.000
411.317; -119.375; -823.000; -742.000
411.444;  -69.700; -317.000; -246.000
411.570;  -73.825; -339.000; -294.000
411.697; -130.850; -758.000; -752.000
411.823; -173.075; -989.000; -999.000
411.949;  -52.750;  -56.000;   17.000
412.076; -106.750; -539.000; -519.000
412.202; -123.150; -758.000; -757.000
412.329; -132.000; -798.000; -752.000
412.455; -122.700; -821.000; -657.000
412.581;  -17.925;  -15.000;  172.000
412.707;  -93.050; -540.000; -457.000
412.834;    0.075;  156.000;  219.000
412.960;  -95.100; -785.000; -784.000
413.086; -102.475; -743.000; -701.000
413.212;  102.650;  604.000;  578.000
413.339;  -88.675; -685.000; -701.000
413.465;  -65.225; -364.000; -310.000
413.591;  -94.375; -757.000; -474.000
413.717;  -64.525; -358.000; -366.000
413.843; -134.575; -839.000; -861.000
413.969;  -65.175;  -47.000; -292.000
414.096;  -98.350; -679.000; -679.000
414.222;  -27.725;  -33.000;   85.000
414.348;  -80.475; -652.000; -385.000
414.474;   11.300;   38.000;  -52.000
414.600;  -13.625; -126.000; -144.000
414.726;  -22.350;  -96.000;  -55.000
414.852;  -31.850; -365.000; -342.000
414.978;   32.800;  104.000;  -18.000
415.104;   55.000;   38.000;   80.000
415.230;   28.475; -329.000; -330.000
415.356;   72.375; -409.000; -514.000
415.482;  233.575;   13.000;  -35.000
415.608;  406.175; -247.000; -323.000
415.734; 1320.150;   67.000;   38.000
415.860;27698.825; -875.000; -767.000
415.986;22564.300; -685.000; -607.000
416.111; 2110.075; -798.000; -652.000
416.237;  452.875; -424.000; -571.000
416.363; 1614.525; -765.000; -733.000
416.489; 6597.875; -324.000; -251.000
416.615;  906.150; -707.000; -742.000
416.741;   27.175; -677.000; -784.000
416.866;  -54.625; -673.000; -736.000
416.992; -125.425; -801.000; -818.000
417.118;  -21.000;  -41.000;  -80.000
417.244;  -76.575; -798.000; -531.000
417.369;  -83.750; -801.000; -612.000
417.495;  -25.600; -325.000; -254.000
417.621;  -81.600;-1015.000; -803.000
417.746;   -7.700; -579.000; -572.000
417.872;   60.400; -254.000; -144.000
417.998;  123.650; -515.000; -530.000
418.123; 1528.575;-1073.000; -845.000
418.249; 8450.250; -512.000; -601.000
418.374; 1415.200; -916.000; -824.000
418.500;  232.300; -383.000; -482.000
418.626;  188.150;   70.000;  -59.000
418.751;  159.250; -549.000; -448.000
418.877;  313.125; -637.000; -643.000
419.002; 2511.025; -688.000; -560.000
419.128;19255.525; -930.000; -721.000
419.253; 5356.225; -967.000; -837.000
419.379;  748.075; -391.000; -338.000
419.504;  563.725;  325.000;  415.000
419.629;  832.050; -393.000; -212.000
419.755; 5258.250; -317.000; -254.000
419.880;33901.875;  -98.000;   67.000
420.006;17190.125; -280.000; -221.000
420.131;42870.025; -662.000; -775.000
420.256; 6871.325; -315.000; -316.000
420.382;  935.625; -665.000; -687.000
420.507;  145.525; -649.000; -778.000
420.632;   59.150; -337.000; -339.000
420.758;   60.175; -251.000; -425.000
420.883; -102.575; -876.000; -672.000
421.008; -111.975; -775.000; -619.000
421.133;  -89.700; -509.000; -467.000
421.259;  -57.000; -325.000; -259.000
421.384; -126.300; -834.000; -693.000
421.509; -121.675;-1052.000; -862.000
421.634;  290.025; -936.000; -820.000
421.759;  138.500; -359.000; -327.000
421.885;  -84.025; -717.000; -656.000
422.010; -103.625; -673.000; -542.000
422.135; -154.700; -695.000; -727.000
422.260;   13.975;  340.000;  280.000
422.385;  -44.275;   12.000;  -98.000
422.510;   -9.050;  151.000;  -26.000
422.635;  -12.150;  -87.000;  -43.000
422.760;  -10.450; -766.000; -791.000
422.885;   19.075;  -57.000;  -80.000
423.010;  -40.875; -112.000; -169.000
423.135;  -80.950; -481.000; -561.000
423.260;  -54.025; -150.000; -245.000
423.385;   37.275;  476.000;  222.000
423.510;    8.175;   71.000;  -22.000
423.635;   10.450;  133.000;   45.000
423.760;   48.400;  383.000;  328.000
423.885;   26.225;  336.000;  391.000
424.010;  -15.500;  -68.000;  -13.000
424.135;   -8.825;    5.000;  -33.000
424.259;  -89.450; -654.000; -457.000
424.384;  -45.725; -279.000; -272.000
424.509;  -34.375; -260.000; -186.000
424.634;  -82.050; -761.000; -623.000
424.759;  -35.975; -688.000; -544.000
424.883;   10.600; -506.000; -527.000
425.008;  206.275; -502.000; -410.000
425.133; 2855.250; -679.000; -653.000
425.258; 1547.575; -517.000; -381.000
425.382;  586.875; -867.000; -774.000
425.507; 1406.950; -487.000; -543.000
425.632;  402.625; -802.000; -663.000
425.756;  663.250; -256.000; -146.000
425.881; 9739.150; -831.000; -857.000
426.006;29786.325; -604.000; -355.000
426.130; 4891.850; -696.000; -508.000
426.255;  670.500; -611.000; -491.000
426.379;  275.275; -189.000; -577.000
426.504;  494.150;  660.000;  544.000
426.629; 5776.900; -519.000; -466.000
426.753; 4418.575;   64.000;  -46.000
426.878;  551.375; -252.000; -288.000
427.002;  290.650; -651.000; -668.000
427.127; 2079.875;  -35.000; -158.000
427.251;17079.275;  372.000;  401.000
427.375; 5479.600; -191.000; -173.000
427.500; 1488.725; -616.000; -610.000
427.624;  491.125; -234.000; -400.000
427.749;   86.850; -216.000; -225.000
427.873;   -2.375; -499.000; -412.000
427.997;  -46.900; -222.000; -230.000
428.122;   56.500;  795.000;  703.000
428.246;   57.125;  433.000;  434.000
428.371; -141.200; -869.000; -773.000
428.495; -113.700; -624.000; -646.000
428.619;  -40.650; -186.000; -117.000
428.743;   -4.225;   65.000;  132.000
428.868;  -64.650; -732.000; -643.000
428.992;  628.175; -219.000; -326.000
429.116;  252.700; -329.000; -357.000
429.240;  137.675;  419.000;  426.000
429.365;  -36.100; -454.000; -574.000
429.489;  -55.075; -638.000; -647.000
429.613;   32.025; -236.000; -177.000
429.737;   67.075; -563.000; -432.000
429.861;  377.200; -247.000; -133.000
429.985; 7891.075; -425.000; -305.000
430.109; 9953.250; -770.000; -908.000
430.234; 1197.325;   76.000;  -50.000
430.358;  146.550; -250.000; -160.000
430.482;  -46.125; -672.000; -564.000
430.606;  -70.250; -655.000; -375.000
430.730;  -66.700; -437.000; -388.000
430.854;  -79.550; -909.000; -835.000
430.978; -105.575; -795.000; -764.000
431.102;  -81.950; -499.000; -422.000
431.226; -130.375; -874.000; -815.000
431.350;   19.975;  345.000;  422.000
431.474;  -92.800; -661.000; -373.000
431.597; -152.150;-1060.000; -848.000
431.721;  -81.050; -276.000; -267.000
431.845; -125.125; -704.000; -472.000
431.969;  -94.050; -304.000; -349.000
432.093;  -82.475; -395.000; -317.000
432.217;  -27.100;   32.000;   82.000
432.341;  -89.050; -523.000; -518.000
432.464;   -3.900;   96.000;   40.000
432.588;   -0.325; -401.000; -329.000
432.712;   10.625;  -52.000;  -52.000
432.836;   53.575;  213.000;  263.000
432.959;   13.100; -372.000; -311.000
433.083;  150.475;   11.000;    2.000
433.207;  562.450;  285.000;  930.000
433.330; 7592.875; -391.000; -200.000
433.454;10432.225; -654.000; -638.000
433.578; 5751.675;  583.000;  278.000
433.701; 1235.400; -623.000; -675.000
433.825;  148.400; -292.000; -299.000
433.949;   52.500;   28.000;  -72.000
434.072;   -7.200; -410.000; -323.000
434.196;  -23.825; -309.000; -117.000
434.319; 3518.025;25482.000;25124.000
434.443;  876.350; -656.000; -603.000
434.566; 4049.475;  281.000;   62.000
434.690;  858.025; -637.000; -383.000
434.813;  129.475; -251.000; -173.000
434.937;  -63.500; -569.000; -696.000
435.060;  -67.950; -423.000; -332.000
435.184;    2.550; -492.000; -217.000
435.307;   28.875;  159.000;  102.000
435.431;  -40.350;  -40.000;   24.000
435.554;  -69.825; -399.000; -240.000
435.677;  -92.450; -350.000; -258.000
435.801;  -53.050;  -25.000;   49.000
435.924;  -46.350;    1.000;  -67.000
436.048; -155.225;-1019.000; -732.000
436.171;  -71.175; -240.000;  -66.000
436.294;  -10.925; -248.000; -229.000
436.417;  208.600; -963.000; -849.000
436.541;  -20.225; -814.000; -840.000
436.664;  -53.200; -242.000; -316.000
436.787;  -32.600;   13.000;  113.000
436.910; -119.150; -792.000; -422.000
437.034;  -10.425;  142.000;  143.000
437.157;  -19.875;  -11.000;    0.000
437.280;  -66.750; -392.000; -292.000
437.403; -144.625; -982.000; -869.000
437.526;   67.425; -903.000; -865.000
437.649;  707.100; -505.000; -332.000
437.772;   42.725; -692.000; -540.000
437.896;   54.300;  700.000;  544.000
438.019; -103.075; -758.000; -503.000
438.142; -115.075; -596.000; -506.000
438.265;  -98.425; -639.000; -670.000
438.388;   68.500; -520.000; -410.000
438.511;  -54.500; -597.000; -394.000
438.634;  -77.550; -247.000; -125.000
438.757; -137.625; -693.000; -619.000
438.880;  -54.050;  -34.000;  -57.000
439.003;  -99.125; -417.000; -437.000
439.126;  -81.300; -287.000; -167.000
439.248;  -71.900;  -98.000; -139.000
439.371;  -42.750;    9.000;  -53.000
439.494;   12.650;  510.000;  439.000
439.617;  -69.900;   65.000;  -88.000
439.740; -176.125; -968.000; -816.000
439.863; -150.350; -755.000; -595.000
439.986; -110.250; -476.000; -431.000
440.108;  -63.525; -161.000; -112.000
440.231; -170.350; -950.000; -836.000
440.354;  -56.525;  -64.000; -150.000
440.477;  -93.650; -566.000; -542.000
440.599;  -87.250; -200.000; -225.000
440.722; -124.225; -709.000; -586.000
440.845;   42.275;  751.000;  928.000
440.968; -110.725; -415.000; -311.000
441.090;  -75.450; -199.000;  -33.000
441.213; -172.125;-1021.000; -825.000
441.336;  -64.000; -159.000;   -5.000
441.458;  -96.825; -549.000; -396.000
441.581; -126.775; -628.000; -629.000
441.703;  -81.375; -152.000;   13.000
441.826; -130.800; -557.000; -400.000
441.948;  -51.000;   56.000;   51.000
442.071;   -1.700;  555.000;  424.000
442.193; -123.350; -531.000; -485.000
442.316;  -11.925;  152.000;   97.000
442.438;   79.275; -233.000;  -10.000
442.561;   64.725;  272.000;  262.000
442.683;  103.450; -809.000; -522.000
442.806;  362.875;   -8.000;   74.000
442.928;  -87.850; -859.000; -604.000
443.051;  -79.300; -577.000; -373.000
443.173; -101.225; -341.000; -339.000
443.295;  -90.725; -263.000; -371.000
443.418;  -85.600; -321.000;  -29.000
443.540;  -56.700; -106.000;   -4.000
443.662; -132.975; -563.000; -465.000
443.785;  -25.700;  335.000;  199.000
443.907; -113.400; -362.000; -208.000
444.029; -132.100; -767.000; -494.000
444.152; -144.525; -644.000; -554.000
444.274;  -49.075;  -18.000;  -24.000
444.396; -116.625; -461.000; -221.000
444.518; -131.500; -691.000; -454.000
444.640;  -99.425; -268.000; -111.000
444.763;  -44.650;  388.000;  249.000
444.885; -116.050; -432.000; -392.000
445.007;  -44.650;   35.000;   86.000
445.129; -120.825; -610.000; -515.000
445.251; -104.150; -372.000; -439.000
445.373; -140.925; -537.000; -386.000
445.495;  -18.175;  242.000;  350.000
445.617;   22.425;  853.000;  753.000
445.739;  -84.325; -215.000;  -97.000
445.861;  -62.700; -245.000; -112.000
445.984;  -76.200; -267.000; -101.000
446.105;    9.850; -418.000; -251.000
446.227;  162.450; -176.000;  -19.000
446.349;  -71.450; -358.000; -249.000
446.471; -141.375; -615.000; -448.000
446.593;  -86.850; -316.000;   19.000
446.715;  -51.800;  -67.000;   41.000
446.837;   57.575;  697.000;  832.000
446.959; -119.350; -457.000; -478.000
447.081; -136.725; -628.000; -518.000
447.203;   40.650;  862.000;  834.000
447.325;  -99.200; -270.000;   42.000
447.446;  -11.050;  286.000;  530.000
447.568; -153.300; -921.000; -803.000
447.690;  -86.350; -236.000; -245.000
447.812; -160.075; -798.000; -519.000
447.933;  -34.725;  155.000;  127.000
448.055;  -65.425; -306.000; -261.000
448.177;   26.175;   31.000;   79.000
448.299;  -76.025; -935.000; -727.000
448.420;  -15.275;  -25.000;  159.000
448.542;  -61.775;   -3.000;   33.000
448.664;  -14.550;  109.000;  322.000
448.785;  -38.925;  265.000;   83.000
448.907; -107.275; -614.000; -353.000
449.028;  -95.150; -771.000; -471.000
449.150;   38.850;  492.000;  589.000
449.272; -180.900;-1044.000; -913.000
449.393;   18.825;  612.000;  694.000
449.515; -136.950; -634.000; -581.000
449.636;  -84.275; -264.000; -155.000
449.758;   34.275;  763.000;  622.000
449.879; -103.850; -498.000; -396.000
450.001;  -68.500; -149.000;  -49.000
450.122;  -40.200;  -95.000;  162.000
450.244;  -18.450;   37.000;  364.000
450.365;  -80.275; -495.000; -301.000
450.486;  -19.925;   80.000;  268.000
450.608;   34.400;  393.000;  326.000
450.729;  101.725;  578.000;  645.000
450.850;   75.725; -574.000; -466.000
450.972; 1193.450; -552.000; -389.000
451.093; 7721.825;  190.000;  588.000
451.214; 3972.100; -516.000; -337.000
451.336;  660.700;  773.000;  579.000
451.457;  117.100;  264.000;  393.000
451.578;  -24.125; -118.000;  -74.000
451.699; -108.950; -546.000; -540.000
451.821;  -58.150; -284.000;  -50.000
451.942;    4.575;  278.000;  285.000
452.063;   48.150;  228.000;  419.000
452.184;  809.050;  -54.000;  -49.000
452.305; 1710.050;  103.000;  170.000
452.427;  332.050; -549.000; -301.000
452.548;  -13.425;   23.000;   79.000
452.669;  -71.575; -257.000;  -89.000
452.790;  -69.500;    3.000;  -18.000
452.911;  -14.650;  195.000;  259.000
453.032;  -83.850; -289.000;  -60.000
453.153;  -47.575;  -29.000;   81.000
453.274;   42.275;  737.000;  868.000
453.395;  -73.150;  -51.000;  175.000
453.516;   87.675; 1317.000; 1388.000
453.637;  -86.650; -205.000; -150.000
453.758;  -74.225;   15.000;   69.000
453.879; -109.525; -462.000; -250.000
454.000;   52.575; 1086.000;  948.000
454.121; -145.575; -554.000; -326.000
454.242; -110.100; -599.000; -383.000
454.362;  -55.100;  -99.000;  114.000
454.483;  -28.475; -309.000; -229.000
454.604;   55.350;  512.000;  580.000
454.725; -132.775; -627.000; -555.000
454.846; -120.500; -474.000; -406.000
454.967;  -23.550;  230.000;  539.000
455.087;  -45.150;  179.000;  153.000
455.208;    9.150;  554.000;  856.000
455.329;  -69.425;  -22.000;   82.000
455.450;   53.475;  473.000;  633.000
455.570;  -54.425; -234.000; -211.000
455.691;  -58.300;  201.000;  407.000
455.812;  -79.975; -270.000;  -92.000
455.932;  -64.050;  107.000;  -97.000
456.053;  -77.300;   36.000;   24.000
456.173; -116.375; -433.000; -355.000
456.294; -128.425; -476.000; -303.000
456.415;  -64.500;  -73.000;   70.000
456.535;  -34.300;  297.000;  273.000
456.656;  -67.300;  132.000;  240.000
456.776;  -77.550;    3.000;  298.000
456.897;  -21.450;  308.000;  513.000
457.017;  -80.375; -153.000;   -3.000
457.138; -111.575; -402.000; -249.000
457.258;  -44.750;  263.000;  224.000
457.379;  -13.700;  509.000;  521.000
457.499;  -37.725;  443.000;  432.000
457.620; -115.725; -407.000; -231.000
457.740;  -88.025; -132.000;  -11.000
457.860;  -57.975;   87.000;   44.000
457.981;  -28.775;  132.000;  124.000
458.101;  -79.000;  -89.000;   40.000
458.221;  -20.975;  336.000;  402.000
458.342;  -66.150;   -4.000;  -37.000
458.462;   39.550;  617.000;  352.000
458.582;   16.850; -302.000; -294.000
458.703;   48.800;  303.000;  154.000
458.823;    0.875;   22.000;  163.000
458.943;   52.175;  341.000;  467.000
459.063;    6.425; 1124.000;  192.000
459.183;  -22.325;  328.000;  313.000
459.304;   -5.050;  315.000;  517.000
459.424;  -41.900; -246.000;  -89.000
459.544;  456.475;  388.000;  764.000
459.664; 1316.625;  499.000;  506.000
459.784;  498.900; 1004.000; 1175.000
459.904;   70.550;  867.000;  744.000
460.024;   43.200;  867.000;  684.000
460.144;  -10.100;  449.000;  554.000
460.264;  -33.500;  515.000;  327.000
460.385;  -90.225; -145.000; -119.000
460.505;   31.875;  905.000;  858.000
460.625;  -90.750;  -17.000;  -68.000
460.745;  -32.750;  396.000;  541.000
460.864;  -48.650;  153.000;  469.000
460.984;   32.150;  499.000;  573.000
461.104;  134.000; 1656.000; 1775.000
461.224;   12.350;  657.000;  650.000
461.344;  -44.500;  431.000;  360.000
461.464;  -32.200;  258.000;  513.000
461.584;  -38.175;  283.000;  466.000
461.704;  -64.400;   58.000;  108.000
461.824;  -49.050;  238.000;  259.000
461.943;  -57.150;  191.000;  130.000
462.063;  -72.475;    2.000;  324.000
462.183;   27.325;  639.000;  717.000
462.303;   73.775; 1678.000; 1230.000
462.422;   25.075;  781.000;  840.000
462.542;  -42.475;  271.000;  391.000
462.662;   34.000;  353.000;  380.000
462.782;  348.750;  833.000;  572.000
462.901;  731.775;  545.000;  717.000
463.021;  400.725; 1702.000; 1638.000
463.141;   13.800;  337.000;  770.000
463.260;  -13.100;  614.000;  474.000
463.380;   -2.450;  902.000;  884.000
463.499;  -34.525;  342.000;  332.000
463.619;  -33.225;  581.000;  559.000
463.738;  103.400; 1644.000;  903.000
463.858;   11.325;  657.000;  811.000
463.978;  -28.600;  542.000;  396.000
464.097;   39.975;  921.000; 1114.000
464.217;  149.225; 1196.000; 1143.000
464.336;  141.975; 1068.000; 1130.000
464.455;  -34.350;  328.000;  659.000
464.575;   -3.650;  597.000;  602.000
464.694;  111.375; 1204.000; 1179.000
464.814;  139.750; 1190.000; 1138.000
464.933;   79.675; 1095.000; 1027.000
465.052;   91.775; 1412.000; 1054.000
465.172;   75.500;  922.000;  799.000
465.291;   96.850; 1376.000; 1320.000
465.410;   14.125;  462.000;  735.000
465.530;   80.075; 1355.000; 1310.000
465.649;   71.125; 1209.000; 1273.000
465.768;  139.725; 1673.000; 1508.000
465.888;   53.175;  941.000; 1174.000
466.007;   94.700; 1335.000; 1440.000
466.126;   -6.575;  721.000;  641.000
466.245;   37.950; 1176.000; 1187.000
466.364;   15.650;  950.000; 1060.000
466.484;   53.175; 1024.000; 1213.000
466.603;   35.975; 1101.000; 1222.000
466.722;   96.100; 1490.000; 1769.000
466.841;   53.100; 1151.000; 1401.000
466.960;   24.450; 1069.000;  972.000
467.079;  132.825; 1971.000; 1786.000
467.198;   38.500; 1238.000; 1181.000
467.317;   77.700; 1768.000; 1162.000
467.436;   61.575; 1709.000; 1261.000
467.555;  126.875; 1796.000; 1746.000
467.674;   67.775; 1227.000; 1329.000
467.793;   49.900; 1376.000; 1374.000
467.912;   63.350; 1658.000; 1539.000
468.031;  129.750; 2038.000; 1930.000
468.150;  122.800; 1842.000; 1837.000
468.269;  168.125; 2313.000; 2090.000
468.388;  173.925; 2168.000; 2339.000
468.507;  221.250; 2884.000; 2903.000
468.626;  253.450; 2555.000; 2541.000
468.744;  139.850; 2018.000; 2174.000
468.863;  190.750; 2312.000; 2523.000
468.982;   85.550; 1503.000; 1555.000
469.101;  216.575; 2788.000; 2692.000
469.220;  156.475; 2333.000; 2176.000
469.338;  252.775; 2935.000; 3051.000
469.457;  215.225; 2719.000; 2545.000
469.576;  348.050; 3953.000; 3784.000
469.695;  252.725; 2877.000; 3066.000
469.813;  411.175; 4148.000; 4192.000
469.932;  398.850; 4255.000; 4485.000
470.051;  448.975; 4075.000; 4161.000
470.169; 1031.975; 4470.000; 4338.000
470.288; 2012.250; 4700.000; 4809.000
470.406; 1159.525; 5059.000; 5194.000
470.525;  667.400; 6101.000; 5787.000
470.644;  648.375; 6847.000; 6794.000
470.762;  780.125; 8397.000; 7873.000
470.881;  912.925; 8651.000; 8464.000
470.999; 1063.950; 9685.000; 9151.000
471.118; 1104.550;11174.000;10711.000

