
Integration time [ms]: 200.000
Averaging Nr. [scans]: 10
Smoothing Nr. [pixels]: 0
Data measured with spectrometer [name]: 2101012U2
Wave   ;Sample   ;Dark     ;Reference
[nm]   ;[counts] ;[counts] ;[counts] 

197.733;  130.600;  516.000;  404.000
197.879; -189.800; -610.000; -634.000
198.025;  -85.800; -475.000; -420.000
198.171; -174.300; -602.000; -612.000
198.317;  -50.400; -401.000; -316.000
198.463; -162.100; -655.000; -404.000
198.609;   92.600;  181.000; -137.000
198.755; -150.600; -644.000; -410.000
198.901; -130.400; -505.000; -424.000
199.047; -139.400; -615.000; -488.000
199.193;  -51.200; -230.000; -468.000
199.339;  -75.300; -222.000; -369.000
199.485;  126.800;  330.000;  271.000
199.631;   43.300;  227.000;  310.000
199.777;  -92.100; -466.000; -398.000
199.923; -139.500; -610.000; -424.000
200.069;   -4.700; -141.000;  -58.000
200.215;  125.200;  128.000;  453.000
200.361;  101.000;  243.000;  477.000
200.507; -124.900; -600.000; -373.000
200.653;  -46.400; -371.000; -194.000
200.798;  -60.800; -215.000; -125.000
200.944;    8.300; -146.000;  -41.000
201.090;   64.200;   61.000;  222.000
201.236;    6.700; -116.000; -158.000
201.382;  269.900;  874.000;  903.000
201.528;    4.400;  -58.000;  -48.000
201.674; -129.300; -386.000; -293.000
201.819; -110.300; -540.000; -439.000
201.965; -163.200; -699.000; -447.000
202.111;  -16.700; -273.000; -226.000
202.257;  -57.200; -250.000; -238.000
202.402;   34.600;   13.000;  -36.000
202.548;  -23.300; -169.000; -116.000
202.694;  197.400;  410.000; -183.000
202.840; -133.500; -603.000; -531.000
202.985; -169.400; -681.000; -639.000
203.131; -222.100; -832.000; -666.000
203.277;  -36.400; -199.000; -262.000
203.423; -109.300; -434.000; -520.000
203.568;  -60.300; -462.000; -237.000
203.714; -116.200; -535.000; -542.000
203.860; -131.200; -682.000; -641.000
204.005;   43.800;  112.000;  167.000
204.151;  177.600;  561.000;  556.000
204.296;  -75.600; -354.000; -221.000
204.442; -152.100; -600.000; -547.000
204.588; -138.600; -592.000; -579.000
204.733;   76.800;  178.000;  168.000
204.879; -278.000;-1018.000; -822.000
205.025;   41.400;  -99.000;  126.000
205.170;  -11.800;  -17.000;   94.000
205.316;  195.000;  438.000;  661.000
205.461; -166.300; -698.000; -554.000
205.607;  222.600;  609.000;  665.000
205.752; -151.000; -626.000; -551.000
205.898; -118.800; -501.000; -391.000
206.043; -102.700; -578.000; -506.000
206.189;  -85.100; -243.000; -285.000
206.334;  174.300;  554.000;  606.000
206.480;  165.100;  409.000;  239.000
206.625; -176.300; -529.000; -552.000
206.771;  -82.800; -451.000; -373.000
206.916;  -41.000; -210.000; -537.000
207.062; -136.900; -545.000; -591.000
207.207; -133.900; -546.000; -443.000
207.353;  159.400;  185.000;  460.000
207.498;   52.200;  196.000;   85.000
207.643; -100.100; -501.000; -370.000
207.789; -275.800;-1069.000; -910.000
207.934; -181.000; -665.000; -713.000
208.080;  -60.700; -154.000;   66.000
208.225;  -29.800;  -22.000;  -57.000
208.370; -152.400; -727.000; -619.000
208.516; -144.000; -741.000; -487.000
208.661;  -70.500; -127.000;  -69.000
208.806;   -3.200; -165.000; -171.000
208.952; -245.200;-1044.000; -731.000
209.097;  175.100;  378.000;  349.000
209.242; -105.900; -307.000; -382.000
209.387;  112.500;  392.000;  350.000
209.533;  -85.500; -321.000; -350.000
209.678;  164.200;  472.000;  543.000
209.823;  -94.600; -408.000; -310.000
209.969; -209.100; -860.000; -757.000
210.114; -228.300; -907.000; -719.000
210.259; -236.200; -939.000; -889.000
210.404;  -23.700; -171.000;  103.000
210.549;   27.600;  108.000;    3.000
210.695;  -32.100;   -3.000;  -95.000
210.840;   64.600;   94.000;   67.000
210.985; -129.200; -484.000; -303.000
211.130;  141.800;  268.000;  406.000
211.275;   56.200;  207.000;  199.000
211.420; -109.400; -300.000; -289.000
211.566; -130.000; -536.000; -489.000
211.711;   36.300;  218.000;  157.000
211.856; -118.700; -545.000; -519.000
212.001;   55.200;  151.000;   44.000
212.146;   40.800;  153.000;   49.000
212.291;  -36.400; -210.000; -186.000
212.436;  -68.100; -280.000;   -6.000
212.581; -158.300; -685.000; -653.000
212.726; -148.400; -487.000; -538.000
212.871;  -74.700; -552.000; -217.000
213.016; -345.900;-1172.000;-1029.000
213.161;  154.000;  406.000;  291.000
213.306; -145.300; -435.000; -577.000
213.451; -191.400; -778.000; -689.000
213.596;  -61.200; -455.000; -347.000
213.741; -129.700; -448.000; -538.000
213.886; -140.100; -498.000; -517.000
214.031;  -49.700; -294.000; -124.000
214.176;  -89.200; -408.000; -341.000
214.321;  -29.500; -296.000; -157.000
214.466;  -59.200; -163.000;  -43.000
214.611;   13.400;  -61.000;  -10.000
214.756; -255.800; -948.000; -858.000
214.901;  -22.500; -388.000; -226.000
215.046; -251.500; -797.000; -825.000
215.191;   28.000;  128.000;   35.000
215.336;  -37.700; -157.000;  -19.000
215.480; -142.900; -684.000; -505.000
215.625;    1.900; -175.000;  -19.000
215.770; -166.900; -757.000; -662.000
215.915;    7.800;   -5.000;  -97.000
216.060;    5.400; -113.000;  -21.000
216.205; -227.200; -731.000; -779.000
216.349; -143.000; -470.000; -533.000
216.494; -265.600; -939.000; -867.000
216.639; -253.300; -823.000; -888.000
216.784; -197.400; -577.000; -525.000
216.929;  157.000;  392.000;  281.000
217.073;  -35.100; -244.000;  -31.000
217.218;   19.500;   78.000;  -47.000
217.363; -168.500; -656.000; -618.000
217.507; -155.200; -623.000; -588.000
217.652; -241.700; -845.000; -874.000
217.797; -167.600; -708.000; -659.000
217.942; -227.900; -856.000; -720.000
218.086;  164.500;  608.000;  539.000
218.231;  -27.500; -174.000;  -26.000
218.376;  -76.000; -337.000; -229.000
218.520;    5.000;  -41.000;   96.000
218.665;  -65.800; -338.000; -204.000
218.810;  -74.700; -275.000; -233.000
218.954;   45.200;  201.000;   35.000
219.099; -232.500; -713.000; -963.000
219.243; -114.700; -589.000; -554.000
219.388;  -66.900; -264.000; -136.000
219.532;    2.600; -116.000; -116.000
219.677; -155.600; -564.000; -521.000
219.822;   59.500;   33.000;   89.000
219.966;   -8.800;   17.000;  -99.000
220.111;  -70.200; -328.000;  -40.000
220.255; -187.600; -797.000; -750.000
220.400;  -58.700; -180.000; -146.000
220.544; -115.700; -516.000; -450.000
220.689;  -77.700; -422.000; -451.000
220.833;  -23.600; -123.000;  -58.000
220.978;  -92.700; -393.000; -563.000
221.122;   46.500;  319.000;  307.000
221.267; -223.800; -906.000; -837.000
221.411; -109.900; -478.000; -394.000
221.555;   -7.300; -104.000;  -23.000
221.700; -108.500; -329.000; -222.000
221.844;   95.700;  255.000;  272.000
221.989;  -89.100; -328.000; -311.000
222.133;  -70.000; -289.000; -307.000
222.277;   -2.900;    5.000;   78.000
222.422;   64.800;  227.000;  113.000
222.566;  -67.900; -381.000; -214.000
222.711; -116.300; -414.000; -479.000
222.855; -173.900; -643.000; -586.000
222.999; -147.400; -642.000; -717.000
223.144;  -80.800; -195.000; -194.000
223.288;  122.200;  423.000;  251.000
223.432;   34.700;  184.000;  230.000
223.576;   73.700;  152.000;  -21.000
223.721;   80.700;  364.000;  273.000
223.865; -105.100; -472.000; -475.000
224.009;  547.500; 1673.000; 1631.000
224.153; -170.600; -660.000; -671.000
224.298; -136.600; -531.000; -489.000
224.442;   17.600;  -74.000;  -33.000
224.586;  -25.000; -169.000; -106.000
224.730; -202.800; -858.000; -670.000
224.875; -216.900; -739.000; -688.000
225.019;   10.400;  102.000;  188.000
225.163;  140.000;  208.000;  341.000
225.307;   27.500;   97.000;  -91.000
225.451;  107.200;  360.000;  481.000
225.595;  107.300;  264.000;  176.000
225.739;  -22.700; -170.000;  -94.000
225.884;   18.400;   86.000;    5.000
226.028; -176.100; -760.000; -626.000
226.172;  -52.500; -260.000; -273.000
226.316; -220.300; -941.000; -902.000
226.460; -139.300; -645.000; -493.000
226.604; -103.500; -406.000; -400.000
226.748; -225.100; -836.000; -733.000
226.892;  -51.900; -227.000; -181.000
227.036;  -84.400; -537.000; -447.000
227.180; -112.400; -551.000; -375.000
227.324; -129.300; -561.000; -580.000
227.468; -262.700; -819.000; -717.000
227.612;   28.500;  242.000;  -28.000
227.756; -186.600; -845.000; -698.000
227.900;  145.800;  342.000;  441.000
228.044; -126.100; -509.000; -290.000
228.188;  134.000;  448.000;  568.000
228.332; -168.800; -546.000; -472.000
228.476;  -26.600; -223.000; -149.000
228.620;  -74.600; -210.000; -150.000
228.764;  169.700;  431.000;  349.000
228.908;  -59.000; -155.000;   30.000
229.052; -110.800; -615.000; -528.000
229.195;  -23.600; -172.000;   13.000
229.339;  -16.600; -235.000; -305.000
229.483;  -33.300;    5.000; -162.000
229.627;   28.600; -156.000;  139.000
229.771;  -99.200; -218.000; -294.000
229.915;   51.400;  230.000;   79.000
230.059; -186.400; -648.000; -663.000
230.202;  -64.900; -370.000; -317.000
230.346;  -21.100; -107.000;  107.000
230.490; -111.800; -489.000; -521.000
230.634; -184.100; -736.000; -553.000
230.777;  179.700;  478.000;  509.000
230.921;  -96.500; -450.000; -359.000
231.065;  -70.900; -246.000; -286.000
231.209;   68.000;  261.000;  265.000
231.352;   65.200;   54.000;   40.000
231.496;   39.800;  568.000;  188.000
231.640; -155.100; -693.000; -621.000
231.783;  118.200;  546.000;  525.000
231.927;  -72.500; -294.000; -365.000
232.071; -239.600; -962.000; -736.000
232.214; -228.200; -980.000; -764.000
232.358; -199.100; -683.000; -599.000
232.502;   35.200;  -19.000;    7.000
232.645; -277.500;-1090.000; -927.000
232.789;  -21.600; -257.000; -218.000
232.933;  -76.600; -407.000; -224.000
233.076; -252.100;-1038.000; -897.000
233.220; -211.800; -752.000; -777.000
233.363; -118.700; -669.000; -477.000
233.507;  129.700;  371.000;  129.000
233.650; -187.400; -764.000; -834.000
233.794;  134.800;  438.000;  461.000
233.938; -127.000; -530.000; -362.000
234.081;  -49.900;  -93.000;   31.000
234.225; -154.000; -631.000; -539.000
234.368; -208.700; -773.000; -723.000
234.512;  -62.100; -385.000; -299.000
234.655; -153.700; -582.000; -555.000
234.798; -123.100; -493.000; -466.000
234.942; -260.200; -884.000;-1002.000
235.085; -120.700; -651.000; -443.000
235.229; -126.900; -405.000; -410.000
235.372;  -54.800; -247.000; -191.000
235.516;  -91.200; -397.000; -321.000
235.659;   57.400;   92.000;  121.000
235.802;  -31.100;  -38.000;  -22.000
235.946;   80.500;  335.000;  215.000
236.089;   50.000;  126.000;  250.000
236.233;  138.600;  275.000;  298.000
236.376; -112.000; -235.000; -378.000
236.519;  -60.100; -297.000; -319.000
236.663;  -24.400; -215.000; -117.000
236.806; -297.000;-1029.000; -999.000
236.949;  172.900;  543.000;  431.000
237.092;  100.500;  412.000;  391.000
237.236; -134.100; -589.000; -502.000
237.379;  188.200;  352.000;  428.000
237.522; -247.300; -879.000; -768.000
237.666;  -34.000; -271.000;   18.000
237.809; -246.100; -851.000; -823.000
237.952;  116.800;  469.000;  271.000
238.095; -144.300; -447.000; -442.000
238.238;  183.200;  688.000;  700.000
238.382;    5.600;  166.000;  103.000
238.525; -148.600; -598.000; -511.000
238.668; -278.500;-1060.000; -985.000
238.811; -158.100; -638.000; -643.000
238.954; -118.500; -483.000; -334.000
239.097;  235.100;  617.000;  664.000
239.241;   79.200;  394.000;  326.000
239.384;  -43.300; -254.000; -214.000
239.527; -119.100; -424.000; -224.000
239.670; -294.300; -994.000;-1091.000
239.813; -234.800; -696.000; -658.000
239.956;  199.400;  579.000;  473.000
240.099; -228.600; -778.000; -725.000
240.242;  161.700;  428.000;  432.000
240.385;   91.300;  466.000;  450.000
240.528; -128.700; -706.000; -473.000
240.671;   67.600;  189.000;  134.000
240.814;  -56.900; -441.000; -158.000
240.957; -203.500; -767.000; -578.000
241.100; -166.700; -779.000; -755.000
241.243; -293.100;-1234.000; -893.000
241.386; -103.300; -508.000; -379.000
241.529; -162.600; -735.000; -547.000
241.672; -120.900; -566.000; -495.000
241.815; -244.300; -832.000; -808.000
241.958;  -26.700; -125.000; -182.000
242.101; -180.500; -545.000; -390.000
242.244;  -70.200; -270.000; -325.000
242.387;  -54.500; -304.000; -246.000
242.530;  156.000;  470.000;  134.000
242.673;  -77.800; -381.000; -309.000
242.815; -212.900; -925.000; -899.000
242.958; -149.300; -482.000; -381.000
243.101;   49.300;  132.000;  187.000
243.244; -185.100; -564.000; -521.000
243.387;  -77.500; -313.000; -316.000
243.530; -201.700; -657.000; -674.000
243.672;   16.700;   43.000;  -92.000
243.815;  -81.900; -355.000; -283.000
243.958;   11.600;   98.000;  -26.000
244.101;   21.200;   59.000;  -16.000
244.243;   -3.900;  -47.000;  101.000
244.386; -201.600; -761.000; -630.000
244.529;   -1.400; -132.000; -139.000
244.672; -312.300;-1154.000; -951.000
244.814; -202.600; -621.000; -794.000
244.957;  -53.400; -380.000; -304.000
245.100; -114.500; -489.000; -489.000
245.242; -129.600; -387.000; -374.000
245.385;   22.300;  -59.000;  -39.000
245.528; -239.400; -871.000; -705.000
245.670;  208.900;  612.000;  634.000
245.813; -177.000; -599.000; -547.000
245.956;    1.000; -324.000; -275.000
246.098; -148.700; -508.000; -650.000
246.241;   35.300;  194.000;   48.000
246.383;  -18.000; -119.000;  -73.000
246.526; -142.200; -454.000; -525.000
246.669; -224.400; -889.000; -780.000
246.811;   34.800;  172.000;   -1.000
246.954; -129.200; -512.000; -426.000
247.096;  -35.300;  -84.000;   -6.000
247.239; -144.500; -482.000; -445.000
247.381; -113.600; -647.000; -488.000
247.524;  185.600;  645.000;  679.000
247.666;    7.200;   58.000;   11.000
247.809; -244.600; -887.000; -691.000
247.951;   -7.000;  -75.000;  138.000
248.094;   87.200;  432.000;  308.000
248.236; -308.600;-1262.000;-1238.000
248.378;   -2.200; -356.000;  -81.000
248.521;  -27.100; -334.000; -337.000
248.663;  -81.900; -236.000; -267.000
248.806;  -30.900; -300.000; -266.000
248.948; -236.300; -886.000; -763.000
249.090;  -85.800; -428.000; -398.000
249.233; -136.400; -344.000; -381.000
249.375; -121.300; -474.000; -451.000
249.518;   -8.600;  -83.000; -133.000
249.660;   19.300; -103.000;    3.000
249.802; -360.300;-1303.000;-1189.000
249.945; -141.400; -612.000; -540.000
250.087; -213.800; -834.000; -768.000
250.229;  -88.500; -362.000; -480.000
250.371; -151.300; -494.000; -439.000
250.514;  -62.400; -310.000; -244.000
250.656; -155.100;   69.000;  102.000
250.798; -177.700; -849.000; -800.000
250.940; -112.200; -322.000; -322.000
251.083;  -32.000; -335.000; -111.000
251.225;  121.600;  338.000;  310.000
251.367;  -50.200; -274.000; -373.000
251.509;  -71.200; -265.000; -210.000
251.651; -184.100; -731.000; -671.000
251.794;  135.500;  538.000;  632.000
251.936; -210.300; -821.000; -747.000
252.078; -162.600; -540.000; -461.000
252.220; -117.700; -645.000; -477.000
252.362;  178.500;  344.000;  462.000
252.504;  -98.800; -677.000; -584.000
252.646; -244.400; -875.000; -722.000
252.788;    2.300;   14.000; -128.000
252.931;  -63.600; -257.000; -253.000
253.073;  -38.400; -376.000; -317.000
253.215;   -5.900;  141.000;  122.000
253.357;    5.800;   82.000; -153.000
253.499;  -76.300; -374.000; -234.000
253.641; -150.800; -749.000; -594.000
253.783; -171.600; -609.000; -527.000
253.925; -149.400; -586.000; -591.000
254.067; -202.200; -744.000; -667.000
254.209;  -22.900; -391.000; -259.000
254.351; -257.500; -865.000; -883.000
254.493;  -95.400; -441.000; -417.000
254.635; -208.000; -936.000; -818.000
254.777; -150.900; -752.000; -687.000
254.918; -131.900; -512.000; -430.000
255.060;  -99.700; -551.000; -395.000
255.202; -122.900; -473.000; -261.000
255.344; -186.800; -658.000; -455.000
255.486; -135.800; -471.000; -406.000
255.628; -205.000; -780.000; -781.000
255.770; -190.500; -676.000; -536.000
255.912; -125.000; -559.000; -468.000
256.053; -159.000; -730.000; -508.000
256.195;  362.800; 1008.000;  903.000
256.337; -201.000; -861.000; -595.000
256.479;  143.800;  532.000;  416.000
256.621;  -84.700; -394.000; -212.000
256.762; -175.500; -789.000; -742.000
256.904;  138.000;  485.000;  487.000
257.046; -102.100; -381.000; -271.000
257.188;  -88.400; -351.000; -264.000
257.329; -100.100; -525.000; -464.000
257.471; -236.900; -939.000; -807.000
257.613;  -96.600; -584.000; -498.000
257.755; -277.500;-1073.000; -982.000
257.896;  108.000;  286.000;  392.000
258.038; -131.900; -403.000; -352.000
258.180;  -47.100; -354.000; -279.000
258.321; -136.400; -581.000; -457.000
258.463;   29.300;  -71.000;  133.000
258.605; -196.500; -562.000; -570.000
258.746; -197.300; -886.000; -772.000
258.888; -299.300;-1026.000;-1020.000
259.029;   61.600;  121.000;   -8.000
259.171; -182.200; -614.000; -550.000
259.313;   50.700;  -49.000;  -47.000
259.454; -138.800; -536.000; -414.000
259.596;  -83.600; -483.000; -390.000
259.737; -146.900; -590.000; -474.000
259.879;  124.700;  217.000;  311.000
260.020;  205.200;  901.000;  636.000
260.162;  -51.800; -146.000; -253.000
260.303; -236.300; -768.000; -687.000
260.445; -149.300; -609.000; -613.000
260.586;  101.000;  392.000;  157.000
260.728;  -68.200; -360.000; -248.000
260.869; -152.200; -350.000; -343.000
261.011;  220.300;  706.000;  537.000
261.152; -103.500; -479.000; -319.000
261.293; -123.800; -576.000; -595.000
261.435;  -47.200; -219.000; -184.000
261.576;  -68.400; -455.000; -325.000
261.718;  123.800;  420.000;  470.000
261.859; -264.500; -940.000; -949.000
262.000; -234.600; -951.000;-1016.000
262.142;  -27.100;  -52.000;  -60.000
262.283; -265.500; -808.000; -691.000
262.424; -153.600; -666.000; -625.000
262.566; -303.600;-1161.000; -983.000
262.707; -214.800; -840.000; -830.000
262.848; -200.200; -769.000; -726.000
262.990;  -79.900; -362.000; -345.000
263.131;  174.600;  650.000;  681.000
263.272;   35.500;  -61.000;  -41.000
263.413; -185.400; -589.000; -561.000
263.555; -110.100; -669.000; -143.000
263.696; -149.200; -550.000; -641.000
263.837; -107.500; -449.000; -551.000
263.978;    9.300;   -5.000;  -77.000
264.119;  -72.900; -283.000; -264.000
264.261; -218.300; -847.000; -630.000
264.402;   -4.800;   33.000;   40.000
264.543; -139.100; -509.000; -524.000
264.684;   26.300;   61.000;  -50.000
264.825; -110.200; -816.000; -538.000
264.966;   10.100;  -84.000;  -67.000
265.107; -223.200; -646.000; -670.000
265.248; -241.300; -825.000; -812.000
265.390;  -17.800;  152.000;   -9.000
265.531;  -10.400; -238.000; -107.000
265.672; -157.500; -557.000; -630.000
265.813;  136.700;  563.000;  439.000
265.954; -274.800; -959.000; -940.000
266.095;   19.700; -372.000; -322.000
266.236; -172.000; -686.000; -548.000
266.377;  -60.700; -243.000; -297.000
266.518; -141.100; -619.000; -547.000
266.659;   72.100;  170.000;  268.000
266.800;   32.500;   83.000;   85.000
266.941; -127.300; -487.000; -478.000
267.082;   39.400;  354.000;   99.000
267.223;  -68.900; -344.000; -273.000
267.364; -233.400; -892.000; -686.000
267.504;  -11.100;    3.000;  135.000
267.645;   22.200;  160.000;   67.000
267.786;  -41.400; -147.000;  -86.000
267.927; -144.200; -473.000; -379.000
268.068;  -13.600; -186.000;  -61.000
268.209;  -64.700; -175.000; -413.000
268.350; -102.900; -388.000; -532.000
268.490; -159.100; -648.000; -521.000
268.631;  107.000;  127.000;  225.000
268.772; -238.800; -874.000; -647.000
268.913;  -91.100; -328.000; -476.000
269.054;   12.600; -117.000;   12.000
269.194;  -70.400; -418.000; -402.000
269.335; -307.700;-1137.000;-1074.000
269.476;  -23.100;   33.000;  -35.000
269.617;  -95.600; -347.000; -392.000
269.757; -169.300; -713.000; -646.000
269.898; -177.400; -856.000; -613.000
270.039; -109.200; -415.000; -405.000
270.180; -280.900; -952.000; -816.000
270.320;  -25.800; -190.000; -250.000
270.461;  -70.500; -277.000; -249.000
270.602;   -2.300; -186.000; -156.000
270.742; -218.700; -868.000; -943.000
270.883;  -61.000; -442.000; -390.000
271.023;  -83.300; -358.000; -357.000
271.164; -143.600; -607.000; -528.000
271.305; -194.500; -666.000; -654.000
271.445; -197.100; -722.000; -683.000
271.586; -103.300; -462.000; -283.000
271.726;  -64.100; -397.000; -322.000
271.867; -103.700; -594.000; -534.000
272.008;  302.000; -473.000; -285.000
272.148;  263.000;  462.000;  468.000
272.289;   44.200; -113.000; -181.000
272.429;   38.800;   19.000;  185.000
272.570; -157.900; -633.000; -737.000
272.710; -202.400; -825.000; -775.000
272.851;   -7.000;  113.000; -130.000
272.991; -325.900;-1173.000;-1077.000
273.131; -121.800; -419.000; -459.000
273.272; -191.200; -683.000; -723.000
273.412;   47.400; -143.000;  -31.000
273.553;  -98.300; -488.000; -507.000
273.693;  299.600;  913.000;  858.000
273.834; -195.900; -894.000; -692.000
273.974; -134.500; -664.000; -615.000
274.114; -195.600; -772.000; -560.000
274.255;  181.100;  414.000;  373.000
274.395;   14.500; -180.000; -125.000
274.535;   92.600;  199.000;  350.000
274.676;   96.500;  225.000;   94.000
274.816;   32.000;  110.000;   34.000
274.956; -154.800; -624.000; -690.000
275.097; -152.300;-1014.000; -922.000
275.237; -216.700; -913.000; -803.000
275.377; -170.100; -778.000; -689.000
275.517; -265.200; -878.000; -937.000
275.658;  -67.100; -590.000; -555.000
275.798; -128.800; -606.000; -413.000
275.938;   71.200;  215.000;  323.000
276.078; -135.200; -626.000; -395.000
276.218;   46.400;   99.000;  104.000
276.359; -279.600;-1026.000;-1024.000
276.499; -120.500; -605.000; -446.000
276.639;  -46.700; -305.000; -151.000
276.779;  -60.200; -475.000; -357.000
276.919; -186.700; -783.000; -624.000
277.059;   -7.800; -261.000; -212.000
277.199;  -95.000; -357.000; -259.000
277.340;  133.200;  287.000;  175.000
277.480; -217.200; -840.000; -693.000
277.620;   81.000;  192.000;   16.000
277.760; -374.400;-1533.000;-1294.000
277.900;   52.500;  113.000;   33.000
278.040;   56.600;  137.000;  159.000
278.180;   97.200;  270.000;  170.000
278.320;   38.300;   21.000;   56.000
278.460; -128.900; -443.000; -469.000
278.600; -145.700; -708.000; -598.000
278.740;  124.000;  448.000;  224.000
278.880; -120.100; -768.000; -791.000
279.020;   37.600; -194.000; -144.000
279.160; -169.700; -672.000; -595.000
279.300; -208.800; -926.000; -873.000
279.440; -194.800; -709.000; -622.000
279.579;  -92.100;-1014.000; -929.000
279.719;  -88.100; -410.000; -394.000
279.859;  125.800;   -4.000;   41.000
279.999;   56.600; -208.000;  101.000
280.139;  -12.300; -435.000; -387.000
280.279; -150.400; -708.000; -745.000
280.419;  -11.700; -229.000; -147.000
280.559;  -44.400; -259.000; -180.000
280.698; -142.400; -790.000; -639.000
280.838; -200.400; -778.000; -800.000
280.978; -186.700; -846.000; -790.000
281.118; -241.000; -811.000; -704.000
281.257;   56.000;   24.000;    6.000
281.397; -227.000;-1094.000; -960.000
281.537; -173.100; -599.000; -712.000
281.677;   25.500; -150.000; -101.000
281.816; -175.100; -700.000; -630.000
281.956;  -27.800; -193.000; -257.000
282.096;  -90.100; -539.000; -396.000
282.235; -194.700; -672.000; -638.000
282.375;   -2.500; -243.000;  -98.000
282.515; -187.600; -715.000; -707.000
282.654;   83.400;   29.000;  106.000
282.794;   80.500;  388.000;  244.000
282.934;  -68.000; -530.000; -491.000
283.073; -244.700;-1030.000; -857.000
283.213;  -44.200; -460.000; -467.000
283.353;  -73.600; -408.000; -349.000
283.492;  -66.700; -264.000; -296.000
283.632;  -66.100; -254.000; -168.000
283.771; -166.600; -859.000; -730.000
283.911;  -66.300; -369.000; -260.000
284.050; -188.700; -794.000; -748.000
284.190; -322.800;-1229.000;-1096.000
284.329; -276.800;-1055.000; -964.000
284.469; -135.700; -516.000; -591.000
284.608;  -84.100; -559.000; -598.000
284.748; -163.900; -614.000; -570.000
284.887;   37.500;  -87.000;  -20.000
285.027; -241.500; -844.000; -892.000
285.166;  -30.800; -192.000; -249.000
285.306;   22.800; -116.000;  -33.000
285.445;  -28.500; -229.000; -343.000
285.584; -159.500; -630.000; -494.000
285.724;  -49.100; -282.000; -322.000
285.863; -217.400; -857.000; -507.000
286.002;  -92.200; -366.000; -276.000
286.142; -217.500; -715.000; -622.000
286.281; -116.300; -525.000; -493.000
286.420; -112.800; -554.000; -417.000
286.560;  195.600;  653.000;  623.000
286.699; -260.700; -958.000; -912.000
286.838; -158.400; -590.000; -591.000
286.978; -163.600; -533.000; -537.000
287.117; -262.400;-1085.000; -950.000
287.256;  -80.000; -228.000; -211.000
287.395;  -75.700; -197.000; -378.000
287.535;  -82.600; -370.000; -298.000
287.674; -133.700; -509.000; -484.000
287.813;  135.100;  661.000;  533.000
287.952; -215.600;-1010.000; -871.000
288.091; -285.400;-1049.000; -915.000
288.231;   57.100;   13.000;   15.000
288.370; -328.100;-1217.000;-1200.000
288.509; -168.200; -728.000; -645.000
288.648; -155.500; -770.000; -548.000
288.787;  -11.700; -243.000;  -87.000
288.926; -102.100; -454.000; -475.000
289.065;  277.900;  859.000;  672.000
289.204;  -71.800; -377.000; -217.000
289.344; -173.700; -791.000; -690.000
289.483;   82.200;  416.000;  304.000
289.622;  -21.500; -291.000; -149.000
289.761;  -16.600; -309.000; -166.000
289.900; -171.600; -785.000; -626.000
290.039;   -6.600;  -12.000;  -95.000
290.178;  -49.500; -274.000; -180.000
290.317; -156.200; -618.000; -479.000
290.456;  -87.100; -463.000; -451.000
290.595; -236.000; -961.000; -833.000
290.734; -229.900; -904.000; -891.000
290.873; -128.600; -456.000; -420.000
291.011; -179.400; -833.000; -843.000
291.150; -203.900; -770.000; -682.000
291.289;   -7.800; -343.000; -110.000
291.428; -172.900; -599.000; -480.000
291.567; -101.600; -370.000; -442.000
291.706;   15.000;  109.000;  154.000
291.845; -140.400; -597.000; -505.000
291.984; -339.100;-1234.000;-1061.000
292.122;  177.200;  602.000;  582.000
292.261;  109.700;  620.000;  463.000
292.400;   44.600; -144.000;  211.000
292.539; -209.900; -959.000; -813.000
292.678;  -36.700; -325.000; -300.000
292.816; -310.300;-1136.000; -965.000
292.955; -151.600; -844.000; -684.000
293.094;  -25.100; -173.000; -337.000
293.233;  -77.500; -556.000; -400.000
293.371;  -28.000; -225.000;  -84.000
293.510; -187.500; -866.000; -780.000
293.649; -243.900; -959.000; -924.000
293.787; -145.300;-1083.000;-1012.000
293.926;   13.300; -113.000;  -32.000
294.065;  -55.200; -379.000; -290.000
294.203;  170.600;  298.000;  406.000
294.342;   87.600;   74.000;  156.000
294.481;11620.700;51180.000; -836.000
294.619;  -19.500; -425.000; -582.000
294.758; -294.000;-1230.000;-1137.000
294.896;  168.300; -125.000;    5.000
295.035; -259.900;-1040.000;-1006.000
295.174; -222.400;-1082.000; -954.000
295.312; -106.100; -323.000; -203.000
295.451;  -22.900; -307.000; -428.000
295.589;  -77.300; -389.000; -518.000
295.728;   63.000; -292.000; -165.000
295.866;   21.700;  -36.000;  -51.000
296.005; -135.500; -584.000; -341.000
296.143; -137.000; -558.000; -596.000
296.282; -196.400; -957.000; -881.000
296.420; -156.400; -657.000; -557.000
296.559; -143.800; -892.000; -633.000
296.697;   16.200; -847.000; -665.000
296.835;   21.300;-1141.000;-1002.000
296.974;  115.000;  -23.000;   39.000
297.112;   33.500; -443.000; -504.000
297.251; -147.500; -815.000; -755.000
297.389;  112.500; -576.000; -438.000
297.527;   62.700; -145.000;  -83.000
297.666; -112.900; -486.000; -438.000
297.804;  -78.800; -404.000; -264.000
297.942;   11.000; -136.000; -161.000
298.081;   14.600; -183.000;   63.000
298.219;   94.400;  -17.000;  -19.000
298.357;   89.400; -144.000;  -71.000
298.495;   35.200; -810.000; -812.000
298.634;  123.300;  245.000;  219.000
298.772;  100.700; -220.000; -338.000
298.910;  -88.000; -309.000; -182.000
299.048;   19.600; -130.000; -153.000
299.187;  -42.400; -350.000; -250.000
299.325;   52.300;   52.000;  122.000
299.463;   26.100; -389.000; -299.000
299.601;  179.800; -327.000; -271.000
299.739; -230.400; -908.000; -883.000
299.877; -172.900; -791.000; -703.000
300.016; -140.200;-1095.000; -935.000
300.154;  272.300;  -19.000; -161.000
300.292;   76.000; -428.000; -348.000
300.430;   65.700; -408.000; -291.000
300.568; -208.600; -940.000; -874.000
300.706;  -95.400; -366.000; -469.000
300.844; -174.500;-1108.000; -979.000
300.982;  223.500;  246.000;  282.000
301.120; -233.900; -965.000; -866.000
301.258; -137.000; -812.000; -705.000
301.396;  103.200;  104.000;  -41.000
301.534;  109.400; -218.000; -293.000
301.672;  -41.500; -664.000; -521.000
301.810;   40.300; -613.000; -545.000
301.948;  251.600;   53.000;  149.000
302.086;  900.700; -250.000;  -32.000
302.224; 1425.900; -610.000; -585.000
302.362;   75.100; -558.000; -622.000
302.500; -113.100; -923.000; -893.000
302.638;  202.200;  128.000;  245.000
302.776;   13.500; -352.000; -408.000
302.913;  173.600;  447.000;  236.000
303.051;   16.200;  -86.000;  -23.000
303.189;   85.300;   90.000;  118.000
303.327;  -62.700; -341.000; -256.000
303.465; -146.900; -832.000; -588.000
303.603; -151.300; -805.000; -604.000
303.740;  168.400;  417.000;  241.000
303.878;   32.600; -800.000; -759.000
304.016; -175.700; -915.000; -790.000
304.154; -269.300;-1123.000;-1152.000
304.291;  -53.700; -505.000; -554.000
304.429;   26.700;  102.000;   74.000
304.567; -234.300; -908.000; -893.000
304.705;  -83.700; -408.000; -515.000
304.842;  114.500; -616.000; -540.000
304.980;  154.000;  215.000;   35.000
305.118;   79.600; -367.000; -365.000
305.255; -158.400; -945.000; -927.000
305.393;  127.900;  178.000;  239.000
305.531; -240.200;-1173.000; -956.000
305.668; -119.500; -663.000; -582.000
305.806;  162.800; -358.000; -439.000
305.943;  165.900; -629.000; -637.000
306.081;   77.400; -378.000; -267.000
306.219; -175.600; -863.000; -748.000
306.356;   45.100;  158.000;   27.000
306.494;  267.100;  981.000;  761.000
306.631;   34.800;  -11.000;  -55.000
306.769;   12.500; -613.000; -485.000
306.906;  -26.900; -284.000; -258.000
307.044;  -66.200; -473.000; -488.000
307.181;  -97.500; -410.000; -332.000
307.319;  119.700;  112.000;   87.000
307.456; -339.600;-1191.000;-1153.000
307.594; -186.200; -980.000; -727.000
307.731;   39.000; -371.000; -164.000
307.868;   59.200;  -15.000;   20.000
308.006; -248.500; -961.000; -847.000
308.143; -109.900; -618.000; -330.000
308.281;  371.900;  -37.000; -254.000
308.418;    8.700; -748.000; -640.000
308.555; -116.000; -400.000; -250.000
308.693; -115.100; -577.000; -573.000
308.830; -175.300; -712.000; -657.000
308.967;   -2.500; -215.000;  -95.000
309.105;  -44.100; -507.000; -396.000
309.242;  107.600; -468.000; -367.000
309.379;  648.600; -577.000; -655.000
309.517; -112.100; -936.000; -948.000
309.654; -170.600; -910.000; -734.000
309.791; -110.000; -662.000; -580.000
309.928; -231.600; -977.000; -914.000
310.065;  367.200;  819.000;  697.000
310.203;  -34.800; -825.000; -850.000
310.340;    2.600; -465.000; -321.000
310.477; -134.200; -412.000; -516.000
310.614; -101.700; -383.000; -473.000
310.751; -131.700; -427.000; -518.000
310.889;  -30.000;    1.000;   11.000
311.026; -296.900;-1161.000; -939.000
311.163;  -59.700; -386.000; -380.000
311.300; -113.900; -512.000; -479.000
311.437; -132.000; -658.000; -619.000
311.574; -314.700;-1226.000; -985.000
311.711;  -95.400; -595.000; -433.000
311.848;  -48.400; -380.000; -388.000
311.985;   59.100;  270.000;   93.000
312.122; -213.000; -932.000; -762.000
312.259; -179.900; -941.000; -994.000
312.396; -135.700; -508.000; -551.000
312.533; -123.200; -812.000; -790.000
312.670; -264.600;-1070.000; -898.000
312.807;  -20.400; -352.000; -367.000
312.944; -111.300; -513.000; -611.000
313.081;  -72.400; -150.000; -415.000
313.218; -177.800;-1111.000; -867.000
313.355;   36.200; -531.000; -449.000
313.492;   25.000; -455.000; -292.000
313.629;  316.500;  815.000;  735.000
313.766; -299.100;-1176.000;-1008.000
313.902;   11.200; -186.000;   21.000
314.039;  -73.400; -372.000; -289.000
314.176;   88.000;  286.000;  192.000
314.313; -134.300; -569.000; -473.000
314.450; -143.100; -788.000; -684.000
314.587; -113.800; -468.000; -480.000
314.723;   40.100;  -78.000;  130.000
314.860;  114.200;  318.000;  332.000
314.997;   96.600;  223.000;  142.000
315.134;  -80.400; -385.000; -368.000
315.270;  -37.700; -480.000; -496.000
315.407; -242.800;-1094.000; -967.000
315.544;  -80.000; -657.000; -538.000
315.681; -150.100; -681.000; -565.000
315.817;   58.900; -133.000; -176.000
315.954;   -6.100; -613.000; -392.000
316.091; -239.200;-1045.000;-1023.000
316.227;    9.200;  -71.000; -179.000
316.364;   47.700;   23.000;    6.000
316.500; -100.400; -113.000; -300.000
316.637;  -46.100; -181.000; -302.000
316.774; -162.300; -625.000; -358.000
316.910; -162.000; -598.000; -629.000
317.047; -119.500; -487.000; -351.000
317.183;  -92.500; -435.000; -566.000
317.320;   42.700; -367.000; -321.000
317.456;  -94.700; -733.000; -805.000
317.593; -161.000; -598.000; -641.000
317.729;   78.200;  168.000;  -67.000
317.866; -394.700;-1434.000;-1285.000
318.002; -157.800; -708.000; -948.000
318.139; -175.300; -883.000; -867.000
318.275; -196.100;-1003.000; -738.000
318.412; -100.200; -517.000; -336.000
318.548;  -62.200; -751.000; -720.000
318.685; -184.600; -985.000; -888.000
318.821; -156.100; -762.000; -735.000
318.957;   -6.300;   34.000;  -23.000
319.094;  137.300;  297.000;  154.000
319.230; -123.700; -756.000; -742.000
319.367;  207.400; -471.000; -520.000
319.503;   96.000; -538.000; -436.000
319.639; -179.500; -877.000; -793.000
319.775; -109.000; -750.000; -685.000
319.912;  -80.200; -424.000; -519.000
320.048; -201.600;-1184.000;-1184.000
320.184;  207.000;   59.000;   70.000
320.321; -109.700; -497.000; -467.000
320.457;  194.200;  475.000;  662.000
320.593;  -86.100; -375.000; -382.000
320.729; -202.700; -732.000; -734.000
320.866; -111.200; -577.000; -635.000
321.002; -119.600; -759.000; -809.000
321.138;    8.500; -135.000; -211.000
321.274;  163.400; -148.000; -115.000
321.410;  -50.800; -585.000; -353.000
321.546;  -78.700;-1011.000; -911.000
321.683;  132.900;  400.000;  185.000
321.819;   60.100;  -48.000; -117.000
321.955; -185.500; -743.000; -722.000
322.091;  -72.900; -585.000; -540.000
322.227;   -4.600; -382.000; -202.000
322.363;   -5.900; -320.000; -215.000
322.499;  -68.700; -343.000; -331.000
322.635;  352.600;  636.000;  443.000
322.771;   57.800; -139.000;   12.000
322.907;  234.600;  129.000;  327.000
323.043;   -5.100; -115.000; -206.000
323.179;  -54.800; -394.000; -363.000
323.315;   -7.300; -401.000; -371.000
323.451;  146.800; -328.000; -236.000
323.587;  142.300;  -60.000;  -77.000
323.723;   25.400; -682.000; -601.000
323.859;   -6.000; -258.000;  -76.000
323.995;  -37.100; -467.000; -409.000
324.131; -222.400; -967.000; -892.000
324.267;  -28.800; -254.000; -276.000
324.402; -243.800; -960.000; -983.000
324.538;  -35.000; -279.000; -104.000
324.674;   62.100;  164.000;   77.000
324.810;  251.500;  226.000;  308.000
324.946;  -20.600; -810.000; -658.000
325.082; -106.200; -568.000; -475.000
325.217;   35.700;  -62.000;   16.000
325.353; -184.200; -764.000; -659.000
325.489; -139.600; -540.000; -506.000
325.625; -106.000; -579.000; -525.000
325.760;  139.100;  517.000;  376.000
325.896;  -21.500; -515.000; -702.000
326.032;  -84.300; -403.000; -352.000
326.168;  -96.400; -462.000; -369.000
326.303;  -69.300; -352.000; -461.000
326.439;    6.100; -336.000; -276.000
326.575;   22.100; -190.000;  -29.000
326.710;   25.300; -156.000;  -30.000
326.846;  -11.600;  146.000;  103.000
326.982; -153.000; -530.000; -548.000
327.117; -116.400; -481.000; -442.000
327.253; -140.000; -745.000; -742.000
327.388; -248.100;-1137.000;-1153.000
327.524;  -63.400; -811.000; -578.000
327.659;  -31.900;  -58.000;  -22.000
327.795;   53.700;   69.000;   45.000
327.931; -164.000; -723.000; -499.000
328.066;  -18.300; -417.000; -276.000
328.202;   -8.800;   12.000; -129.000
328.337;  233.200;  957.000;  713.000
328.473;   32.200;  -12.000;  -74.000
328.608;   -4.500; -256.000; -267.000
328.743; -178.900; -799.000; -664.000
328.879;   92.100;  214.000;  114.000
329.014;  -84.500; -102.000; -122.000
329.150; -145.100; -358.000; -483.000
329.285;  -88.600; -465.000; -466.000
329.421;  -24.600; -548.000; -246.000
329.556;    3.100;  -36.000;   85.000
329.691; -139.400; -633.000; -615.000
329.827; -129.100; -626.000; -480.000
329.962;  -50.500;  131.000; -301.000
330.097; -169.100; -673.000; -585.000
330.233;  -42.800; -410.000; -223.000
330.368; -206.300; -839.000; -628.000
330.503;   36.200;    3.000;   98.000
330.638;   35.700;  -93.000; -125.000
330.774; -113.400; -609.000; -530.000
330.909;  -64.400; -434.000; -244.000
331.044; -171.800; -714.000; -708.000
331.179; -341.500;-1217.000;-1109.000
331.315;   69.000;   77.000;   20.000
331.450;   64.900;  157.000;  285.000
331.585; -164.500; -805.000; -706.000
331.720; -175.300; -510.000; -460.000
331.855;   -8.700;  -35.000; -102.000
331.990;  462.800;   62.000;  138.000
332.126;  347.000; -110.000;   71.000
332.261;  -17.900; -379.000; -265.000
332.396;   37.100; -135.000; -242.000
332.531; -178.800;-1074.000;-1031.000
332.666;  120.000; -519.000; -363.000
332.801; -168.300; -726.000; -807.000
332.936;  -19.000; -192.000; -122.000
333.071; -275.100; -870.000; -817.000
333.206;   93.900;  307.000;  379.000
333.341;   62.600;  344.000;  418.000
333.476; -167.700; -627.000; -623.000
333.611;  -23.300; -251.000; -173.000
333.746;  -59.300; -381.000; -464.000
333.881; -230.400; -973.000; -935.000
334.016; -228.500; -936.000; -917.000
334.151; -212.900; -746.000; -702.000
334.286;   43.200;  152.000;  186.000
334.421;   -2.500; -125.000; -178.000
334.556; -144.800; -611.000; -567.000
334.690; -173.300; -631.000; -577.000
334.825;  149.200;  381.000;   83.000
334.960;  -98.100; -285.000; -413.000
335.095;   52.500;  135.000;  -91.000
335.230; -206.800; -722.000; -738.000
335.365; -270.900;-1084.000; -990.000
335.499; -246.800;-1108.000;-1037.000
335.634;   59.900;    9.000;  534.000
335.769; -196.600; -755.000; -720.000
335.904;  -91.000; -603.000; -561.000
336.038; -101.300; -735.000; -657.000
336.173; -237.800;-1206.000;-1194.000
336.308;    5.200; -116.000; -189.000
336.443;   72.800; -544.000; -634.000
336.577; -162.600; -936.000; -787.000
336.712;  132.300;   -4.000;  -12.000
336.847;  -53.300; -724.000; -607.000
336.981;  109.200; -272.000; -208.000
337.116;  481.200;  615.000;  501.000
337.250;  239.200; -434.000; -421.000
337.385;  507.000; -297.000; -208.000
337.520;  182.300; -632.000; -603.000
337.654;  -43.700; -215.000; -126.000
337.789; -228.300; -989.000; -933.000
337.923;  -53.500; -104.000; -205.000
338.058; -140.600; -673.000; -738.000
338.192;  -70.200; -611.000; -488.000
338.327;   29.400;  -18.000; -155.000
338.461;  -99.300; -299.000; -469.000
338.596; -129.700; -780.000; -638.000
338.730; -170.300; -767.000; -803.000
338.865;  251.800;  -46.000; -140.000
338.999;  -76.800; -846.000; -702.000
339.134;  -45.400; -634.000; -536.000
339.268;   44.000; -741.000; -603.000
339.403;  677.500; -740.000; -775.000
339.537;  254.000; -894.000; -820.000
339.671; -198.300; -829.000; -813.000
339.806;  -80.300; -556.000; -512.000
339.940;   71.600; -261.000; -235.000
340.074; -165.100; -685.000; -510.000
340.209;  -62.700; -351.000; -230.000
340.343; -159.200; -517.000; -573.000
340.477;  361.900;  998.000; 1036.000
340.612;  -82.100;-1033.000; -900.000
340.746;  265.100; -199.000; -243.000
340.880; -124.600; -924.000; -785.000
341.014;    0.500;  -45.000; -154.000
341.149; -202.500; -756.000; -718.000
341.283; -180.300; -839.000; -754.000
341.417; -204.100;-1124.000; -938.000
341.551;  173.300; -768.000; -708.000
341.685;  -46.300; -633.000; -611.000
341.820;  -61.100; -562.000; -493.000
341.954;  -76.300; -218.000; -349.000
342.088; -256.100;-1102.000;-1019.000
342.222;  122.200;  565.000;  618.000
342.356;  -91.900; -395.000; -335.000
342.490; -179.400; -880.000; -841.000
342.624;  -53.300; -339.000; -242.000
342.758;   28.600; -364.000; -312.000
342.892; -121.600; -710.000; -585.000
343.026;  -55.000;  -58.000; -116.000
343.160;  -69.000; -426.000; -376.000
343.294; -147.000; -474.000; -337.000
343.428;  -28.000; -488.000; -448.000
343.562;   19.600; -172.000;  -23.000
343.696;  -27.500; -385.000; -314.000
343.830;  -14.100; -362.000; -356.000
343.964;   53.600; -231.000; -168.000
344.098; 1404.800;  199.000;   70.000
344.232; 1143.300; -266.000; -127.000
344.366;  128.600; -567.000; -453.000
344.500;  120.800; -665.000; -744.000
344.634;   71.200; -324.000; -164.000
344.768;    3.200; -531.000; -341.000
344.902;   69.800;  278.000;  256.000
345.035;  -95.800; -556.000; -496.000
345.169; -245.900; -933.000; -656.000
345.303;  -25.600; -308.000; -482.000
345.437; -160.300; -826.000; -717.000
345.571; -135.700; -675.000; -594.000
345.704;  -99.900; -309.000; -532.000
345.838;   26.800; -331.000; -284.000
345.972;  -61.700; -543.000; -495.000
346.106;  345.400; -179.000; -190.000
346.239;  728.400; -312.000; -243.000
346.373;    6.400; -343.000; -302.000
346.507; -283.200; -950.000; -962.000
346.640;  252.900;  -30.000;   13.000
346.774;  -67.500; -650.000; -797.000
346.908;   -1.800; -138.000;  -11.000
347.041; -161.700; -646.000; -593.000
347.175;   70.800;  259.000;   27.000
347.309; -129.400; -698.000; -628.000
347.442; -188.200; -883.000; -732.000
347.576;  492.500;  670.000;  668.000
347.709;  342.800; -123.000;  -52.000
347.843; -177.800; -933.000; -825.000
347.976;  135.000;  235.000;  294.000
348.110; -334.500;-1268.000;-1186.000
348.243; -194.600; -679.000; -772.000
348.377;   47.300;  -26.000;   60.000
348.510;  176.800;  403.000;  540.000
348.644;  -33.900;  -37.000; -159.000
348.777;   29.900;  180.000;  191.000
348.911;  -87.000; -142.000; -112.000
349.044;  319.300;  471.000;  448.000
349.178;  156.800;-1069.000;-1006.000
349.311;  251.900;  141.000;  255.000
349.444;    4.200; -927.000; -813.000
349.578;    2.700; -347.000; -200.000
349.711; -201.900; -959.000; -862.000
349.845;   -1.200; -661.000; -591.000
349.978; -298.000;-1224.000;-1137.000
350.111; -107.900; -546.000; -612.000
350.244; -161.200; -596.000; -700.000
350.378;   22.100; -392.000; -393.000
350.511;  -86.100; -393.000; -426.000
350.644; -161.000; -808.000; -806.000
350.778;   58.400;  168.000;  104.000
350.911;   81.100;  134.000;  140.000
351.044; -162.100; -685.000; -615.000
351.177;  -33.400; -321.000; -281.000
351.310;   -1.300;    3.000; -131.000
351.444; -136.100; -888.000; -788.000
351.577;  220.700;  140.000;   90.000
351.710;  268.000;  593.000;  417.000
351.843;  -44.200; -165.000;  -77.000
351.976;   48.200;  149.000;  -79.000
352.109; -155.700; -621.000; -612.000
352.242;  -44.300; -464.000; -419.000
352.376; -103.500; -580.000; -636.000
352.509;  280.900; -437.000; -356.000
352.642;  -56.000; -654.000; -604.000
352.775;  141.600; -141.000;  -98.000
352.908; -224.300; -933.000; -904.000
353.041; -167.600; -814.000; -824.000
353.174; -117.200; -551.000; -424.000
353.307; -125.100; -753.000; -764.000
353.440;  163.400;  541.000;  453.000
353.573; -180.200; -957.000;-1008.000
353.706; -106.700; -384.000; -558.000
353.839;    5.600; -264.000; -220.000
353.971; -170.300; -657.000; -512.000
354.104; -148.000; -896.000; -835.000
354.237;  -65.600; -627.000; -662.000
354.370; -122.800; -846.000; -879.000
354.503; -354.900;-1231.000;-1308.000
354.636;  -45.900; -529.000; -348.000
354.769; -212.100; -937.000; -860.000
354.902;    9.700; -230.000; -139.000
355.034;  -34.900; -164.000; -220.000
355.167;  -12.300; -262.000; -162.000
355.300; -170.700;-1061.000; -880.000
355.433; 1877.800;  -71.000;  -14.000
355.565; 2875.900; -402.000; -384.000
355.698;  756.500; -356.000; -296.000
355.831;   -0.800; -882.000; -801.000
355.964;  166.000; -285.000; -170.000
356.096; -171.400; -856.000; -843.000
356.229;   35.800; -523.000; -530.000
356.362;  645.000; -373.000; -266.000
356.494; 1202.400; -229.000; -162.000
356.627;  787.400;  269.000;  377.000
356.760; 1291.600;  120.000;   53.000
356.892; 1847.500; -286.000; -601.000
357.025; 1116.900;  403.000;  389.000
357.157;  987.800; -167.000; -179.000
357.290; 1313.900; -856.000; -713.000
357.423;  385.100; -667.000; -556.000
357.555;  229.700; -217.000; -228.000
357.688;  176.900; -483.000; -364.000
357.820;  690.600; -870.000; -877.000
357.953; 5788.800; -563.000; -589.000
358.085; 1230.400; -632.000; -612.000
358.218; 1630.000;-1131.000; -932.000
358.350;  337.900;  -58.000;  312.000
358.483; -271.200;-1300.000;-1187.000
358.615;  -61.800;-1182.000;-1078.000
358.747; -123.400;-1187.000;-1058.000
358.880;   23.300; -810.000; -744.000
359.012;    8.100; -376.000; -202.000
359.145;  -80.400; -480.000; -511.000
359.277;   42.200; -962.000; -913.000
359.409; 4782.200;  536.000;  231.000
359.542; 1160.000; -738.000; -688.000
359.674;  150.400;   46.000;   13.000
359.806; -109.300; -565.000; -438.000
359.939;  -47.700; -617.000; -516.000
360.071;  -20.000; -583.000; -579.000
360.203;   -6.400; -411.000; -364.000
360.335;  134.600;  164.000;  -16.000
360.468;  331.700; -249.000; -307.000
360.600; 3887.000; -547.000; -454.000
360.732; 5287.500; -546.000; -423.000
360.864;  682.500;-1216.000;-1044.000
360.996;  405.900; -516.000; -554.000
361.129;   37.000; -389.000; -598.000
361.261;   83.500;  110.000; -113.000
361.393;    1.000; -252.000; -214.000
361.525;   97.600;   94.000;  244.000
361.657;  -97.700; -821.000; -703.000
361.789;   59.100; -139.000; -155.000
361.921;  363.100; -642.000; -593.000
362.053;  490.800;  524.000;  541.000
362.185;  156.300;  288.000;   72.000
362.318; -125.900; -709.000; -705.000
362.450;  235.400;  294.000;  444.000
362.582;  111.000; -913.000; -870.000
362.714;  -49.900; -353.000; -332.000
362.846;  -99.700; -606.000; -490.000
362.978; -264.600; -941.000; -811.000
363.109;   93.500; -161.000; -260.000
363.241;  683.700; -739.000; -749.000
363.373;  848.100; -649.000; -564.000
363.505; 1325.600; -186.000;  -91.000
363.637;  310.500; -787.000; -601.000
363.769; -217.000;-1067.000;-1080.000
363.901;  -78.100; -596.000; -654.000
364.033; -241.100;-1103.000;-1062.000
364.165;   27.800; -283.000; -283.000
364.296;  134.100; -316.000; -177.000
364.428;  122.800;-1344.000;-1220.000
364.560;  -92.400; -679.000; -661.000
364.692;  -99.100; -738.000; -835.000
364.824;  410.500; -588.000; -456.000
364.955;  790.300; -402.000; -564.000
365.087; 1776.000;-1097.000; -852.000
365.219;   89.600; -686.000; -816.000
365.351; -105.600; -526.000; -572.000
365.482;  181.300;  300.000;  240.000
365.614;  -54.800; -402.000; -314.000
365.746; -154.500; -729.000; -752.000
365.877; -165.400; -706.000; -672.000
366.009;  521.200;  -35.000;  -62.000
366.141; -172.400;-1249.000;-1134.000
366.272; -167.300; -803.000; -719.000
366.404; -210.500;-1005.000; -874.000
366.535;   18.400; -139.000;  -12.000
366.667; -167.500; -644.000; -649.000
366.799;  125.500;  353.000;  203.000
366.930; -249.400; -862.000; -996.000
367.062;  263.800; -639.000; -613.000
367.193;  299.200; -872.000; -842.000
367.325;  -71.100; -580.000; -684.000
367.456;   87.200; -246.000;   31.000
367.588;  329.000; -371.000; -318.000
367.719;   47.900;  -44.000;  -45.000
367.851;   -0.100; -222.000; -241.000
367.982;  -92.100; -875.000; -732.000
368.113;  176.500; -475.000; -358.000
368.245; -222.300; -960.000; -841.000
368.376;   -6.100; -254.000; -302.000
368.508;  -43.600; -188.000; -263.000
368.639; -267.100;-1166.000;-1034.000
368.770;  -79.500; -670.000; -589.000
368.902;  -88.000; -836.000; -926.000
369.033; -181.100; -906.000; -855.000
369.164;  -65.900; -720.000; -653.000
369.296; -173.500; -452.000; -601.000
369.427;   51.800; -209.000; -144.000
369.558;  -70.400; -593.000; -377.000
369.689; -147.400; -721.000; -569.000
369.821; -212.200; -951.000; -845.000
369.952;   21.900;   42.000; -108.000
370.083;  -42.900; -229.000; -108.000
370.214; -173.900; -735.000; -650.000
370.345;   26.000;   65.000;   81.000
370.477; -119.000; -810.000; -790.000
370.608;  332.600; -328.000; -264.000
370.739; -111.500;-1233.000;-1292.000
370.870;  -87.300;-1102.000; -923.000
371.001;  190.200; -378.000; -467.000
371.132; -136.600; -754.000; -735.000
371.263;    1.600;  -42.000; -148.000
371.394; -233.900; -841.000; -748.000
371.525;  102.400;  345.000;  225.000
371.657; -160.600; -808.000; -670.000
371.788;  197.000;  103.000;  199.000
371.919;  293.000; -384.000; -304.000
372.050; 5730.400;  -91.000; -156.000
372.181; 1634.900; -188.000; -294.000
372.311;  609.300;   42.000; -127.000
372.442;   45.700; -457.000; -451.000
372.573;  -16.300; -444.000; -340.000
372.704; -213.200;-1008.000; -980.000
372.835;  127.300; -228.000; -289.000
372.966;  -90.500; -646.000; -554.000
373.097; -107.900; -575.000; -711.000
373.228;  -79.300; -717.000; -542.000
373.359;  185.500; -824.000; -536.000
373.490; 1410.300; -881.000; -727.000
373.620; 1725.900;-1001.000; -803.000
373.751; 2713.700; -332.000; -396.000
373.882; 1170.600; -663.000; -733.000
374.013;   80.300; -449.000; -262.000
374.143;  -35.700; -581.000; -659.000
374.274; -202.100; -987.000; -908.000
374.405;  322.000; -388.000; -276.000
374.536;  679.200; -526.000; -387.000
374.666; 1633.300; -759.000; -807.000
374.797;  287.600; -817.000; -868.000
374.928; 1310.200; -710.000; -560.000
375.058; 1336.700; -535.000; -500.000
375.189;  141.100;  -59.000;  -93.000
375.320; -210.700; -928.000;-1034.000
375.450;  -68.800; -625.000; -616.000
375.581;  -38.700; -526.000; -436.000
375.712;   -0.200; -574.000; -250.000
375.842;  487.400; -438.000; -415.000
375.973;  306.500; -554.000; -513.000
376.103; -109.600; -665.000; -648.000
376.234;  -96.400; -531.000; -552.000
376.364;  -86.200; -944.000; -867.000
376.495;  568.800;  925.000;  529.000
376.625;  -12.000; -472.000; -485.000
376.756;   95.300; -709.000; -678.000
376.886; -150.800;-1178.000;-1026.000
377.017;  119.200;-1048.000;-1061.000
377.147;  662.900; -786.000; -782.000
377.278;  165.300;  174.000;  228.000
377.408; -207.900; -801.000; -815.000
377.538; -169.400; -707.000; -693.000
377.669; -147.800; -537.000; -613.000
377.799; -137.200; -645.000; -635.000
377.929;  -79.600; -610.000; -428.000
378.060; -208.100; -781.000; -847.000
378.190;  -67.300; -726.000; -531.000
378.320;  -73.500; -401.000; -406.000
378.451;   24.200; -131.000;  -22.000
378.581;   43.900;  -67.000; -110.000
378.711;  327.400; 1035.000;  866.000
378.841;  -15.200; -533.000; -675.000
378.972; -166.800; -871.000; -751.000
379.102;   -2.800; -652.000; -579.000
379.232;   -3.500; -126.000;  -73.000
379.362; -188.400;-1001.000; -885.000
379.492;   19.600; -373.000; -424.000
379.623;  212.100;    0.000;  111.000
379.753; -191.000;-1107.000; -974.000
379.883;  358.000;   59.000;  156.000
380.013;  -69.400;-1081.000;-1017.000
380.143; -204.100;-1097.000;-1056.000
380.273; -195.300; -985.000; -861.000
380.403;   30.900; -344.000; -257.000
380.533;  -53.700; -651.000; -664.000
380.663;  179.500;  173.000;  128.000
380.793; -193.600;-1027.000;-1074.000
380.923;  -15.100; -103.000;  -34.000
381.053; -161.300; -613.000; -623.000
381.183;  -12.500; -106.000; -248.000
381.313;   21.100; -656.000; -470.000
381.443;   62.800; -692.000; -473.000
381.573;  292.500; -402.000; -409.000
381.703;  352.400;-1249.000;-1095.000
381.833; -268.300;-1454.000;-1336.000
381.963;  235.200; -134.000;  -87.000
382.093; 2209.300; -925.000; -909.000
382.223;  669.400; -713.000; -602.000
382.353;  -48.600; -801.000; -608.000
382.482;  501.000;-1091.000; -964.000
382.612; 1179.200; -872.000; -644.000
382.742;  675.000; -695.000; -622.000
382.872;  375.500; -565.000; -551.000
383.002;  162.900;  347.000; -132.000
383.131;  -38.500; -226.000; -160.000
383.261;  -49.100; -706.000; -768.000
383.391;  539.600; -552.000; -377.000
383.521; 6276.000;  451.000;  263.000
383.650; 1367.100; -947.000; -904.000
383.780;    7.600; -783.000; -656.000
383.910;  272.600;  880.000;  802.000
384.039;   36.100; -794.000; -656.000
384.169;  240.400;-1205.000;-1017.000
384.299;  -26.900; -650.000; -662.000
384.428; -145.800; -764.000; -680.000
384.558;  -20.100; -308.000; -275.000
384.687;  -45.300; -414.000; -334.000
384.817;   72.300;   75.000;   -2.000
384.947;   41.500; -234.000; -141.000
385.076;  547.700;  982.000;  912.000
385.206;  216.200;  369.000;  480.000
385.335;  -24.300; -549.000; -417.000
385.465; -112.800; -655.000; -663.000
385.594;  273.800;  -53.000;  -44.000
385.724;  595.100; -868.000; -838.000
385.853;  179.500; -296.000; -270.000
385.982; 2154.500; -743.000; -787.000
386.112; 3184.600;-1052.000; -871.000
386.241;  208.100; -307.000; -312.000
386.371;   85.300; -174.000;  -87.000
386.500;   18.000; -825.000; -789.000
386.629;   47.800; -874.000; -817.000
386.759;  141.800;  -43.000;   68.000
386.888;   24.600; -170.000; -250.000
387.017; -104.400; -648.000; -620.000
387.147; -124.100; -771.000; -798.000
387.276;   10.100; -410.000; -397.000
387.405;   35.300; -398.000; -342.000
387.535;  -27.400; -452.000; -361.000
387.664;  -82.500; -692.000; -620.000
387.793;  138.800; -198.000; -113.000
387.922;  797.000;  255.000;  200.000
388.052;   -2.100; -576.000; -423.000
388.181;   53.400; -342.000; -472.000
388.310;  -30.700; -889.000; -710.000
388.439; -114.600; -749.000; -742.000
388.568;  343.400;  365.000;  244.000
388.697; 1618.100; -756.000; -653.000
388.826;  292.300; -768.000; -666.000
388.956;  118.900; -285.000; -307.000
389.085;   -5.000; -347.000; -287.000
389.214; -158.600; -842.000; -872.000
389.343;  -82.800; -645.000; -413.000
389.472;  837.700;  126.000;  149.000
389.601;  950.900;   91.000;    0.000
389.730;   55.400; -568.000; -687.000
389.859;  150.800;  226.000;   46.000
389.988;  305.500; -423.000; -408.000
390.117;  246.900; -168.000; -146.000
390.246;   32.900; -331.000; -320.000
390.375;  177.500; -673.000; -626.000
390.504;  -82.400; -703.000; -621.000
390.633; -142.100; -672.000; -726.000
390.761; -110.600; -732.000; -645.000
390.890;   53.400;   -4.000; -130.000
391.019;  -55.600; -421.000; -441.000
391.148; -217.700; -826.000; -855.000
391.277;  -81.300; -576.000; -493.000
391.406; -145.200; -821.000; -805.000
391.534;  103.600;  574.000; -301.000
391.663; -114.100; -583.000; -645.000
391.792; -136.700; -673.000; -701.000
391.921;  164.900;   -3.000;   15.000
392.050;  282.500; -287.000; -228.000
392.178; -102.700;-1206.000;-1061.000
392.307;  252.100; -758.000; -712.000
392.436;   55.300; -427.000; -641.000
392.564;  105.400;  166.000;   -6.000
392.693; -155.500; -860.000; -682.000
392.822;  331.200; -529.000; -534.000
392.950;  134.100; -880.000; -714.000
393.079;  549.500; -188.000; -328.000
393.208;   42.600; -488.000; -511.000
393.336;   33.700; -170.000; -145.000
393.465;  -53.200; -317.000; -199.000
393.593;   78.300;   62.000;   79.000
393.722; -260.600;-1121.000; -916.000
393.850;  -12.300; -188.000;  -61.000
393.979; -265.500; -926.000; -805.000
394.107;  -94.100; -517.000; -537.000
394.236;  -42.000; -570.000; -507.000
394.364;  522.100;  383.000;  206.000
394.493;  770.800; -911.000; -767.000
394.621;   14.500; -955.000; -916.000
394.750; 1448.100; -873.000; -923.000
394.878; 5866.800; -247.000; -149.000
395.007; 7446.400; -721.000; -807.000
395.135;  547.600; -790.000; -721.000
395.263; -166.000;-1038.000;-1040.000
395.392;   26.700;  -25.000; -107.000
395.520; -209.000; -818.000; -679.000
395.648; -178.100; -865.000; -915.000
395.777;  -44.900; -366.000; -405.000
395.905;   -7.400; -449.000; -564.000
396.033;   88.400;  217.000;  172.000
396.162; 1249.200; -399.000; -453.000
396.290; 1081.300;  -17.000;   -2.000
396.418;  181.900; -555.000; -514.000
396.546; -170.100; -571.000; -466.000
396.674; -158.700; -850.000; -878.000
396.803;   30.400;  -72.000;  -23.000
396.931;  165.500; -179.000; -199.000
397.059;   13.700;-1026.000; -989.000
397.187; -190.200;-1026.000; -975.000
397.315; -233.900; -884.000; -649.000
397.443; -151.700; -592.000; -443.000
397.572; -113.000; -578.000; -424.000
397.700;  -30.200; -607.000; -614.000
397.828;   12.500;  120.000;  -90.000
397.956;  -40.500; -508.000; -478.000
398.084; -115.800; -767.000; -626.000
398.212;  103.300;  137.000;  124.000
398.340;   58.400;  -56.000;  159.000
398.468;   67.300; -390.000; -169.000
398.596; -234.000; -993.000; -953.000
398.724; -197.600; -762.000; -767.000
398.852; -273.100;-1024.000; -976.000
398.980;  -89.500; -560.000; -560.000
399.108;  -95.300; -982.000; -735.000
399.236;   94.500;   13.000;    8.000
399.363;   40.500;  222.000;  196.000
399.491;  -99.800; -404.000; -398.000
399.619; -198.500; -829.000; -800.000
399.747; -180.400; -859.000; -771.000
399.875;  204.800;  220.000;  234.000
400.003;  -58.400; -359.000; -284.000
400.130; -163.400; -421.000; -341.000
400.258;    0.400;  -83.000;   38.000
400.386;  -85.800; -352.000; -168.000
400.514;  -46.700; -526.000; -587.000
400.641; -165.000; -928.000; -802.000
400.769; -234.900; -979.000; -888.000
400.897; -180.400; -838.000; -793.000
401.025;   13.200; -166.000; -152.000
401.152;   24.500;  220.000;   38.000
401.280; -125.500; -430.000; -429.000
401.408; -168.700; -712.000; -576.000
401.535; -133.600; -735.000; -758.000
401.663; -346.000;-1134.000;-1054.000
401.790;  -90.700; -514.000; -525.000
401.918;  142.500;  436.000;  405.000
402.046;   37.800;  134.000;  122.000
402.173;  -17.400;  -18.000;    7.000
402.301;  -66.700; -519.000; -397.000
402.428;  155.600;  528.000;  383.000
402.556; -233.500;-1188.000; -913.000
402.683;    4.800;  -20.000;   -1.000
402.811;    4.500;  -37.000; -206.000
402.938;   27.400;   20.000;   27.000
403.066;  308.200; -574.000; -558.000
403.193;  519.000;  299.000;  239.000
403.321;  402.500; -396.000; -574.000
403.448;  496.400;   83.000;   27.000
403.575;  233.300;  -90.000;  -46.000
403.703; -194.500; -732.000; -557.000
403.830;  -74.400; -531.000; -496.000
403.957; -251.400;-1117.000;-1023.000
404.085;   80.300;  -61.000; -172.000
404.212;  258.700;  -50.000;   63.000
404.339;  603.100; -566.000; -306.000
404.467;11419.300; -612.000; -524.000
404.594; 6743.200; -287.000; -227.000
404.721; 1470.500; -869.000; -764.000
404.848;  180.400; -113.000; -202.000
404.976; -163.500; -856.000; -783.000
405.103;   33.600;  -14.000;  -82.000
405.230;   48.400;  190.000;  226.000
405.357;  117.700;  117.000;   44.000
405.484;  566.100;  -49.000;    5.000
405.612;  111.300; -548.000; -563.000
405.739;  -84.100; -488.000; -243.000
405.866;  219.400;  669.000;  385.000
405.993;  -38.700; -398.000; -102.000
406.120; -223.100; -801.000; -887.000
406.247;  -66.600; -323.000; -342.000
406.374;  761.100;  540.000;  629.000
406.501;  112.400; -632.000; -702.000
406.628; -126.000; -621.000; -589.000
406.755; -167.900; -803.000; -620.000
406.882;  -39.000; -228.000; -277.000
407.009; -163.500; -719.000; -628.000
407.136;   97.700; -480.000; -401.000
407.263;  167.600; -939.000; -829.000
407.390; -120.500; -692.000; -614.000
407.517; -298.400;-1139.000;-1187.000
407.644;  -67.300; -332.000; -256.000
407.771;  -79.900; -249.000; -287.000
407.898;   73.500;  168.000;  328.000
408.025;  -85.200; -421.000; -313.000
408.151;   41.800;   82.000;  153.000
408.278;  -93.900; -267.000; -216.000
408.405; -214.300; -931.000; -899.000
408.532;  -94.200; -549.000; -542.000
408.659; -183.500; -677.000; -648.000
408.785; -343.600;-1298.000;-1170.000
408.912;  -70.200; -412.000; -296.000
409.039; -188.400; -610.000; -686.000
409.166; -167.600; -591.000; -555.000
409.292; -179.300; -571.000; -534.000
409.419; -194.000; -665.000; -649.000
409.546; -125.200; -431.000; -192.000
409.672; -125.800; -713.000; -545.000
409.799;   -3.300;  -36.000;   34.000
409.926;  -13.600; -180.000; -179.000
410.052; -307.800;-1127.000;-1091.000
410.179;  -31.200; -368.000; -392.000
410.305;  -96.900; -375.000; -493.000
410.432;  -32.700; -220.000; -333.000
410.558; -148.000; -305.000; -380.000
410.685; -147.500; -688.000; -431.000
410.812; -154.100; -409.000; -588.000
410.938; -197.100; -964.000; -808.000
411.065; -148.000; -671.000; -645.000
411.191;   -9.100; -189.000; -174.000
411.317; -200.200; -823.000; -742.000
411.444;  -65.200; -317.000; -246.000
411.570;  -82.300; -339.000; -294.000
411.697; -194.600; -758.000; -752.000
411.823; -284.700; -989.000; -999.000
411.949;    0.800;  -56.000;   17.000
412.076; -200.300; -539.000; -519.000
412.202; -203.800; -758.000; -757.000
412.329; -204.400; -798.000; -752.000
412.455; -160.900; -821.000; -657.000
412.581;   -3.300;  -15.000;  172.000
412.707;  -93.800; -540.000; -457.000
412.834;  108.200;  156.000;  219.000
412.960; -122.700; -785.000; -784.000
413.086; -187.100; -743.000; -701.000
413.212;  335.700;  604.000;  578.000
413.339; -128.800; -685.000; -701.000
413.465;   17.800; -364.000; -310.000
413.591; -172.000; -757.000; -474.000
413.717;  -44.100; -358.000; -366.000
413.843; -217.300; -839.000; -861.000
413.969;  -71.800;  -47.000; -292.000
414.096; -175.500; -679.000; -679.000
414.222;   50.000;  -33.000;   85.000
414.348;  -47.600; -652.000; -385.000
414.474;  189.600;   38.000;  -52.000
414.600;   22.500; -126.000; -144.000
414.726;   56.700;  -96.000;  -55.000
414.852;  -67.500; -365.000; -342.000
414.978;  153.900;  104.000;  -18.000
415.104;  115.600;   38.000;   80.000
415.230;  103.800; -329.000; -330.000
415.356;  125.100; -409.000; -514.000
415.482;  412.200;   13.000;  -35.000
415.608;  571.700; -247.000; -323.000
415.734; 1981.000;   67.000;   38.000
415.860;40238.300; -875.000; -767.000
415.986;26166.500; -685.000; -607.000
416.111; 2182.700; -798.000; -652.000
416.237;  515.900; -424.000; -571.000
416.363; 2442.700; -765.000; -733.000
416.489; 8015.900; -324.000; -251.000
416.615;  775.500; -707.000; -742.000
416.741;  -17.800; -677.000; -784.000
416.866; -107.600; -673.000; -736.000
416.992; -146.300; -801.000; -818.000
417.118;    0.000;  -41.000;  -80.000
417.244;  -75.500; -798.000; -531.000
417.369; -128.700; -801.000; -612.000
417.495;    8.100; -325.000; -254.000
417.621; -125.100;-1015.000; -803.000
417.746;   90.600; -579.000; -572.000
417.872;  155.900; -254.000; -144.000
417.998;  154.900; -515.000; -530.000
418.123; 2280.400;-1073.000; -845.000
418.249;10507.600; -512.000; -601.000
418.374; 1303.100; -916.000; -824.000
418.500;  248.300; -383.000; -482.000
418.626;  316.900;   70.000;  -59.000
418.751;  235.000; -549.000; -448.000
418.877;  422.300; -637.000; -643.000
419.002; 3919.400; -688.000; -560.000
419.128;24458.400; -930.000; -721.000
419.253; 5380.400; -967.000; -837.000
419.379;  823.800; -391.000; -338.000
419.504;  802.900;  325.000;  415.000
419.629; 1069.700; -393.000; -212.000
419.755; 7803.200; -317.000; -254.000
419.880;40961.400;  -98.000;   67.000
420.006;22716.500; -280.000; -221.000
420.131;55111.800; -662.000; -775.000
420.256; 7247.500; -315.000; -316.000
420.382; 1018.000; -665.000; -687.000
420.507;  197.900; -649.000; -778.000
420.632;  211.000; -337.000; -339.000
420.758;  381.200; -251.000; -425.000
420.883; -176.200; -876.000; -672.000
421.008; -142.300; -775.000; -619.000
421.133;  -83.400; -509.000; -467.000
421.259;  -56.300; -325.000; -259.000
421.384; -201.300; -834.000; -693.000
421.509;  -96.100;-1052.000; -862.000
421.634; 1699.000; -936.000; -820.000
421.759;  656.300; -359.000; -327.000
421.885; -102.400; -717.000; -656.000
422.010;  -97.100; -673.000; -542.000
422.135; -232.800; -695.000; -727.000
422.260;  165.100;  340.000;  280.000
422.385;  -43.100;   12.000;  -98.000
422.510;   90.800;  151.000;  -26.000
422.635;   59.700;  -87.000;  -43.000
422.760;  189.200; -766.000; -791.000
422.885;  139.200;  -57.000;  -80.000
423.010;    7.100; -112.000; -169.000
423.135; -145.700; -481.000; -561.000
423.260;    9.300; -150.000; -245.000
423.385;  171.900;  476.000;  222.000
423.510;  105.800;   71.000;  -22.000
423.635;  180.700;  133.000;   45.000
423.760;  183.900;  383.000;  328.000
423.885;  171.000;  336.000;  391.000
424.010;   91.700;  -68.000;  -13.000
424.135;    4.400;    5.000;  -33.000
424.259; -115.700; -654.000; -457.000
424.384;  -56.300; -279.000; -272.000
424.509;    4.600; -260.000; -186.000
424.634; -131.700; -761.000; -623.000
424.759;   -8.300; -688.000; -544.000
424.883;    4.900; -506.000; -527.000
425.008;  369.500; -502.000; -410.000
425.133; 4033.800; -679.000; -653.000
425.258; 1677.400; -517.000; -381.000
425.382; 1704.200; -867.000; -774.000
425.507; 3913.500; -487.000; -543.000
425.632;  656.400; -802.000; -663.000
425.756;  981.600; -256.000; -146.000
425.881;14145.900; -831.000; -857.000
426.006;34204.300; -604.000; -355.000
426.130; 4806.400; -696.000; -508.000
426.255;  712.500; -611.000; -491.000
426.379;  321.800; -189.000; -577.000
426.504;  835.800;  660.000;  544.000
426.629; 8248.200; -519.000; -466.000
426.753; 5047.200;   64.000;  -46.000
426.878;  610.500; -252.000; -288.000
427.002;  297.300; -651.000; -668.000
427.127; 3376.600;  -35.000; -158.000
427.251;22599.000;  372.000;  401.000
427.375; 5656.000; -191.000; -173.000
427.500; 3666.000; -616.000; -610.000
427.624; 1117.100; -234.000; -400.000
427.749;  193.600; -216.000; -225.000
427.873;  -56.500; -499.000; -412.000
427.997;   -3.900; -222.000; -230.000
428.122;  202.500;  795.000;  703.000
428.246;  212.300;  433.000;  434.000
428.371; -232.000; -869.000; -773.000
428.495; -129.200; -624.000; -646.000
428.619;  -20.400; -186.000; -117.000
428.743;  120.100;   65.000;  132.000
428.868;   14.800; -732.000; -643.000
428.992; 2241.000; -219.000; -326.000
429.116;  780.300; -329.000; -357.000
429.240;  476.000;  419.000;  426.000
429.365;  -22.100; -454.000; -574.000
429.489;  -48.200; -638.000; -647.000
429.613;  129.700; -236.000; -177.000
429.737;  133.900; -563.000; -432.000
429.861;  585.000; -247.000; -133.000
429.985;11497.500; -425.000; -305.000
430.109;11261.500; -770.000; -908.000
430.234; 1287.600;   76.000;  -50.000
430.358;  166.500; -250.000; -160.000
430.482;  -94.000; -672.000; -564.000
430.606;  -72.900; -655.000; -375.000
430.730;   53.400; -437.000; -388.000
430.854;  160.900; -909.000; -835.000
430.978;  -96.200; -795.000; -764.000
431.102;  -87.100; -499.000; -422.000
431.226; -157.900; -874.000; -815.000
431.350;  130.900;  345.000;  422.000
431.474;  -85.700; -661.000; -373.000
431.597; -266.000;-1060.000; -848.000
431.721; -101.200; -276.000; -267.000
431.845; -229.600; -704.000; -472.000
431.969;  -98.600; -304.000; -349.000
432.093; -113.300; -395.000; -317.000
432.217;   60.700;   32.000;   82.000
432.341; -106.500; -523.000; -518.000
432.464;   86.400;   96.000;   40.000
432.588;  338.800; -401.000; -329.000
432.712;  201.200;  -52.000;  -52.000
432.836;  156.600;  213.000;  263.000
432.959;   25.000; -372.000; -311.000
433.083;  232.000;   11.000;    2.000
433.207;  847.300;  285.000;  930.000
433.330;10480.300; -391.000; -200.000
433.454;11800.500; -654.000; -638.000
433.578; 6914.100;  583.000;  278.000
433.701; 1133.700; -623.000; -675.000
433.825;  229.700; -292.000; -299.000
433.949;  314.800;   28.000;  -72.000
434.072;  116.300; -410.000; -323.000
434.196;   47.400; -309.000; -117.000
434.319; 8029.500;25482.000;25124.000
434.443; 1483.100; -656.000; -603.000
434.566; 5084.300;  281.000;   62.000
434.690;  783.800; -637.000; -383.000
434.813;  148.900; -251.000; -173.000
434.937;  -69.100; -569.000; -696.000
435.060;  -51.500; -423.000; -332.000
435.184;  459.300; -492.000; -217.000
435.307;  220.300;  159.000;  102.000
435.431;   43.500;  -40.000;   24.000
435.554; -121.400; -399.000; -240.000
435.677;  -89.400; -350.000; -258.000
435.801;  -30.600;  -25.000;   49.000
435.924;   25.300;    1.000;  -67.000
436.048; -195.300;-1019.000; -732.000
436.171;  -62.700; -240.000;  -66.000
436.294;    7.800; -248.000; -229.000
436.417;  241.400; -963.000; -849.000
436.541; -138.200; -814.000; -840.000
436.664;  -27.100; -242.000; -316.000
436.787;   17.000;   13.000;  113.000
436.910; -167.100; -792.000; -422.000
437.034;   92.700;  142.000;  143.000
437.157;   96.800;  -11.000;    0.000
437.280;  -84.300; -392.000; -292.000
437.403; -152.900; -982.000; -869.000
437.526;  884.400; -903.000; -865.000
437.649; 3034.200; -505.000; -332.000
437.772;  317.900; -692.000; -540.000
437.896;  300.000;  700.000;  544.000
438.019; -152.200; -758.000; -503.000
438.142; -102.800; -596.000; -506.000
438.265;  -21.900; -639.000; -670.000
438.388;  919.700; -520.000; -410.000
438.511;  126.300; -597.000; -394.000
438.634;  -61.500; -247.000; -125.000
438.757; -203.300; -693.000; -619.000
438.880;   -0.900;  -34.000;  -57.000
439.003; -119.700; -417.000; -437.000
439.126;  -60.100; -287.000; -167.000
439.248;  -66.300;  -98.000; -139.000
439.371;  -39.700;    9.000;  -53.000
439.494;  137.000;  510.000;  439.000
439.617;   11.100;   65.000;  -88.000
439.740; -297.200; -968.000; -816.000
439.863; -216.000; -755.000; -595.000
439.986; -182.600; -476.000; -431.000
440.108;   -9.600; -161.000; -112.000
440.231; -272.200; -950.000; -836.000
440.354;  -18.100;  -64.000; -150.000
440.477;  101.200; -566.000; -542.000
440.599;   44.200; -200.000; -225.000
440.722; -189.800; -709.000; -586.000
440.845;  219.100;  751.000;  928.000
440.968; -139.100; -415.000; -311.000
441.090;  -62.300; -199.000;  -33.000
441.213; -301.700;-1021.000; -825.000
441.336;  -65.000; -159.000;   -5.000
441.458;  -72.000; -549.000; -396.000
441.581; -117.600; -628.000; -629.000
441.703;  -83.800; -152.000;   13.000
441.826; -158.200; -557.000; -400.000
441.948;  -39.200;   56.000;   51.000
442.071;  122.600;  555.000;  424.000
442.193; -145.900; -531.000; -485.000
442.316;  100.200;  152.000;   97.000
442.438;  138.100; -233.000;  -10.000
442.561;  186.200;  272.000;  262.000
442.683;  758.300; -809.000; -522.000
442.806; 1614.600;   -8.000;   74.000
442.928;  -15.600; -859.000; -604.000
443.051;  -75.900; -577.000; -373.000
443.173; -140.200; -341.000; -339.000
443.295; -104.000; -263.000; -371.000
443.418;  -93.700; -321.000;  -29.000
443.540;   39.300; -106.000;   -4.000
443.662; -193.900; -563.000; -465.000
443.785;   44.300;  335.000;  199.000
443.907; -177.200; -362.000; -208.000
444.029; -186.100; -767.000; -494.000
444.152; -250.100; -644.000; -554.000
444.274;   32.300;  -18.000;  -24.000
444.396; -191.200; -461.000; -221.000
444.518; -195.600; -691.000; -454.000
444.640; -153.800; -268.000; -111.000
444.763;   42.200;  388.000;  249.000
444.885; -191.700; -432.000; -392.000
445.007;    5.200;   35.000;   86.000
445.129; -211.100; -610.000; -515.000
445.251; -160.900; -372.000; -439.000
445.373; -247.900; -537.000; -386.000
445.495;   44.300;  242.000;  350.000
445.617;  194.800;  853.000;  753.000
445.739;  -74.000; -215.000;  -97.000
445.861;  -26.200; -245.000; -112.000
445.984;  -23.200; -267.000; -101.000
446.105;  331.200; -418.000; -251.000
446.227;  903.300; -176.000;  -19.000
446.349;  -18.900; -358.000; -249.000
446.471; -150.400; -615.000; -448.000
446.593;  -87.100; -316.000;   19.000
446.715;   17.800;  -67.000;   41.000
446.837;  158.000;  697.000;  832.000
446.959; -101.700; -457.000; -478.000
447.081; -195.700; -628.000; -518.000
447.203;  186.900;  862.000;  834.000
447.325;  -98.700; -270.000;   42.000
447.446;   64.000;  286.000;  530.000
447.568; -275.700; -921.000; -803.000
447.690;  -97.200; -236.000; -245.000
447.812; -212.500; -798.000; -519.000
447.933;   31.000;  155.000;  127.000
448.055;  -82.700; -306.000; -261.000
448.177;  322.600;   31.000;   79.000
448.299;   59.300; -935.000; -727.000
448.420;  123.700;  -25.000;  159.000
448.542;  -22.700;   -3.000;   33.000
448.664;   46.000;  109.000;  322.000
448.785;    2.400;  265.000;   83.000
448.907; -125.700; -614.000; -353.000
449.028;  -96.900; -771.000; -471.000
449.150;  206.400;  492.000;  589.000
449.272; -307.800;-1044.000; -913.000
449.393;  128.100;  612.000;  694.000
449.515; -249.400; -634.000; -581.000
449.636;  -46.000; -264.000; -155.000
449.758;  223.700;  763.000;  622.000
449.879; -108.100; -498.000; -396.000
450.001;  -82.800; -149.000;  -49.000
450.122;    3.900;  -95.000;  162.000
450.244;   26.200;   37.000;  364.000
450.365; -130.300; -495.000; -301.000
450.486;   39.500;   80.000;  268.000
450.608;  145.500;  393.000;  326.000
450.729;  190.500;  578.000;  645.000
450.850;  127.300; -574.000; -466.000
450.972; 1695.300; -552.000; -389.000
451.093;10076.000;  190.000;  588.000
451.214; 3768.300; -516.000; -337.000
451.336;  725.300;  773.000;  579.000
451.457;  185.700;  264.000;  393.000
451.578;   -1.200; -118.000;  -74.000
451.699; -186.900; -546.000; -540.000
451.821;  -58.000; -284.000;  -50.000
451.942;   54.700;  278.000;  285.000
452.063;  212.800;  228.000;  419.000
452.184; 1232.000;  -54.000;  -49.000
452.305; 2114.600;  103.000;  170.000
452.427;  237.800; -549.000; -301.000
452.548;   31.300;   23.000;   79.000
452.669;  -40.800; -257.000;  -89.000
452.790;  -19.400;    3.000;  -18.000
452.911;   46.900;  195.000;  259.000
453.032;  -61.700; -289.000;  -60.000
453.153;  -26.600;  -29.000;   81.000
453.274;  219.900;  737.000;  868.000
453.395;  -44.800;  -51.000;  175.000
453.516;  329.400; 1317.000; 1388.000
453.637;  -61.200; -205.000; -150.000
453.758;  -43.100;   15.000;   69.000
453.879; -214.200; -462.000; -250.000
454.000;  256.200; 1086.000;  948.000
454.121; -182.300; -554.000; -326.000
454.242; -195.100; -599.000; -383.000
454.362;  -38.400;  -99.000;  114.000
454.483;  -52.900; -309.000; -229.000
454.604;  187.100;  512.000;  580.000
454.725; -177.700; -627.000; -555.000
454.846; -146.000; -474.000; -406.000
454.967;   56.900;  230.000;  539.000
455.087;   11.000;  179.000;  153.000
455.208;  129.900;  554.000;  856.000
455.329;  -77.600;  -22.000;   82.000
455.450;  179.600;  473.000;  633.000
455.570; -112.600; -234.000; -211.000
455.691;    0.700;  201.000;  407.000
455.812; -151.800; -270.000;  -92.000
455.932;  -53.000;  107.000;  -97.000
456.053;  -57.900;   36.000;   24.000
456.173; -146.600; -433.000; -355.000
456.294; -218.500; -476.000; -303.000
456.415;  -65.500;  -73.000;   70.000
456.535;   -0.400;  297.000;  273.000
456.656;    8.200;  132.000;  240.000
456.776;  -44.600;    3.000;  298.000
456.897;   80.500;  308.000;  513.000
457.017; -112.800; -153.000;   -3.000
457.138; -155.000; -402.000; -249.000
457.258;   25.200;  263.000;  224.000
457.379;   85.100;  509.000;  521.000
457.499;   46.300;  443.000;  432.000
457.620; -191.400; -407.000; -231.000
457.740; -115.100; -132.000;  -11.000
457.860;  -26.500;   87.000;   44.000
457.981;  -30.700;  132.000;  124.000
458.101; -106.200;  -89.000;   40.000
458.221;   35.100;  336.000;  402.000
458.342;  -48.900;   -4.000;  -37.000
458.462;  136.600;  617.000;  352.000
458.582;  -14.400; -302.000; -294.000
458.703;  109.800;  303.000;  154.000
458.823;   16.600;   22.000;  163.000
458.943;  111.700;  341.000;  467.000
459.063;   30.200; 1124.000;  192.000
459.183;    1.400;  328.000;  313.000
459.304;   78.100;  315.000;  517.000
459.424; -107.100; -246.000;  -89.000
459.544;  751.300;  388.000;  764.000
459.664; 1715.000;  499.000;  506.000
459.784;  633.600; 1004.000; 1175.000
459.904;  201.700;  867.000;  744.000
460.024;  222.500;  867.000;  684.000
460.144;   91.900;  449.000;  554.000
460.264;   62.600;  515.000;  327.000
460.385;  -99.000; -145.000; -119.000
460.505;  155.200;  905.000;  858.000
460.625; -129.100;  -17.000;  -68.000
460.745;   19.700;  396.000;  541.000
460.864;  -30.800;  153.000;  469.000
460.984;   83.600;  499.000;  573.000
461.104;  371.200; 1656.000; 1775.000
461.224;  121.500;  657.000;  650.000
461.344;   20.100;  431.000;  360.000
461.464;   -1.600;  258.000;  513.000
461.584;   51.900;  283.000;  466.000
461.704;  -37.400;   58.000;  108.000
461.824;  -49.600;  238.000;  259.000
461.943;   -6.800;  191.000;  130.000
462.063; -118.700;    2.000;  324.000
462.183;  142.500;  639.000;  717.000
462.303;  307.300; 1678.000; 1230.000
462.422;  140.900;  781.000;  840.000
462.542;  -34.000;  271.000;  391.000
462.662;  140.700;  353.000;  380.000
462.782;  582.300;  833.000;  572.000
462.901; 1035.300;  545.000;  717.000
463.021;  610.500; 1702.000; 1638.000
463.141;   53.100;  337.000;  770.000
463.260;   29.900;  614.000;  474.000
463.380;  121.100;  902.000;  884.000
463.499;  -13.600;  342.000;  332.000
463.619;   22.500;  581.000;  559.000
463.738;  296.700; 1644.000;  903.000
463.858;   71.500;  657.000;  811.000
463.978;   10.100;  542.000;  396.000
464.097;  224.400;  921.000; 1114.000
464.217;  389.000; 1196.000; 1143.000
464.336;  292.500; 1068.000; 1130.000
464.455;   19.200;  328.000;  659.000
464.575;  140.900;  597.000;  602.000
464.694;  383.500; 1204.000; 1179.000
464.814;  313.100; 1190.000; 1138.000
464.933;  198.700; 1095.000; 1027.000
465.052;  267.000; 1412.000; 1054.000
465.172;  222.700;  922.000;  799.000
465.291;  333.800; 1376.000; 1320.000
465.410;  101.000;  462.000;  735.000
465.530;  250.300; 1355.000; 1310.000
465.649;  198.000; 1209.000; 1273.000
465.768;  338.200; 1673.000; 1508.000
465.888;  134.400;  941.000; 1174.000
466.007;  294.800; 1335.000; 1440.000
466.126;   69.900;  721.000;  641.000
466.245;  165.800; 1176.000; 1187.000
466.364;  120.600;  950.000; 1060.000
466.484;  207.500; 1024.000; 1213.000
466.603;  153.200; 1101.000; 1222.000
466.722;  312.900; 1490.000; 1769.000
466.841;  242.100; 1151.000; 1401.000
466.960;  180.200; 1069.000;  972.000
467.079;  390.000; 1971.000; 1786.000
467.198;  185.900; 1238.000; 1181.000
467.317;  246.200; 1768.000; 1162.000
467.436;  185.500; 1709.000; 1261.000
467.555;  337.400; 1796.000; 1746.000
467.674;  205.500; 1227.000; 1329.000
467.793;  154.000; 1376.000; 1374.000
467.912;  245.300; 1658.000; 1539.000
468.031;  356.800; 2038.000; 1930.000
468.150;  391.400; 1842.000; 1837.000
468.269;  432.800; 2313.000; 2090.000
468.388;  473.600; 2168.000; 2339.000
468.507;  619.300; 2884.000; 2903.000
468.626;  664.600; 2555.000; 2541.000
468.744;  334.700; 2018.000; 2174.000
468.863;  463.800; 2312.000; 2523.000
468.982;  264.400; 1503.000; 1555.000
469.101;  544.400; 2788.000; 2692.000
469.220;  384.200; 2333.000; 2176.000
469.338;  599.900; 2935.000; 3051.000
469.457;  448.600; 2719.000; 2545.000
469.576;  781.800; 3953.000; 3784.000
469.695;  573.900; 2877.000; 3066.000
469.813;  939.200; 4148.000; 4192.000
469.932;  868.800; 4255.000; 4485.000
470.051;  928.300; 4075.000; 4161.000
470.169; 1862.500; 4470.000; 4338.000
470.288; 3013.500; 4700.000; 4809.000
470.406; 1723.700; 5059.000; 5194.000
470.525; 1325.900; 6101.000; 5787.000
470.644; 1372.700; 6847.000; 6794.000
470.762; 1776.800; 8397.000; 7873.000
470.881; 1888.900; 8651.000; 8464.000
470.999; 2143.200; 9685.000; 9151.000
471.118; 2387.300;11174.000;10711.000

