
Integration time [ms]: 100.000
Averaging Nr. [scans]: 40
Smoothing Nr. [pixels]: 0
Data measured with spectrometer [name]: 2101012U2
Wave   ;Sample   ;Dark     ;Reference
[nm]   ;[counts] ;[counts] ;[counts] 

197.733;   57.400;  516.000;  404.000
197.879;  -88.025; -610.000; -634.000
198.025;  -51.950; -475.000; -420.000
198.171;  -71.300; -602.000; -612.000
198.317;  -23.375; -401.000; -316.000
198.463;  -58.400; -655.000; -404.000
198.609;   44.850;  181.000; -137.000
198.755;  -75.050; -644.000; -410.000
198.901;  -46.000; -505.000; -424.000
199.047;  -57.650; -615.000; -488.000
199.193;  -36.975; -230.000; -468.000
199.339;  -34.975; -222.000; -369.000
199.485;   38.750;  330.000;  271.000
199.631;   22.225;  227.000;  310.000
199.777;  -52.225; -466.000; -398.000
199.923;  -57.975; -610.000; -424.000
200.069;   -2.125; -141.000;  -58.000
200.215;   61.625;  128.000;  453.000
200.361;   35.775;  243.000;  477.000
200.507;  -57.350; -600.000; -373.000
200.653;  -18.075; -371.000; -194.000
200.798;  -42.050; -215.000; -125.000
200.944;  -11.650; -146.000;  -41.000
201.090;   41.275;   61.000;  222.000
201.236;    1.450; -116.000; -158.000
201.382;  124.775;  874.000;  903.000
201.528;   -4.350;  -58.000;  -48.000
201.674;  -39.475; -386.000; -293.000
201.819;  -62.650; -540.000; -439.000
201.965;  -77.950; -699.000; -447.000
202.111;  -25.950; -273.000; -226.000
202.257;  -32.275; -250.000; -238.000
202.402;    9.925;   13.000;  -36.000
202.548;  -33.550; -169.000; -116.000
202.694;   95.250;  410.000; -183.000
202.840;  -87.625; -603.000; -531.000
202.985;  -83.050; -681.000; -639.000
203.131; -112.050; -832.000; -666.000
203.277;  -24.700; -199.000; -262.000
203.423;  -62.125; -434.000; -520.000
203.568;  -45.150; -462.000; -237.000
203.714;  -59.600; -535.000; -542.000
203.860;  -76.200; -682.000; -641.000
204.005;   25.500;  112.000;  167.000
204.151;   84.350;  561.000;  556.000
204.296;  -37.575; -354.000; -221.000
204.442;  -56.750; -600.000; -547.000
204.588;  -69.750; -592.000; -579.000
204.733;    8.925;  178.000;  168.000
204.879; -126.000;-1018.000; -822.000
205.025;   27.975;  -99.000;  126.000
205.170;   -7.325;  -17.000;   94.000
205.316;   80.375;  438.000;  661.000
205.461;  -91.650; -698.000; -554.000
205.607;   83.725;  609.000;  665.000
205.752;  -75.425; -626.000; -551.000
205.898;  -54.225; -501.000; -391.000
206.043;  -51.325; -578.000; -506.000
206.189;  -37.450; -243.000; -285.000
206.334;   73.825;  554.000;  606.000
206.480;   93.625;  409.000;  239.000
206.625;  -80.400; -529.000; -552.000
206.771;  -36.450; -451.000; -373.000
206.916;  -48.425; -210.000; -537.000
207.062;  -71.675; -545.000; -591.000
207.207;  -57.775; -546.000; -443.000
207.353;   61.900;  185.000;  460.000
207.498;    8.450;  196.000;   85.000
207.643;  -50.350; -501.000; -370.000
207.789; -131.125;-1069.000; -910.000
207.934;  -85.900; -665.000; -713.000
208.080;  -26.575; -154.000;   66.000
208.225;   -1.475;  -22.000;  -57.000
208.370;  -97.575; -727.000; -619.000
208.516;  -65.875; -741.000; -487.000
208.661;  -28.100; -127.000;  -69.000
208.806;  -17.300; -165.000; -171.000
208.952; -124.525;-1044.000; -731.000
209.097;   74.075;  378.000;  349.000
209.242;  -41.625; -307.000; -382.000
209.387;   76.625;  392.000;  350.000
209.533;  -59.925; -321.000; -350.000
209.678;   75.850;  472.000;  543.000
209.823;  -48.625; -408.000; -310.000
209.969; -104.975; -860.000; -757.000
210.114; -108.325; -907.000; -719.000
210.259; -110.175; -939.000; -889.000
210.404;   -5.450; -171.000;  103.000
210.549;   20.525;  108.000;    3.000
210.695;  -16.200;   -3.000;  -95.000
210.840;   36.675;   94.000;   67.000
210.985;  -64.650; -484.000; -303.000
211.130;   58.900;  268.000;  406.000
211.275;   28.350;  207.000;  199.000
211.420;  -45.850; -300.000; -289.000
211.566;  -63.600; -536.000; -489.000
211.711;   20.800;  218.000;  157.000
211.856;  -58.900; -545.000; -519.000
212.001;    9.175;  151.000;   44.000
212.146;   30.575;  153.000;   49.000
212.291;  -23.575; -210.000; -186.000
212.436;  -26.650; -280.000;   -6.000
212.581;  -90.800; -685.000; -653.000
212.726;  -84.025; -487.000; -538.000
212.871;  -52.125; -552.000; -217.000
213.016; -155.925;-1172.000;-1029.000
213.161;   65.400;  406.000;  291.000
213.306;  -77.500; -435.000; -577.000
213.451;  -91.650; -778.000; -689.000
213.596;  -52.800; -455.000; -347.000
213.741;  -63.200; -448.000; -538.000
213.886;  -73.400; -498.000; -517.000
214.031;  -18.175; -294.000; -124.000
214.176;  -55.700; -408.000; -341.000
214.321;  -18.700; -296.000; -157.000
214.466;  -31.250; -163.000;  -43.000
214.611;   -4.100;  -61.000;  -10.000
214.756; -112.875; -948.000; -858.000
214.901;  -23.000; -388.000; -226.000
215.046; -128.725; -797.000; -825.000
215.191;   16.475;  128.000;   35.000
215.336;  -28.150; -157.000;  -19.000
215.480;  -72.475; -684.000; -505.000
215.625;  -15.350; -175.000;  -19.000
215.770;  -82.225; -757.000; -662.000
215.915;  -13.375;   -5.000;  -97.000
216.060;   -3.475; -113.000;  -21.000
216.205; -107.550; -731.000; -779.000
216.349;  -74.575; -470.000; -533.000
216.494; -135.750; -939.000; -867.000
216.639; -114.175; -823.000; -888.000
216.784;  -98.425; -577.000; -525.000
216.929;   45.100;  392.000;  281.000
217.073;  -18.175; -244.000;  -31.000
217.218;    7.975;   78.000;  -47.000
217.363;  -85.975; -656.000; -618.000
217.507;  -81.850; -623.000; -588.000
217.652; -126.050; -845.000; -874.000
217.797;  -93.550; -708.000; -659.000
217.942; -116.000; -856.000; -720.000
218.086;   88.050;  608.000;  539.000
218.231;  -35.200; -174.000;  -26.000
218.376;  -39.050; -337.000; -229.000
218.520;    0.575;  -41.000;   96.000
218.665;  -29.900; -338.000; -204.000
218.810;  -46.650; -275.000; -233.000
218.954;   15.275;  201.000;   35.000
219.099; -117.175; -713.000; -963.000
219.243;  -69.575; -589.000; -554.000
219.388;  -29.100; -264.000; -136.000
219.532;   -9.050; -116.000; -116.000
219.677;  -84.000; -564.000; -521.000
219.822;   13.825;   33.000;   89.000
219.966;   11.525;   17.000;  -99.000
220.111;  -43.400; -328.000;  -40.000
220.255;  -95.975; -797.000; -750.000
220.400;  -23.200; -180.000; -146.000
220.544;  -78.450; -516.000; -450.000
220.689;  -47.475; -422.000; -451.000
220.833;   -9.900; -123.000;  -58.000
220.978;  -54.125; -393.000; -563.000
221.122;   33.325;  319.000;  307.000
221.267; -118.400; -906.000; -837.000
221.411;  -49.075; -478.000; -394.000
221.555;   -6.100; -104.000;  -23.000
221.700;  -60.700; -329.000; -222.000
221.844;   40.700;  255.000;  272.000
221.989;  -44.125; -328.000; -311.000
222.133;  -22.500; -289.000; -307.000
222.277;    3.000;    5.000;   78.000
222.422;   25.825;  227.000;  113.000
222.566;  -41.750; -381.000; -214.000
222.711;  -56.125; -414.000; -479.000
222.855;  -93.100; -643.000; -586.000
222.999;  -83.975; -642.000; -717.000
223.144;  -13.150; -195.000; -194.000
223.288;   45.700;  423.000;  251.000
223.432;   27.875;  184.000;  230.000
223.576;   21.075;  152.000;  -21.000
223.721;   41.375;  364.000;  273.000
223.865;  -65.200; -472.000; -475.000
224.009;  245.075; 1673.000; 1631.000
224.153;  -81.925; -660.000; -671.000
224.298;  -70.975; -531.000; -489.000
224.442;    2.300;  -74.000;  -33.000
224.586;   -6.925; -169.000; -106.000
224.730; -105.575; -858.000; -670.000
224.875; -121.325; -739.000; -688.000
225.019;   18.025;  102.000;  188.000
225.163;   69.550;  208.000;  341.000
225.307;   26.250;   97.000;  -91.000
225.451;   56.475;  360.000;  481.000
225.595;   34.400;  264.000;  176.000
225.739;  -27.525; -170.000;  -94.000
225.884;   -7.975;   86.000;    5.000
226.028;  -94.100; -760.000; -626.000
226.172;  -38.575; -260.000; -273.000
226.316; -111.800; -941.000; -902.000
226.460;  -66.700; -645.000; -493.000
226.604;  -52.375; -406.000; -400.000
226.748; -106.775; -836.000; -733.000
226.892;  -31.750; -227.000; -181.000
227.036;  -37.075; -537.000; -447.000
227.180;  -52.525; -551.000; -375.000
227.324;  -65.700; -561.000; -580.000
227.468; -112.800; -819.000; -717.000
227.612;   13.725;  242.000;  -28.000
227.756; -110.925; -845.000; -698.000
227.900;   54.250;  342.000;  441.000
228.044;  -69.050; -509.000; -290.000
228.188;   55.450;  448.000;  568.000
228.332;  -84.350; -546.000; -472.000
228.476;  -30.775; -223.000; -149.000
228.620;  -35.775; -210.000; -150.000
228.764;   73.950;  431.000;  349.000
228.908;  -16.250; -155.000;   30.000
229.052;  -51.550; -615.000; -528.000
229.195;  -23.325; -172.000;   13.000
229.339;  -26.850; -235.000; -305.000
229.483;  -22.800;    5.000; -162.000
229.627;  -13.250; -156.000;  139.000
229.771;  -49.425; -218.000; -294.000
229.915;   16.775;  230.000;   79.000
230.059;  -89.425; -648.000; -663.000
230.202;  -32.400; -370.000; -317.000
230.346;   -3.025; -107.000;  107.000
230.490;  -50.950; -489.000; -521.000
230.634; -108.250; -736.000; -553.000
230.777;   72.100;  478.000;  509.000
230.921;  -55.550; -450.000; -359.000
231.065;  -57.600; -246.000; -286.000
231.209;   37.350;  261.000;  265.000
231.352;   28.975;   54.000;   40.000
231.496;   12.225;  568.000;  188.000
231.640;  -78.825; -693.000; -621.000
231.783;   66.750;  546.000;  525.000
231.927;  -41.900; -294.000; -365.000
232.071; -121.350; -962.000; -736.000
232.214; -118.475; -980.000; -764.000
232.358;  -92.400; -683.000; -599.000
232.502;    8.800;  -19.000;    7.000
232.645; -144.425;-1090.000; -927.000
232.789;  -21.275; -257.000; -218.000
232.933;  -47.700; -407.000; -224.000
233.076; -138.775;-1038.000; -897.000
233.220;  -98.900; -752.000; -777.000
233.363;  -75.725; -669.000; -477.000
233.507;   72.475;  371.000;  129.000
233.650;  -94.575; -764.000; -834.000
233.794;   44.325;  438.000;  461.000
233.938;  -62.025; -530.000; -362.000
234.081;  -29.425;  -93.000;   31.000
234.225;  -76.750; -631.000; -539.000
234.368; -126.675; -773.000; -723.000
234.512;  -41.225; -385.000; -299.000
234.655;  -90.250; -582.000; -555.000
234.798;  -66.375; -493.000; -466.000
234.942; -118.450; -884.000;-1002.000
235.085;  -72.975; -651.000; -443.000
235.229;  -65.350; -405.000; -410.000
235.372;  -47.575; -247.000; -191.000
235.516;  -63.175; -397.000; -321.000
235.659;   14.250;   92.000;  121.000
235.802;  -10.775;  -38.000;  -22.000
235.946;   32.575;  335.000;  215.000
236.089;   11.625;  126.000;  250.000
236.233;   53.800;  275.000;  298.000
236.376;  -44.100; -235.000; -378.000
236.519;  -45.525; -297.000; -319.000
236.663;  -34.375; -215.000; -117.000
236.806; -133.375;-1029.000; -999.000
236.949;   64.875;  543.000;  431.000
237.092;   53.750;  412.000;  391.000
237.236;  -96.525; -589.000; -502.000
237.379;   76.275;  352.000;  428.000
237.522; -117.175; -879.000; -768.000
237.666;   -5.600; -271.000;   18.000
237.809; -122.475; -851.000; -823.000
237.952;   47.150;  469.000;  271.000
238.095;  -62.650; -447.000; -442.000
238.238;   75.975;  688.000;  700.000
238.382;  -11.700;  166.000;  103.000
238.525;  -63.675; -598.000; -511.000
238.668; -146.025;-1060.000; -985.000
238.811;  -84.200; -638.000; -643.000
238.954;  -68.475; -483.000; -334.000
239.097;   95.300;  617.000;  664.000
239.241;   24.350;  394.000;  326.000
239.384;  -21.375; -254.000; -214.000
239.527;  -51.300; -424.000; -224.000
239.670; -144.650; -994.000;-1091.000
239.813; -103.050; -696.000; -658.000
239.956;   74.325;  579.000;  473.000
240.099; -115.925; -778.000; -725.000
240.242;   63.875;  428.000;  432.000
240.385;   48.925;  466.000;  450.000
240.528;  -77.850; -706.000; -473.000
240.671;   10.700;  189.000;  134.000
240.814;  -39.475; -441.000; -158.000
240.957; -101.075; -767.000; -578.000
241.100;  -95.825; -779.000; -755.000
241.243; -142.575;-1234.000; -893.000
241.386;  -64.550; -508.000; -379.000
241.529;  -87.525; -735.000; -547.000
241.672;  -56.025; -566.000; -495.000
241.815; -110.175; -832.000; -808.000
241.958;  -27.950; -125.000; -182.000
242.101;  -69.975; -545.000; -390.000
242.244;  -45.875; -270.000; -325.000
242.387;  -32.425; -304.000; -246.000
242.530;   54.850;  470.000;  134.000
242.673;  -50.225; -381.000; -309.000
242.815; -125.900; -925.000; -899.000
242.958;  -70.200; -482.000; -381.000
243.101;   17.975;  132.000;  187.000
243.244;  -84.850; -564.000; -521.000
243.387;  -43.025; -313.000; -316.000
243.530;  -97.425; -657.000; -674.000
243.672;    2.475;   43.000;  -92.000
243.815;  -50.500; -355.000; -283.000
243.958;    2.350;   98.000;  -26.000
244.101;   -6.900;   59.000;  -16.000
244.243;  -19.275;  -47.000;  101.000
244.386; -114.025; -761.000; -630.000
244.529;  -34.175; -132.000; -139.000
244.672; -162.475;-1154.000; -951.000
244.814;  -93.700; -621.000; -794.000
244.957;  -59.850; -380.000; -304.000
245.100;  -67.075; -489.000; -489.000
245.242;  -49.975; -387.000; -374.000
245.385;  -16.100;  -59.000;  -39.000
245.528; -120.400; -871.000; -705.000
245.670;  103.475;  612.000;  634.000
245.813;  -94.875; -599.000; -547.000
245.956;  -36.625; -324.000; -275.000
246.098;  -69.675; -508.000; -650.000
246.241;    0.100;  194.000;   48.000
246.383;  -11.675; -119.000;  -73.000
246.526;  -66.125; -454.000; -525.000
246.669; -114.525; -889.000; -780.000
246.811;   18.725;  172.000;   -1.000
246.954;  -63.650; -512.000; -426.000
247.096;  -29.925;  -84.000;   -6.000
247.239;  -69.050; -482.000; -445.000
247.381;  -88.525; -647.000; -488.000
247.524;   83.600;  645.000;  679.000
247.666;    0.475;   58.000;   11.000
247.809; -123.425; -887.000; -691.000
247.951;   -9.425;  -75.000;  138.000
248.094;   38.350;  432.000;  308.000
248.236; -163.150;-1262.000;-1238.000
248.378;   17.150; -356.000;  -81.000
248.521;  -15.600; -334.000; -337.000
248.663;  -36.800; -236.000; -267.000
248.806;  -25.200; -300.000; -266.000
248.948; -107.100; -886.000; -763.000
249.090;  -40.625; -428.000; -398.000
249.233;  -54.325; -344.000; -381.000
249.375;  -79.675; -474.000; -451.000
249.518;  -30.575;  -83.000; -133.000
249.660;    6.050; -103.000;    3.000
249.802; -176.100;-1303.000;-1189.000
249.945;  -70.250; -612.000; -540.000
250.087; -115.150; -834.000; -768.000
250.229;  -45.050; -362.000; -480.000
250.371;  -84.900; -494.000; -439.000
250.514;  -47.725; -310.000; -244.000
250.656;  -63.850;   69.000;  102.000
250.798; -105.525; -849.000; -800.000
250.940;  -52.775; -322.000; -322.000
251.083;  -33.275; -335.000; -111.000
251.225;   53.250;  338.000;  310.000
251.367;  -22.025; -274.000; -373.000
251.509;  -45.800; -265.000; -210.000
251.651;  -91.800; -731.000; -671.000
251.794;   53.925;  538.000;  632.000
251.936; -100.500; -821.000; -747.000
252.078;  -70.525; -540.000; -461.000
252.220;  -76.025; -645.000; -477.000
252.362;   85.550;  344.000;  462.000
252.504;  -65.175; -677.000; -584.000
252.646; -109.525; -875.000; -722.000
252.788;  -10.325;   14.000; -128.000
252.931;  -43.100; -257.000; -253.000
253.073;  -33.325; -376.000; -317.000
253.215;   -6.225;  141.000;  122.000
253.357;  -20.750;   82.000; -153.000
253.499;  -51.725; -374.000; -234.000
253.641;  -90.725; -749.000; -594.000
253.783;  -94.375; -609.000; -527.000
253.925;  -80.225; -586.000; -591.000
254.067; -107.525; -744.000; -667.000
254.209;  -23.975; -391.000; -259.000
254.351; -129.650; -865.000; -883.000
254.493;  -59.350; -441.000; -417.000
254.635; -127.650; -936.000; -818.000
254.777; -101.100; -752.000; -687.000
254.918;  -52.075; -512.000; -430.000
255.060;  -59.150; -551.000; -395.000
255.202;  -70.750; -473.000; -261.000
255.344;  -70.800; -658.000; -455.000
255.486;  -71.275; -471.000; -406.000
255.628; -118.050; -780.000; -781.000
255.770;  -78.275; -676.000; -536.000
255.912;  -71.525; -559.000; -468.000
256.053;  -92.300; -730.000; -508.000
256.195;  169.250; 1008.000;  903.000
256.337;  -99.325; -861.000; -595.000
256.479;   55.450;  532.000;  416.000
256.621;  -48.275; -394.000; -212.000
256.762;  -96.500; -789.000; -742.000
256.904;   58.600;  485.000;  487.000
257.046;  -38.200; -381.000; -271.000
257.188;  -50.375; -351.000; -264.000
257.329;  -82.300; -525.000; -464.000
257.471; -104.750; -939.000; -807.000
257.613;  -61.875; -584.000; -498.000
257.755; -158.050;-1073.000; -982.000
257.896;   43.800;  286.000;  392.000
258.038;  -58.000; -403.000; -352.000
258.180;  -26.400; -354.000; -279.000
258.321;  -92.625; -581.000; -457.000
258.463;   -3.975;  -71.000;  133.000
258.605;  -77.850; -562.000; -570.000
258.746; -104.850; -886.000; -772.000
258.888; -150.300;-1026.000;-1020.000
259.029;    9.450;  121.000;   -8.000
259.171;  -95.025; -614.000; -550.000
259.313;   12.875;  -49.000;  -47.000
259.454;  -63.925; -536.000; -414.000
259.596;  -61.750; -483.000; -390.000
259.737;  -75.700; -590.000; -474.000
259.879;   37.575;  217.000;  311.000
260.020;   90.825;  901.000;  636.000
260.162;  -25.475; -146.000; -253.000
260.303; -119.400; -768.000; -687.000
260.445;  -81.350; -609.000; -613.000
260.586;   25.525;  392.000;  157.000
260.728;  -41.150; -360.000; -248.000
260.869;  -69.075; -350.000; -343.000
261.011;   94.000;  706.000;  537.000
261.152;  -71.200; -479.000; -319.000
261.293;  -84.650; -576.000; -595.000
261.435;  -28.200; -219.000; -184.000
261.576;  -51.025; -455.000; -325.000
261.718;   48.675;  420.000;  470.000
261.859; -132.275; -940.000; -949.000
262.000; -134.250; -951.000;-1016.000
262.142;  -11.100;  -52.000;  -60.000
262.283; -110.600; -808.000; -691.000
262.424;  -84.175; -666.000; -625.000
262.566; -163.400;-1161.000; -983.000
262.707; -109.625; -840.000; -830.000
262.848; -121.650; -769.000; -726.000
262.990;  -50.100; -362.000; -345.000
263.131;   75.550;  650.000;  681.000
263.272;    7.875;  -61.000;  -41.000
263.413;  -96.150; -589.000; -561.000
263.555;  -63.075; -669.000; -143.000
263.696;  -79.525; -550.000; -641.000
263.837;  -60.000; -449.000; -551.000
263.978;   -1.550;   -5.000;  -77.000
264.119;  -51.175; -283.000; -264.000
264.261; -110.425; -847.000; -630.000
264.402;    1.575;   33.000;   40.000
264.543;  -80.525; -509.000; -524.000
264.684;    3.575;   61.000;  -50.000
264.825;  -84.250; -816.000; -538.000
264.966;   -5.325;  -84.000;  -67.000
265.107; -108.350; -646.000; -670.000
265.248; -123.375; -825.000; -812.000
265.390;    2.950;  152.000;   -9.000
265.531;  -21.775; -238.000; -107.000
265.672;  -92.025; -557.000; -630.000
265.813;   65.075;  563.000;  439.000
265.954; -145.250; -959.000; -940.000
266.095;   -8.500; -372.000; -322.000
266.236;  -94.450; -686.000; -548.000
266.377;  -39.975; -243.000; -297.000
266.518;  -71.875; -619.000; -547.000
266.659;   32.925;  170.000;  268.000
266.800;   17.925;   83.000;   85.000
266.941;  -84.800; -487.000; -478.000
267.082;   30.750;  354.000;   99.000
267.223;  -50.300; -344.000; -273.000
267.364; -129.050; -892.000; -686.000
267.504;   -3.525;    3.000;  135.000
267.645;   -3.225;  160.000;   67.000
267.786;  -23.400; -147.000;  -86.000
267.927;  -80.850; -473.000; -379.000
268.068;   -3.000; -186.000;  -61.000
268.209;  -41.600; -175.000; -413.000
268.350;  -58.025; -388.000; -532.000
268.490;  -68.050; -648.000; -521.000
268.631;   39.975;  127.000;  225.000
268.772; -107.475; -874.000; -647.000
268.913;  -47.525; -328.000; -476.000
269.054;   -7.250; -117.000;   12.000
269.194;  -44.225; -418.000; -402.000
269.335; -146.300;-1137.000;-1074.000
269.476;   -5.375;   33.000;  -35.000
269.617;  -41.950; -347.000; -392.000
269.757;  -72.625; -713.000; -646.000
269.898;  -94.125; -856.000; -613.000
270.039;  -54.075; -415.000; -405.000
270.180; -134.900; -952.000; -816.000
270.320;  -26.125; -190.000; -250.000
270.461;  -44.525; -277.000; -249.000
270.602;  -17.975; -186.000; -156.000
270.742; -127.350; -868.000; -943.000
270.883;  -55.000; -442.000; -390.000
271.023;  -54.650; -358.000; -357.000
271.164;  -71.875; -607.000; -528.000
271.305;  -96.175; -666.000; -654.000
271.445;  -78.025; -722.000; -683.000
271.586;  -69.625; -462.000; -283.000
271.726;  -44.825; -397.000; -322.000
271.867;  -58.375; -594.000; -534.000
272.008;  207.775; -473.000; -285.000
272.148;  149.200;  462.000;  468.000
272.289;   24.800; -113.000; -181.000
272.429;   16.850;   19.000;  185.000
272.570;  -93.625; -633.000; -737.000
272.710;  -98.050; -825.000; -775.000
272.851;  -20.775;  113.000; -130.000
272.991; -163.275;-1173.000;-1077.000
273.131;  -66.825; -419.000; -459.000
273.272;  -93.850; -683.000; -723.000
273.412;   29.000; -143.000;  -31.000
273.553;  -34.075; -488.000; -507.000
273.693;  136.625;  913.000;  858.000
273.834;  -82.450; -894.000; -692.000
273.974;  -61.575; -664.000; -615.000
274.114; -105.900; -772.000; -560.000
274.255;   86.175;  414.000;  373.000
274.395;   25.650; -180.000; -125.000
274.535;   48.425;  199.000;  350.000
274.676;   22.175;  225.000;   94.000
274.816;    7.150;  110.000;   34.000
274.956;  -88.825; -624.000; -690.000
275.097;  -59.200;-1014.000; -922.000
275.237; -100.000; -913.000; -803.000
275.377;  -86.125; -778.000; -689.000
275.517; -155.650; -878.000; -937.000
275.658;  -47.875; -590.000; -555.000
275.798;  -55.975; -606.000; -413.000
275.938;   18.825;  215.000;  323.000
276.078; -108.375; -626.000; -395.000
276.218;   18.225;   99.000;  104.000
276.359; -118.100;-1026.000;-1024.000
276.499;  -68.425; -605.000; -446.000
276.639;  -43.925; -305.000; -151.000
276.779;  -42.975; -475.000; -357.000
276.919; -108.675; -783.000; -624.000
277.059;  -20.700; -261.000; -212.000
277.199;  -39.600; -357.000; -259.000
277.340;   47.875;  287.000;  175.000
277.480; -108.700; -840.000; -693.000
277.620;   44.175;  192.000;   16.000
277.760; -190.075;-1533.000;-1294.000
277.900;   39.200;  113.000;   33.000
278.040;   35.025;  137.000;  159.000
278.180;   60.325;  270.000;  170.000
278.320;    4.525;   21.000;   56.000
278.460;  -71.700; -443.000; -469.000
278.600;  -88.375; -708.000; -598.000
278.740;   62.225;  448.000;  224.000
278.880;  -29.325; -768.000; -791.000
279.020;   14.975; -194.000; -144.000
279.160;  -84.125; -672.000; -595.000
279.300; -118.900; -926.000; -873.000
279.440;  -79.250; -709.000; -622.000
279.579;  -13.250;-1014.000; -929.000
279.719;  -43.225; -410.000; -394.000
279.859;   92.125;   -4.000;   41.000
279.999;   49.775; -208.000;  101.000
280.139;   -9.325; -435.000; -387.000
280.279;  -61.550; -708.000; -745.000
280.419;  -10.300; -229.000; -147.000
280.559;  -30.775; -259.000; -180.000
280.698;  -74.975; -790.000; -639.000
280.838;  -88.475; -778.000; -800.000
280.978;  -88.850; -846.000; -790.000
281.118; -119.275; -811.000; -704.000
281.257;   16.800;   24.000;    6.000
281.397;  -99.900;-1094.000; -960.000
281.537;  -79.575; -599.000; -712.000
281.677;  -11.675; -150.000; -101.000
281.816;  -82.400; -700.000; -630.000
281.956;  -41.800; -193.000; -257.000
282.096;  -65.250; -539.000; -396.000
282.235;  -97.425; -672.000; -638.000
282.375;   -9.325; -243.000;  -98.000
282.515;  -95.150; -715.000; -707.000
282.654;   43.225;   29.000;  106.000
282.794;   25.900;  388.000;  244.000
282.934;  -45.975; -530.000; -491.000
283.073; -129.450;-1030.000; -857.000
283.213;  -38.450; -460.000; -467.000
283.353;  -23.200; -408.000; -349.000
283.492;  -32.225; -264.000; -296.000
283.632;  -45.525; -254.000; -168.000
283.771;  -97.575; -859.000; -730.000
283.911;  -40.800; -369.000; -260.000
284.050;  -87.625; -794.000; -748.000
284.190; -162.025;-1229.000;-1096.000
284.329; -128.975;-1055.000; -964.000
284.469;  -60.725; -516.000; -591.000
284.608;  -54.500; -559.000; -598.000
284.748;  -73.350; -614.000; -570.000
284.887;    0.850;  -87.000;  -20.000
285.027; -131.350; -844.000; -892.000
285.166;  -23.975; -192.000; -249.000
285.306;   12.450; -116.000;  -33.000
285.445;  -25.825; -229.000; -343.000
285.584;  -94.375; -630.000; -494.000
285.724;  -52.800; -282.000; -322.000
285.863; -119.000; -857.000; -507.000
286.002;  -58.225; -366.000; -276.000
286.142; -103.200; -715.000; -622.000
286.281;  -57.750; -525.000; -493.000
286.420;  -64.450; -554.000; -417.000
286.560;   96.825;  653.000;  623.000
286.699; -137.600; -958.000; -912.000
286.838;  -77.725; -590.000; -591.000
286.978;  -94.600; -533.000; -537.000
287.117; -135.650;-1085.000; -950.000
287.256;  -36.725; -228.000; -211.000
287.395;  -44.725; -197.000; -378.000
287.535;  -54.525; -370.000; -298.000
287.674;  -76.275; -509.000; -484.000
287.813;   55.750;  661.000;  533.000
287.952; -127.975;-1010.000; -871.000
288.091; -136.575;-1049.000; -915.000
288.231;   26.475;   13.000;   15.000
288.370; -176.425;-1217.000;-1200.000
288.509;  -87.125; -728.000; -645.000
288.648; -101.825; -770.000; -548.000
288.787;  -20.500; -243.000;  -87.000
288.926;  -58.750; -454.000; -475.000
289.065;  121.400;  859.000;  672.000
289.204;  -52.425; -377.000; -217.000
289.344;  -72.000; -791.000; -690.000
289.483;   45.500;  416.000;  304.000
289.622;   -5.825; -291.000; -149.000
289.761;  -16.125; -309.000; -166.000
289.900; -104.075; -785.000; -626.000
290.039;   -7.300;  -12.000;  -95.000
290.178;  -37.950; -274.000; -180.000
290.317;  -68.975; -618.000; -479.000
290.456;  -49.725; -463.000; -451.000
290.595; -143.100; -961.000; -833.000
290.734; -124.600; -904.000; -891.000
290.873;  -68.500; -456.000; -420.000
291.011; -105.550; -833.000; -843.000
291.150; -100.775; -770.000; -682.000
291.289;   -3.575; -343.000; -110.000
291.428;  -93.225; -599.000; -480.000
291.567;  -55.050; -370.000; -442.000
291.706;   12.275;  109.000;  154.000
291.845;  -69.375; -597.000; -505.000
291.984; -174.050;-1234.000;-1061.000
292.122;   85.175;  602.000;  582.000
292.261;   60.650;  620.000;  463.000
292.400;   12.950; -144.000;  211.000
292.539; -120.375; -959.000; -813.000
292.678;  -30.000; -325.000; -300.000
292.816; -153.550;-1136.000; -965.000
292.955;  -79.875; -844.000; -684.000
293.094;  -17.950; -173.000; -337.000
293.233;  -41.175; -556.000; -400.000
293.371;  -38.325; -225.000;  -84.000
293.510; -111.825; -866.000; -780.000
293.649; -131.625; -959.000; -924.000
293.787;  -43.925;-1083.000;-1012.000
293.926;   -5.300; -113.000;  -32.000
294.065;  -35.800; -379.000; -290.000
294.203;   59.100;  298.000;  406.000
294.342;   38.475;   74.000;  156.000
294.481; 5398.450;51180.000; -836.000
294.619;  -27.425; -425.000; -582.000
294.758; -145.625;-1230.000;-1137.000
294.896;   87.500; -125.000;    5.000
295.035; -117.175;-1040.000;-1006.000
295.174; -106.050;-1082.000; -954.000
295.312;  -34.400; -323.000; -203.000
295.451;   12.400; -307.000; -428.000
295.589;  -36.425; -389.000; -518.000
295.728;   31.850; -292.000; -165.000
295.866;   15.275;  -36.000;  -51.000
296.005;  -57.250; -584.000; -341.000
296.143;  -52.425; -558.000; -596.000
296.282; -101.325; -957.000; -881.000
296.420;  -79.375; -657.000; -557.000
296.559;  -68.125; -892.000; -633.000
296.697;   73.075; -847.000; -665.000
296.835;  116.900;-1141.000;-1002.000
296.974;   61.800;  -23.000;   39.000
297.112;   35.725; -443.000; -504.000
297.251;  -66.150; -815.000; -755.000
297.389;  134.425; -576.000; -438.000
297.527;   52.575; -145.000;  -83.000
297.666;  -35.675; -486.000; -438.000
297.804;  -47.425; -404.000; -264.000
297.942;   -5.100; -136.000; -161.000
298.081;   -4.325; -183.000;   63.000
298.219;   90.225;  -17.000;  -19.000
298.357;   68.925; -144.000;  -71.000
298.495;   57.525; -810.000; -812.000
298.634;  118.200;  245.000;  219.000
298.772;   97.650; -220.000; -338.000
298.910;  -29.200; -309.000; -182.000
299.048;   -2.925; -130.000; -153.000
299.187;  -22.850; -350.000; -250.000
299.325;   27.250;   52.000;  122.000
299.463;   94.450; -389.000; -299.000
299.601;  161.350; -327.000; -271.000
299.739;  -84.625; -908.000; -883.000
299.877;  -70.025; -791.000; -703.000
300.016;  -40.600;-1095.000; -935.000
300.154;  216.700;  -19.000; -161.000
300.292;   87.225; -428.000; -348.000
300.430;   63.125; -408.000; -291.000
300.568;  -85.425; -940.000; -874.000
300.706;  -39.975; -366.000; -469.000
300.844;  -60.725;-1108.000; -979.000
300.982;  149.925;  246.000;  282.000
301.120;  -92.775; -965.000; -866.000
301.258;  -56.500; -812.000; -705.000
301.396;   60.150;  104.000;  -41.000
301.534;  125.200; -218.000; -293.000
301.672;   20.850; -664.000; -521.000
301.810;   82.975; -613.000; -545.000
301.948;  143.400;   53.000;  149.000
302.086;  727.675; -250.000;  -32.000
302.224; 1176.325; -610.000; -585.000
302.362;   82.750; -558.000; -622.000
302.500;   22.850; -923.000; -893.000
302.638;  145.150;  128.000;  245.000
302.776;   23.000; -352.000; -408.000
302.913;   49.825;  447.000;  236.000
303.051;   16.725;  -86.000;  -23.000
303.189;   68.775;   90.000;  118.000
303.327;  -29.425; -341.000; -256.000
303.465;  -60.525; -832.000; -588.000
303.603; -100.400; -805.000; -604.000
303.740;  124.550;  417.000;  241.000
303.878;   61.625; -800.000; -759.000
304.016;  -75.300; -915.000; -790.000
304.154; -116.425;-1123.000;-1152.000
304.291;  -23.725; -505.000; -554.000
304.429;   15.850;  102.000;   74.000
304.567; -109.525; -908.000; -893.000
304.705;  -40.125; -408.000; -515.000
304.842;  138.725; -616.000; -540.000
304.980;   69.325;  215.000;   35.000
305.118;   88.525; -367.000; -365.000
305.255;  -48.075; -945.000; -927.000
305.393;   67.550;  178.000;  239.000
305.531;  -86.750;-1173.000; -956.000
305.668;  -62.625; -663.000; -582.000
305.806;  122.125; -358.000; -439.000
305.943;  152.125; -629.000; -637.000
306.081;   84.600; -378.000; -267.000
306.219;  -88.675; -863.000; -748.000
306.356;   17.825;  158.000;   27.000
306.494;  119.250;  981.000;  761.000
306.631;   -5.050;  -11.000;  -55.000
306.769;   32.375; -613.000; -485.000
306.906;    0.675; -284.000; -258.000
307.044;  -62.750; -473.000; -488.000
307.181;  -61.850; -410.000; -332.000
307.319;   24.400;  112.000;   87.000
307.456; -164.725;-1191.000;-1153.000
307.594;  -85.000; -980.000; -727.000
307.731;    1.725; -371.000; -164.000
307.868;    8.975;  -15.000;   20.000
308.006; -131.925; -961.000; -847.000
308.143;  -58.100; -618.000; -330.000
308.281;  173.575;  -37.000; -254.000
308.418;   -4.175; -748.000; -640.000
308.555;  -64.800; -400.000; -250.000
308.693;  -67.450; -577.000; -573.000
308.830; -111.950; -712.000; -657.000
308.967;   -5.025; -215.000;  -95.000
309.105;  -37.550; -507.000; -396.000
309.242;   53.150; -468.000; -367.000
309.379;  335.975; -577.000; -655.000
309.517;  -48.050; -936.000; -948.000
309.654; -110.650; -910.000; -734.000
309.791;  -62.250; -662.000; -580.000
309.928; -107.100; -977.000; -914.000
310.065;  215.650;  819.000;  697.000
310.203;    9.800; -825.000; -850.000
310.340;    3.575; -465.000; -321.000
310.477;  -70.750; -412.000; -516.000
310.614;  -68.250; -383.000; -473.000
310.751;  -65.650; -427.000; -518.000
310.889;  -14.850;    1.000;   11.000
311.026; -153.400;-1161.000; -939.000
311.163;  -35.225; -386.000; -380.000
311.300;  -63.725; -512.000; -479.000
311.437;  -72.650; -658.000; -619.000
311.574; -158.425;-1226.000; -985.000
311.711;  -52.725; -595.000; -433.000
311.848;  -29.600; -380.000; -388.000
311.985;   22.525;  270.000;   93.000
312.122; -123.125; -932.000; -762.000
312.259; -111.900; -941.000; -994.000
312.396;  -77.175; -508.000; -551.000
312.533;  -81.750; -812.000; -790.000
312.670; -117.775;-1070.000; -898.000
312.807;  -34.425; -352.000; -367.000
312.944;  -73.775; -513.000; -611.000
313.081;  -16.900; -150.000; -415.000
313.218; -100.825;-1111.000; -867.000
313.355;   35.125; -531.000; -449.000
313.492;   19.825; -455.000; -292.000
313.629;  153.750;  815.000;  735.000
313.766; -162.450;-1176.000;-1008.000
313.902;    8.700; -186.000;   21.000
314.039;  -33.275; -372.000; -289.000
314.176;   29.075;  286.000;  192.000
314.313;  -74.650; -569.000; -473.000
314.450;  -68.550; -788.000; -684.000
314.587;  -47.475; -468.000; -480.000
314.723;   19.150;  -78.000;  130.000
314.860;   34.575;  318.000;  332.000
314.997;   36.800;  223.000;  142.000
315.134;  -31.525; -385.000; -368.000
315.270;  -20.550; -480.000; -496.000
315.407; -112.175;-1094.000; -967.000
315.544;  -43.075; -657.000; -538.000
315.681;  -51.600; -681.000; -565.000
315.817;   49.350; -133.000; -176.000
315.954;   41.950; -613.000; -392.000
316.091; -105.125;-1045.000;-1023.000
316.227;  -20.125;  -71.000; -179.000
316.364;   10.450;   23.000;    6.000
316.500;  -23.250; -113.000; -300.000
316.637;  -39.375; -181.000; -302.000
316.774;  -87.600; -625.000; -358.000
316.910;  -89.325; -598.000; -629.000
317.047;  -75.350; -487.000; -351.000
317.183;  -48.325; -435.000; -566.000
317.320;  -22.925; -367.000; -321.000
317.456;  -72.625; -733.000; -805.000
317.593;  -99.375; -598.000; -641.000
317.729;   17.800;  168.000;  -67.000
317.866; -189.650;-1434.000;-1285.000
318.002;  -84.425; -708.000; -948.000
318.139;  -74.200; -883.000; -867.000
318.275;  -92.825;-1003.000; -738.000
318.412;  -50.400; -517.000; -336.000
318.548;  -14.350; -751.000; -720.000
318.685;  -85.425; -985.000; -888.000
318.821;  -88.175; -762.000; -735.000
318.957;    5.250;   34.000;  -23.000
319.094;   40.775;  297.000;  154.000
319.230;  -43.800; -756.000; -742.000
319.367;  165.750; -471.000; -520.000
319.503;   85.200; -538.000; -436.000
319.639;  -97.900; -877.000; -793.000
319.775;  -48.475; -750.000; -685.000
319.912;  -37.175; -424.000; -519.000
320.048;  -64.350;-1184.000;-1184.000
320.184;   63.125;   59.000;   70.000
320.321;  -69.075; -497.000; -467.000
320.457;   75.375;  475.000;  662.000
320.593;  -67.125; -375.000; -382.000
320.729;  -99.625; -732.000; -734.000
320.866;  -75.750; -577.000; -635.000
321.002;  -72.400; -759.000; -809.000
321.138;   -0.625; -135.000; -211.000
321.274;   84.825; -148.000; -115.000
321.410;  -17.550; -585.000; -353.000
321.546;   -7.500;-1011.000; -911.000
321.683;   60.125;  400.000;  185.000
321.819;   24.075;  -48.000; -117.000
321.955; -100.525; -743.000; -722.000
322.091;  -30.150; -585.000; -540.000
322.227;   -1.450; -382.000; -202.000
322.363;  -10.850; -320.000; -215.000
322.499;  -35.650; -343.000; -331.000
322.635;  193.550;  636.000;  443.000
322.771;   41.400; -139.000;   12.000
322.907;  102.325;  129.000;  327.000
323.043;  -17.775; -115.000; -206.000
323.179;  -17.050; -394.000; -363.000
323.315;   78.425; -401.000; -371.000
323.451;  139.275; -328.000; -236.000
323.587;   81.725;  -60.000;  -77.000
323.723;   42.550; -682.000; -601.000
323.859;   -7.050; -258.000;  -76.000
323.995;  -21.225; -467.000; -409.000
324.131; -111.175; -967.000; -892.000
324.267;  -35.525; -254.000; -276.000
324.402; -125.275; -960.000; -983.000
324.538;   -1.375; -279.000; -104.000
324.674;   29.475;  164.000;   77.000
324.810;  171.975;  226.000;  308.000
324.946;   18.950; -810.000; -658.000
325.082;  -56.725; -568.000; -475.000
325.217;   -6.500;  -62.000;   16.000
325.353;  -87.625; -764.000; -659.000
325.489;  -80.975; -540.000; -506.000
325.625;  -66.400; -579.000; -525.000
325.760;   62.675;  517.000;  376.000
325.896;  -43.375; -515.000; -702.000
326.032;  -44.950; -403.000; -352.000
326.168;  -59.150; -462.000; -369.000
326.303;  -64.625; -352.000; -461.000
326.439;  -27.950; -336.000; -276.000
326.575;    8.250; -190.000;  -29.000
326.710;    0.025; -156.000;  -30.000
326.846;   -0.700;  146.000;  103.000
326.982;  -88.450; -530.000; -548.000
327.117;  -58.100; -481.000; -442.000
327.253;  -84.225; -745.000; -742.000
327.388; -121.625;-1137.000;-1153.000
327.524;  -19.000; -811.000; -578.000
327.659;  -15.975;  -58.000;  -22.000
327.795;   -3.150;   69.000;   45.000
327.931;  -85.100; -723.000; -499.000
328.066;  -10.950; -417.000; -276.000
328.202;  -37.600;   12.000; -129.000
328.337;  111.175;  957.000;  713.000
328.473;   25.475;  -12.000;  -74.000
328.608;  -19.950; -256.000; -267.000
328.743;  -74.275; -799.000; -664.000
328.879;   30.800;  214.000;  114.000
329.014;  -26.725; -102.000; -122.000
329.150;  -60.175; -358.000; -483.000
329.285;  -76.025; -465.000; -466.000
329.421;  -43.150; -548.000; -246.000
329.556;  -14.475;  -36.000;   85.000
329.691;  -89.250; -633.000; -615.000
329.827;  -68.525; -626.000; -480.000
329.962;  -30.850;  131.000; -301.000
330.097;  -81.950; -673.000; -585.000
330.233;  -47.875; -410.000; -223.000
330.368; -120.300; -839.000; -628.000
330.503;    0.000;    3.000;   98.000
330.638;   17.225;  -93.000; -125.000
330.774;  -54.275; -609.000; -530.000
330.909;  -36.125; -434.000; -244.000
331.044;  -82.125; -714.000; -708.000
331.179; -164.875;-1217.000;-1109.000
331.315;   16.825;   77.000;   20.000
331.450;   24.000;  157.000;  285.000
331.585;  -79.350; -805.000; -706.000
331.720;  -74.875; -510.000; -460.000
331.855;   -0.575;  -35.000; -102.000
331.990;  198.000;   62.000;  138.000
332.126;  115.000; -110.000;   71.000
332.261;  -22.600; -379.000; -265.000
332.396;   -9.475; -135.000; -242.000
332.531; -103.725;-1074.000;-1031.000
332.666;   30.025; -519.000; -363.000
332.801;  -92.600; -726.000; -807.000
332.936;  -10.725; -192.000; -122.000
333.071; -118.225; -870.000; -817.000
333.206;   17.100;  307.000;  379.000
333.341;   36.575;  344.000;  418.000
333.476;  -70.800; -627.000; -623.000
333.611;  -31.225; -251.000; -173.000
333.746;  -29.075; -381.000; -464.000
333.881;  -92.300; -973.000; -935.000
334.016; -127.600; -936.000; -917.000
334.151; -109.475; -746.000; -702.000
334.286;   36.650;  152.000;  186.000
334.421;  -15.250; -125.000; -178.000
334.556;  -74.475; -611.000; -567.000
334.690;  -65.975; -631.000; -577.000
334.825;   71.525;  381.000;   83.000
334.960;  -44.275; -285.000; -413.000
335.095;   33.975;  135.000;  -91.000
335.230;  -82.350; -722.000; -738.000
335.365; -124.525;-1084.000; -990.000
335.499; -116.300;-1108.000;-1037.000
335.634;   31.725;    9.000;  534.000
335.769;  -86.900; -755.000; -720.000
335.904;  -48.550; -603.000; -561.000
336.038;  -21.525; -735.000; -657.000
336.173;  -89.700;-1206.000;-1194.000
336.308;   34.425; -116.000; -189.000
336.443;   13.625; -544.000; -634.000
336.577;  -50.200; -936.000; -787.000
336.712;  101.650;   -4.000;  -12.000
336.847;    4.025; -724.000; -607.000
336.981;  116.425; -272.000; -208.000
337.116;  360.575;  615.000;  501.000
337.250;  223.650; -434.000; -421.000
337.385;  205.025; -297.000; -208.000
337.520;   50.550; -632.000; -603.000
337.654;  -27.500; -215.000; -126.000
337.789; -104.075; -989.000; -933.000
337.923;  -19.825; -104.000; -205.000
338.058;  -77.600; -673.000; -738.000
338.192;  -18.900; -611.000; -488.000
338.327;    1.150;  -18.000; -155.000
338.461;  -62.400; -299.000; -469.000
338.596;  -85.075; -780.000; -638.000
338.730; -104.050; -767.000; -803.000
338.865;   61.600;  -46.000; -140.000
338.999;  -49.675; -846.000; -702.000
339.134;  -25.850; -634.000; -536.000
339.268;   14.200; -741.000; -603.000
339.403;  337.350; -740.000; -775.000
339.537;   82.575; -894.000; -820.000
339.671; -111.775; -829.000; -813.000
339.806;  -63.975; -556.000; -512.000
339.940;   15.375; -261.000; -235.000
340.074;  -89.950; -685.000; -510.000
340.209;  -41.725; -351.000; -230.000
340.343;  -87.175; -517.000; -573.000
340.477;  154.575;  998.000; 1036.000
340.612;  -67.475;-1033.000; -900.000
340.746;  109.350; -199.000; -243.000
340.880;  -45.350; -924.000; -785.000
341.014;  -19.350;  -45.000; -154.000
341.149; -105.000; -756.000; -718.000
341.283; -102.225; -839.000; -754.000
341.417;  -61.325;-1124.000; -938.000
341.551;  210.425; -768.000; -708.000
341.685;  -16.875; -633.000; -611.000
341.820;  -36.750; -562.000; -493.000
341.954;  -33.375; -218.000; -349.000
342.088; -148.700;-1102.000;-1019.000
342.222;   38.975;  565.000;  618.000
342.356;  -56.375; -395.000; -335.000
342.490;  -70.750; -880.000; -841.000
342.624;  -23.775; -339.000; -242.000
342.758;   36.950; -364.000; -312.000
342.892;  -56.500; -710.000; -585.000
343.026;  -37.400;  -58.000; -116.000
343.160;  -61.800; -426.000; -376.000
343.294;  -76.225; -474.000; -337.000
343.428;    9.425; -488.000; -448.000
343.562;  -18.425; -172.000;  -23.000
343.696;    1.325; -385.000; -314.000
343.830;   -5.550; -362.000; -356.000
343.964;   25.125; -231.000; -168.000
344.098; 1175.825;  199.000;   70.000
344.232;  977.625; -266.000; -127.000
344.366;  116.200; -567.000; -453.000
344.500;   95.875; -665.000; -744.000
344.634;   56.775; -324.000; -164.000
344.768;    9.925; -531.000; -341.000
344.902;   32.225;  278.000;  256.000
345.035;  -67.525; -556.000; -496.000
345.169; -128.350; -933.000; -656.000
345.303;  -26.700; -308.000; -482.000
345.437;  -54.225; -826.000; -717.000
345.571;  -68.900; -675.000; -594.000
345.704;  -65.300; -309.000; -532.000
345.838;   -4.200; -331.000; -284.000
345.972;  -33.500; -543.000; -495.000
346.106;  146.600; -179.000; -190.000
346.239;  444.050; -312.000; -243.000
346.373;   10.275; -343.000; -302.000
346.507; -127.600; -950.000; -962.000
346.640;  203.850;  -30.000;   13.000
346.774;  -29.000; -650.000; -797.000
346.908;  -21.500; -138.000;  -11.000
347.041;  -79.125; -646.000; -593.000
347.175;    7.675;  259.000;   27.000
347.309;  -45.800; -698.000; -628.000
347.442;  -82.450; -883.000; -732.000
347.576;  344.375;  670.000;  668.000
347.709;  283.875; -123.000;  -52.000
347.843;  -68.475; -933.000; -825.000
347.976;   48.700;  235.000;  294.000
348.110; -166.150;-1268.000;-1186.000
348.243; -101.725; -679.000; -772.000
348.377;    5.375;  -26.000;   60.000
348.510;   64.700;  403.000;  540.000
348.644;  -32.425;  -37.000; -159.000
348.777;    4.175;  180.000;  191.000
348.911;  -38.775; -142.000; -112.000
349.044;  222.000;  471.000;  448.000
349.178;  239.875;-1069.000;-1006.000
349.311;  135.225;  141.000;  255.000
349.444;  -21.625; -927.000; -813.000
349.578;  -10.350; -347.000; -200.000
349.711;  -86.000; -959.000; -862.000
349.845;   38.550; -661.000; -591.000
349.978; -130.250;-1224.000;-1137.000
350.111;  -68.075; -546.000; -612.000
350.244;  -66.425; -596.000; -700.000
350.378;   17.075; -392.000; -393.000
350.511;  -62.375; -393.000; -426.000
350.644; -101.325; -808.000; -806.000
350.778;   15.950;  168.000;  104.000
350.911;   16.825;  134.000;  140.000
351.044;  -74.200; -685.000; -615.000
351.177;  -23.300; -321.000; -281.000
351.310;   -9.000;    3.000; -131.000
351.444;  -56.500; -888.000; -788.000
351.577;  148.675;  140.000;   90.000
351.710;  113.650;  593.000;  417.000
351.843;  -26.000; -165.000;  -77.000
351.976;    8.175;  149.000;  -79.000
352.109;  -96.425; -621.000; -612.000
352.242;  -11.500; -464.000; -419.000
352.376;  -30.650; -580.000; -636.000
352.509;  247.825; -437.000; -356.000
352.642;   58.700; -654.000; -604.000
352.775;   87.375; -141.000;  -98.000
352.908; -105.075; -933.000; -904.000
353.041;  -82.175; -814.000; -824.000
353.174;  -54.450; -551.000; -424.000
353.307;  -70.725; -753.000; -764.000
353.440;   85.875;  541.000;  453.000
353.573;  -99.700; -957.000;-1008.000
353.706;    3.000; -384.000; -558.000
353.839;   -8.100; -264.000; -220.000
353.971;  -90.450; -657.000; -512.000
354.104;  -77.750; -896.000; -835.000
354.237;  -13.650; -627.000; -662.000
354.370;  -77.150; -846.000; -879.000
354.503; -184.150;-1231.000;-1308.000
354.636;  -18.500; -529.000; -348.000
354.769; -119.325; -937.000; -860.000
354.902;   10.400; -230.000; -139.000
355.034;  -21.150; -164.000; -220.000
355.167;    0.500; -262.000; -162.000
355.300;  -89.450;-1061.000; -880.000
355.433;  842.000;  -71.000;  -14.000
355.565; 1306.725; -402.000; -384.000
355.698;  345.425; -356.000; -296.000
355.831;   15.975; -882.000; -801.000
355.964;  130.275; -285.000; -170.000
356.096;  -56.650; -856.000; -843.000
356.229;   31.600; -523.000; -530.000
356.362;  277.625; -373.000; -266.000
356.494;  541.250; -229.000; -162.000
356.627;  582.000;  269.000;  377.000
356.760;  613.175;  120.000;   53.000
356.892;  827.725; -286.000; -601.000
357.025;  820.650;  403.000;  389.000
357.157;  774.125; -167.000; -179.000
357.290;  557.350; -856.000; -713.000
357.423;  182.875; -667.000; -556.000
357.555;  160.500; -217.000; -228.000
357.688;  187.800; -483.000; -364.000
357.820;  541.800; -870.000; -877.000
357.953; 4367.425; -563.000; -589.000
358.085; 1011.875; -632.000; -612.000
358.218; 1637.275;-1131.000; -932.000
358.350;  302.250;  -58.000;  312.000
358.483; -111.950;-1300.000;-1187.000
358.615;   24.425;-1182.000;-1078.000
358.747;  -20.800;-1187.000;-1058.000
358.880;   82.350; -810.000; -744.000
359.012;    2.300; -376.000; -202.000
359.145;  -33.675; -480.000; -511.000
359.277;  109.675; -962.000; -913.000
359.409; 3602.200;  536.000;  231.000
359.542;  981.425; -738.000; -688.000
359.674;   98.150;   46.000;   13.000
359.806;  -51.300; -565.000; -438.000
359.939;  -55.700; -617.000; -516.000
360.071;  -22.525; -583.000; -579.000
360.203;  -15.125; -411.000; -364.000
360.335;   65.250;  164.000;  -16.000
360.468;  215.875; -249.000; -307.000
360.600; 2782.825; -547.000; -454.000
360.732; 2452.275; -546.000; -423.000
360.864;  353.800;-1216.000;-1044.000
360.996;  398.575; -516.000; -554.000
361.129;   68.600; -389.000; -598.000
361.261;   34.725;  110.000; -113.000
361.393;  -21.100; -252.000; -214.000
361.525;   53.100;   94.000;  244.000
361.657;  -31.175; -821.000; -703.000
361.789;   32.450; -139.000; -155.000
361.921;  341.100; -642.000; -593.000
362.053;  330.825;  524.000;  541.000
362.185;   60.500;  288.000;   72.000
362.318;  -44.800; -709.000; -705.000
362.450;  185.125;  294.000;  444.000
362.582;  240.725; -913.000; -870.000
362.714;   -5.725; -353.000; -332.000
362.846;  -78.975; -606.000; -490.000
362.978; -131.350; -941.000; -811.000
363.109;   82.875; -161.000; -260.000
363.241;  568.575; -739.000; -749.000
363.373;  395.400; -649.000; -564.000
363.505;  541.625; -186.000;  -91.000
363.637;  131.725; -787.000; -601.000
363.769; -102.950;-1067.000;-1080.000
363.901;  -57.350; -596.000; -654.000
364.033; -103.250;-1103.000;-1062.000
364.165;    3.075; -283.000; -283.000
364.296;   74.900; -316.000; -177.000
364.428;   28.350;-1344.000;-1220.000
364.560;  -56.625; -679.000; -661.000
364.692;  -40.100; -738.000; -835.000
364.824;  395.825; -588.000; -456.000
364.955;  454.650; -402.000; -564.000
365.087;  685.975;-1097.000; -852.000
365.219;    8.350; -686.000; -816.000
365.351;  -76.375; -526.000; -572.000
365.482;   63.225;  300.000;  240.000
365.614;  -30.250; -402.000; -314.000
365.746;  -96.300; -729.000; -752.000
365.877; -104.200; -706.000; -672.000
366.009;  224.350;  -35.000;  -62.000
366.141;  -93.525;-1249.000;-1134.000
366.272; -109.450; -803.000; -719.000
366.404;  -97.125;-1005.000; -874.000
366.535;   -6.350; -139.000;  -12.000
366.667;  -98.825; -644.000; -649.000
366.799;   29.625;  353.000;  203.000
366.930; -107.700; -862.000; -996.000
367.062;  130.125; -639.000; -613.000
367.193;  103.575; -872.000; -842.000
367.325;  -50.600; -580.000; -684.000
367.456;  113.325; -246.000;   31.000
367.588;  158.200; -371.000; -318.000
367.719;   20.700;  -44.000;  -45.000
367.851;   26.025; -222.000; -241.000
367.982;  -11.000; -875.000; -732.000
368.113;  165.575; -475.000; -358.000
368.245;  -99.650; -960.000; -841.000
368.376;   -7.200; -254.000; -302.000
368.508;  -29.675; -188.000; -263.000
368.639; -126.675;-1166.000;-1034.000
368.770;   18.800; -670.000; -589.000
368.902;  -40.900; -836.000; -926.000
369.033;  -85.500; -906.000; -855.000
369.164;  -37.950; -720.000; -653.000
369.296; -109.800; -452.000; -601.000
369.427;    9.025; -209.000; -144.000
369.558;  -26.300; -593.000; -377.000
369.689;  -82.550; -721.000; -569.000
369.821; -133.325; -951.000; -845.000
369.952;  -18.950;   42.000; -108.000
370.083;  -36.325; -229.000; -108.000
370.214;  -73.500; -735.000; -650.000
370.345;   10.775;   65.000;   81.000
370.477;  -59.475; -810.000; -790.000
370.608;  312.775; -328.000; -264.000
370.739;  -15.450;-1233.000;-1292.000
370.870;   -4.675;-1102.000; -923.000
371.001;  155.325; -378.000; -467.000
371.132;  -62.200; -754.000; -735.000
371.263;  -13.550;  -42.000; -148.000
371.394; -121.525; -841.000; -748.000
371.525;   42.575;  345.000;  225.000
371.657;  -79.225; -808.000; -670.000
371.788;   98.075;  103.000;  199.000
371.919;  220.500; -384.000; -304.000
372.050; 4560.200;  -91.000; -156.000
372.181; 1342.825; -188.000; -294.000
372.311;  501.475;   42.000; -127.000
372.442;   65.975; -457.000; -451.000
372.573;    9.900; -444.000; -340.000
372.704; -108.325;-1008.000; -980.000
372.835;  123.900; -228.000; -289.000
372.966;  -48.750; -646.000; -554.000
373.097;  -46.675; -575.000; -711.000
373.228;  -12.850; -717.000; -542.000
373.359;  206.650; -824.000; -536.000
373.490; 1240.750; -881.000; -727.000
373.620; 1545.825;-1001.000; -803.000
373.751; 2310.025; -332.000; -396.000
373.882; 1071.150; -663.000; -733.000
374.013;  109.725; -449.000; -262.000
374.143;  -23.675; -581.000; -659.000
374.274;  -94.125; -987.000; -908.000
374.405;  231.925; -388.000; -276.000
374.536;  607.200; -526.000; -387.000
374.666; 1505.900; -759.000; -807.000
374.797;  335.000; -817.000; -868.000
374.928; 1171.775; -710.000; -560.000
375.058; 1175.925; -535.000; -500.000
375.189;  116.625;  -59.000;  -93.000
375.320;  -82.350; -928.000;-1034.000
375.450;  -23.575; -625.000; -616.000
375.581;  -42.975; -526.000; -436.000
375.712;  -10.375; -574.000; -250.000
375.842;  415.025; -438.000; -415.000
375.973;  321.700; -554.000; -513.000
376.103;   -7.775; -665.000; -648.000
376.234;  -64.100; -531.000; -552.000
376.364;  -10.500; -944.000; -867.000
376.495;  389.425;  925.000;  529.000
376.625;   50.350; -472.000; -485.000
376.756;  113.650; -709.000; -678.000
376.886;  -43.525;-1178.000;-1026.000
377.017;   24.500;-1048.000;-1061.000
377.147;  283.300; -786.000; -782.000
377.278;   48.450;  174.000;  228.000
377.408; -131.650; -801.000; -815.000
377.538;  -93.825; -707.000; -693.000
377.669;  -78.250; -537.000; -613.000
377.799;  -66.675; -645.000; -635.000
377.929;  -33.650; -610.000; -428.000
378.060; -131.625; -781.000; -847.000
378.190;  -59.500; -726.000; -531.000
378.320;  -42.500; -401.000; -406.000
378.451;    2.925; -131.000;  -22.000
378.581;   -2.325;  -67.000; -110.000
378.711;  171.075; 1035.000;  866.000
378.841;   13.775; -533.000; -675.000
378.972;  -49.575; -871.000; -751.000
379.102;   30.975; -652.000; -579.000
379.232;   -7.825; -126.000;  -73.000
379.362; -100.300;-1001.000; -885.000
379.492;   46.125; -373.000; -424.000
379.623;  150.150;    0.000;  111.000
379.753;  -89.025;-1107.000; -974.000
379.883;  267.850;   59.000;  156.000
380.013;   58.325;-1081.000;-1017.000
380.143;  -65.275;-1097.000;-1056.000
380.273;  -85.725; -985.000; -861.000
380.403;   23.725; -344.000; -257.000
380.533;   -7.475; -651.000; -664.000
380.663;  108.575;  173.000;  128.000
380.793;  -60.550;-1027.000;-1074.000
380.923;   -5.925; -103.000;  -34.000
381.053;  -85.650; -613.000; -623.000
381.183;  -28.850; -106.000; -248.000
381.313;   80.825; -656.000; -470.000
381.443;   76.075; -692.000; -473.000
381.573;  298.050; -402.000; -409.000
381.703;  430.250;-1249.000;-1095.000
381.833;  -98.825;-1454.000;-1336.000
381.963;  144.900; -134.000;  -87.000
382.093; 1727.175; -925.000; -909.000
382.223;  547.425; -713.000; -602.000
382.353;   11.525; -801.000; -608.000
382.482;  547.575;-1091.000; -964.000
382.612;  990.250; -872.000; -644.000
382.742;  534.875; -695.000; -622.000
382.872;  380.600; -565.000; -551.000
383.002;   94.450;  347.000; -132.000
383.131;   -1.050; -226.000; -160.000
383.261;  -38.050; -706.000; -768.000
383.391;  313.775; -552.000; -377.000
383.521; 2678.150;  451.000;  263.000
383.650;  594.050; -947.000; -904.000
383.780;  -26.600; -783.000; -656.000
383.910;  121.300;  880.000;  802.000
384.039;   53.800; -794.000; -656.000
384.169;  315.225;-1205.000;-1017.000
384.299;   13.875; -650.000; -662.000
384.428;  -72.725; -764.000; -680.000
384.558;  -36.625; -308.000; -275.000
384.687;  -35.875; -414.000; -334.000
384.817;   36.700;   75.000;   -2.000
384.947;   50.350; -234.000; -141.000
385.076;  345.850;  982.000;  912.000
385.206;  129.300;  369.000;  480.000
385.335;  -12.800; -549.000; -417.000
385.465;  -73.800; -655.000; -663.000
385.594;  196.150;  -53.000;  -44.000
385.724;  618.350; -868.000; -838.000
385.853;  179.850; -296.000; -270.000
385.982; 1819.150; -743.000; -787.000
386.112; 2809.200;-1052.000; -871.000
386.241;  201.850; -307.000; -312.000
386.371;   47.400; -174.000;  -87.000
386.500;   29.525; -825.000; -789.000
386.629;   46.075; -874.000; -817.000
386.759;   82.575;  -43.000;   68.000
386.888;   14.350; -170.000; -250.000
387.017;  -61.400; -648.000; -620.000
387.147;  -64.625; -771.000; -798.000
387.276;   26.500; -410.000; -397.000
387.405;   39.700; -398.000; -342.000
387.535;  -27.625; -452.000; -361.000
387.664;  -43.075; -692.000; -620.000
387.793;   92.750; -198.000; -113.000
387.922;  694.825;  255.000;  200.000
388.052;   63.225; -576.000; -423.000
388.181;   73.400; -342.000; -472.000
388.310;   74.525; -889.000; -710.000
388.439;   -6.900; -749.000; -742.000
388.568;  254.825;  365.000;  244.000
388.697; 1421.450; -756.000; -653.000
388.826;  312.825; -768.000; -666.000
388.956;  116.000; -285.000; -307.000
389.085;  -16.925; -347.000; -287.000
389.214; -101.850; -842.000; -872.000
389.343;  -50.650; -645.000; -413.000
389.472;  362.625;  126.000;  149.000
389.601;  509.600;   91.000;    0.000
389.730;   41.025; -568.000; -687.000
389.859;   88.650;  226.000;   46.000
389.988;  272.350; -423.000; -408.000
390.117;  194.425; -168.000; -146.000
390.246;   22.900; -331.000; -320.000
390.375;  178.925; -673.000; -626.000
390.504;  -52.175; -703.000; -621.000
390.633;  -82.175; -672.000; -726.000
390.761;  -43.150; -732.000; -645.000
390.890;   52.325;   -4.000; -130.000
391.019;    9.200; -421.000; -441.000
391.148; -131.875; -826.000; -855.000
391.277;  -44.975; -576.000; -493.000
391.406;  -56.150; -821.000; -805.000
391.534;   48.125;  574.000; -301.000
391.663;  -50.800; -583.000; -645.000
391.792;  -63.475; -673.000; -701.000
391.921;  158.950;   -3.000;   15.000
392.050;  289.725; -287.000; -228.000
392.178;    1.425;-1206.000;-1061.000
392.307;  218.900; -758.000; -712.000
392.436;  120.925; -427.000; -641.000
392.564;   44.675;  166.000;   -6.000
392.693;  -77.500; -860.000; -682.000
392.822;  302.700; -529.000; -534.000
392.950;  154.675; -880.000; -714.000
393.079;  450.550; -188.000; -328.000
393.208;   52.850; -488.000; -511.000
393.336;  -18.900; -170.000; -145.000
393.465;  -45.450; -317.000; -199.000
393.593;   13.325;   62.000;   79.000
393.722; -148.575;-1121.000; -916.000
393.850;  -26.225; -188.000;  -61.000
393.979; -152.050; -926.000; -805.000
394.107;  -63.100; -517.000; -537.000
394.236;    7.475; -570.000; -507.000
394.364;  219.700;  383.000;  206.000
394.493;  360.400; -911.000; -767.000
394.621;  -10.475; -955.000; -916.000
394.750;  606.300; -873.000; -923.000
394.878; 2598.325; -247.000; -149.000
395.007; 3507.325; -721.000; -807.000
395.135;  263.350; -790.000; -721.000
395.263;  -71.175;-1038.000;-1040.000
395.392;   15.350;  -25.000; -107.000
395.520; -143.225; -818.000; -679.000
395.648;  -79.425; -865.000; -915.000
395.777;    8.625; -366.000; -405.000
395.905;  -41.900; -449.000; -564.000
396.033;    9.925;  217.000;  172.000
396.162;  614.875; -399.000; -453.000
396.290;  519.175;  -17.000;   -2.000
396.418;  151.525; -555.000; -514.000
396.546;  -56.000; -571.000; -466.000
396.674;  -87.525; -850.000; -878.000
396.803;   17.950;  -72.000;  -23.000
396.931;  143.725; -179.000; -199.000
397.059;  122.075;-1026.000; -989.000
397.187;  -95.900;-1026.000; -975.000
397.315; -112.425; -884.000; -649.000
397.443;  -99.500; -592.000; -443.000
397.572;  -91.925; -578.000; -424.000
397.700;   30.775; -607.000; -614.000
397.828;   40.975;  120.000;  -90.000
397.956;  -40.950; -508.000; -478.000
398.084;  -70.125; -767.000; -626.000
398.212;   55.575;  137.000;  124.000
398.340;   41.450;  -56.000;  159.000
398.468;   72.350; -390.000; -169.000
398.596; -131.200; -993.000; -953.000
398.724; -105.075; -762.000; -767.000
398.852; -158.525;-1024.000; -976.000
398.980;  -58.150; -560.000; -560.000
399.108;  -36.150; -982.000; -735.000
399.236;   57.050;   13.000;    8.000
399.363;   11.300;  222.000;  196.000
399.491;  -71.750; -404.000; -398.000
399.619; -123.700; -829.000; -800.000
399.747;  -84.425; -859.000; -771.000
399.875;   88.475;  220.000;  234.000
400.003;  -51.650; -359.000; -284.000
400.130;  -93.675; -421.000; -341.000
400.258;   -7.675;  -83.000;   38.000
400.386;  -69.350; -352.000; -168.000
400.514;  -27.500; -526.000; -587.000
400.641;  -63.600; -928.000; -802.000
400.769; -120.825; -979.000; -888.000
400.897; -110.775; -838.000; -793.000
401.025;  -13.350; -166.000; -152.000
401.152;  -13.075;  220.000;   38.000
401.280;  -74.675; -430.000; -429.000
401.408; -110.200; -712.000; -576.000
401.535;  -81.875; -735.000; -758.000
401.663; -187.250;-1134.000;-1054.000
401.790;  -76.900; -514.000; -525.000
401.918;   38.900;  436.000;  405.000
402.046;  -15.675;  134.000;  122.000
402.173;  -23.875;  -18.000;    7.000
402.301;  -62.800; -519.000; -397.000
402.428;   46.475;  528.000;  383.000
402.556; -132.325;-1188.000; -913.000
402.683;  -39.300;  -20.000;   -1.000
402.811;   -9.050;  -37.000; -206.000
402.938;   -4.975;   20.000;   27.000
403.066;  289.600; -574.000; -558.000
403.193;  436.125;  299.000;  239.000
403.321;  354.375; -396.000; -574.000
403.448;  410.200;   83.000;   27.000
403.575;  189.325;  -90.000;  -46.000
403.703;  -82.850; -732.000; -557.000
403.830;  -56.700; -531.000; -496.000
403.957; -149.825;-1117.000;-1023.000
404.085;   14.100;  -61.000; -172.000
404.212;  104.675;  -50.000;   63.000
404.339;  228.500; -566.000; -306.000
404.467; 5035.900; -612.000; -524.000
404.594; 3666.350; -287.000; -227.000
404.721;  983.950; -869.000; -764.000
404.848;   96.875; -113.000; -202.000
404.976;  -93.050; -856.000; -783.000
405.103;  -15.250;  -14.000;  -82.000
405.230;   -1.125;  190.000;  226.000
405.357;   43.550;  117.000;   44.000
405.484;  237.425;  -49.000;    5.000
405.612;   46.525; -548.000; -563.000
405.739;  -67.525; -488.000; -243.000
405.866;   83.800;  669.000;  385.000
405.993;  -32.850; -398.000; -102.000
406.120; -125.000; -801.000; -887.000
406.247;  -64.275; -323.000; -342.000
406.374;  588.950;  540.000;  629.000
406.501;  185.500; -632.000; -702.000
406.628;  -64.500; -621.000; -589.000
406.755;  -78.825; -803.000; -620.000
406.882;  -24.900; -228.000; -277.000
407.009; -109.850; -719.000; -628.000
407.136;   99.875; -480.000; -401.000
407.263;  255.925; -939.000; -829.000
407.390;  -56.025; -692.000; -614.000
407.517; -156.175;-1139.000;-1187.000
407.644;  -49.475; -332.000; -256.000
407.771; -131.275; -249.000; -287.000
407.898;    5.300;  168.000;  328.000
408.025;  -64.425; -421.000; -313.000
408.151;   -7.800;   82.000;  153.000
408.278;  -67.850; -267.000; -216.000
408.405; -118.950; -931.000; -899.000
408.532;  -63.500; -549.000; -542.000
408.659; -109.625; -677.000; -648.000
408.785; -195.500;-1298.000;-1170.000
408.912;  -56.425; -412.000; -296.000
409.039; -111.750; -610.000; -686.000
409.166; -102.900; -591.000; -555.000
409.292; -107.725; -571.000; -534.000
409.419; -118.325; -665.000; -649.000
409.546;  -88.900; -431.000; -192.000
409.672; -108.250; -713.000; -545.000
409.799;  -15.475;  -36.000;   34.000
409.926;  -33.500; -180.000; -179.000
410.052; -159.700;-1127.000;-1091.000
410.179;  -49.125; -368.000; -392.000
410.305;  -71.775; -375.000; -493.000
410.432;  -46.400; -220.000; -333.000
410.558;  -85.175; -305.000; -380.000
410.685; -107.775; -688.000; -431.000
410.812; -100.675; -409.000; -588.000
410.938; -137.525; -964.000; -808.000
411.065;  -92.375; -671.000; -645.000
411.191;  -17.775; -189.000; -174.000
411.317; -109.125; -823.000; -742.000
411.444;  -60.075; -317.000; -246.000
411.570;  -70.825; -339.000; -294.000
411.697; -128.325; -758.000; -752.000
411.823; -176.650; -989.000; -999.000
411.949;  -17.600;  -56.000;   17.000
412.076; -106.475; -539.000; -519.000
412.202; -123.575; -758.000; -757.000
412.329; -125.025; -798.000; -752.000
412.455; -112.275; -821.000; -657.000
412.581;  -27.725;  -15.000;  172.000
412.707;  -52.100; -540.000; -457.000
412.834;   21.025;  156.000;  219.000
412.960;  -79.150; -785.000; -784.000
413.086;  -94.050; -743.000; -701.000
413.212;  187.950;  604.000;  578.000
413.339;  -39.375; -685.000; -701.000
413.465;   49.350; -364.000; -310.000
413.591;  -79.450; -757.000; -474.000
413.717;  -44.600; -358.000; -366.000
413.843; -138.125; -839.000; -861.000
413.969;  -52.750;  -47.000; -292.000
414.096; -113.375; -679.000; -679.000
414.222;   -6.300;  -33.000;   85.000
414.348;    5.575; -652.000; -385.000
414.474;  136.300;   38.000;  -52.000
414.600;  -12.500; -126.000; -144.000
414.726;  -10.075;  -96.000;  -55.000
414.852;  -41.975; -365.000; -342.000
414.978;   42.525;  104.000;  -18.000
415.104;   45.600;   38.000;   80.000
415.230;   26.700; -329.000; -330.000
415.356;   38.925; -409.000; -514.000
415.482;  206.375;   13.000;  -35.000
415.608;  255.275; -247.000; -323.000
415.734;  900.625;   67.000;   38.000
415.860;18501.775; -875.000; -767.000
415.986;13287.775; -685.000; -607.000
416.111; 1141.200; -798.000; -652.000
416.237;  206.650; -424.000; -571.000
416.363;  972.175; -765.000; -733.000
416.489; 3633.975; -324.000; -251.000
416.615;  376.850; -707.000; -742.000
416.741;  -37.650; -677.000; -784.000
416.866;  -90.400; -673.000; -736.000
416.992; -128.625; -801.000; -818.000
417.118;  -31.800;  -41.000;  -80.000
417.244;  -46.825; -798.000; -531.000
417.369;  -88.475; -801.000; -612.000
417.495;    0.750; -325.000; -254.000
417.621;  -83.850;-1015.000; -803.000
417.746;    5.125; -579.000; -572.000
417.872;   49.350; -254.000; -144.000
417.998;   33.375; -515.000; -530.000
418.123;  918.175;-1073.000; -845.000
418.249; 4776.325; -512.000; -601.000
418.374;  634.750; -916.000; -824.000
418.500;   92.750; -383.000; -482.000
418.626;  103.675;   70.000;  -59.000
418.751;  116.150; -549.000; -448.000
418.877;  177.900; -637.000; -643.000
419.002; 1592.225; -688.000; -560.000
419.128;11107.775; -930.000; -721.000
419.253; 2665.125; -967.000; -837.000
419.379;  346.075; -391.000; -338.000
419.504;  370.475;  325.000;  415.000
419.629;  445.500; -393.000; -212.000
419.755; 3042.975; -317.000; -254.000
419.880;17879.325;  -98.000;   67.000
420.006;10134.475; -280.000; -221.000
420.131;26529.475; -662.000; -775.000
420.256; 3794.250; -315.000; -316.000
420.382;  484.450; -665.000; -687.000
420.507;   63.150; -649.000; -778.000
420.632;  200.875; -337.000; -339.000
420.758;  366.825; -251.000; -425.000
420.883;  -64.975; -876.000; -672.000
421.008;  -95.375; -775.000; -619.000
421.133;  -76.900; -509.000; -467.000
421.259;  -43.425; -325.000; -259.000
421.384; -111.625; -834.000; -693.000
421.509;    6.550;-1052.000; -862.000
421.634; 1702.075; -936.000; -820.000
421.759;  722.400; -359.000; -327.000
421.885;  -31.650; -717.000; -656.000
422.010;  -70.175; -673.000; -542.000
422.135; -130.625; -695.000; -727.000
422.260;   39.400;  340.000;  280.000
422.385;  -50.000;   12.000;  -98.000
422.510;    1.050;  151.000;  -26.000
422.635;   29.375;  -87.000;  -43.000
422.760;  130.575; -766.000; -791.000
422.885;   53.975;  -57.000;  -80.000
423.010;  -28.325; -112.000; -169.000
423.135;  -93.900; -481.000; -561.000
423.260;    5.925; -150.000; -245.000
423.385;   94.700;  476.000;  222.000
423.510;   56.175;   71.000;  -22.000
423.635;  110.550;  133.000;   45.000
423.760;   75.200;  383.000;  328.000
423.885;   48.500;  336.000;  391.000
424.010;   14.100;  -68.000;  -13.000
424.135;   -8.475;    5.000;  -33.000
424.259;  -86.150; -654.000; -457.000
424.384;  -50.475; -279.000; -272.000
424.509;  -18.825; -260.000; -186.000
424.634;  -99.975; -761.000; -623.000
424.759;  -24.750; -688.000; -544.000
424.883;  -22.250; -506.000; -527.000
425.008;  157.400; -502.000; -410.000
425.133; 1787.600; -679.000; -653.000
425.258;  837.875; -517.000; -381.000
425.382; 1253.500; -867.000; -774.000
425.507; 3257.175; -487.000; -543.000
425.632;  466.750; -802.000; -663.000
425.756;  415.850; -256.000; -146.000
425.881; 5477.050; -831.000; -857.000
426.006;14426.400; -604.000; -355.000
426.130; 2316.500; -696.000; -508.000
426.255;  284.525; -611.000; -491.000
426.379;  129.000; -189.000; -577.000
426.504;  355.600;  660.000;  544.000
426.629; 3765.400; -519.000; -466.000
426.753; 2582.100;   64.000;  -46.000
426.878;  306.100; -252.000; -288.000
427.002;  124.800; -651.000; -668.000
427.127; 1497.450;  -35.000; -158.000
427.251;10101.250;  372.000;  401.000
427.375; 2868.150; -191.000; -173.000
427.500; 2783.175; -616.000; -610.000
427.624;  958.200; -234.000; -400.000
427.749;  128.475; -216.000; -225.000
427.873;  -43.475; -499.000; -412.000
427.997;  -42.275; -222.000; -230.000
428.122;   75.925;  795.000;  703.000
428.246;   78.175;  433.000;  434.000
428.371; -115.750; -869.000; -773.000
428.495; -100.900; -624.000; -646.000
428.619;  -10.950; -186.000; -117.000
428.743;   39.450;   65.000;  132.000
428.868;   61.025; -732.000; -643.000
428.992; 1774.925; -219.000; -326.000
429.116;  734.625; -329.000; -357.000
429.240;  379.650;  419.000;  426.000
429.365;   -7.200; -454.000; -574.000
429.489;  -23.250; -638.000; -647.000
429.613;   21.075; -236.000; -177.000
429.737;   33.100; -563.000; -432.000
429.861;  259.125; -247.000; -133.000
429.985; 5024.800; -425.000; -305.000
430.109; 5447.925; -770.000; -908.000
430.234;  635.375;   76.000;  -50.000
430.358;   58.475; -250.000; -160.000
430.482;  -65.275; -672.000; -564.000
430.606;  -68.225; -655.000; -375.000
430.730;   45.175; -437.000; -388.000
430.854;  205.475; -909.000; -835.000
430.978;  -56.150; -795.000; -764.000
431.102;  -70.400; -499.000; -422.000
431.226;  -99.675; -874.000; -815.000
431.350;   33.100;  345.000;  422.000
431.474;  -69.950; -661.000; -373.000
431.597; -157.300;-1060.000; -848.000
431.721;  -80.975; -276.000; -267.000
431.845; -125.000; -704.000; -472.000
431.969;  -81.975; -304.000; -349.000
432.093;  -94.450; -395.000; -317.000
432.217;  -18.375;   32.000;   82.000
432.341;  -97.750; -523.000; -518.000
432.464;   25.500;   96.000;   40.000
432.588;  301.800; -401.000; -329.000
432.712;  147.825;  -52.000;  -52.000
432.836;   44.050;  213.000;  263.000
432.959;  -25.000; -372.000; -311.000
433.083;   77.600;   11.000;    2.000
433.207;  330.600;  285.000;  930.000
433.330; 4440.025; -391.000; -200.000
433.454; 5413.650; -654.000; -638.000
433.578; 3142.725;  583.000;  278.000
433.701;  589.175; -623.000; -675.000
433.825;  217.000; -292.000; -299.000
433.949;  289.350;   28.000;  -72.000
434.072;  126.525; -410.000; -323.000
434.196;   -7.400; -309.000; -117.000
434.319; 3724.000;25482.000;25124.000
434.443;  737.375; -656.000; -603.000
434.566; 2364.075;  281.000;   62.000
434.690;  383.175; -637.000; -383.000
434.813;   64.400; -251.000; -173.000
434.937;  -73.775; -569.000; -696.000
435.060;  -21.250; -423.000; -332.000
435.184;  501.400; -492.000; -217.000
435.307;  267.600;  159.000;  102.000
435.431;   11.125;  -40.000;   24.000
435.554;  -83.025; -399.000; -240.000
435.677;  -80.450; -350.000; -258.000
435.801;  -35.450;  -25.000;   49.000
435.924;   16.850;    1.000;  -67.000
436.048;  -99.050;-1019.000; -732.000
436.171;  -79.750; -240.000;  -66.000
436.294;  -33.950; -248.000; -229.000
436.417;   74.000; -963.000; -849.000
436.541;  -97.375; -814.000; -840.000
436.664;  -53.725; -242.000; -316.000
436.787;  -14.525;   13.000;  113.000
436.910; -107.150; -792.000; -422.000
437.034;   22.525;  142.000;  143.000
437.157;  109.200;  -11.000;    0.000
437.280;  -22.300; -392.000; -292.000
437.403;  -47.725; -982.000; -869.000
437.526;  969.450; -903.000; -865.000
437.649; 3330.550; -505.000; -332.000
437.772;  510.800; -692.000; -540.000
437.896;  159.700;  700.000;  544.000
438.019; -101.700; -758.000; -503.000
438.142;  -88.375; -596.000; -506.000
438.265;   33.250; -639.000; -670.000
438.388;  808.400; -520.000; -410.000
438.511;  189.550; -597.000; -394.000
438.634;  -24.125; -247.000; -125.000
438.757; -129.425; -693.000; -619.000
438.880;  -18.950;  -34.000;  -57.000
439.003;  -72.375; -417.000; -437.000
439.126;  -60.950; -287.000; -167.000
439.248;  -53.150;  -98.000; -139.000
439.371;  -40.125;    9.000;  -53.000
439.494;   24.950;  510.000;  439.000
439.617;  -52.225;   65.000;  -88.000
439.740; -184.125; -968.000; -816.000
439.863; -141.425; -755.000; -595.000
439.986; -120.925; -476.000; -431.000
440.108;  -51.700; -161.000; -112.000
440.231; -170.925; -950.000; -836.000
440.354;  -19.400;  -64.000; -150.000
440.477;   88.750; -566.000; -542.000
440.599;   30.800; -200.000; -225.000
440.722; -111.975; -709.000; -586.000
440.845;   66.375;  751.000;  928.000
440.968; -106.425; -415.000; -311.000
441.090;  -73.550; -199.000;  -33.000
441.213; -169.300;-1021.000; -825.000
441.336;  -40.675; -159.000;   -5.000
441.458;  -91.000; -549.000; -396.000
441.581;  -62.850; -628.000; -629.000
441.703;  -70.725; -152.000;   13.000
441.826; -114.375; -557.000; -400.000
441.948;  -55.375;   56.000;   51.000
442.071;   25.250;  555.000;  424.000
442.193; -125.975; -531.000; -485.000
442.316;   24.825;  152.000;   97.000
442.438;   41.975; -233.000;  -10.000
442.561;   93.225;  272.000;  262.000
442.683;  812.025; -809.000; -522.000
442.806; 1690.925;   -8.000;   74.000
442.928;  100.475; -859.000; -604.000
443.051;  -64.225; -577.000; -373.000
443.173;  -98.675; -341.000; -339.000
443.295;  -85.875; -263.000; -371.000
443.418;  -77.950; -321.000;  -29.000
443.540;  -15.775; -106.000;   -4.000
443.662; -129.850; -563.000; -465.000
443.785;  -24.075;  335.000;  199.000
443.907; -101.300; -362.000; -208.000
444.029; -133.950; -767.000; -494.000
444.152; -147.375; -644.000; -554.000
444.274;  -29.450;  -18.000;  -24.000
444.396; -113.875; -461.000; -221.000
444.518; -133.775; -691.000; -454.000
444.640; -106.750; -268.000; -111.000
444.763;  -15.875;  388.000;  249.000
444.885; -125.575; -432.000; -392.000
445.007;  -43.000;   35.000;   86.000
445.129; -121.500; -610.000; -515.000
445.251; -103.450; -372.000; -439.000
445.373; -137.825; -537.000; -386.000
445.495;   16.150;  242.000;  350.000
445.617;   46.675;  853.000;  753.000
445.739;  -50.500; -215.000;  -97.000
445.861;  -16.625; -245.000; -112.000
445.984;  -12.300; -267.000; -101.000
446.105;  304.200; -418.000; -251.000
446.227;  852.600; -176.000;  -19.000
446.349;   50.100; -358.000; -249.000
446.471;  -95.725; -615.000; -448.000
446.593;  -63.550; -316.000;   19.000
446.715;   12.750;  -67.000;   41.000
446.837;   66.825;  697.000;  832.000
446.959; -110.200; -457.000; -478.000
447.081; -134.250; -628.000; -518.000
447.203;   55.900;  862.000;  834.000
447.325;  -90.725; -270.000;   42.000
447.446;   -2.000;  286.000;  530.000
447.568; -157.775; -921.000; -803.000
447.690;  -71.850; -236.000; -245.000
447.812; -155.450; -798.000; -519.000
447.933;  -38.525;  155.000;  127.000
448.055;  -77.250; -306.000; -261.000
448.177;  203.300;   31.000;   79.000
448.299;  160.250; -935.000; -727.000
448.420;   21.625;  -25.000;  159.000
448.542;  -46.050;   -3.000;   33.000
448.664;  -19.175;  109.000;  322.000
448.785;  -42.325;  265.000;   83.000
448.907;  -61.125; -614.000; -353.000
449.028;  -23.475; -771.000; -471.000
449.150;   60.925;  492.000;  589.000
449.272; -168.975;-1044.000; -913.000
449.393;   37.600;  612.000;  694.000
449.515; -145.975; -634.000; -581.000
449.636;  -55.200; -264.000; -155.000
449.758;   77.925;  763.000;  622.000
449.879;  -98.125; -498.000; -396.000
450.001;  -73.550; -149.000;  -49.000
450.122;  -43.900;  -95.000;  162.000
450.244;  -19.550;   37.000;  364.000
450.365;  -86.125; -495.000; -301.000
450.486;  -43.725;   80.000;  268.000
450.608;    2.750;  393.000;  326.000
450.729;   49.475;  578.000;  645.000
450.850;  -26.450; -574.000; -466.000
450.972;  622.800; -552.000; -389.000
451.093; 4164.875;  190.000;  588.000
451.214; 1764.675; -516.000; -337.000
451.336;  346.875;  773.000;  579.000
451.457;   44.725;  264.000;  393.000
451.578;  -43.975; -118.000;  -74.000
451.699; -122.875; -546.000; -540.000
451.821;  -64.300; -284.000;  -50.000
451.942;  -15.525;  278.000;  285.000
452.063;   16.625;  228.000;  419.000
452.184;  460.175;  -54.000;  -49.000
452.305;  956.775;  103.000;  170.000
452.427;   96.200; -549.000; -301.000
452.548;  -29.600;   23.000;   79.000
452.669;  -38.025; -257.000;  -89.000
452.790;  -28.575;    3.000;  -18.000
452.911;  -13.600;  195.000;  259.000
453.032;  -63.775; -289.000;  -60.000
453.153;  -36.050;  -29.000;   81.000
453.274;   59.250;  737.000;  868.000
453.395;  -46.125;  -51.000;  175.000
453.516;  144.975; 1317.000; 1388.000
453.637;  -52.925; -205.000; -150.000
453.758;  -57.100;   15.000;   69.000
453.879; -135.350; -462.000; -250.000
454.000;   90.825; 1086.000;  948.000
454.121; -105.425; -554.000; -326.000
454.242; -113.550; -599.000; -383.000
454.362;  -64.275;  -99.000;  114.000
454.483;  -31.025; -309.000; -229.000
454.604;   67.725;  512.000;  580.000
454.725; -113.450; -627.000; -555.000
454.846; -151.400; -474.000; -406.000
454.967;  -31.400;  230.000;  539.000
455.087;  -48.700;  179.000;  153.000
455.208;   20.025;  554.000;  856.000
455.329;  -70.925;  -22.000;   82.000
455.450;   30.025;  473.000;  633.000
455.570; -111.975; -234.000; -211.000
455.691;  -49.750;  201.000;  407.000
455.812; -116.400; -270.000;  -92.000
455.932;  -70.800;  107.000;  -97.000
456.053;  -91.925;   36.000;   24.000
456.173; -122.425; -433.000; -355.000
456.294; -133.100; -476.000; -303.000
456.415;  -63.575;  -73.000;   70.000
456.535;  -41.600;  297.000;  273.000
456.656;  -52.700;  132.000;  240.000
456.776;  -60.200;    3.000;  298.000
456.897;   -2.250;  308.000;  513.000
457.017;  -72.975; -153.000;   -3.000
457.138; -103.850; -402.000; -249.000
457.258;  -34.650;  263.000;  224.000
457.379;  -25.075;  509.000;  521.000
457.499;  -30.650;  443.000;  432.000
457.620; -117.175; -407.000; -231.000
457.740;  -88.025; -132.000;  -11.000
457.860;  -57.525;   87.000;   44.000
457.981;  -44.100;  132.000;  124.000
458.101;  -75.375;  -89.000;   40.000
458.221;  -14.225;  336.000;  402.000
458.342;  -59.125;   -4.000;  -37.000
458.462;   -0.950;  617.000;  352.000
458.582;  -53.475; -302.000; -294.000
458.703;  -21.350;  303.000;  154.000
458.823;  -30.925;   22.000;  163.000
458.943;   19.225;  341.000;  467.000
459.063;  -14.500; 1124.000;  192.000
459.183;  -21.700;  328.000;  313.000
459.304;    0.050;  315.000;  517.000
459.424;  -84.400; -246.000;  -89.000
459.544;  293.900;  388.000;  764.000
459.664;  719.950;  499.000;  506.000
459.784;  275.350; 1004.000; 1175.000
459.904;   55.575;  867.000;  744.000
460.024;   82.950;  867.000;  684.000
460.144;   25.925;  449.000;  554.000
460.264;   -7.425;  515.000;  327.000
460.385;  -92.125; -145.000; -119.000
460.505;   38.525;  905.000;  858.000
460.625;  -97.150;  -17.000;  -68.000
460.745;  -14.550;  396.000;  541.000
460.864;  -46.425;  153.000;  469.000
460.984;   16.525;  499.000;  573.000
461.104;  141.550; 1656.000; 1775.000
461.224;   23.500;  657.000;  650.000
461.344;  -38.350;  431.000;  360.000
461.464;  -27.375;  258.000;  513.000
461.584;  -16.125;  283.000;  466.000
461.704;  -31.450;   58.000;  108.000
461.824;  -71.000;  238.000;  259.000
461.943;  -39.725;  191.000;  130.000
462.063;  -74.525;    2.000;  324.000
462.183;   33.100;  639.000;  717.000
462.303;  114.825; 1678.000; 1230.000
462.422;   31.600;  781.000;  840.000
462.542;  -61.300;  271.000;  391.000
462.662;   38.500;  353.000;  380.000
462.782;  197.350;  833.000;  572.000
462.901;  436.500;  545.000;  717.000
463.021;  258.050; 1702.000; 1638.000
463.141;  -12.350;  337.000;  770.000
463.260;  -19.700;  614.000;  474.000
463.380;    5.275;  902.000;  884.000
463.499;  -50.925;  342.000;  332.000
463.619;  -20.725;  581.000;  559.000
463.738;  115.575; 1644.000;  903.000
463.858;   20.175;  657.000;  811.000
463.978;  -40.800;  542.000;  396.000
464.097;   42.525;  921.000; 1114.000
464.217;   96.950; 1196.000; 1143.000
464.336;   97.900; 1068.000; 1130.000
464.455;  -40.700;  328.000;  659.000
464.575;   62.000;  597.000;  602.000
464.694;  187.250; 1204.000; 1179.000
464.814;  118.900; 1190.000; 1138.000
464.933;   79.875; 1095.000; 1027.000
465.052;  103.275; 1412.000; 1054.000
465.172;   94.725;  922.000;  799.000
465.291;  155.925; 1376.000; 1320.000
465.410;   20.825;  462.000;  735.000
465.530;   97.400; 1355.000; 1310.000
465.649;   80.375; 1209.000; 1273.000
465.768;  151.050; 1673.000; 1508.000
465.888;   63.425;  941.000; 1174.000
466.007;   94.525; 1335.000; 1440.000
466.126;  -20.300;  721.000;  641.000
466.245;   50.425; 1176.000; 1187.000
466.364;   13.575;  950.000; 1060.000
466.484;   53.300; 1024.000; 1213.000
466.603;   43.050; 1101.000; 1222.000
466.722;  140.050; 1490.000; 1769.000
466.841;   70.350; 1151.000; 1401.000
466.960;   48.400; 1069.000;  972.000
467.079;  130.300; 1971.000; 1786.000
467.198;   46.750; 1238.000; 1181.000
467.317;   79.975; 1768.000; 1162.000
467.436;   54.550; 1709.000; 1261.000
467.555;  116.200; 1796.000; 1746.000
467.674;   68.425; 1227.000; 1329.000
467.793;   56.150; 1376.000; 1374.000
467.912;   90.550; 1658.000; 1539.000
468.031;  149.525; 2038.000; 1930.000
468.150;  138.175; 1842.000; 1837.000
468.269;  200.625; 2313.000; 2090.000
468.388;  175.675; 2168.000; 2339.000
468.507;  238.000; 2884.000; 2903.000
468.626;  238.850; 2555.000; 2541.000
468.744;  125.875; 2018.000; 2174.000
468.863;  202.550; 2312.000; 2523.000
468.982;  104.825; 1503.000; 1555.000
469.101;  224.300; 2788.000; 2692.000
469.220;  153.150; 2333.000; 2176.000
469.338;  241.625; 2935.000; 3051.000
469.457;  189.575; 2719.000; 2545.000
469.576;  358.950; 3953.000; 3784.000
469.695;  249.625; 2877.000; 3066.000
469.813;  437.650; 4148.000; 4192.000
469.932;  413.850; 4255.000; 4485.000
470.051;  410.900; 4075.000; 4161.000
470.169;  803.075; 4470.000; 4338.000
470.288; 1334.600; 4700.000; 4809.000
470.406;  831.275; 5059.000; 5194.000
470.525;  630.200; 6101.000; 5787.000
470.644;  637.175; 6847.000; 6794.000
470.762;  818.575; 8397.000; 7873.000
470.881;  902.700; 8651.000; 8464.000
470.999; 1031.300; 9685.000; 9151.000
471.118; 1116.150;11174.000;10711.000

