
Integration time [ms]: 200.000
Averaging Nr. [scans]: 10
Smoothing Nr. [pixels]: 0
Data measured with spectrometer [name]: 2101012U2
Wave   ;Sample   ;Dark     ;Reference
[nm]   ;[counts] ;[counts] ;[counts] 

197.733;  127.500;  516.000;  404.000
197.879; -184.900; -610.000; -634.000
198.025; -101.300; -475.000; -420.000
198.171; -165.000; -602.000; -612.000
198.317;  -71.600; -401.000; -316.000
198.463; -131.300; -655.000; -404.000
198.609;   61.000;  181.000; -137.000
198.755; -173.300; -644.000; -410.000
198.901; -134.500; -505.000; -424.000
199.047; -127.700; -615.000; -488.000
199.193;  -63.800; -230.000; -468.000
199.339;  -91.300; -222.000; -369.000
199.485;   57.900;  330.000;  271.000
199.631;   27.500;  227.000;  310.000
199.777; -113.900; -466.000; -398.000
199.923; -152.800; -610.000; -424.000
200.069;   12.300; -141.000;  -58.000
200.215;  114.200;  128.000;  453.000
200.361;   70.600;  243.000;  477.000
200.507; -146.100; -600.000; -373.000
200.653;  -61.000; -371.000; -194.000
200.798;  -64.200; -215.000; -125.000
200.944;   13.400; -146.000;  -41.000
201.090;   95.300;   61.000;  222.000
201.236;  -13.800; -116.000; -158.000
201.382;  243.200;  874.000;  903.000
201.528;   10.100;  -58.000;  -48.000
201.674;  -57.900; -386.000; -293.000
201.819; -129.800; -540.000; -439.000
201.965; -190.600; -699.000; -447.000
202.111;  -49.400; -273.000; -226.000
202.257;  -83.400; -250.000; -238.000
202.402;   -3.300;   13.000;  -36.000
202.548;  -67.500; -169.000; -116.000
202.694;  164.400;  410.000; -183.000
202.840; -169.400; -603.000; -531.000
202.985; -151.800; -681.000; -639.000
203.131; -200.600; -832.000; -666.000
203.277;  -64.200; -199.000; -262.000
203.423; -112.800; -434.000; -520.000
203.568; -114.200; -462.000; -237.000
203.714; -110.500; -535.000; -542.000
203.860; -136.800; -682.000; -641.000
204.005;   69.300;  112.000;  167.000
204.151;  188.500;  561.000;  556.000
204.296; -126.800; -354.000; -221.000
204.442; -137.000; -600.000; -547.000
204.588; -152.300; -592.000; -579.000
204.733;   45.200;  178.000;  168.000
204.879; -287.400;-1018.000; -822.000
205.025;   41.000;  -99.000;  126.000
205.170;  -22.000;  -17.000;   94.000
205.316;  182.100;  438.000;  661.000
205.461; -200.700; -698.000; -554.000
205.607;  172.300;  609.000;  665.000
205.752; -197.200; -626.000; -551.000
205.898; -112.200; -501.000; -391.000
206.043; -151.400; -578.000; -506.000
206.189;  -82.500; -243.000; -285.000
206.334;  163.900;  554.000;  606.000
206.480;  176.400;  409.000;  239.000
206.625; -149.500; -529.000; -552.000
206.771;  -87.600; -451.000; -373.000
206.916;  -43.400; -210.000; -537.000
207.062; -124.800; -545.000; -591.000
207.207; -140.200; -546.000; -443.000
207.353;  142.800;  185.000;  460.000
207.498;    4.300;  196.000;   85.000
207.643; -125.300; -501.000; -370.000
207.789; -271.100;-1069.000; -910.000
207.934; -201.400; -665.000; -713.000
208.080;  -46.700; -154.000;   66.000
208.225;  -12.100;  -22.000;  -57.000
208.370; -160.300; -727.000; -619.000
208.516; -171.900; -741.000; -487.000
208.661;  -34.800; -127.000;  -69.000
208.806;  -41.900; -165.000; -171.000
208.952; -269.200;-1044.000; -731.000
209.097;  172.500;  378.000;  349.000
209.242;  -80.000; -307.000; -382.000
209.387;   96.900;  392.000;  350.000
209.533; -110.000; -321.000; -350.000
209.678;  182.600;  472.000;  543.000
209.823; -117.900; -408.000; -310.000
209.969; -214.300; -860.000; -757.000
210.114; -239.500; -907.000; -719.000
210.259; -237.500; -939.000; -889.000
210.404;  -37.100; -171.000;  103.000
210.549;   30.400;  108.000;    3.000
210.695;  -53.200;   -3.000;  -95.000
210.840;   74.700;   94.000;   67.000
210.985; -148.800; -484.000; -303.000
211.130;  149.500;  268.000;  406.000
211.275;   16.300;  207.000;  199.000
211.420; -113.600; -300.000; -289.000
211.566; -140.800; -536.000; -489.000
211.711;   34.000;  218.000;  157.000
211.856; -130.800; -545.000; -519.000
212.001;    7.600;  151.000;   44.000
212.146;   -5.000;  153.000;   49.000
212.291;  -48.900; -210.000; -186.000
212.436;  -70.600; -280.000;   -6.000
212.581; -176.700; -685.000; -653.000
212.726; -146.200; -487.000; -538.000
212.871;  -99.800; -552.000; -217.000
213.016; -336.500;-1172.000;-1029.000
213.161;  153.900;  406.000;  291.000
213.306; -162.400; -435.000; -577.000
213.451; -202.400; -778.000; -689.000
213.596;  -96.500; -455.000; -347.000
213.741; -106.700; -448.000; -538.000
213.886; -166.400; -498.000; -517.000
214.031;  -57.200; -294.000; -124.000
214.176; -127.100; -408.000; -341.000
214.321;  -43.100; -296.000; -157.000
214.466;  -63.300; -163.000;  -43.000
214.611;  -10.800;  -61.000;  -10.000
214.756; -239.800; -948.000; -858.000
214.901;  -66.900; -388.000; -226.000
215.046; -280.900; -797.000; -825.000
215.191;   77.800;  128.000;   35.000
215.336;  -39.300; -157.000;  -19.000
215.480; -141.500; -684.000; -505.000
215.625;   -6.500; -175.000;  -19.000
215.770; -156.900; -757.000; -662.000
215.915;  -10.600;   -5.000;  -97.000
216.060;   -5.600; -113.000;  -21.000
216.205; -240.300; -731.000; -779.000
216.349; -132.900; -470.000; -533.000
216.494; -323.700; -939.000; -867.000
216.639; -233.300; -823.000; -888.000
216.784; -160.100; -577.000; -525.000
216.929;   92.700;  392.000;  281.000
217.073;    4.700; -244.000;  -31.000
217.218;   75.900;   78.000;  -47.000
217.363; -176.300; -656.000; -618.000
217.507; -161.900; -623.000; -588.000
217.652; -255.800; -845.000; -874.000
217.797; -178.500; -708.000; -659.000
217.942; -254.400; -856.000; -720.000
218.086;  177.800;  608.000;  539.000
218.231;  -63.000; -174.000;  -26.000
218.376;  -76.600; -337.000; -229.000
218.520;  -13.500;  -41.000;   96.000
218.665;  -77.200; -338.000; -204.000
218.810;  -84.600; -275.000; -233.000
218.954;   71.200;  201.000;   35.000
219.099; -257.600; -713.000; -963.000
219.243; -130.700; -589.000; -554.000
219.388;  -78.500; -264.000; -136.000
219.532;  -17.100; -116.000; -116.000
219.677; -158.400; -564.000; -521.000
219.822;    8.800;   33.000;   89.000
219.966;   13.900;   17.000;  -99.000
220.111;  -74.200; -328.000;  -40.000
220.255; -184.500; -797.000; -750.000
220.400;  -33.600; -180.000; -146.000
220.544; -167.700; -516.000; -450.000
220.689;  -85.000; -422.000; -451.000
220.833;  -35.400; -123.000;  -58.000
220.978; -108.800; -393.000; -563.000
221.122;   48.400;  319.000;  307.000
221.267; -204.600; -906.000; -837.000
221.411; -162.000; -478.000; -394.000
221.555;    5.800; -104.000;  -23.000
221.700;  -89.200; -329.000; -222.000
221.844;   70.200;  255.000;  272.000
221.989; -109.100; -328.000; -311.000
222.133;  -42.900; -289.000; -307.000
222.277;  -35.100;    5.000;   78.000
222.422;   42.700;  227.000;  113.000
222.566;  -88.800; -381.000; -214.000
222.711; -101.300; -414.000; -479.000
222.855; -173.000; -643.000; -586.000
222.999; -184.700; -642.000; -717.000
223.144;  -10.900; -195.000; -194.000
223.288;  131.000;  423.000;  251.000
223.432;   45.000;  184.000;  230.000
223.576;   58.700;  152.000;  -21.000
223.721;  122.000;  364.000;  273.000
223.865; -111.700; -472.000; -475.000
224.009;  430.300; 1673.000; 1631.000
224.153; -166.500; -660.000; -671.000
224.298; -138.500; -531.000; -489.000
224.442;  -23.000;  -74.000;  -33.000
224.586;  -14.700; -169.000; -106.000
224.730; -198.800; -858.000; -670.000
224.875; -236.500; -739.000; -688.000
225.019;   44.200;  102.000;  188.000
225.163;  115.600;  208.000;  341.000
225.307;   48.900;   97.000;  -91.000
225.451;  127.600;  360.000;  481.000
225.595;   98.000;  264.000;  176.000
225.739;  -54.800; -170.000;  -94.000
225.884;   36.000;   86.000;    5.000
226.028; -193.800; -760.000; -626.000
226.172;  -58.100; -260.000; -273.000
226.316; -255.500; -941.000; -902.000
226.460; -130.800; -645.000; -493.000
226.604; -113.800; -406.000; -400.000
226.748; -196.200; -836.000; -733.000
226.892;  -24.100; -227.000; -181.000
227.036;  -51.500; -537.000; -447.000
227.180; -117.900; -551.000; -375.000
227.324; -142.700; -561.000; -580.000
227.468; -256.300; -819.000; -717.000
227.612;   34.100;  242.000;  -28.000
227.756; -217.100; -845.000; -698.000
227.900;  125.900;  342.000;  441.000
228.044; -129.800; -509.000; -290.000
228.188;  130.300;  448.000;  568.000
228.332; -184.300; -546.000; -472.000
228.476;  -51.200; -223.000; -149.000
228.620;  -63.700; -210.000; -150.000
228.764;  154.200;  431.000;  349.000
228.908;  -25.400; -155.000;   30.000
229.052; -121.200; -615.000; -528.000
229.195;  -15.300; -172.000;   13.000
229.339;  -50.900; -235.000; -305.000
229.483;  -49.000;    5.000; -162.000
229.627;   12.800; -156.000;  139.000
229.771;  -82.800; -218.000; -294.000
229.915;   42.100;  230.000;   79.000
230.059; -174.600; -648.000; -663.000
230.202;  -70.900; -370.000; -317.000
230.346;  -30.600; -107.000;  107.000
230.490; -118.600; -489.000; -521.000
230.634; -225.900; -736.000; -553.000
230.777;  204.200;  478.000;  509.000
230.921; -133.100; -450.000; -359.000
231.065;  -93.800; -246.000; -286.000
231.209;   48.600;  261.000;  265.000
231.352;   62.200;   54.000;   40.000
231.496;   27.900;  568.000;  188.000
231.640; -188.800; -693.000; -621.000
231.783;  172.300;  546.000;  525.000
231.927;  -73.100; -294.000; -365.000
232.071; -263.900; -962.000; -736.000
232.214; -197.100; -980.000; -764.000
232.358; -184.000; -683.000; -599.000
232.502;   29.100;  -19.000;    7.000
232.645; -288.100;-1090.000; -927.000
232.789;  -35.700; -257.000; -218.000
232.933;  -88.200; -407.000; -224.000
233.076; -242.300;-1038.000; -897.000
233.220; -217.900; -752.000; -777.000
233.363; -158.900; -669.000; -477.000
233.507;  176.000;  371.000;  129.000
233.650; -195.600; -764.000; -834.000
233.794;   96.300;  438.000;  461.000
233.938; -113.800; -530.000; -362.000
234.081;  -50.000;  -93.000;   31.000
234.225; -103.900; -631.000; -539.000
234.368; -240.300; -773.000; -723.000
234.512;  -78.500; -385.000; -299.000
234.655; -180.400; -582.000; -555.000
234.798; -135.600; -493.000; -466.000
234.942; -275.200; -884.000;-1002.000
235.085; -115.000; -651.000; -443.000
235.229; -160.600; -405.000; -410.000
235.372; -111.400; -247.000; -191.000
235.516; -142.200; -397.000; -321.000
235.659;   84.800;   92.000;  121.000
235.802;  -51.700;  -38.000;  -22.000
235.946;   69.900;  335.000;  215.000
236.089;   63.000;  126.000;  250.000
236.233;  146.600;  275.000;  298.000
236.376;  -97.700; -235.000; -378.000
236.519;  -82.300; -297.000; -319.000
236.663;  -48.000; -215.000; -117.000
236.806; -262.500;-1029.000; -999.000
236.949;  119.900;  543.000;  431.000
237.092;  156.600;  412.000;  391.000
237.236; -177.500; -589.000; -502.000
237.379;  138.400;  352.000;  428.000
237.522; -262.600; -879.000; -768.000
237.666;  -27.100; -271.000;   18.000
237.809; -241.000; -851.000; -823.000
237.952;   97.700;  469.000;  271.000
238.095; -141.600; -447.000; -442.000
238.238;  177.800;  688.000;  700.000
238.382;  -12.500;  166.000;  103.000
238.525; -131.800; -598.000; -511.000
238.668; -283.100;-1060.000; -985.000
238.811; -142.800; -638.000; -643.000
238.954; -104.600; -483.000; -334.000
239.097;  225.700;  617.000;  664.000
239.241;   59.700;  394.000;  326.000
239.384;  -41.500; -254.000; -214.000
239.527; -103.900; -424.000; -224.000
239.670; -282.500; -994.000;-1091.000
239.813; -225.900; -696.000; -658.000
239.956;  155.200;  579.000;  473.000
240.099; -203.700; -778.000; -725.000
240.242;  148.000;  428.000;  432.000
240.385;   94.700;  466.000;  450.000
240.528; -164.900; -706.000; -473.000
240.671;   42.700;  189.000;  134.000
240.814;  -93.400; -441.000; -158.000
240.957; -206.900; -767.000; -578.000
241.100; -203.100; -779.000; -755.000
241.243; -299.600;-1234.000; -893.000
241.386; -102.000; -508.000; -379.000
241.529; -180.900; -735.000; -547.000
241.672; -127.400; -566.000; -495.000
241.815; -277.400; -832.000; -808.000
241.958;  -23.300; -125.000; -182.000
242.101; -169.900; -545.000; -390.000
242.244;  -80.800; -270.000; -325.000
242.387;  -55.600; -304.000; -246.000
242.530;  142.500;  470.000;  134.000
242.673;  -76.300; -381.000; -309.000
242.815; -218.200; -925.000; -899.000
242.958; -128.700; -482.000; -381.000
243.101;   43.700;  132.000;  187.000
243.244; -135.300; -564.000; -521.000
243.387; -104.700; -313.000; -316.000
243.530; -203.000; -657.000; -674.000
243.672;   10.600;   43.000;  -92.000
243.815; -110.800; -355.000; -283.000
243.958;   30.100;   98.000;  -26.000
244.101;   26.900;   59.000;  -16.000
244.243;  -22.000;  -47.000;  101.000
244.386; -234.700; -761.000; -630.000
244.529;  -27.900; -132.000; -139.000
244.672; -315.700;-1154.000; -951.000
244.814; -181.000; -621.000; -794.000
244.957; -122.500; -380.000; -304.000
245.100; -149.000; -489.000; -489.000
245.242; -125.800; -387.000; -374.000
245.385;    9.400;  -59.000;  -39.000
245.528; -244.200; -871.000; -705.000
245.670;  194.400;  612.000;  634.000
245.813; -170.000; -599.000; -547.000
245.956;  -59.800; -324.000; -275.000
246.098; -192.900; -508.000; -650.000
246.241;   36.600;  194.000;   48.000
246.383;  -17.200; -119.000;  -73.000
246.526; -132.000; -454.000; -525.000
246.669; -233.200; -889.000; -780.000
246.811;   31.700;  172.000;   -1.000
246.954; -111.600; -512.000; -426.000
247.096;  -17.100;  -84.000;   -6.000
247.239; -186.800; -482.000; -445.000
247.381; -107.400; -647.000; -488.000
247.524;  173.500;  645.000;  679.000
247.666;    8.600;   58.000;   11.000
247.809; -237.000; -887.000; -691.000
247.951;   -4.100;  -75.000;  138.000
248.094;   61.100;  432.000;  308.000
248.236; -343.100;-1262.000;-1238.000
248.378;    0.900; -356.000;  -81.000
248.521;  -28.100; -334.000; -337.000
248.663;  -82.700; -236.000; -267.000
248.806;  -42.800; -300.000; -266.000
248.948; -232.300; -886.000; -763.000
249.090;  -58.400; -428.000; -398.000
249.233; -100.400; -344.000; -381.000
249.375; -125.800; -474.000; -451.000
249.518;  -59.900;  -83.000; -133.000
249.660;   27.900; -103.000;    3.000
249.802; -362.300;-1303.000;-1189.000
249.945; -132.100; -612.000; -540.000
250.087; -250.100; -834.000; -768.000
250.229;  -98.700; -362.000; -480.000
250.371; -173.600; -494.000; -439.000
250.514; -107.000; -310.000; -244.000
250.656;  -20.500;   69.000;  102.000
250.798; -222.600; -849.000; -800.000
250.940; -144.100; -322.000; -322.000
251.083;  -19.200; -335.000; -111.000
251.225;  102.400;  338.000;  310.000
251.367;  -73.700; -274.000; -373.000
251.509;  -70.700; -265.000; -210.000
251.651; -214.400; -731.000; -671.000
251.794;   92.300;  538.000;  632.000
251.936; -203.500; -821.000; -747.000
252.078; -186.500; -540.000; -461.000
252.220; -149.300; -645.000; -477.000
252.362;  159.900;  344.000;  462.000
252.504; -139.300; -677.000; -584.000
252.646; -210.000; -875.000; -722.000
252.788;   23.900;   14.000; -128.000
252.931;  -89.000; -257.000; -253.000
253.073;  -71.600; -376.000; -317.000
253.215;    0.900;  141.000;  122.000
253.357;   12.000;   82.000; -153.000
253.499; -109.400; -374.000; -234.000
253.641; -192.300; -749.000; -594.000
253.783; -177.500; -609.000; -527.000
253.925; -157.800; -586.000; -591.000
254.067; -222.200; -744.000; -667.000
254.209;  -50.100; -391.000; -259.000
254.351; -274.100; -865.000; -883.000
254.493; -137.400; -441.000; -417.000
254.635; -206.200; -936.000; -818.000
254.777; -178.800; -752.000; -687.000
254.918; -159.700; -512.000; -430.000
255.060; -132.400; -551.000; -395.000
255.202; -114.400; -473.000; -261.000
255.344; -152.400; -658.000; -455.000
255.486; -152.900; -471.000; -406.000
255.628; -227.200; -780.000; -781.000
255.770; -174.600; -676.000; -536.000
255.912; -111.400; -559.000; -468.000
256.053; -188.000; -730.000; -508.000
256.195;  351.600; 1008.000;  903.000
256.337; -228.100; -861.000; -595.000
256.479;  153.000;  532.000;  416.000
256.621; -110.900; -394.000; -212.000
256.762; -200.600; -789.000; -742.000
256.904;  120.400;  485.000;  487.000
257.046;  -71.200; -381.000; -271.000
257.188;  -83.600; -351.000; -264.000
257.329; -127.000; -525.000; -464.000
257.471; -234.200; -939.000; -807.000
257.613; -151.400; -584.000; -498.000
257.755; -305.600;-1073.000; -982.000
257.896;   88.100;  286.000;  392.000
258.038; -144.200; -403.000; -352.000
258.180;  -62.400; -354.000; -279.000
258.321; -167.300; -581.000; -457.000
258.463;   -6.300;  -71.000;  133.000
258.605; -194.600; -562.000; -570.000
258.746; -206.000; -886.000; -772.000
258.888; -319.900;-1026.000;-1020.000
259.029;   41.100;  121.000;   -8.000
259.171; -212.700; -614.000; -550.000
259.313;   27.600;  -49.000;  -47.000
259.454; -157.000; -536.000; -414.000
259.596;  -92.600; -483.000; -390.000
259.737; -188.400; -590.000; -474.000
259.879;  118.100;  217.000;  311.000
260.020;  208.900;  901.000;  636.000
260.162;  -44.700; -146.000; -253.000
260.303; -230.700; -768.000; -687.000
260.445; -150.400; -609.000; -613.000
260.586;   39.500;  392.000;  157.000
260.728;  -72.000; -360.000; -248.000
260.869; -142.300; -350.000; -343.000
261.011;  188.500;  706.000;  537.000
261.152; -125.300; -479.000; -319.000
261.293; -131.200; -576.000; -595.000
261.435;  -78.100; -219.000; -184.000
261.576; -101.900; -455.000; -325.000
261.718;  133.900;  420.000;  470.000
261.859; -240.500; -940.000; -949.000
262.000; -284.700; -951.000;-1016.000
262.142;  -32.700;  -52.000;  -60.000
262.283; -226.600; -808.000; -691.000
262.424; -169.100; -666.000; -625.000
262.566; -286.200;-1161.000; -983.000
262.707; -234.100; -840.000; -830.000
262.848; -258.900; -769.000; -726.000
262.990;  -93.500; -362.000; -345.000
263.131;  211.000;  650.000;  681.000
263.272;   -9.500;  -61.000;  -41.000
263.413; -189.300; -589.000; -561.000
263.555; -113.700; -669.000; -143.000
263.696; -169.500; -550.000; -641.000
263.837; -116.900; -449.000; -551.000
263.978;   -6.800;   -5.000;  -77.000
264.119;  -98.800; -283.000; -264.000
264.261; -235.400; -847.000; -630.000
264.402;   22.300;   33.000;   40.000
264.543; -153.300; -509.000; -524.000
264.684;  -10.000;   61.000;  -50.000
264.825; -117.400; -816.000; -538.000
264.966;    2.400;  -84.000;  -67.000
265.107; -241.900; -646.000; -670.000
265.248; -239.400; -825.000; -812.000
265.390;  -10.200;  152.000;   -9.000
265.531;  -15.400; -238.000; -107.000
265.672; -199.800; -557.000; -630.000
265.813;  135.900;  563.000;  439.000
265.954; -294.700; -959.000; -940.000
266.095;   25.100; -372.000; -322.000
266.236; -197.800; -686.000; -548.000
266.377;  -84.400; -243.000; -297.000
266.518; -129.500; -619.000; -547.000
266.659;   70.300;  170.000;  268.000
266.800;   13.500;   83.000;   85.000
266.941; -134.000; -487.000; -478.000
267.082;   17.200;  354.000;   99.000
267.223; -103.300; -344.000; -273.000
267.364; -233.600; -892.000; -686.000
267.504;   16.300;    3.000;  135.000
267.645;    6.000;  160.000;   67.000
267.786;  -25.200; -147.000;  -86.000
267.927; -130.200; -473.000; -379.000
268.068;   -6.900; -186.000;  -61.000
268.209;  -91.600; -175.000; -413.000
268.350;  -85.400; -388.000; -532.000
268.490; -142.100; -648.000; -521.000
268.631;  110.900;  127.000;  225.000
268.772; -252.500; -874.000; -647.000
268.913;  -69.700; -328.000; -476.000
269.054;  -46.000; -117.000;   12.000
269.194;  -68.900; -418.000; -402.000
269.335; -328.400;-1137.000;-1074.000
269.476;  -18.500;   33.000;  -35.000
269.617;  -87.500; -347.000; -392.000
269.757; -188.900; -713.000; -646.000
269.898; -206.000; -856.000; -613.000
270.039; -108.900; -415.000; -405.000
270.180; -276.800; -952.000; -816.000
270.320;  -43.200; -190.000; -250.000
270.461;  -77.300; -277.000; -249.000
270.602;   -6.300; -186.000; -156.000
270.742; -223.200; -868.000; -943.000
270.883; -100.000; -442.000; -390.000
271.023; -131.600; -358.000; -357.000
271.164; -167.500; -607.000; -528.000
271.305; -229.500; -666.000; -654.000
271.445; -161.600; -722.000; -683.000
271.586; -105.900; -462.000; -283.000
271.726;  -38.100; -397.000; -322.000
271.867;  -92.800; -594.000; -534.000
272.008;  319.200; -473.000; -285.000
272.148;  250.600;  462.000;  468.000
272.289;   31.000; -113.000; -181.000
272.429;   32.000;   19.000;  185.000
272.570; -167.700; -633.000; -737.000
272.710; -196.300; -825.000; -775.000
272.851;  -14.300;  113.000; -130.000
272.991; -325.200;-1173.000;-1077.000
273.131; -117.600; -419.000; -459.000
273.272; -187.000; -683.000; -723.000
273.412;    7.400; -143.000;  -31.000
273.553; -101.100; -488.000; -507.000
273.693;  301.500;  913.000;  858.000
273.834; -168.900; -894.000; -692.000
273.974; -139.100; -664.000; -615.000
274.114; -176.200; -772.000; -560.000
274.255;  164.700;  414.000;  373.000
274.395;   14.800; -180.000; -125.000
274.535;  101.200;  199.000;  350.000
274.676;   76.100;  225.000;   94.000
274.816;   30.600;  110.000;   34.000
274.956; -151.300; -624.000; -690.000
275.097; -153.500;-1014.000; -922.000
275.237; -219.800; -913.000; -803.000
275.377; -205.400; -778.000; -689.000
275.517; -306.700; -878.000; -937.000
275.658; -113.300; -590.000; -555.000
275.798; -135.200; -606.000; -413.000
275.938;   41.700;  215.000;  323.000
276.078; -160.400; -626.000; -395.000
276.218;   52.100;   99.000;  104.000
276.359; -250.400;-1026.000;-1024.000
276.499; -149.200; -605.000; -446.000
276.639;  -52.200; -305.000; -151.000
276.779;  -86.700; -475.000; -357.000
276.919; -201.400; -783.000; -624.000
277.059;  -60.000; -261.000; -212.000
277.199;  -75.200; -357.000; -259.000
277.340;  133.200;  287.000;  175.000
277.480; -201.400; -840.000; -693.000
277.620;   82.600;  192.000;   16.000
277.760; -392.300;-1533.000;-1294.000
277.900;   65.200;  113.000;   33.000
278.040;   67.000;  137.000;  159.000
278.180;  111.200;  270.000;  170.000
278.320;   29.500;   21.000;   56.000
278.460; -118.100; -443.000; -469.000
278.600; -166.700; -708.000; -598.000
278.740;  115.700;  448.000;  224.000
278.880; -139.500; -768.000; -791.000
279.020;   58.800; -194.000; -144.000
279.160; -156.200; -672.000; -595.000
279.300; -223.100; -926.000; -873.000
279.440; -193.800; -709.000; -622.000
279.579;  -80.800;-1014.000; -929.000
279.719;  -80.000; -410.000; -394.000
279.859;  176.900;   -4.000;   41.000
279.999;   58.700; -208.000;  101.000
280.139;  -45.200; -435.000; -387.000
280.279; -128.200; -708.000; -745.000
280.419;    4.800; -229.000; -147.000
280.559;  -57.500; -259.000; -180.000
280.698; -130.600; -790.000; -639.000
280.838; -177.000; -778.000; -800.000
280.978; -186.200; -846.000; -790.000
281.118; -213.500; -811.000; -704.000
281.257;   62.900;   24.000;    6.000
281.397; -257.400;-1094.000; -960.000
281.537; -160.300; -599.000; -712.000
281.677;  -15.200; -150.000; -101.000
281.816; -144.800; -700.000; -630.000
281.956;  -67.900; -193.000; -257.000
282.096; -108.100; -539.000; -396.000
282.235; -195.200; -672.000; -638.000
282.375;  -25.800; -243.000;  -98.000
282.515; -199.300; -715.000; -707.000
282.654;   56.800;   29.000;  106.000
282.794;   78.400;  388.000;  244.000
282.934;  -63.700; -530.000; -491.000
283.073; -241.400;-1030.000; -857.000
283.213;  -83.800; -460.000; -467.000
283.353;  -79.800; -408.000; -349.000
283.492;  -27.700; -264.000; -296.000
283.632;  -61.200; -254.000; -168.000
283.771; -191.400; -859.000; -730.000
283.911; -107.500; -369.000; -260.000
284.050; -203.500; -794.000; -748.000
284.190; -317.400;-1229.000;-1096.000
284.329; -280.100;-1055.000; -964.000
284.469; -126.700; -516.000; -591.000
284.608;  -56.200; -559.000; -598.000
284.748; -147.200; -614.000; -570.000
284.887;   31.600;  -87.000;  -20.000
285.027; -260.500; -844.000; -892.000
285.166;  -21.100; -192.000; -249.000
285.306;   14.100; -116.000;  -33.000
285.445;  -33.900; -229.000; -343.000
285.584; -177.500; -630.000; -494.000
285.724;  -72.800; -282.000; -322.000
285.863; -232.100; -857.000; -507.000
286.002; -102.400; -366.000; -276.000
286.142; -227.500; -715.000; -622.000
286.281; -132.200; -525.000; -493.000
286.420; -142.000; -554.000; -417.000
286.560;  218.300;  653.000;  623.000
286.699; -265.900; -958.000; -912.000
286.838; -116.400; -590.000; -591.000
286.978; -152.100; -533.000; -537.000
287.117; -286.500;-1085.000; -950.000
287.256;  -56.500; -228.000; -211.000
287.395;  -57.800; -197.000; -378.000
287.535;  -48.300; -370.000; -298.000
287.674; -133.400; -509.000; -484.000
287.813;  132.400;  661.000;  533.000
287.952; -223.500;-1010.000; -871.000
288.091; -297.200;-1049.000; -915.000
288.231;   73.900;   13.000;   15.000
288.370; -343.000;-1217.000;-1200.000
288.509; -185.600; -728.000; -645.000
288.648; -181.900; -770.000; -548.000
288.787;  -53.300; -243.000;  -87.000
288.926; -113.300; -454.000; -475.000
289.065;  255.100;  859.000;  672.000
289.204; -119.000; -377.000; -217.000
289.344; -177.300; -791.000; -690.000
289.483;   53.700;  416.000;  304.000
289.622;  -48.000; -291.000; -149.000
289.761;  -24.600; -309.000; -166.000
289.900; -201.200; -785.000; -626.000
290.039;  -28.300;  -12.000;  -95.000
290.178;  -61.600; -274.000; -180.000
290.317; -155.800; -618.000; -479.000
290.456; -112.100; -463.000; -451.000
290.595; -267.300; -961.000; -833.000
290.734; -278.300; -904.000; -891.000
290.873; -144.100; -456.000; -420.000
291.011; -210.800; -833.000; -843.000
291.150; -180.100; -770.000; -682.000
291.289;  -11.700; -343.000; -110.000
291.428; -182.200; -599.000; -480.000
291.567;  -78.400; -370.000; -442.000
291.706;   21.700;  109.000;  154.000
291.845; -151.300; -597.000; -505.000
291.984; -325.000;-1234.000;-1061.000
292.122;  146.800;  602.000;  582.000
292.261;  133.600;  620.000;  463.000
292.400;   71.200; -144.000;  211.000
292.539; -240.900; -959.000; -813.000
292.678;  -39.600; -325.000; -300.000
292.816; -320.200;-1136.000; -965.000
292.955; -202.900; -844.000; -684.000
293.094;  -49.800; -173.000; -337.000
293.233;  -98.800; -556.000; -400.000
293.371;  -36.100; -225.000;  -84.000
293.510; -212.000; -866.000; -780.000
293.649; -257.200; -959.000; -924.000
293.787; -134.500;-1083.000;-1012.000
293.926;   -0.300; -113.000;  -32.000
294.065;  -42.700; -379.000; -290.000
294.203;  125.300;  298.000;  406.000
294.342;   53.200;   74.000;  156.000
294.481;11956.700;51180.000; -836.000
294.619;  -37.100; -425.000; -582.000
294.758; -304.100;-1230.000;-1137.000
294.896;  160.100; -125.000;    5.000
295.035; -251.300;-1040.000;-1006.000
295.174; -248.300;-1082.000; -954.000
295.312;  -77.200; -323.000; -203.000
295.451;  -10.800; -307.000; -428.000
295.589;  -64.400; -389.000; -518.000
295.728;   64.400; -292.000; -165.000
295.866;   36.300;  -36.000;  -51.000
296.005; -113.600; -584.000; -341.000
296.143; -123.900; -558.000; -596.000
296.282; -190.400; -957.000; -881.000
296.420; -182.100; -657.000; -557.000
296.559; -147.600; -892.000; -633.000
296.697;   31.100; -847.000; -665.000
296.835;   92.000;-1141.000;-1002.000
296.974;   92.600;  -23.000;   39.000
297.112;   31.500; -443.000; -504.000
297.251; -171.100; -815.000; -755.000
297.389;  153.100; -576.000; -438.000
297.527;   74.300; -145.000;  -83.000
297.666;  -94.800; -486.000; -438.000
297.804; -127.400; -404.000; -264.000
297.942;   12.200; -136.000; -161.000
298.081;   -0.500; -183.000;   63.000
298.219;  139.800;  -17.000;  -19.000
298.357;  109.400; -144.000;  -71.000
298.495;   37.300; -810.000; -812.000
298.634;  107.000;  245.000;  219.000
298.772;  126.400; -220.000; -338.000
298.910;  -48.800; -309.000; -182.000
299.048;   -9.800; -130.000; -153.000
299.187;  -44.800; -350.000; -250.000
299.325;   55.300;   52.000;  122.000
299.463;   78.600; -389.000; -299.000
299.601;  213.900; -327.000; -271.000
299.739; -204.000; -908.000; -883.000
299.877; -138.700; -791.000; -703.000
300.016; -110.100;-1095.000; -935.000
300.154;  322.600;  -19.000; -161.000
300.292;   91.200; -428.000; -348.000
300.430;   90.900; -408.000; -291.000
300.568; -214.100; -940.000; -874.000
300.706;  -80.300; -366.000; -469.000
300.844; -141.200;-1108.000; -979.000
300.982;  233.700;  246.000;  282.000
301.120; -204.800; -965.000; -866.000
301.258; -132.800; -812.000; -705.000
301.396;   57.900;  104.000;  -41.000
301.534;  149.600; -218.000; -293.000
301.672;  -42.300; -664.000; -521.000
301.810;   47.600; -613.000; -545.000
301.948;  258.000;   53.000;  149.000
302.086; 1068.000; -250.000;  -32.000
302.224; 1758.500; -610.000; -585.000
302.362;   76.100; -558.000; -622.000
302.500;  -69.900; -923.000; -893.000
302.638;  210.700;  128.000;  245.000
302.776;   26.800; -352.000; -408.000
302.913;  145.900;  447.000;  236.000
303.051;    7.500;  -86.000;  -23.000
303.189;  133.600;   90.000;  118.000
303.327;  -57.800; -341.000; -256.000
303.465; -126.000; -832.000; -588.000
303.603; -170.800; -805.000; -604.000
303.740;  202.700;  417.000;  241.000
303.878;   24.800; -800.000; -759.000
304.016; -164.600; -915.000; -790.000
304.154; -242.600;-1123.000;-1152.000
304.291;  -61.800; -505.000; -554.000
304.429;   33.700;  102.000;   74.000
304.567; -231.800; -908.000; -893.000
304.705; -112.800; -408.000; -515.000
304.842;  146.500; -616.000; -540.000
304.980;  146.500;  215.000;   35.000
305.118;   78.900; -367.000; -365.000
305.255; -135.800; -945.000; -927.000
305.393;  119.100;  178.000;  239.000
305.531; -183.800;-1173.000; -956.000
305.668; -114.800; -663.000; -582.000
305.806;  172.600; -358.000; -439.000
305.943;  208.400; -629.000; -637.000
306.081;  114.300; -378.000; -267.000
306.219; -219.400; -863.000; -748.000
306.356;   26.000;  158.000;   27.000
306.494;  279.300;  981.000;  761.000
306.631;   12.100;  -11.000;  -55.000
306.769;    1.900; -613.000; -485.000
306.906;  -19.100; -284.000; -258.000
307.044; -113.800; -473.000; -488.000
307.181; -133.200; -410.000; -332.000
307.319;   57.600;  112.000;   87.000
307.456; -351.600;-1191.000;-1153.000
307.594; -158.400; -980.000; -727.000
307.731;   12.300; -371.000; -164.000
307.868;   33.800;  -15.000;   20.000
308.006; -248.800; -961.000; -847.000
308.143; -119.700; -618.000; -330.000
308.281;  419.000;  -37.000; -254.000
308.418;   64.200; -748.000; -640.000
308.555; -121.400; -400.000; -250.000
308.693; -117.600; -577.000; -573.000
308.830; -209.400; -712.000; -657.000
308.967;   20.400; -215.000;  -95.000
309.105;  -56.800; -507.000; -396.000
309.242;  111.800; -468.000; -367.000
309.379;  831.700; -577.000; -655.000
309.517;  -60.400; -936.000; -948.000
309.654; -188.800; -910.000; -734.000
309.791;  -94.100; -662.000; -580.000
309.928; -225.900; -977.000; -914.000
310.065;  360.100;  819.000;  697.000
310.203;   -7.000; -825.000; -850.000
310.340;   18.100; -465.000; -321.000
310.477; -150.300; -412.000; -516.000
310.614;  -84.000; -383.000; -473.000
310.751; -150.600; -427.000; -518.000
310.889;   -1.000;    1.000;   11.000
311.026; -276.500;-1161.000; -939.000
311.163;  -66.200; -386.000; -380.000
311.300; -107.900; -512.000; -479.000
311.437; -129.400; -658.000; -619.000
311.574; -283.400;-1226.000; -985.000
311.711;  -89.800; -595.000; -433.000
311.848;  -37.500; -380.000; -388.000
311.985;   82.400;  270.000;   93.000
312.122; -224.900; -932.000; -762.000
312.259; -223.000; -941.000; -994.000
312.396; -153.400; -508.000; -551.000
312.533; -144.800; -812.000; -790.000
312.670; -227.300;-1070.000; -898.000
312.807;  -48.400; -352.000; -367.000
312.944; -117.600; -513.000; -611.000
313.081;  -68.100; -150.000; -415.000
313.218; -173.200;-1111.000; -867.000
313.355;   17.600; -531.000; -449.000
313.492;   35.500; -455.000; -292.000
313.629;  295.800;  815.000;  735.000
313.766; -303.800;-1176.000;-1008.000
313.902;    8.700; -186.000;   21.000
314.039;  -91.600; -372.000; -289.000
314.176;   97.600;  286.000;  192.000
314.313; -142.400; -569.000; -473.000
314.450; -123.100; -788.000; -684.000
314.587;  -87.500; -468.000; -480.000
314.723;   40.700;  -78.000;  130.000
314.860;   94.200;  318.000;  332.000
314.997;  113.200;  223.000;  142.000
315.134;  -23.400; -385.000; -368.000
315.270;  -38.100; -480.000; -496.000
315.407; -243.300;-1094.000; -967.000
315.544;  -75.700; -657.000; -538.000
315.681; -125.000; -681.000; -565.000
315.817;   96.000; -133.000; -176.000
315.954;   18.500; -613.000; -392.000
316.091; -237.800;-1045.000;-1023.000
316.227;    8.100;  -71.000; -179.000
316.364;   48.000;   23.000;    6.000
316.500;  -39.900; -113.000; -300.000
316.637;  -59.800; -181.000; -302.000
316.774; -159.700; -625.000; -358.000
316.910; -157.000; -598.000; -629.000
317.047; -142.300; -487.000; -351.000
317.183;  -91.400; -435.000; -566.000
317.320;    1.800; -367.000; -321.000
317.456; -126.300; -733.000; -805.000
317.593; -187.800; -598.000; -641.000
317.729;   81.700;  168.000;  -67.000
317.866; -379.600;-1434.000;-1285.000
318.002; -157.100; -708.000; -948.000
318.139; -203.800; -883.000; -867.000
318.275; -181.900;-1003.000; -738.000
318.412; -131.400; -517.000; -336.000
318.548;  -64.100; -751.000; -720.000
318.685; -208.400; -985.000; -888.000
318.821; -159.100; -762.000; -735.000
318.957;   -6.300;   34.000;  -23.000
319.094;  126.200;  297.000;  154.000
319.230; -141.800; -756.000; -742.000
319.367;  223.900; -471.000; -520.000
319.503;  109.200; -538.000; -436.000
319.639; -187.300; -877.000; -793.000
319.775; -138.000; -750.000; -685.000
319.912;  -45.900; -424.000; -519.000
320.048; -186.600;-1184.000;-1184.000
320.184;  191.700;   59.000;   70.000
320.321;  -82.100; -497.000; -467.000
320.457;  177.800;  475.000;  662.000
320.593; -145.500; -375.000; -382.000
320.729; -178.100; -732.000; -734.000
320.866; -123.600; -577.000; -635.000
321.002; -123.900; -759.000; -809.000
321.138;   -6.000; -135.000; -211.000
321.274;  192.100; -148.000; -115.000
321.410;  -43.000; -585.000; -353.000
321.546;  -33.700;-1011.000; -911.000
321.683;  156.400;  400.000;  185.000
321.819;   29.700;  -48.000; -117.000
321.955; -209.100; -743.000; -722.000
322.091;  -93.600; -585.000; -540.000
322.227;  -22.000; -382.000; -202.000
322.363;    6.800; -320.000; -215.000
322.499;  -67.700; -343.000; -331.000
322.635;  314.100;  636.000;  443.000
322.771;   43.600; -139.000;   12.000
322.907;  212.500;  129.000;  327.000
323.043;  -23.200; -115.000; -206.000
323.179;  -30.300; -394.000; -363.000
323.315;    5.900; -401.000; -371.000
323.451;  209.000; -328.000; -236.000
323.587;  140.900;  -60.000;  -77.000
323.723;   42.600; -682.000; -601.000
323.859;  -15.100; -258.000;  -76.000
323.995;  -49.400; -467.000; -409.000
324.131; -219.400; -967.000; -892.000
324.267;  -33.300; -254.000; -276.000
324.402; -241.000; -960.000; -983.000
324.538;   18.300; -279.000; -104.000
324.674;   76.800;  164.000;   77.000
324.810;  278.700;  226.000;  308.000
324.946;   47.700; -810.000; -658.000
325.082; -114.000; -568.000; -475.000
325.217;  -14.200;  -62.000;   16.000
325.353; -174.500; -764.000; -659.000
325.489; -162.800; -540.000; -506.000
325.625; -152.100; -579.000; -525.000
325.760;  169.500;  517.000;  376.000
325.896;  -34.800; -515.000; -702.000
326.032; -102.200; -403.000; -352.000
326.168;  -88.900; -462.000; -369.000
326.303; -116.700; -352.000; -461.000
326.439;  -41.800; -336.000; -276.000
326.575;   31.500; -190.000;  -29.000
326.710;    6.500; -156.000;  -30.000
326.846;   -8.200;  146.000;  103.000
326.982; -165.300; -530.000; -548.000
327.117; -140.700; -481.000; -442.000
327.253; -141.800; -745.000; -742.000
327.388; -256.700;-1137.000;-1153.000
327.524;  -74.300; -811.000; -578.000
327.659;  -22.400;  -58.000;  -22.000
327.795;   30.500;   69.000;   45.000
327.931; -162.100; -723.000; -499.000
328.066;    4.200; -417.000; -276.000
328.202;   16.200;   12.000; -129.000
328.337;  265.200;  957.000;  713.000
328.473;  -10.500;  -12.000;  -74.000
328.608;   -3.700; -256.000; -267.000
328.743; -152.900; -799.000; -664.000
328.879;   85.600;  214.000;  114.000
329.014;  -72.400; -102.000; -122.000
329.150; -139.000; -358.000; -483.000
329.285; -121.200; -465.000; -466.000
329.421;  -36.200; -548.000; -246.000
329.556;  -10.700;  -36.000;   85.000
329.691; -162.800; -633.000; -615.000
329.827; -150.900; -626.000; -480.000
329.962;  -71.200;  131.000; -301.000
330.097; -150.900; -673.000; -585.000
330.233;  -54.200; -410.000; -223.000
330.368; -248.500; -839.000; -628.000
330.503;  -12.400;    3.000;   98.000
330.638;   44.700;  -93.000; -125.000
330.774;  -70.800; -609.000; -530.000
330.909;  -65.700; -434.000; -244.000
331.044; -135.800; -714.000; -708.000
331.179; -331.200;-1217.000;-1109.000
331.315;   89.500;   77.000;   20.000
331.450;   60.800;  157.000;  285.000
331.585; -143.900; -805.000; -706.000
331.720; -140.600; -510.000; -460.000
331.855;    8.900;  -35.000; -102.000
331.990;  473.800;   62.000;  138.000
332.126;  273.100; -110.000;   71.000
332.261;  -26.100; -379.000; -265.000
332.396;   40.600; -135.000; -242.000
332.531; -197.800;-1074.000;-1031.000
332.666;   91.800; -519.000; -363.000
332.801; -191.000; -726.000; -807.000
332.936;  -30.700; -192.000; -122.000
333.071; -284.200; -870.000; -817.000
333.206;   79.900;  307.000;  379.000
333.341;   99.600;  344.000;  418.000
333.476; -137.500; -627.000; -623.000
333.611;  -39.400; -251.000; -173.000
333.746;  -60.300; -381.000; -464.000
333.881; -228.200; -973.000; -935.000
334.016; -227.500; -936.000; -917.000
334.151; -248.300; -746.000; -702.000
334.286;   63.000;  152.000;  186.000
334.421;   -4.700; -125.000; -178.000
334.556; -160.900; -611.000; -567.000
334.690; -179.000; -631.000; -577.000
334.825;  147.300;  381.000;   83.000
334.960;  -84.200; -285.000; -413.000
335.095;   34.700;  135.000;  -91.000
335.230; -187.900; -722.000; -738.000
335.365; -232.400;-1084.000; -990.000
335.499; -256.800;-1108.000;-1037.000
335.634;   69.700;    9.000;  534.000
335.769; -187.900; -755.000; -720.000
335.904;  -93.100; -603.000; -561.000
336.038; -127.900; -735.000; -657.000
336.173; -227.700;-1206.000;-1194.000
336.308;   22.200; -116.000; -189.000
336.443;   57.700; -544.000; -634.000
336.577; -160.200; -936.000; -787.000
336.712;  146.900;   -4.000;  -12.000
336.847;  -84.800; -724.000; -607.000
336.981;  100.300; -272.000; -208.000
337.116;  522.300;  615.000;  501.000
337.250;  271.800; -434.000; -421.000
337.385;  485.300; -297.000; -208.000
337.520;  183.200; -632.000; -603.000
337.654;  -64.700; -215.000; -126.000
337.789; -220.600; -989.000; -933.000
337.923;   -6.600; -104.000; -205.000
338.058; -141.900; -673.000; -738.000
338.192;  -54.100; -611.000; -488.000
338.327;   10.000;  -18.000; -155.000
338.461; -122.600; -299.000; -469.000
338.596; -147.200; -780.000; -638.000
338.730; -174.400; -767.000; -803.000
338.865;  196.700;  -46.000; -140.000
338.999; -120.100; -846.000; -702.000
339.134;  -43.400; -634.000; -536.000
339.268;   16.000; -741.000; -603.000
339.403;  675.200; -740.000; -775.000
339.537;  201.600; -894.000; -820.000
339.671; -218.500; -829.000; -813.000
339.806; -112.600; -556.000; -512.000
339.940;   57.900; -261.000; -235.000
340.074; -166.500; -685.000; -510.000
340.209;  -57.200; -351.000; -230.000
340.343; -167.100; -517.000; -573.000
340.477;  390.900;  998.000; 1036.000
340.612;  -88.200;-1033.000; -900.000
340.746;  284.100; -199.000; -243.000
340.880; -155.100; -924.000; -785.000
341.014;    7.000;  -45.000; -154.000
341.149; -205.400; -756.000; -718.000
341.283; -195.200; -839.000; -754.000
341.417; -201.400;-1124.000; -938.000
341.551;  232.300; -768.000; -708.000
341.685;  -39.500; -633.000; -611.000
341.820;  -70.700; -562.000; -493.000
341.954;  -67.800; -218.000; -349.000
342.088; -298.400;-1102.000;-1019.000
342.222;   88.400;  565.000;  618.000
342.356;  -70.700; -395.000; -335.000
342.490; -157.900; -880.000; -841.000
342.624;  -71.100; -339.000; -242.000
342.758;    0.300; -364.000; -312.000
342.892;  -87.300; -710.000; -585.000
343.026;  -34.900;  -58.000; -116.000
343.160;  -70.800; -426.000; -376.000
343.294; -130.700; -474.000; -337.000
343.428;  -30.800; -488.000; -448.000
343.562;   -6.900; -172.000;  -23.000
343.696;  -11.800; -385.000; -314.000
343.830;  -40.500; -362.000; -356.000
343.964;   64.200; -231.000; -168.000
344.098; 1602.400;  199.000;   70.000
344.232; 1411.900; -266.000; -127.000
344.366;  178.700; -567.000; -453.000
344.500;  126.500; -665.000; -744.000
344.634;   76.000; -324.000; -164.000
344.768;    0.100; -531.000; -341.000
344.902;   87.200;  278.000;  256.000
345.035; -130.900; -556.000; -496.000
345.169; -255.000; -933.000; -656.000
345.303;  -41.300; -308.000; -482.000
345.437; -118.200; -826.000; -717.000
345.571; -125.300; -675.000; -594.000
345.704; -118.900; -309.000; -532.000
345.838;   -5.000; -331.000; -284.000
345.972;  -63.100; -543.000; -495.000
346.106;  331.100; -179.000; -190.000
346.239;  770.100; -312.000; -243.000
346.373;   26.100; -343.000; -302.000
346.507; -276.800; -950.000; -962.000
346.640;  302.300;  -30.000;   13.000
346.774;  -82.800; -650.000; -797.000
346.908;    8.500; -138.000;  -11.000
347.041; -168.100; -646.000; -593.000
347.175;   58.200;  259.000;   27.000
347.309; -109.600; -698.000; -628.000
347.442; -148.700; -883.000; -732.000
347.576;  548.000;  670.000;  668.000
347.709;  376.600; -123.000;  -52.000
347.843; -197.600; -933.000; -825.000
347.976;   79.100;  235.000;  294.000
348.110; -337.200;-1268.000;-1186.000
348.243; -135.500; -679.000; -772.000
348.377;   17.600;  -26.000;   60.000
348.510;  117.300;  403.000;  540.000
348.644;  -61.500;  -37.000; -159.000
348.777;   82.600;  180.000;  191.000
348.911;  -63.900; -142.000; -112.000
349.044;  361.000;  471.000;  448.000
349.178;  235.400;-1069.000;-1006.000
349.311;  238.600;  141.000;  255.000
349.444;    2.600; -927.000; -813.000
349.578;   28.200; -347.000; -200.000
349.711; -198.800; -959.000; -862.000
349.845;    3.900; -661.000; -591.000
349.978; -300.700;-1224.000;-1137.000
350.111; -109.000; -546.000; -612.000
350.244; -129.800; -596.000; -700.000
350.378;   22.200; -392.000; -393.000
350.511; -103.700; -393.000; -426.000
350.644; -207.800; -808.000; -806.000
350.778;   50.400;  168.000;  104.000
350.911;   20.300;  134.000;  140.000
351.044; -159.500; -685.000; -615.000
351.177;  -14.700; -321.000; -281.000
351.310;   13.800;    3.000; -131.000
351.444; -144.300; -888.000; -788.000
351.577;  276.500;  140.000;   90.000
351.710;  235.600;  593.000;  417.000
351.843;  -12.500; -165.000;  -77.000
351.976;    9.100;  149.000;  -79.000
352.109; -197.500; -621.000; -612.000
352.242;  -11.300; -464.000; -419.000
352.376; -113.500; -580.000; -636.000
352.509;  318.400; -437.000; -356.000
352.642;    2.900; -654.000; -604.000
352.775;  132.100; -141.000;  -98.000
352.908; -248.800; -933.000; -904.000
353.041; -174.600; -814.000; -824.000
353.174; -119.600; -551.000; -424.000
353.307; -164.700; -753.000; -764.000
353.440;  180.200;  541.000;  453.000
353.573; -222.800; -957.000;-1008.000
353.706;  -92.700; -384.000; -558.000
353.839;   -3.400; -264.000; -220.000
353.971; -166.600; -657.000; -512.000
354.104; -159.300; -896.000; -835.000
354.237;  -57.000; -627.000; -662.000
354.370; -133.600; -846.000; -879.000
354.503; -356.700;-1231.000;-1308.000
354.636;  -17.800; -529.000; -348.000
354.769; -230.700; -937.000; -860.000
354.902;    5.800; -230.000; -139.000
355.034;  -38.800; -164.000; -220.000
355.167;  -22.000; -262.000; -162.000
355.300; -172.700;-1061.000; -880.000
355.433; 1839.100;  -71.000;  -14.000
355.565; 2773.900; -402.000; -384.000
355.698;  672.600; -356.000; -296.000
355.831;  -19.700; -882.000; -801.000
355.964;  192.500; -285.000; -170.000
356.096; -169.600; -856.000; -843.000
356.229;   -0.100; -523.000; -530.000
356.362;  563.300; -373.000; -266.000
356.494; 1146.400; -229.000; -162.000
356.627;  930.900;  269.000;  377.000
356.760; 1272.400;  120.000;   53.000
356.892; 1743.100; -286.000; -601.000
357.025; 1250.000;  403.000;  389.000
357.157; 1163.700; -167.000; -179.000
357.290; 1207.400; -856.000; -713.000
357.423;  334.100; -667.000; -556.000
357.555;  247.600; -217.000; -228.000
357.688;  225.400; -483.000; -364.000
357.820;  730.500; -870.000; -877.000
357.953; 6515.100; -563.000; -589.000
358.085; 1397.500; -632.000; -612.000
358.218; 2048.400;-1131.000; -932.000
358.350;  426.900;  -58.000;  312.000
358.483; -253.600;-1300.000;-1187.000
358.615;  -37.900;-1182.000;-1078.000
358.747; -104.500;-1187.000;-1058.000
358.880;   20.400; -810.000; -744.000
359.012;   27.300; -376.000; -202.000
359.145;  -35.400; -480.000; -511.000
359.277;   89.500; -962.000; -913.000
359.409; 5378.600;  536.000;  231.000
359.542; 1346.500; -738.000; -688.000
359.674;  168.900;   46.000;   13.000
359.806;  -95.400; -565.000; -438.000
359.939;  -73.900; -617.000; -516.000
360.071;    3.400; -583.000; -579.000
360.203;    3.900; -411.000; -364.000
360.335;  119.200;  164.000;  -16.000
360.468;  349.700; -249.000; -307.000
360.600; 4353.300; -547.000; -454.000
360.732; 5177.000; -546.000; -423.000
360.864;  677.000;-1216.000;-1044.000
360.996;  548.500; -516.000; -554.000
361.129;   50.400; -389.000; -598.000
361.261;   77.400;  110.000; -113.000
361.393;  -19.600; -252.000; -214.000
361.525;  104.700;   94.000;  244.000
361.657;  -88.900; -821.000; -703.000
361.789;   54.800; -139.000; -155.000
361.921;  398.300; -642.000; -593.000
362.053;  547.100;  524.000;  541.000
362.185;  149.000;  288.000;   72.000
362.318; -149.300; -709.000; -705.000
362.450;  286.200;  294.000;  444.000
362.582;  195.200; -913.000; -870.000
362.714;  -36.700; -353.000; -332.000
362.846; -161.800; -606.000; -490.000
362.978; -248.400; -941.000; -811.000
363.109;  135.100; -161.000; -260.000
363.241;  825.200; -739.000; -749.000
363.373;  851.900; -649.000; -564.000
363.505; 1272.300; -186.000;  -91.000
363.637;  289.400; -787.000; -601.000
363.769; -248.600;-1067.000;-1080.000
363.901;  -93.600; -596.000; -654.000
364.033; -235.900;-1103.000;-1062.000
364.165;   10.800; -283.000; -283.000
364.296;  163.400; -316.000; -177.000
364.428;  149.300;-1344.000;-1220.000
364.560; -124.600; -679.000; -661.000
364.692; -104.800; -738.000; -835.000
364.824;  508.100; -588.000; -456.000
364.955;  826.800; -402.000; -564.000
365.087; 1708.500;-1097.000; -852.000
365.219;   71.800; -686.000; -816.000
365.351; -121.400; -526.000; -572.000
365.482;  174.000;  300.000;  240.000
365.614;  -74.500; -402.000; -314.000
365.746; -188.600; -729.000; -752.000
365.877; -183.900; -706.000; -672.000
366.009;  519.800;  -35.000;  -62.000
366.141; -156.100;-1249.000;-1134.000
366.272; -177.100; -803.000; -719.000
366.404; -201.300;-1005.000; -874.000
366.535;   20.200; -139.000;  -12.000
366.667; -170.400; -644.000; -649.000
366.799;  144.500;  353.000;  203.000
366.930; -217.800; -862.000; -996.000
367.062;  246.400; -639.000; -613.000
367.193;  231.300; -872.000; -842.000
367.325;  -80.800; -580.000; -684.000
367.456;  173.900; -246.000;   31.000
367.588;  324.400; -371.000; -318.000
367.719;   83.700;  -44.000;  -45.000
367.851;  -44.200; -222.000; -241.000
367.982; -120.200; -875.000; -732.000
368.113;  228.700; -475.000; -358.000
368.245; -217.100; -960.000; -841.000
368.376;    4.500; -254.000; -302.000
368.508;  -41.600; -188.000; -263.000
368.639; -244.000;-1166.000;-1034.000
368.770;  -47.200; -670.000; -589.000
368.902; -125.900; -836.000; -926.000
369.033; -200.000; -906.000; -855.000
369.164;  -64.000; -720.000; -653.000
369.296; -156.600; -452.000; -601.000
369.427;   49.100; -209.000; -144.000
369.558;  -80.200; -593.000; -377.000
369.689; -126.200; -721.000; -569.000
369.821; -234.500; -951.000; -845.000
369.952;   23.600;   42.000; -108.000
370.083;  -79.500; -229.000; -108.000
370.214; -108.000; -735.000; -650.000
370.345;   29.000;   65.000;   81.000
370.477; -116.100; -810.000; -790.000
370.608;  441.400; -328.000; -264.000
370.739;  -74.700;-1233.000;-1292.000
370.870;  -64.900;-1102.000; -923.000
371.001;  223.800; -378.000; -467.000
371.132; -137.200; -754.000; -735.000
371.263;   -5.900;  -42.000; -148.000
371.394; -236.800; -841.000; -748.000
371.525;   92.700;  345.000;  225.000
371.657; -137.000; -808.000; -670.000
371.788;  199.100;  103.000;  199.000
371.919;  312.300; -384.000; -304.000
372.050; 6452.600;  -91.000; -156.000
372.181; 1839.600; -188.000; -294.000
372.311;  726.500;   42.000; -127.000
372.442;   48.700; -457.000; -451.000
372.573;   -0.400; -444.000; -340.000
372.704; -235.500;-1008.000; -980.000
372.835;  194.000; -228.000; -289.000
372.966; -108.200; -646.000; -554.000
373.097; -104.700; -575.000; -711.000
373.228;  -46.100; -717.000; -542.000
373.359;  236.600; -824.000; -536.000
373.490; 1697.500; -881.000; -727.000
373.620; 2064.100;-1001.000; -803.000
373.751; 3200.500; -332.000; -396.000
373.882; 1360.200; -663.000; -733.000
374.013;  134.000; -449.000; -262.000
374.143;  -54.400; -581.000; -659.000
374.274; -158.500; -987.000; -908.000
374.405;  368.100; -388.000; -276.000
374.536;  801.600; -526.000; -387.000
374.666; 1960.700; -759.000; -807.000
374.797;  410.100; -817.000; -868.000
374.928; 1577.600; -710.000; -560.000
375.058; 1626.600; -535.000; -500.000
375.189;  210.200;  -59.000;  -93.000
375.320; -174.600; -928.000;-1034.000
375.450;  -58.600; -625.000; -616.000
375.581;  -82.100; -526.000; -436.000
375.712;   -5.300; -574.000; -250.000
375.842;  591.500; -438.000; -415.000
375.973;  426.600; -554.000; -513.000
376.103;  -66.000; -665.000; -648.000
376.234; -117.600; -531.000; -552.000
376.364;  -74.900; -944.000; -867.000
376.495;  670.600;  925.000;  529.000
376.625;   -9.200; -472.000; -485.000
376.756;  109.700; -709.000; -678.000
376.886; -138.800;-1178.000;-1026.000
377.017;   99.300;-1048.000;-1061.000
377.147;  646.600; -786.000; -782.000
377.278;  172.700;  174.000;  228.000
377.408; -216.900; -801.000; -815.000
377.538; -172.200; -707.000; -693.000
377.669; -107.900; -537.000; -613.000
377.799; -133.600; -645.000; -635.000
377.929; -116.800; -610.000; -428.000
378.060; -222.900; -781.000; -847.000
378.190;  -65.900; -726.000; -531.000
378.320;  -61.600; -401.000; -406.000
378.451;   21.200; -131.000;  -22.000
378.581;   60.300;  -67.000; -110.000
378.711;  316.000; 1035.000;  866.000
378.841;  -12.500; -533.000; -675.000
378.972; -146.600; -871.000; -751.000
379.102;   18.300; -652.000; -579.000
379.232;   -5.000; -126.000;  -73.000
379.362; -201.800;-1001.000; -885.000
379.492;   31.300; -373.000; -424.000
379.623;  261.800;    0.000;  111.000
379.753; -178.700;-1107.000; -974.000
379.883;  434.300;   59.000;  156.000
380.013;   -4.600;-1081.000;-1017.000
380.143; -190.100;-1097.000;-1056.000
380.273; -201.500; -985.000; -861.000
380.403;   37.000; -344.000; -257.000
380.533;  -61.700; -651.000; -664.000
380.663;  165.700;  173.000;  128.000
380.793; -193.100;-1027.000;-1074.000
380.923;    1.200; -103.000;  -34.000
381.053; -145.200; -613.000; -623.000
381.183;  -16.000; -106.000; -248.000
381.313;   84.800; -656.000; -470.000
381.443;   97.000; -692.000; -473.000
381.573;  407.900; -402.000; -409.000
381.703;  511.700;-1249.000;-1095.000
381.833; -232.200;-1454.000;-1336.000
381.963;  231.100; -134.000;  -87.000
382.093; 2481.800; -925.000; -909.000
382.223;  736.800; -713.000; -602.000
382.353;  -33.100; -801.000; -608.000
382.482;  693.800;-1091.000; -964.000
382.612; 1416.800; -872.000; -644.000
382.742;  770.400; -695.000; -622.000
382.872;  485.500; -565.000; -551.000
383.002;  205.400;  347.000; -132.000
383.131;    3.700; -226.000; -160.000
383.261;  -53.400; -706.000; -768.000
383.391;  537.700; -552.000; -377.000
383.521; 5973.800;  451.000;  263.000
383.650; 1246.600; -947.000; -904.000
383.780;   -5.300; -783.000; -656.000
383.910;  277.600;  880.000;  802.000
384.039;   90.500; -794.000; -656.000
384.169;  389.300;-1205.000;-1017.000
384.299;   24.800; -650.000; -662.000
384.428; -134.400; -764.000; -680.000
384.558;   -8.900; -308.000; -275.000
384.687;  -69.900; -414.000; -334.000
384.817;   88.800;   75.000;   -2.000
384.947;   96.600; -234.000; -141.000
385.076;  615.800;  982.000;  912.000
385.206;  267.300;  369.000;  480.000
385.335;   26.400; -549.000; -417.000
385.465;  -92.100; -655.000; -663.000
385.594;  321.100;  -53.000;  -44.000
385.724;  726.200; -868.000; -838.000
385.853;  217.800; -296.000; -270.000
385.982; 2510.800; -743.000; -787.000
386.112; 3745.500;-1052.000; -871.000
386.241;  279.200; -307.000; -312.000
386.371;   63.700; -174.000;  -87.000
386.500;    5.500; -825.000; -789.000
386.629;   86.200; -874.000; -817.000
386.759;  198.700;  -43.000;   68.000
386.888;   71.900; -170.000; -250.000
387.017; -100.100; -648.000; -620.000
387.147; -116.600; -771.000; -798.000
387.276;   59.600; -410.000; -397.000
387.405;   76.200; -398.000; -342.000
387.535;  -65.000; -452.000; -361.000
387.664;  -73.400; -692.000; -620.000
387.793;  137.600; -198.000; -113.000
387.922;  976.300;  255.000;  200.000
388.052;   62.200; -576.000; -423.000
388.181;   81.600; -342.000; -472.000
388.310;    4.600; -889.000; -710.000
388.439;  -74.400; -749.000; -742.000
388.568;  374.500;  365.000;  244.000
388.697; 1911.100; -756.000; -653.000
388.826;  323.200; -768.000; -666.000
388.956;  132.100; -285.000; -307.000
389.085;  -23.100; -347.000; -287.000
389.214; -167.900; -842.000; -872.000
389.343;  -59.700; -645.000; -413.000
389.472;  816.800;  126.000;  149.000
389.601;  956.300;   91.000;    0.000
389.730;   49.400; -568.000; -687.000
389.859;  167.800;  226.000;   46.000
389.988;  385.900; -423.000; -408.000
390.117;  290.200; -168.000; -146.000
390.246;    2.700; -331.000; -320.000
390.375;  197.500; -673.000; -626.000
390.504; -105.600; -703.000; -621.000
390.633; -164.500; -672.000; -726.000
390.761;  -57.300; -732.000; -645.000
390.890;   56.300;   -4.000; -130.000
391.019;  -19.600; -421.000; -441.000
391.148; -213.000; -826.000; -855.000
391.277;  -92.400; -576.000; -493.000
391.406; -137.000; -821.000; -805.000
391.534;   91.300;  574.000; -301.000
391.663;  -99.700; -583.000; -645.000
391.792; -109.200; -673.000; -701.000
391.921;  176.300;   -3.000;   15.000
392.050;  361.700; -287.000; -228.000
392.178;  -88.900;-1206.000;-1061.000
392.307;  274.100; -758.000; -712.000
392.436;  151.900; -427.000; -641.000
392.564;  125.700;  166.000;   -6.000
392.693; -158.900; -860.000; -682.000
392.822;  424.600; -529.000; -534.000
392.950;  165.500; -880.000; -714.000
393.079;  638.300; -188.000; -328.000
393.208;   35.100; -488.000; -511.000
393.336;    2.400; -170.000; -145.000
393.465;  -41.100; -317.000; -199.000
393.593;   26.000;   62.000;   79.000
393.722; -256.200;-1121.000; -916.000
393.850;   17.900; -188.000;  -61.000
393.979; -266.800; -926.000; -805.000
394.107;  -62.500; -517.000; -537.000
394.236;  -55.300; -570.000; -507.000
394.364;  557.700;  383.000;  206.000
394.493;  879.600; -911.000; -767.000
394.621;   35.600; -955.000; -916.000
394.750; 1399.100; -873.000; -923.000
394.878; 5746.600; -247.000; -149.000
395.007; 7280.400; -721.000; -807.000
395.135;  528.000; -790.000; -721.000
395.263; -178.100;-1038.000;-1040.000
395.392;   55.000;  -25.000; -107.000
395.520; -228.900; -818.000; -679.000
395.648; -170.500; -865.000; -915.000
395.777;   -8.500; -366.000; -405.000
395.905;  -35.400; -449.000; -564.000
396.033;   79.400;  217.000;  172.000
396.162; 1498.900; -399.000; -453.000
396.290; 1262.300;  -17.000;   -2.000
396.418;  229.700; -555.000; -514.000
396.546; -138.100; -571.000; -466.000
396.674; -154.800; -850.000; -878.000
396.803;   74.700;  -72.000;  -23.000
396.931;  250.500; -179.000; -199.000
397.059;  105.700;-1026.000; -989.000
397.187; -198.100;-1026.000; -975.000
397.315; -245.200; -884.000; -649.000
397.443; -151.500; -592.000; -443.000
397.572; -155.900; -578.000; -424.000
397.700;   17.800; -607.000; -614.000
397.828;   48.300;  120.000;  -90.000
397.956;  -47.100; -508.000; -478.000
398.084; -115.800; -767.000; -626.000
398.212;  131.600;  137.000;  124.000
398.340;   84.600;  -56.000;  159.000
398.468;  122.800; -390.000; -169.000
398.596; -212.400; -993.000; -953.000
398.724; -191.900; -762.000; -767.000
398.852; -313.600;-1024.000; -976.000
398.980;  -73.000; -560.000; -560.000
399.108;  -73.400; -982.000; -735.000
399.236;  122.700;   13.000;    8.000
399.363;   50.100;  222.000;  196.000
399.491; -111.500; -404.000; -398.000
399.619; -249.300; -829.000; -800.000
399.747; -128.200; -859.000; -771.000
399.875;  195.800;  220.000;  234.000
400.003;  -43.200; -359.000; -284.000
400.130; -119.600; -421.000; -341.000
400.258;   21.800;  -83.000;   38.000
400.386;  -91.100; -352.000; -168.000
400.514;  -44.000; -526.000; -587.000
400.641; -131.500; -928.000; -802.000
400.769; -258.200; -979.000; -888.000
400.897; -179.700; -838.000; -793.000
401.025;    6.500; -166.000; -152.000
401.152;   43.000;  220.000;   38.000
401.280; -153.600; -430.000; -429.000
401.408; -196.900; -712.000; -576.000
401.535; -160.900; -735.000; -758.000
401.663; -351.300;-1134.000;-1054.000
401.790;  -99.800; -514.000; -525.000
401.918;  126.400;  436.000;  405.000
402.046;   17.700;  134.000;  122.000
402.173;  -22.200;  -18.000;    7.000
402.301; -110.500; -519.000; -397.000
402.428;  142.100;  528.000;  383.000
402.556; -228.900;-1188.000; -913.000
402.683;    5.200;  -20.000;   -1.000
402.811;   16.300;  -37.000; -206.000
402.938;    7.900;   20.000;   27.000
403.066;  372.200; -574.000; -558.000
403.193;  617.800;  299.000;  239.000
403.321;  457.000; -396.000; -574.000
403.448;  580.600;   83.000;   27.000
403.575;  270.300;  -90.000;  -46.000
403.703; -134.000; -732.000; -557.000
403.830;  -97.400; -531.000; -496.000
403.957; -250.100;-1117.000;-1023.000
404.085;   54.500;  -61.000; -172.000
404.212;  210.300;  -50.000;   63.000
404.339;  515.300; -566.000; -306.000
404.467;11226.600; -612.000; -524.000
404.594; 6748.300; -287.000; -227.000
404.721; 1547.000; -869.000; -764.000
404.848;  192.600; -113.000; -202.000
404.976; -185.900; -856.000; -783.000
405.103;   42.300;  -14.000;  -82.000
405.230;   18.100;  190.000;  226.000
405.357;  118.900;  117.000;   44.000
405.484;  520.000;  -49.000;    5.000
405.612;   93.000; -548.000; -563.000
405.739;  -82.900; -488.000; -243.000
405.866;  230.800;  669.000;  385.000
405.993;  -52.400; -398.000; -102.000
406.120; -213.700; -801.000; -887.000
406.247;  -80.900; -323.000; -342.000
406.374;  880.100;  540.000;  629.000
406.501;  183.500; -632.000; -702.000
406.628;  -90.800; -621.000; -589.000
406.755; -169.300; -803.000; -620.000
406.882;  -26.700; -228.000; -277.000
407.009; -168.000; -719.000; -628.000
407.136;  146.000; -480.000; -401.000
407.263;  245.800; -939.000; -829.000
407.390;  -96.600; -692.000; -614.000
407.517; -291.200;-1139.000;-1187.000
407.644;  -93.000; -332.000; -256.000
407.771;  -90.500; -249.000; -287.000
407.898;   79.100;  168.000;  328.000
408.025;  -98.200; -421.000; -313.000
408.151;   25.600;   82.000;  153.000
408.278;  -95.600; -267.000; -216.000
408.405; -206.500; -931.000; -899.000
408.532;  -98.900; -549.000; -542.000
408.659; -196.000; -677.000; -648.000
408.785; -387.900;-1298.000;-1170.000
408.912;  -97.800; -412.000; -296.000
409.039; -181.400; -610.000; -686.000
409.166; -175.100; -591.000; -555.000
409.292; -220.500; -571.000; -534.000
409.419; -184.500; -665.000; -649.000
409.546; -144.500; -431.000; -192.000
409.672; -181.200; -713.000; -545.000
409.799;    2.700;  -36.000;   34.000
409.926;  -19.300; -180.000; -179.000
410.052; -303.200;-1127.000;-1091.000
410.179;  -48.400; -368.000; -392.000
410.305; -116.100; -375.000; -493.000
410.432;  -39.800; -220.000; -333.000
410.558; -162.400; -305.000; -380.000
410.685; -171.500; -688.000; -431.000
410.812; -171.300; -409.000; -588.000
410.938; -229.900; -964.000; -808.000
411.065; -176.400; -671.000; -645.000
411.191;    9.500; -189.000; -174.000
411.317; -191.400; -823.000; -742.000
411.444;  -50.200; -317.000; -246.000
411.570;  -85.900; -339.000; -294.000
411.697; -179.700; -758.000; -752.000
411.823; -306.500; -989.000; -999.000
411.949;   16.200;  -56.000;   17.000
412.076; -175.400; -539.000; -519.000
412.202; -196.700; -758.000; -757.000
412.329; -228.300; -798.000; -752.000
412.455; -178.500; -821.000; -657.000
412.581;    9.500;  -15.000;  172.000
412.707; -102.800; -540.000; -457.000
412.834;   97.100;  156.000;  219.000
412.960; -160.500; -785.000; -784.000
413.086; -187.300; -743.000; -701.000
413.212;  436.200;  604.000;  578.000
413.339; -128.700; -685.000; -701.000
413.465;   30.200; -364.000; -310.000
413.591; -171.000; -757.000; -474.000
413.717;  -12.100; -358.000; -366.000
413.843; -241.600; -839.000; -861.000
413.969;  -64.200;  -47.000; -292.000
414.096; -174.400; -679.000; -679.000
414.222;   77.600;  -33.000;   85.000
414.348;  -47.500; -652.000; -385.000
414.474;  214.700;   38.000;  -52.000
414.600;  -23.800; -126.000; -144.000
414.726;   49.900;  -96.000;  -55.000
414.852;  -62.400; -365.000; -342.000
414.978;  119.200;  104.000;  -18.000
415.104;  144.000;   38.000;   80.000
415.230;  119.900; -329.000; -330.000
415.356;  125.900; -409.000; -514.000
415.482;  456.500;   13.000;  -35.000
415.608;  582.700; -247.000; -323.000
415.734; 1938.200;   67.000;   38.000
415.860;39650.800; -875.000; -767.000
415.986;25791.500; -685.000; -607.000
416.111; 2188.100; -798.000; -652.000
416.237;  511.500; -424.000; -571.000
416.363; 2386.700; -765.000; -733.000
416.489; 7855.200; -324.000; -251.000
416.615;  758.900; -707.000; -742.000
416.741;   -8.800; -677.000; -784.000
416.866; -151.000; -673.000; -736.000
416.992; -195.000; -801.000; -818.000
417.118;  -12.400;  -41.000;  -80.000
417.244; -106.700; -798.000; -531.000
417.369; -166.900; -801.000; -612.000
417.495;   50.200; -325.000; -254.000
417.621; -131.400;-1015.000; -803.000
417.746;   35.200; -579.000; -572.000
417.872;  145.400; -254.000; -144.000
417.998;  118.700; -515.000; -530.000
418.123; 2224.400;-1073.000; -845.000
418.249;10215.900; -512.000; -601.000
418.374; 1243.700; -916.000; -824.000
418.500;  246.100; -383.000; -482.000
418.626;  260.200;   70.000;  -59.000
418.751;  279.000; -549.000; -448.000
418.877;  364.000; -637.000; -643.000
419.002; 3777.100; -688.000; -560.000
419.128;23824.100; -930.000; -721.000
419.253; 5241.500; -967.000; -837.000
419.379;  754.900; -391.000; -338.000
419.504;  812.900;  325.000;  415.000
419.629; 1051.300; -393.000; -212.000
419.755; 7450.700; -317.000; -254.000
419.880;39107.100;  -98.000;   67.000
420.006;22131.900; -280.000; -221.000
420.131;53962.200; -662.000; -775.000
420.256; 6954.800; -315.000; -316.000
420.382;  956.200; -665.000; -687.000
420.507;  125.700; -649.000; -778.000
420.632;  256.700; -337.000; -339.000
420.758;  453.700; -251.000; -425.000
420.883; -146.300; -876.000; -672.000
421.008; -140.900; -775.000; -619.000
421.133; -134.300; -509.000; -467.000
421.259;  -55.500; -325.000; -259.000
421.384; -202.800; -834.000; -693.000
421.509;  -65.700;-1052.000; -862.000
421.634; 2047.200; -936.000; -820.000
421.759;  773.500; -359.000; -327.000
421.885; -116.600; -717.000; -656.000
422.010;  -99.300; -673.000; -542.000
422.135; -238.100; -695.000; -727.000
422.260;  122.600;  340.000;  280.000
422.385;  -50.100;   12.000;  -98.000
422.510;   76.200;  151.000;  -26.000
422.635;   90.300;  -87.000;  -43.000
422.760;  227.400; -766.000; -791.000
422.885;  154.400;  -57.000;  -80.000
423.010;   23.100; -112.000; -169.000
423.135; -139.600; -481.000; -561.000
423.260;   16.300; -150.000; -245.000
423.385;  186.000;  476.000;  222.000
423.510;  127.900;   71.000;  -22.000
423.635;  194.300;  133.000;   45.000
423.760;  172.600;  383.000;  328.000
423.885;  156.500;  336.000;  391.000
424.010;   79.200;  -68.000;  -13.000
424.135;   33.200;    5.000;  -33.000
424.259; -101.400; -654.000; -457.000
424.384;  -41.600; -279.000; -272.000
424.509;   41.100; -260.000; -186.000
424.634; -169.800; -761.000; -623.000
424.759;    2.100; -688.000; -544.000
424.883;  -11.100; -506.000; -527.000
425.008;  381.800; -502.000; -410.000
425.133; 3985.300; -679.000; -653.000
425.258; 1640.300; -517.000; -381.000
425.382; 1970.600; -867.000; -774.000
425.507; 4448.100; -487.000; -543.000
425.632;  753.900; -802.000; -663.000
425.756;  918.600; -256.000; -146.000
425.881;13364.500; -831.000; -857.000
426.006;32245.900; -604.000; -355.000
426.130; 4526.400; -696.000; -508.000
426.255;  647.500; -611.000; -491.000
426.379;  310.100; -189.000; -577.000
426.504;  756.600;  660.000;  544.000
426.629; 8182.500; -519.000; -466.000
426.753; 4980.900;   64.000;  -46.000
426.878;  638.100; -252.000; -288.000
427.002;  309.300; -651.000; -668.000
427.127; 3315.300;  -35.000; -158.000
427.251;21946.500;  372.000;  401.000
427.375; 5513.100; -191.000; -173.000
427.500; 4106.300; -616.000; -610.000
427.624; 1239.300; -234.000; -400.000
427.749;  195.400; -216.000; -225.000
427.873;  -41.300; -499.000; -412.000
427.997;  -40.200; -222.000; -230.000
428.122;  214.100;  795.000;  703.000
428.246;  229.000;  433.000;  434.000
428.371; -202.300; -869.000; -773.000
428.495; -142.600; -624.000; -646.000
428.619;  -13.900; -186.000; -117.000
428.743;   83.600;   65.000;  132.000
428.868;   33.900; -732.000; -643.000
428.992; 2529.800; -219.000; -326.000
429.116;  924.100; -329.000; -357.000
429.240;  519.200;  419.000;  426.000
429.365;   -1.700; -454.000; -574.000
429.489;  -31.800; -638.000; -647.000
429.613;  103.600; -236.000; -177.000
429.737;  126.000; -563.000; -432.000
429.861;  571.700; -247.000; -133.000
429.985;11316.400; -425.000; -305.000
430.109;10955.300; -770.000; -908.000
430.234; 1231.000;   76.000;  -50.000
430.358;  150.900; -250.000; -160.000
430.482; -107.700; -672.000; -564.000
430.606;  -48.700; -655.000; -375.000
430.730;   98.100; -437.000; -388.000
430.854;  269.000; -909.000; -835.000
430.978;  -90.900; -795.000; -764.000
431.102; -137.000; -499.000; -422.000
431.226; -183.300; -874.000; -815.000
431.350;  130.600;  345.000;  422.000
431.474; -107.500; -661.000; -373.000
431.597; -251.800;-1060.000; -848.000
431.721;  -87.300; -276.000; -267.000
431.845; -220.600; -704.000; -472.000
431.969; -133.300; -304.000; -349.000
432.093; -118.200; -395.000; -317.000
432.217;   20.100;   32.000;   82.000
432.341; -125.700; -523.000; -518.000
432.464;   82.500;   96.000;   40.000
432.588;  422.200; -401.000; -329.000
432.712;  250.000;  -52.000;  -52.000
432.836;  140.000;  213.000;  263.000
432.959;   26.700; -372.000; -311.000
433.083;  227.200;   11.000;    2.000
433.207;  803.600;  285.000;  930.000
433.330;10226.600; -391.000; -200.000
433.454;11374.600; -654.000; -638.000
433.578; 6738.000;  583.000;  278.000
433.701; 1158.000; -623.000; -675.000
433.825;  258.200; -292.000; -299.000
433.949;  323.700;   28.000;  -72.000
434.072;  104.800; -410.000; -323.000
434.196;   32.500; -309.000; -117.000
434.319; 8014.600;25482.000;25124.000
434.443; 1490.500; -656.000; -603.000
434.566; 5011.400;  281.000;   62.000
434.690;  774.300; -637.000; -383.000
434.813;  145.000; -251.000; -173.000
434.937;  -80.100; -569.000; -696.000
435.060;  -35.700; -423.000; -332.000
435.184;  566.900; -492.000; -217.000
435.307;  346.800;  159.000;  102.000
435.431;   40.300;  -40.000;   24.000
435.554;  -90.000; -399.000; -240.000
435.677; -132.300; -350.000; -258.000
435.801;  -40.300;  -25.000;   49.000
435.924;   32.400;    1.000;  -67.000
436.048; -179.800;-1019.000; -732.000
436.171;  -67.200; -240.000;  -66.000
436.294;    4.500; -248.000; -229.000
436.417;  217.800; -963.000; -849.000
436.541; -137.700; -814.000; -840.000
436.664;  -26.100; -242.000; -316.000
436.787;   45.500;   13.000;  113.000
436.910; -159.900; -792.000; -422.000
437.034;   82.200;  142.000;  143.000
437.157;  173.300;  -11.000;    0.000
437.280; -111.600; -392.000; -292.000
437.403; -147.900; -982.000; -869.000
437.526; 1239.000; -903.000; -865.000
437.649; 3822.700; -505.000; -332.000
437.772;  477.300; -692.000; -540.000
437.896;  259.700;  700.000;  544.000
438.019; -152.200; -758.000; -503.000
438.142; -136.000; -596.000; -506.000
438.265;   28.200; -639.000; -670.000
438.388; 1089.300; -520.000; -410.000
438.511;  175.500; -597.000; -394.000
438.634;  -64.400; -247.000; -125.000
438.757; -224.400; -693.000; -619.000
438.880;    0.700;  -34.000;  -57.000
439.003; -127.600; -417.000; -437.000
439.126;  -82.600; -287.000; -167.000
439.248;  -62.000;  -98.000; -139.000
439.371;   -7.800;    9.000;  -53.000
439.494;  116.000;  510.000;  439.000
439.617;  -48.000;   65.000;  -88.000
439.740; -293.800; -968.000; -816.000
439.863; -238.400; -755.000; -595.000
439.986; -201.800; -476.000; -431.000
440.108;  -39.700; -161.000; -112.000
440.231; -289.000; -950.000; -836.000
440.354;   14.300;  -64.000; -150.000
440.477;   95.300; -566.000; -542.000
440.599;   49.300; -200.000; -225.000
440.722; -229.000; -709.000; -586.000
440.845;  197.100;  751.000;  928.000
440.968; -179.200; -415.000; -311.000
441.090;  -77.100; -199.000;  -33.000
441.213; -294.400;-1021.000; -825.000
441.336;  -49.800; -159.000;   -5.000
441.458; -116.200; -549.000; -396.000
441.581; -106.200; -628.000; -629.000
441.703;  -75.900; -152.000;   13.000
441.826; -149.800; -557.000; -400.000
441.948;  -39.800;   56.000;   51.000
442.071;  145.800;  555.000;  424.000
442.193; -173.700; -531.000; -485.000
442.316;  114.800;  152.000;   97.000
442.438;  121.100; -233.000;  -10.000
442.561;  213.800;  272.000;  262.000
442.683; 1031.900; -809.000; -522.000
442.806; 1987.500;   -8.000;   74.000
442.928;  -11.500; -859.000; -604.000
443.051; -112.500; -577.000; -373.000
443.173; -146.500; -341.000; -339.000
443.295; -126.900; -263.000; -371.000
443.418;  -91.800; -321.000;  -29.000
443.540;   23.200; -106.000;   -4.000
443.662; -236.400; -563.000; -465.000
443.785;   80.700;  335.000;  199.000
443.907; -161.600; -362.000; -208.000
444.029; -198.400; -767.000; -494.000
444.152; -263.000; -644.000; -554.000
444.274;   -2.200;  -18.000;  -24.000
444.396; -183.400; -461.000; -221.000
444.518; -207.400; -691.000; -454.000
444.640; -172.700; -268.000; -111.000
444.763;   28.500;  388.000;  249.000
444.885; -171.400; -432.000; -392.000
445.007;   15.000;   35.000;   86.000
445.129; -212.600; -610.000; -515.000
445.251; -140.700; -372.000; -439.000
445.373; -235.200; -537.000; -386.000
445.495;   47.400;  242.000;  350.000
445.617;  156.200;  853.000;  753.000
445.739;  -37.800; -215.000;  -97.000
445.861;  -22.900; -245.000; -112.000
445.984;  -11.200; -267.000; -101.000
446.105;  407.800; -418.000; -251.000
446.227; 1112.500; -176.000;  -19.000
446.349;   25.000; -358.000; -249.000
446.471; -150.500; -615.000; -448.000
446.593;  -95.900; -316.000;   19.000
446.715;   27.800;  -67.000;   41.000
446.837;  176.200;  697.000;  832.000
446.959; -123.000; -457.000; -478.000
447.081; -202.500; -628.000; -518.000
447.203;  204.600;  862.000;  834.000
447.325; -136.600; -270.000;   42.000
447.446;   49.300;  286.000;  530.000
447.568; -271.700; -921.000; -803.000
447.690;  -87.500; -236.000; -245.000
447.812; -259.000; -798.000; -519.000
447.933;  -11.300;  155.000;  127.000
448.055;  -92.500; -306.000; -261.000
448.177;  332.400;   31.000;   79.000
448.299;  103.000; -935.000; -727.000
448.420;   99.400;  -25.000;  159.000
448.542;  -51.000;   -3.000;   33.000
448.664;   48.200;  109.000;  322.000
448.785;  -23.900;  265.000;   83.000
448.907; -106.600; -614.000; -353.000
449.028;  -35.700; -771.000; -471.000
449.150;  163.300;  492.000;  589.000
449.272; -320.700;-1044.000; -913.000
449.393;  117.800;  612.000;  694.000
449.515; -243.400; -634.000; -581.000
449.636;  -29.300; -264.000; -155.000
449.758;  197.000;  763.000;  622.000
449.879; -136.600; -498.000; -396.000
450.001; -102.300; -149.000;  -49.000
450.122;   10.600;  -95.000;  162.000
450.244;   -0.200;   37.000;  364.000
450.365; -117.500; -495.000; -301.000
450.486;  -17.000;   80.000;  268.000
450.608;  127.800;  393.000;  326.000
450.729;  233.100;  578.000;  645.000
450.850;   75.200; -574.000; -466.000
450.972; 1587.000; -552.000; -389.000
451.093; 9639.300;  190.000;  588.000
451.214; 3528.300; -516.000; -337.000
451.336;  721.800;  773.000;  579.000
451.457;  137.200;  264.000;  393.000
451.578;   15.400; -118.000;  -74.000
451.699; -202.600; -546.000; -540.000
451.821;  -30.400; -284.000;  -50.000
451.942;   57.000;  278.000;  285.000
452.063;  145.300;  228.000;  419.000
452.184; 1204.200;  -54.000;  -49.000
452.305; 2073.600;  103.000;  170.000
452.427;  229.300; -549.000; -301.000
452.548;   35.200;   23.000;   79.000
452.669;  -40.100; -257.000;  -89.000
452.790;    1.600;    3.000;  -18.000
452.911;   10.300;  195.000;  259.000
453.032;  -71.600; -289.000;  -60.000
453.153;  -35.900;  -29.000;   81.000
453.274;  228.800;  737.000;  868.000
453.395;  -49.300;  -51.000;  175.000
453.516;  358.600; 1317.000; 1388.000
453.637;  -53.300; -205.000; -150.000
453.758;  -38.200;   15.000;   69.000
453.879; -177.200; -462.000; -250.000
454.000;  257.400; 1086.000;  948.000
454.121; -169.600; -554.000; -326.000
454.242; -171.900; -599.000; -383.000
454.362;  -63.300;  -99.000;  114.000
454.483;  -62.600; -309.000; -229.000
454.604;  170.100;  512.000;  580.000
454.725; -222.900; -627.000; -555.000
454.846; -225.900; -474.000; -406.000
454.967;    8.800;  230.000;  539.000
455.087;  -33.100;  179.000;  153.000
455.208;  156.800;  554.000;  856.000
455.329;  -72.800;  -22.000;   82.000
455.450;  156.100;  473.000;  633.000
455.570; -138.200; -234.000; -211.000
455.691;  -21.700;  201.000;  407.000
455.812; -149.600; -270.000;  -92.000
455.932;  -31.100;  107.000;  -97.000
456.053;  -67.600;   36.000;   24.000
456.173; -181.700; -433.000; -355.000
456.294; -222.400; -476.000; -303.000
456.415;  -71.100;  -73.000;   70.000
456.535;   -8.300;  297.000;  273.000
456.656;  -28.700;  132.000;  240.000
456.776;  -79.300;    3.000;  298.000
456.897;   45.900;  308.000;  513.000
457.017;  -91.600; -153.000;   -3.000
457.138; -166.200; -402.000; -249.000
457.258;   40.700;  263.000;  224.000
457.379;   69.200;  509.000;  521.000
457.499;   17.800;  443.000;  432.000
457.620; -180.900; -407.000; -231.000
457.740; -130.700; -132.000;  -11.000
457.860;  -65.100;   87.000;   44.000
457.981;  -36.900;  132.000;  124.000
458.101;  -79.800;  -89.000;   40.000
458.221;   20.300;  336.000;  402.000
458.342;  -34.700;   -4.000;  -37.000
458.462;  126.600;  617.000;  352.000
458.582;  -33.300; -302.000; -294.000
458.703;   98.000;  303.000;  154.000
458.823;   11.500;   22.000;  163.000
458.943;  124.800;  341.000;  467.000
459.063;   48.900; 1124.000;  192.000
459.183;   19.900;  328.000;  313.000
459.304;  108.100;  315.000;  517.000
459.424;  -29.700; -246.000;  -89.000
459.544;  750.200;  388.000;  764.000
459.664; 1623.800;  499.000;  506.000
459.784;  583.900; 1004.000; 1175.000
459.904;  168.300;  867.000;  744.000
460.024;  224.800;  867.000;  684.000
460.144;   71.300;  449.000;  554.000
460.264;   62.800;  515.000;  327.000
460.385; -138.400; -145.000; -119.000
460.505;  169.900;  905.000;  858.000
460.625; -134.100;  -17.000;  -68.000
460.745;   19.500;  396.000;  541.000
460.864;  -11.900;  153.000;  469.000
460.984;  101.800;  499.000;  573.000
461.104;  344.300; 1656.000; 1775.000
461.224;  130.000;  657.000;  650.000
461.344;  -21.400;  431.000;  360.000
461.464;  -19.900;  258.000;  513.000
461.584;   50.800;  283.000;  466.000
461.704;  -28.700;   58.000;  108.000
461.824;  -52.700;  238.000;  259.000
461.943;  -28.500;  191.000;  130.000
462.063; -113.300;    2.000;  324.000
462.183;  152.700;  639.000;  717.000
462.303;  289.600; 1678.000; 1230.000
462.422;  114.400;  781.000;  840.000
462.542;  -38.600;  271.000;  391.000
462.662;  119.400;  353.000;  380.000
462.782;  519.500;  833.000;  572.000
462.901;  994.500;  545.000;  717.000
463.021;  587.100; 1702.000; 1638.000
463.141;   65.800;  337.000;  770.000
463.260;    4.400;  614.000;  474.000
463.380;  110.300;  902.000;  884.000
463.499;  -42.500;  342.000;  332.000
463.619;   12.700;  581.000;  559.000
463.738;  312.700; 1644.000;  903.000
463.858;  107.100;  657.000;  811.000
463.978;   18.700;  542.000;  396.000
464.097;  194.400;  921.000; 1114.000
464.217;  298.900; 1196.000; 1143.000
464.336;  305.900; 1068.000; 1130.000
464.455;  -58.100;  328.000;  659.000
464.575;  151.500;  597.000;  602.000
464.694;  373.100; 1204.000; 1179.000
464.814;  285.800; 1190.000; 1138.000
464.933;  196.400; 1095.000; 1027.000
465.052;  277.500; 1412.000; 1054.000
465.172;  212.200;  922.000;  799.000
465.291;  342.800; 1376.000; 1320.000
465.410;   80.600;  462.000;  735.000
465.530;  251.500; 1355.000; 1310.000
465.649;  197.600; 1209.000; 1273.000
465.768;  350.700; 1673.000; 1508.000
465.888;  165.800;  941.000; 1174.000
466.007;  255.400; 1335.000; 1440.000
466.126;   76.400;  721.000;  641.000
466.245;  153.900; 1176.000; 1187.000
466.364;  106.100;  950.000; 1060.000
466.484;  173.000; 1024.000; 1213.000
466.603;  177.700; 1101.000; 1222.000
466.722;  313.300; 1490.000; 1769.000
466.841;  221.300; 1151.000; 1401.000
466.960;  149.600; 1069.000;  972.000
467.079;  312.600; 1971.000; 1786.000
467.198;  193.000; 1238.000; 1181.000
467.317;  257.900; 1768.000; 1162.000
467.436;  198.500; 1709.000; 1261.000
467.555;  318.000; 1796.000; 1746.000
467.674;  229.200; 1227.000; 1329.000
467.793;  162.100; 1376.000; 1374.000
467.912;  251.000; 1658.000; 1539.000
468.031;  360.200; 2038.000; 1930.000
468.150;  389.500; 1842.000; 1837.000
468.269;  489.700; 2313.000; 2090.000
468.388;  442.700; 2168.000; 2339.000
468.507;  590.000; 2884.000; 2903.000
468.626;  663.000; 2555.000; 2541.000
468.744;  386.000; 2018.000; 2174.000
468.863;  549.300; 2312.000; 2523.000
468.982;  279.200; 1503.000; 1555.000
469.101;  547.600; 2788.000; 2692.000
469.220;  395.700; 2333.000; 2176.000
469.338;  559.200; 2935.000; 3051.000
469.457;  417.200; 2719.000; 2545.000
469.576;  772.500; 3953.000; 3784.000
469.695;  563.000; 2877.000; 3066.000
469.813;  928.900; 4148.000; 4192.000
469.932;  890.400; 4255.000; 4485.000
470.051;  926.500; 4075.000; 4161.000
470.169; 1803.900; 4470.000; 4338.000
470.288; 2915.900; 4700.000; 4809.000
470.406; 1665.900; 5059.000; 5194.000
470.525; 1332.400; 6101.000; 5787.000
470.644; 1427.300; 6847.000; 6794.000
470.762; 1716.200; 8397.000; 7873.000
470.881; 1884.000; 8651.000; 8464.000
470.999; 2203.700; 9685.000; 9151.000
471.118; 2356.600;11174.000;10711.000

