
Integration time [ms]: 100.000
Averaging Nr. [scans]: 40
Smoothing Nr. [pixels]: 0
Data measured with spectrometer [name]: 2101012U2
Wave   ;Sample   ;Dark     ;Reference
[nm]   ;[counts] ;[counts] ;[counts] 

197.733;   59.200;  516.000;  404.000
197.879;  -80.725; -610.000; -634.000
198.025;  -41.575; -475.000; -420.000
198.171;  -72.475; -602.000; -612.000
198.317;  -29.675; -401.000; -316.000
198.463;  -61.025; -655.000; -404.000
198.609;   25.975;  181.000; -137.000
198.755;  -80.800; -644.000; -410.000
198.901;  -59.375; -505.000; -424.000
199.047;  -74.625; -615.000; -488.000
199.193;  -43.525; -230.000; -468.000
199.339;  -49.125; -222.000; -369.000
199.485;   39.175;  330.000;  271.000
199.631;   21.700;  227.000;  310.000
199.777;  -52.700; -466.000; -398.000
199.923;  -74.625; -610.000; -424.000
200.069;   -5.900; -141.000;  -58.000
200.215;   41.050;  128.000;  453.000
200.361;   40.800;  243.000;  477.000
200.507;  -62.625; -600.000; -373.000
200.653;  -26.450; -371.000; -194.000
200.798;  -40.975; -215.000; -125.000
200.944;   -2.600; -146.000;  -41.000
201.090;   28.100;   61.000;  222.000
201.236;    0.300; -116.000; -158.000
201.382;  121.675;  874.000;  903.000
201.528;    7.425;  -58.000;  -48.000
201.674;  -57.450; -386.000; -293.000
201.819;  -62.675; -540.000; -439.000
201.965;  -85.025; -699.000; -447.000
202.111;  -22.375; -273.000; -226.000
202.257;  -29.800; -250.000; -238.000
202.402;    6.350;   13.000;  -36.000
202.548;  -23.350; -169.000; -116.000
202.694;   97.825;  410.000; -183.000
202.840;  -70.125; -603.000; -531.000
202.985;  -71.000; -681.000; -639.000
203.131; -107.250; -832.000; -666.000
203.277;  -23.625; -199.000; -262.000
203.423;  -55.250; -434.000; -520.000
203.568;  -40.550; -462.000; -237.000
203.714;  -65.425; -535.000; -542.000
203.860;  -80.775; -682.000; -641.000
204.005;   10.975;  112.000;  167.000
204.151;   73.650;  561.000;  556.000
204.296;  -46.650; -354.000; -221.000
204.442;  -73.250; -600.000; -547.000
204.588;  -71.225; -592.000; -579.000
204.733;   21.300;  178.000;  168.000
204.879; -141.500;-1018.000; -822.000
205.025;    4.875;  -99.000;  126.000
205.170;   -3.050;  -17.000;   94.000
205.316;   89.950;  438.000;  661.000
205.461;  -80.525; -698.000; -554.000
205.607;   87.750;  609.000;  665.000
205.752;  -73.575; -626.000; -551.000
205.898;  -49.800; -501.000; -391.000
206.043;  -59.575; -578.000; -506.000
206.189;  -41.875; -243.000; -285.000
206.334;   85.925;  554.000;  606.000
206.480;   87.875;  409.000;  239.000
206.625;  -81.150; -529.000; -552.000
206.771;  -42.875; -451.000; -373.000
206.916;  -38.600; -210.000; -537.000
207.062;  -73.550; -545.000; -591.000
207.207;  -57.275; -546.000; -443.000
207.353;   57.400;  185.000;  460.000
207.498;    7.775;  196.000;   85.000
207.643;  -47.700; -501.000; -370.000
207.789; -130.375;-1069.000; -910.000
207.934;  -88.625; -665.000; -713.000
208.080;  -33.000; -154.000;   66.000
208.225;   -1.825;  -22.000;  -57.000
208.370;  -87.700; -727.000; -619.000
208.516;  -76.275; -741.000; -487.000
208.661;  -30.950; -127.000;  -69.000
208.806;   -3.875; -165.000; -171.000
208.952; -132.725;-1044.000; -731.000
209.097;  100.800;  378.000;  349.000
209.242;  -46.125; -307.000; -382.000
209.387;   81.625;  392.000;  350.000
209.533;  -44.675; -321.000; -350.000
209.678;   75.025;  472.000;  543.000
209.823;  -48.625; -408.000; -310.000
209.969; -100.625; -860.000; -757.000
210.114; -106.025; -907.000; -719.000
210.259; -120.975; -939.000; -889.000
210.404;  -13.300; -171.000;  103.000
210.549;   14.975;  108.000;    3.000
210.695;  -11.925;   -3.000;  -95.000
210.840;   41.100;   94.000;   67.000
210.985;  -54.875; -484.000; -303.000
211.130;   72.625;  268.000;  406.000
211.275;    3.800;  207.000;  199.000
211.420;  -38.675; -300.000; -289.000
211.566;  -75.025; -536.000; -489.000
211.711;   35.300;  218.000;  157.000
211.856;  -63.325; -545.000; -519.000
212.001;   21.300;  151.000;   44.000
212.146;   23.050;  153.000;   49.000
212.291;  -31.325; -210.000; -186.000
212.436;  -30.150; -280.000;   -6.000
212.581;  -90.925; -685.000; -653.000
212.726;  -70.875; -487.000; -538.000
212.871;  -28.875; -552.000; -217.000
213.016; -159.700;-1172.000;-1029.000
213.161;   53.325;  406.000;  291.000
213.306;  -79.600; -435.000; -577.000
213.451;  -98.125; -778.000; -689.000
213.596;  -51.825; -455.000; -347.000
213.741;  -46.375; -448.000; -538.000
213.886;  -84.100; -498.000; -517.000
214.031;  -18.025; -294.000; -124.000
214.176;  -51.300; -408.000; -341.000
214.321;  -17.475; -296.000; -157.000
214.466;  -12.950; -163.000;  -43.000
214.611;   -3.475;  -61.000;  -10.000
214.756; -118.500; -948.000; -858.000
214.901;  -31.075; -388.000; -226.000
215.046; -128.550; -797.000; -825.000
215.191;   27.750;  128.000;   35.000
215.336;  -15.000; -157.000;  -19.000
215.480;  -64.475; -684.000; -505.000
215.625;   -5.700; -175.000;  -19.000
215.770;  -82.250; -757.000; -662.000
215.915;  -15.950;   -5.000;  -97.000
216.060;    8.200; -113.000;  -21.000
216.205; -116.225; -731.000; -779.000
216.349;  -59.875; -470.000; -533.000
216.494; -136.275; -939.000; -867.000
216.639; -113.250; -823.000; -888.000
216.784;  -96.000; -577.000; -525.000
216.929;   52.850;  392.000;  281.000
217.073;   -7.825; -244.000;  -31.000
217.218;   11.275;   78.000;  -47.000
217.363;  -96.325; -656.000; -618.000
217.507;  -84.600; -623.000; -588.000
217.652; -132.875; -845.000; -874.000
217.797;  -84.750; -708.000; -659.000
217.942; -112.875; -856.000; -720.000
218.086;   88.450;  608.000;  539.000
218.231;  -31.475; -174.000;  -26.000
218.376;  -41.275; -337.000; -229.000
218.520;   -1.325;  -41.000;   96.000
218.665;  -41.100; -338.000; -204.000
218.810;  -45.550; -275.000; -233.000
218.954;   10.225;  201.000;   35.000
219.099; -117.675; -713.000; -963.000
219.243;  -60.475; -589.000; -554.000
219.388;  -26.275; -264.000; -136.000
219.532;    1.800; -116.000; -116.000
219.677;  -83.375; -564.000; -521.000
219.822;   -7.500;   33.000;   89.000
219.966;    4.775;   17.000;  -99.000
220.111;  -20.100; -328.000;  -40.000
220.255; -107.925; -797.000; -750.000
220.400;  -21.100; -180.000; -146.000
220.544;  -66.025; -516.000; -450.000
220.689;  -47.150; -422.000; -451.000
220.833;  -26.800; -123.000;  -58.000
220.978;  -46.500; -393.000; -563.000
221.122;   27.775;  319.000;  307.000
221.267; -121.750; -906.000; -837.000
221.411;  -56.575; -478.000; -394.000
221.555;   -2.375; -104.000;  -23.000
221.700;  -47.725; -329.000; -222.000
221.844;   40.900;  255.000;  272.000
221.989;  -43.625; -328.000; -311.000
222.133;  -39.725; -289.000; -307.000
222.277;  -14.575;    5.000;   78.000
222.422;   25.700;  227.000;  113.000
222.566;  -51.250; -381.000; -214.000
222.711;  -53.350; -414.000; -479.000
222.855;  -86.300; -643.000; -586.000
222.999;  -73.300; -642.000; -717.000
223.144;  -34.175; -195.000; -194.000
223.288;   55.700;  423.000;  251.000
223.432;   23.575;  184.000;  230.000
223.576;   17.050;  152.000;  -21.000
223.721;   29.175;  364.000;  273.000
223.865;  -50.900; -472.000; -475.000
224.009;  266.350; 1673.000; 1631.000
224.153;  -84.250; -660.000; -671.000
224.298;  -67.775; -531.000; -489.000
224.442;   -3.675;  -74.000;  -33.000
224.586;  -12.175; -169.000; -106.000
224.730;  -92.425; -858.000; -670.000
224.875; -103.075; -739.000; -688.000
225.019;   14.850;  102.000;  188.000
225.163;   62.000;  208.000;  341.000
225.307;   -0.775;   97.000;  -91.000
225.451;   52.975;  360.000;  481.000
225.595;   29.000;  264.000;  176.000
225.739;  -32.875; -170.000;  -94.000
225.884;    0.350;   86.000;    5.000
226.028; -104.650; -760.000; -626.000
226.172;  -29.325; -260.000; -273.000
226.316; -120.675; -941.000; -902.000
226.460;  -75.625; -645.000; -493.000
226.604;  -67.275; -406.000; -400.000
226.748; -104.000; -836.000; -733.000
226.892;  -28.275; -227.000; -181.000
227.036;  -54.050; -537.000; -447.000
227.180;  -68.700; -551.000; -375.000
227.324;  -62.400; -561.000; -580.000
227.468; -120.475; -819.000; -717.000
227.612;   14.900;  242.000;  -28.000
227.756;  -97.775; -845.000; -698.000
227.900;   58.725;  342.000;  441.000
228.044;  -57.650; -509.000; -290.000
228.188;   58.800;  448.000;  568.000
228.332;  -98.375; -546.000; -472.000
228.476;  -29.925; -223.000; -149.000
228.620;  -32.175; -210.000; -150.000
228.764;   64.425;  431.000;  349.000
228.908;  -14.850; -155.000;   30.000
229.052;  -61.650; -615.000; -528.000
229.195;  -24.200; -172.000;   13.000
229.339;  -22.325; -235.000; -305.000
229.483;  -18.075;    5.000; -162.000
229.627;   -6.100; -156.000;  139.000
229.771;  -52.950; -218.000; -294.000
229.915;   18.100;  230.000;   79.000
230.059;  -99.950; -648.000; -663.000
230.202;  -34.600; -370.000; -317.000
230.346;   -4.750; -107.000;  107.000
230.490;  -59.400; -489.000; -521.000
230.634; -107.375; -736.000; -553.000
230.777;   76.475;  478.000;  509.000
230.921;  -50.775; -450.000; -359.000
231.065;  -30.975; -246.000; -286.000
231.209;   26.700;  261.000;  265.000
231.352;   35.750;   54.000;   40.000
231.496;   21.900;  568.000;  188.000
231.640;  -73.850; -693.000; -621.000
231.783;   73.875;  546.000;  525.000
231.927;  -37.125; -294.000; -365.000
232.071; -131.775; -962.000; -736.000
232.214; -128.450; -980.000; -764.000
232.358;  -90.425; -683.000; -599.000
232.502;   -1.600;  -19.000;    7.000
232.645; -135.925;-1090.000; -927.000
232.789;  -16.675; -257.000; -218.000
232.933;  -47.575; -407.000; -224.000
233.076; -139.100;-1038.000; -897.000
233.220; -110.550; -752.000; -777.000
233.363;  -77.875; -669.000; -477.000
233.507;   64.750;  371.000;  129.000
233.650;  -99.725; -764.000; -834.000
233.794;   38.825;  438.000;  461.000
233.938;  -54.050; -530.000; -362.000
234.081;  -27.325;  -93.000;   31.000
234.225;  -76.475; -631.000; -539.000
234.368; -112.425; -773.000; -723.000
234.512;  -35.900; -385.000; -299.000
234.655;  -78.075; -582.000; -555.000
234.798;  -71.175; -493.000; -466.000
234.942; -142.525; -884.000;-1002.000
235.085;  -75.300; -651.000; -443.000
235.229;  -76.325; -405.000; -410.000
235.372;  -44.000; -247.000; -191.000
235.516;  -61.850; -397.000; -321.000
235.659;   28.550;   92.000;  121.000
235.802;  -33.175;  -38.000;  -22.000
235.946;   24.825;  335.000;  215.000
236.089;   30.275;  126.000;  250.000
236.233;   59.650;  275.000;  298.000
236.376;  -48.675; -235.000; -378.000
236.519;  -43.075; -297.000; -319.000
236.663;  -38.800; -215.000; -117.000
236.806; -138.150;-1029.000; -999.000
236.949;   46.450;  543.000;  431.000
237.092;   68.725;  412.000;  391.000
237.236;  -80.450; -589.000; -502.000
237.379;   81.825;  352.000;  428.000
237.522; -126.225; -879.000; -768.000
237.666;  -15.400; -271.000;   18.000
237.809; -124.800; -851.000; -823.000
237.952;   36.275;  469.000;  271.000
238.095;  -67.475; -447.000; -442.000
238.238;   83.850;  688.000;  700.000
238.382;    8.950;  166.000;  103.000
238.525;  -58.900; -598.000; -511.000
238.668; -148.000;-1060.000; -985.000
238.811;  -85.500; -638.000; -643.000
238.954;  -66.075; -483.000; -334.000
239.097;   99.500;  617.000;  664.000
239.241;   12.325;  394.000;  326.000
239.384;  -30.950; -254.000; -214.000
239.527;  -59.100; -424.000; -224.000
239.670; -143.725; -994.000;-1091.000
239.813; -106.850; -696.000; -658.000
239.956;   66.200;  579.000;  473.000
240.099; -122.975; -778.000; -725.000
240.242;   70.350;  428.000;  432.000
240.385;   41.500;  466.000;  450.000
240.528;  -75.100; -706.000; -473.000
240.671;   26.250;  189.000;  134.000
240.814;  -40.425; -441.000; -158.000
240.957;  -93.575; -767.000; -578.000
241.100;  -93.975; -779.000; -755.000
241.243; -153.125;-1234.000; -893.000
241.386;  -60.575; -508.000; -379.000
241.529;  -92.375; -735.000; -547.000
241.672;  -72.550; -566.000; -495.000
241.815; -128.650; -832.000; -808.000
241.958;  -38.225; -125.000; -182.000
242.101;  -95.375; -545.000; -390.000
242.244;  -29.575; -270.000; -325.000
242.387;  -37.725; -304.000; -246.000
242.530;   59.650;  470.000;  134.000
242.673;  -44.700; -381.000; -309.000
242.815; -111.275; -925.000; -899.000
242.958;  -68.450; -482.000; -381.000
243.101;   22.775;  132.000;  187.000
243.244;  -82.650; -564.000; -521.000
243.387;  -41.375; -313.000; -316.000
243.530; -105.350; -657.000; -674.000
243.672;    1.450;   43.000;  -92.000
243.815;  -53.550; -355.000; -283.000
243.958;  -10.100;   98.000;  -26.000
244.101;    0.175;   59.000;  -16.000
244.243;  -14.000;  -47.000;  101.000
244.386; -111.850; -761.000; -630.000
244.529;  -24.075; -132.000; -139.000
244.672; -154.650;-1154.000; -951.000
244.814; -110.550; -621.000; -794.000
244.957;  -50.875; -380.000; -304.000
245.100;  -76.325; -489.000; -489.000
245.242;  -63.925; -387.000; -374.000
245.385;   -9.150;  -59.000;  -39.000
245.528; -127.800; -871.000; -705.000
245.670;   93.650;  612.000;  634.000
245.813;  -87.125; -599.000; -547.000
245.956;  -29.075; -324.000; -275.000
246.098;  -75.000; -508.000; -650.000
246.241;   -4.550;  194.000;   48.000
246.383;  -28.675; -119.000;  -73.000
246.526;  -77.400; -454.000; -525.000
246.669; -115.975; -889.000; -780.000
246.811;   22.575;  172.000;   -1.000
246.954;  -70.775; -512.000; -426.000
247.096;  -21.125;  -84.000;   -6.000
247.239;  -62.975; -482.000; -445.000
247.381;  -69.425; -647.000; -488.000
247.524;   72.100;  645.000;  679.000
247.666;   -7.775;   58.000;   11.000
247.809; -120.650; -887.000; -691.000
247.951;  -15.625;  -75.000;  138.000
248.094;   24.300;  432.000;  308.000
248.236; -156.850;-1262.000;-1238.000
248.378;   -1.825; -356.000;  -81.000
248.521;  -39.650; -334.000; -337.000
248.663;  -33.975; -236.000; -267.000
248.806;  -30.500; -300.000; -266.000
248.948; -113.875; -886.000; -763.000
249.090;  -45.700; -428.000; -398.000
249.233;  -56.600; -344.000; -381.000
249.375;  -62.300; -474.000; -451.000
249.518;  -21.100;  -83.000; -133.000
249.660;  -13.875; -103.000;    3.000
249.802; -187.375;-1303.000;-1189.000
249.945;  -70.375; -612.000; -540.000
250.087; -115.275; -834.000; -768.000
250.229;  -37.925; -362.000; -480.000
250.371;  -69.100; -494.000; -439.000
250.514;  -50.425; -310.000; -244.000
250.656;  -63.925;   69.000;  102.000
250.798; -134.475; -849.000; -800.000
250.940;  -60.775; -322.000; -322.000
251.083;  -35.850; -335.000; -111.000
251.225;   55.875;  338.000;  310.000
251.367;  -26.925; -274.000; -373.000
251.509;  -35.700; -265.000; -210.000
251.651; -102.775; -731.000; -671.000
251.794;   48.575;  538.000;  632.000
251.936; -104.200; -821.000; -747.000
252.078;  -83.225; -540.000; -461.000
252.220;  -62.900; -645.000; -477.000
252.362;   81.500;  344.000;  462.000
252.504;  -68.300; -677.000; -584.000
252.646; -107.450; -875.000; -722.000
252.788;   -2.600;   14.000; -128.000
252.931;  -40.675; -257.000; -253.000
253.073;  -35.700; -376.000; -317.000
253.215;   -6.550;  141.000;  122.000
253.357;   -1.825;   82.000; -153.000
253.499;  -39.325; -374.000; -234.000
253.641;  -91.525; -749.000; -594.000
253.783;  -96.900; -609.000; -527.000
253.925;  -81.950; -586.000; -591.000
254.067; -110.900; -744.000; -667.000
254.209;  -27.850; -391.000; -259.000
254.351; -131.100; -865.000; -883.000
254.493;  -54.275; -441.000; -417.000
254.635; -137.750; -936.000; -818.000
254.777;  -92.225; -752.000; -687.000
254.918;  -72.500; -512.000; -430.000
255.060;  -56.225; -551.000; -395.000
255.202;  -60.300; -473.000; -261.000
255.344;  -82.400; -658.000; -455.000
255.486;  -77.550; -471.000; -406.000
255.628; -106.150; -780.000; -781.000
255.770;  -94.350; -676.000; -536.000
255.912;  -60.925; -559.000; -468.000
256.053;  -90.175; -730.000; -508.000
256.195;  157.275; 1008.000;  903.000
256.337;  -94.600; -861.000; -595.000
256.479;   59.175;  532.000;  416.000
256.621;  -49.175; -394.000; -212.000
256.762;  -94.000; -789.000; -742.000
256.904;   46.025;  485.000;  487.000
257.046;  -45.850; -381.000; -271.000
257.188;  -56.075; -351.000; -264.000
257.329;  -70.425; -525.000; -464.000
257.471; -123.800; -939.000; -807.000
257.613;  -71.600; -584.000; -498.000
257.755; -143.100;-1073.000; -982.000
257.896;   38.750;  286.000;  392.000
258.038;  -78.925; -403.000; -352.000
258.180;  -48.600; -354.000; -279.000
258.321;  -82.425; -581.000; -457.000
258.463;  -11.325;  -71.000;  133.000
258.605; -104.225; -562.000; -570.000
258.746; -101.225; -886.000; -772.000
258.888; -160.950;-1026.000;-1020.000
259.029;   13.050;  121.000;   -8.000
259.171;  -91.675; -614.000; -550.000
259.313;   -9.250;  -49.000;  -47.000
259.454;  -75.425; -536.000; -414.000
259.596;  -50.375; -483.000; -390.000
259.737;  -80.200; -590.000; -474.000
259.879;   36.975;  217.000;  311.000
260.020;   85.750;  901.000;  636.000
260.162;  -20.700; -146.000; -253.000
260.303; -134.275; -768.000; -687.000
260.445;  -94.375; -609.000; -613.000
260.586;   27.500;  392.000;  157.000
260.728;  -40.500; -360.000; -248.000
260.869; -124.025; -350.000; -343.000
261.011;   76.875;  706.000;  537.000
261.152;  -75.125; -479.000; -319.000
261.293;  -84.375; -576.000; -595.000
261.435;  -43.875; -219.000; -184.000
261.576;  -45.975; -455.000; -325.000
261.718;   35.625;  420.000;  470.000
261.859; -143.875; -940.000; -949.000
262.000; -132.825; -951.000;-1016.000
262.142;  -22.600;  -52.000;  -60.000
262.283; -120.800; -808.000; -691.000
262.424;  -90.775; -666.000; -625.000
262.566; -158.125;-1161.000; -983.000
262.707; -113.825; -840.000; -830.000
262.848; -125.800; -769.000; -726.000
262.990;  -47.575; -362.000; -345.000
263.131;   77.375;  650.000;  681.000
263.272;  -12.325;  -61.000;  -41.000
263.413;  -92.250; -589.000; -561.000
263.555;  -72.800; -669.000; -143.000
263.696;  -88.600; -550.000; -641.000
263.837;  -63.250; -449.000; -551.000
263.978;   -5.150;   -5.000;  -77.000
264.119;  -49.950; -283.000; -264.000
264.261; -114.675; -847.000; -630.000
264.402;    6.625;   33.000;   40.000
264.543;  -72.700; -509.000; -524.000
264.684;   -7.275;   61.000;  -50.000
264.825;  -89.800; -816.000; -538.000
264.966;  -18.725;  -84.000;  -67.000
265.107; -127.550; -646.000; -670.000
265.248; -119.150; -825.000; -812.000
265.390;  -13.475;  152.000;   -9.000
265.531;  -29.625; -238.000; -107.000
265.672; -101.025; -557.000; -630.000
265.813;   53.050;  563.000;  439.000
265.954; -155.625; -959.000; -940.000
266.095;  -24.225; -372.000; -322.000
266.236; -101.350; -686.000; -548.000
266.377;  -26.750; -243.000; -297.000
266.518;  -79.675; -619.000; -547.000
266.659;   23.950;  170.000;  268.000
266.800;   -6.425;   83.000;   85.000
266.941;  -89.925; -487.000; -478.000
267.082;   20.400;  354.000;   99.000
267.223;  -52.925; -344.000; -273.000
267.364; -133.725; -892.000; -686.000
267.504;   -5.850;    3.000;  135.000
267.645;  -16.050;  160.000;   67.000
267.786;  -37.775; -147.000;  -86.000
267.927;  -85.275; -473.000; -379.000
268.068;  -13.600; -186.000;  -61.000
268.209;  -51.875; -175.000; -413.000
268.350;  -61.175; -388.000; -532.000
268.490;  -93.200; -648.000; -521.000
268.631;   29.450;  127.000;  225.000
268.772; -125.325; -874.000; -647.000
268.913;  -34.350; -328.000; -476.000
269.054;  -18.200; -117.000;   12.000
269.194;  -57.325; -418.000; -402.000
269.335; -163.950;-1137.000;-1074.000
269.476;  -23.750;   33.000;  -35.000
269.617;  -61.150; -347.000; -392.000
269.757;  -85.975; -713.000; -646.000
269.898; -110.625; -856.000; -613.000
270.039;  -63.925; -415.000; -405.000
270.180; -141.600; -952.000; -816.000
270.320;  -30.875; -190.000; -250.000
270.461;  -60.050; -277.000; -249.000
270.602;  -13.475; -186.000; -156.000
270.742; -134.575; -868.000; -943.000
270.883;  -57.125; -442.000; -390.000
271.023;  -73.075; -358.000; -357.000
271.164;  -80.875; -607.000; -528.000
271.305; -112.250; -666.000; -654.000
271.445; -105.975; -722.000; -683.000
271.586;  -76.450; -462.000; -283.000
271.726;  -44.250; -397.000; -322.000
271.867;  -56.550; -594.000; -534.000
272.008;  172.175; -473.000; -285.000
272.148;  118.400;  462.000;  468.000
272.289;   11.375; -113.000; -181.000
272.429;   13.700;   19.000;  185.000
272.570;  -87.425; -633.000; -737.000
272.710; -106.725; -825.000; -775.000
272.851;  -23.800;  113.000; -130.000
272.991; -182.175;-1173.000;-1077.000
273.131;  -67.450; -419.000; -459.000
273.272; -100.825; -683.000; -723.000
273.412;    3.425; -143.000;  -31.000
273.553;  -79.175; -488.000; -507.000
273.693;  132.550;  913.000;  858.000
273.834; -101.700; -894.000; -692.000
273.974;  -71.850; -664.000; -615.000
274.114; -101.150; -772.000; -560.000
274.255;   75.975;  414.000;  373.000
274.395;   -2.475; -180.000; -125.000
274.535;   33.025;  199.000;  350.000
274.676;   24.225;  225.000;   94.000
274.816;    7.325;  110.000;   34.000
274.956;  -88.425; -624.000; -690.000
275.097;  -66.400;-1014.000; -922.000
275.237; -119.250; -913.000; -803.000
275.377; -101.500; -778.000; -689.000
275.517; -154.475; -878.000; -937.000
275.658;  -67.900; -590.000; -555.000
275.798;  -84.400; -606.000; -413.000
275.938;   37.825;  215.000;  323.000
276.078;  -82.400; -626.000; -395.000
276.218;    8.400;   99.000;  104.000
276.359;  -84.975;-1026.000;-1024.000
276.499;  -82.375; -605.000; -446.000
276.639;  -23.075; -305.000; -151.000
276.779;  -46.600; -475.000; -357.000
276.919; -111.375; -783.000; -624.000
277.059;  -17.950; -261.000; -212.000
277.199;  -24.600; -357.000; -259.000
277.340;   43.750;  287.000;  175.000
277.480; -112.375; -840.000; -693.000
277.620;   33.200;  192.000;   16.000
277.760; -204.900;-1533.000;-1294.000
277.900;   16.725;  113.000;   33.000
278.040;   15.750;  137.000;  159.000
278.180;   30.600;  270.000;  170.000
278.320;  -10.625;   21.000;   56.000
278.460;  -71.850; -443.000; -469.000
278.600;  -91.525; -708.000; -598.000
278.740;   50.625;  448.000;  224.000
278.880;  -92.400; -768.000; -791.000
279.020;  -14.825; -194.000; -144.000
279.160;  -90.200; -672.000; -595.000
279.300; -106.875; -926.000; -873.000
279.440;  -95.400; -709.000; -622.000
279.579;  -21.500;-1014.000; -929.000
279.719;  -53.325; -410.000; -394.000
279.859;   58.350;   -4.000;   41.000
279.999;   19.250; -208.000;  101.000
280.139;  -23.600; -435.000; -387.000
280.279;  -81.850; -708.000; -745.000
280.419;   -9.250; -229.000; -147.000
280.559;  -39.925; -259.000; -180.000
280.698;  -98.525; -790.000; -639.000
280.838; -115.700; -778.000; -800.000
280.978; -114.175; -846.000; -790.000
281.118; -134.350; -811.000; -704.000
281.257;   -0.375;   24.000;    6.000
281.397; -129.750;-1094.000; -960.000
281.537;  -86.425; -599.000; -712.000
281.677;  -33.575; -150.000; -101.000
281.816;  -99.075; -700.000; -630.000
281.956;  -34.900; -193.000; -257.000
282.096;  -57.075; -539.000; -396.000
282.235; -111.275; -672.000; -638.000
282.375;  -11.050; -243.000;  -98.000
282.515; -109.925; -715.000; -707.000
282.654;   23.725;   29.000;  106.000
282.794;   13.400;  388.000;  244.000
282.934;  -60.525; -530.000; -491.000
283.073; -143.250;-1030.000; -857.000
283.213;  -70.200; -460.000; -467.000
283.353;  -37.800; -408.000; -349.000
283.492;  -37.025; -264.000; -296.000
283.632;  -50.825; -254.000; -168.000
283.771;  -94.400; -859.000; -730.000
283.911;  -57.450; -369.000; -260.000
284.050; -118.325; -794.000; -748.000
284.190; -173.875;-1229.000;-1096.000
284.329; -152.950;-1055.000; -964.000
284.469;  -74.675; -516.000; -591.000
284.608;  -59.400; -559.000; -598.000
284.748;  -92.250; -614.000; -570.000
284.887;  -14.050;  -87.000;  -20.000
285.027; -133.025; -844.000; -892.000
285.166;  -36.925; -192.000; -249.000
285.306;  -10.400; -116.000;  -33.000
285.445;  -40.025; -229.000; -343.000
285.584;  -99.750; -630.000; -494.000
285.724;  -37.575; -282.000; -322.000
285.863; -129.600; -857.000; -507.000
286.002;  -64.425; -366.000; -276.000
286.142; -109.775; -715.000; -622.000
286.281;  -78.825; -525.000; -493.000
286.420;  -85.075; -554.000; -417.000
286.560;   92.400;  653.000;  623.000
286.699; -156.875; -958.000; -912.000
286.838;  -77.225; -590.000; -591.000
286.978;  -96.625; -533.000; -537.000
287.117; -138.075;-1085.000; -950.000
287.256;  -51.275; -228.000; -211.000
287.395;  -50.825; -197.000; -378.000
287.535;  -64.250; -370.000; -298.000
287.674;  -86.500; -509.000; -484.000
287.813;   53.850;  661.000;  533.000
287.952; -129.550;-1010.000; -871.000
288.091; -150.275;-1049.000; -915.000
288.231;    6.650;   13.000;   15.000
288.370; -178.550;-1217.000;-1200.000
288.509; -102.575; -728.000; -645.000
288.648; -106.625; -770.000; -548.000
288.787;  -49.200; -243.000;  -87.000
288.926;  -74.925; -454.000; -475.000
289.065;  106.100;  859.000;  672.000
289.204;  -56.650; -377.000; -217.000
289.344;  -94.450; -791.000; -690.000
289.483;   21.800;  416.000;  304.000
289.622;  -29.350; -291.000; -149.000
289.761;  -15.600; -309.000; -166.000
289.900; -119.575; -785.000; -626.000
290.039;  -19.125;  -12.000;  -95.000
290.178;  -43.725; -274.000; -180.000
290.317;  -83.750; -618.000; -479.000
290.456;  -75.875; -463.000; -451.000
290.595; -154.725; -961.000; -833.000
290.734; -142.150; -904.000; -891.000
290.873;  -75.325; -456.000; -420.000
291.011; -105.425; -833.000; -843.000
291.150; -103.225; -770.000; -682.000
291.289;  -26.775; -343.000; -110.000
291.428;  -97.900; -599.000; -480.000
291.567;  -52.625; -370.000; -442.000
291.706;   -0.125;  109.000;  154.000
291.845;  -97.275; -597.000; -505.000
291.984; -176.100;-1234.000;-1061.000
292.122;   69.650;  602.000;  582.000
292.261;   34.150;  620.000;  463.000
292.400;    2.350; -144.000;  211.000
292.539; -140.200; -959.000; -813.000
292.678;  -45.575; -325.000; -300.000
292.816; -173.050;-1136.000; -965.000
292.955;  -96.350; -844.000; -684.000
293.094;  -32.025; -173.000; -337.000
293.233;  -57.500; -556.000; -400.000
293.371;  -38.775; -225.000;  -84.000
293.510; -103.575; -866.000; -780.000
293.649; -145.200; -959.000; -924.000
293.787;  -79.825;-1083.000;-1012.000
293.926;  -10.700; -113.000;  -32.000
294.065;  -48.125; -379.000; -290.000
294.203;   38.375;  298.000;  406.000
294.342;   20.925;   74.000;  156.000
294.481; 6551.925;51180.000; -836.000
294.619;  -27.625; -425.000; -582.000
294.758; -165.600;-1230.000;-1137.000
294.896;   58.850; -125.000;    5.000
295.035; -144.475;-1040.000;-1006.000
295.174; -118.800;-1082.000; -954.000
295.312;  -39.725; -323.000; -203.000
295.451;  -27.525; -307.000; -428.000
295.589;  -61.500; -389.000; -518.000
295.728;   10.100; -292.000; -165.000
295.866;    0.250;  -36.000;  -51.000
296.005;  -73.675; -584.000; -341.000
296.143;  -92.600; -558.000; -596.000
296.282; -114.975; -957.000; -881.000
296.420;  -98.525; -657.000; -557.000
296.559;  -90.075; -892.000; -633.000
296.697;    0.850; -847.000; -665.000
296.835;   29.225;-1141.000;-1002.000
296.974;   30.375;  -23.000;   39.000
297.112;   -4.950; -443.000; -504.000
297.251;  -93.700; -815.000; -755.000
297.389;   67.950; -576.000; -438.000
297.527;   19.300; -145.000;  -83.000
297.666;  -58.675; -486.000; -438.000
297.804;  -51.175; -404.000; -264.000
297.942;   -0.600; -136.000; -161.000
298.081;  -24.400; -183.000;   63.000
298.219;   47.525;  -17.000;  -19.000
298.357;   25.125; -144.000;  -71.000
298.495;   18.625; -810.000; -812.000
298.634;   59.600;  245.000;  219.000
298.772;   36.150; -220.000; -338.000
298.910;  -47.125; -309.000; -182.000
299.048;  -19.350; -130.000; -153.000
299.187;  -42.250; -350.000; -250.000
299.325;    1.000;   52.000;  122.000
299.463;   22.400; -389.000; -299.000
299.601;   90.050; -327.000; -271.000
299.739; -120.725; -908.000; -883.000
299.877;  -78.475; -791.000; -703.000
300.016;  -62.300;-1095.000; -935.000
300.154;  143.175;  -19.000; -161.000
300.292;   27.175; -428.000; -348.000
300.430;   13.650; -408.000; -291.000
300.568; -115.500; -940.000; -874.000
300.706;  -58.550; -366.000; -469.000
300.844;  -98.225;-1108.000; -979.000
300.982;  105.575;  246.000;  282.000
301.120; -117.725; -965.000; -866.000
301.258;  -79.425; -812.000; -705.000
301.396;   20.175;  104.000;  -41.000
301.534;   71.100; -218.000; -293.000
301.672;  -36.125; -664.000; -521.000
301.810;    8.500; -613.000; -545.000
301.948;   91.100;   53.000;  149.000
302.086;  555.075; -250.000;  -32.000
302.224;  835.050; -610.000; -585.000
302.362;   13.500; -558.000; -622.000
302.500;  -52.600; -923.000; -893.000
302.638;   96.525;  128.000;  245.000
302.776;  -12.625; -352.000; -408.000
302.913;   39.150;  447.000;  236.000
303.051;   -9.400;  -86.000;  -23.000
303.189;   36.475;   90.000;  118.000
303.327;  -50.750; -341.000; -256.000
303.465;  -78.175; -832.000; -588.000
303.603; -106.175; -805.000; -604.000
303.740;   98.500;  417.000;  241.000
303.878;   -4.225; -800.000; -759.000
304.016;  -94.700; -915.000; -790.000
304.154; -143.825;-1123.000;-1152.000
304.291;  -39.075; -505.000; -554.000
304.429;  -11.500;  102.000;   74.000
304.567; -140.400; -908.000; -893.000
304.705;  -68.950; -408.000; -515.000
304.842;   59.400; -616.000; -540.000
304.980;   47.850;  215.000;   35.000
305.118;   31.075; -367.000; -365.000
305.255;  -99.950; -945.000; -927.000
305.393;   50.425;  178.000;  239.000
305.531; -116.375;-1173.000; -956.000
305.668;  -62.850; -663.000; -582.000
305.806;   90.825; -358.000; -439.000
305.943;   80.725; -629.000; -637.000
306.081;   43.525; -378.000; -267.000
306.219;  -96.575; -863.000; -748.000
306.356;   -5.150;  158.000;   27.000
306.494;   97.750;  981.000;  761.000
306.631;  -16.350;  -11.000;  -55.000
306.769;   -4.775; -613.000; -485.000
306.906;  -36.750; -284.000; -258.000
307.044;  -73.650; -473.000; -488.000
307.181;  -67.925; -410.000; -332.000
307.319;    2.225;  112.000;   87.000
307.456; -180.950;-1191.000;-1153.000
307.594; -122.700; -980.000; -727.000
307.731;  -28.675; -371.000; -164.000
307.868;   -3.475;  -15.000;   20.000
308.006; -151.100; -961.000; -847.000
308.143;  -66.150; -618.000; -330.000
308.281;   90.350;  -37.000; -254.000
308.418;  -44.400; -748.000; -640.000
308.555;  -87.550; -400.000; -250.000
308.693;  -81.375; -577.000; -573.000
308.830; -114.000; -712.000; -657.000
308.967;   -4.775; -215.000;  -95.000
309.105;  -61.125; -507.000; -396.000
309.242;    1.725; -468.000; -367.000
309.379;  178.025; -577.000; -655.000
309.517;  -96.850; -936.000; -948.000
309.654; -115.775; -910.000; -734.000
309.791;  -85.750; -662.000; -580.000
309.928; -138.100; -977.000; -914.000
310.065;  162.375;  819.000;  697.000
310.203;  -33.750; -825.000; -850.000
310.340;  -18.300; -465.000; -321.000
310.477;  -87.450; -412.000; -516.000
310.614;  -72.100; -383.000; -473.000
310.751;  -90.500; -427.000; -518.000
310.889;  -36.550;    1.000;   11.000
311.026; -156.150;-1161.000; -939.000
311.163;  -59.000; -386.000; -380.000
311.300;  -94.225; -512.000; -479.000
311.437;  -88.825; -658.000; -619.000
311.574; -163.850;-1226.000; -985.000
311.711;  -71.300; -595.000; -433.000
311.848;  -55.850; -380.000; -388.000
311.985;   13.800;  270.000;   93.000
312.122; -138.900; -932.000; -762.000
312.259; -120.450; -941.000; -994.000
312.396;  -95.250; -508.000; -551.000
312.533;  -97.800; -812.000; -790.000
312.670; -140.050;-1070.000; -898.000
312.807;  -47.050; -352.000; -367.000
312.944;  -98.150; -513.000; -611.000
313.081;  -47.225; -150.000; -415.000
313.218; -133.050;-1111.000; -867.000
313.355;    2.925; -531.000; -449.000
313.492;  -22.875; -455.000; -292.000
313.629;  123.675;  815.000;  735.000
313.766; -166.450;-1176.000;-1008.000
313.902;  -21.475; -186.000;   21.000
314.039;  -60.200; -372.000; -289.000
314.176;   22.375;  286.000;  192.000
314.313;  -92.525; -569.000; -473.000
314.450;  -75.650; -788.000; -684.000
314.587;  -68.600; -468.000; -480.000
314.723;   -6.750;  -78.000;  130.000
314.860;   12.775;  318.000;  332.000
314.997;   19.275;  223.000;  142.000
315.134;  -39.700; -385.000; -368.000
315.270;  -47.575; -480.000; -496.000
315.407; -130.850;-1094.000; -967.000
315.544;  -70.325; -657.000; -538.000
315.681;  -62.500; -681.000; -565.000
315.817;   10.775; -133.000; -176.000
315.954;   -5.200; -613.000; -392.000
316.091; -129.850;-1045.000;-1023.000
316.227;  -27.050;  -71.000; -179.000
316.364;   -6.000;   23.000;    6.000
316.500;  -56.900; -113.000; -300.000
316.637;  -45.600; -181.000; -302.000
316.774; -103.025; -625.000; -358.000
316.910;  -95.125; -598.000; -629.000
317.047;  -85.225; -487.000; -351.000
317.183;  -58.650; -435.000; -566.000
317.320;  -23.300; -367.000; -321.000
317.456;  -75.775; -733.000; -805.000
317.593; -109.975; -598.000; -641.000
317.729;   -4.850;  168.000;  -67.000
317.866; -213.925;-1434.000;-1285.000
318.002; -108.800; -708.000; -948.000
318.139; -118.000; -883.000; -867.000
318.275; -109.725;-1003.000; -738.000
318.412;  -61.625; -517.000; -336.000
318.548;  -45.650; -751.000; -720.000
318.685; -114.825; -985.000; -888.000
318.821; -104.050; -762.000; -735.000
318.957;  -29.825;   34.000;  -23.000
319.094;   37.775;  297.000;  154.000
319.230;  -79.125; -756.000; -742.000
319.367;   97.575; -471.000; -520.000
319.503;   38.950; -538.000; -436.000
319.639; -109.375; -877.000; -793.000
319.775;  -74.525; -750.000; -685.000
319.912;  -59.800; -424.000; -519.000
320.048; -101.375;-1184.000;-1184.000
320.184;   81.650;   59.000;   70.000
320.321;  -74.075; -497.000; -467.000
320.457;   53.125;  475.000;  662.000
320.593;  -72.175; -375.000; -382.000
320.729; -105.375; -732.000; -734.000
320.866;  -87.850; -577.000; -635.000
321.002;  -89.850; -759.000; -809.000
321.138;  -22.900; -135.000; -211.000
321.274;   62.425; -148.000; -115.000
321.410;  -50.525; -585.000; -353.000
321.546;  -41.825;-1011.000; -911.000
321.683;   46.400;  400.000;  185.000
321.819;   -5.800;  -48.000; -117.000
321.955; -130.675; -743.000; -722.000
322.091;  -49.175; -585.000; -540.000
322.227;  -20.925; -382.000; -202.000
322.363;  -17.025; -320.000; -215.000
322.499;  -54.625; -343.000; -331.000
322.635;  146.725;  636.000;  443.000
322.771;    0.500; -139.000;   12.000
322.907;   72.625;  129.000;  327.000
323.043;  -39.300; -115.000; -206.000
323.179;  -35.300; -394.000; -363.000
323.315;  -15.225; -401.000; -371.000
323.451;   62.225; -328.000; -236.000
323.587;   54.075;  -60.000;  -77.000
323.723;   -2.225; -682.000; -601.000
323.859;  -29.175; -258.000;  -76.000
323.995;  -30.250; -467.000; -409.000
324.131; -129.125; -967.000; -892.000
324.267;  -32.700; -254.000; -276.000
324.402; -143.675; -960.000; -983.000
324.538;  -21.500; -279.000; -104.000
324.674;    0.375;  164.000;   77.000
324.810;   98.350;  226.000;  308.000
324.946;  -16.400; -810.000; -658.000
325.082;  -77.300; -568.000; -475.000
325.217;   -7.525;  -62.000;   16.000
325.353;  -85.525; -764.000; -659.000
325.489; -101.350; -540.000; -506.000
325.625;  -84.075; -579.000; -525.000
325.760;   61.975;  517.000;  376.000
325.896;  -22.625; -515.000; -702.000
326.032;  -67.225; -403.000; -352.000
326.168;  -63.425; -462.000; -369.000
326.303;  -68.500; -352.000; -461.000
326.439;  -29.200; -336.000; -276.000
326.575;   -6.425; -190.000;  -29.000
326.710;   -7.825; -156.000;  -30.000
326.846;  -15.800;  146.000;  103.000
326.982; -100.450; -530.000; -548.000
327.117;  -83.500; -481.000; -442.000
327.253;  -83.600; -745.000; -742.000
327.388; -139.325;-1137.000;-1153.000
327.524;  -73.150; -811.000; -578.000
327.659;  -41.425;  -58.000;  -22.000
327.795;   -9.300;   69.000;   45.000
327.931; -104.850; -723.000; -499.000
328.066;  -33.500; -417.000; -276.000
328.202;  -20.675;   12.000; -129.000
328.337;  101.550;  957.000;  713.000
328.473;   36.200;  -12.000;  -74.000
328.608;  -31.575; -256.000; -267.000
328.743;  -81.350; -799.000; -664.000
328.879;   25.500;  214.000;  114.000
329.014;  -37.200; -102.000; -122.000
329.150;  -84.125; -358.000; -483.000
329.285;  -86.075; -465.000; -466.000
329.421;  -53.550; -548.000; -246.000
329.556;  -28.050;  -36.000;   85.000
329.691; -100.600; -633.000; -615.000
329.827;  -98.150; -626.000; -480.000
329.962;  -52.750;  131.000; -301.000
330.097;  -98.775; -673.000; -585.000
330.233;  -63.775; -410.000; -223.000
330.368; -143.475; -839.000; -628.000
330.503;  -11.025;    3.000;   98.000
330.638;    3.125;  -93.000; -125.000
330.774;  -77.050; -609.000; -530.000
330.909;  -56.100; -434.000; -244.000
331.044; -102.050; -714.000; -708.000
331.179; -195.875;-1217.000;-1109.000
331.315;    1.475;   77.000;   20.000
331.450;   11.550;  157.000;  285.000
331.585;  -81.125; -805.000; -706.000
331.720;  -95.250; -510.000; -460.000
331.855;  -12.775;  -35.000; -102.000
331.990;  262.575;   62.000;  138.000
332.126;  131.150; -110.000;   71.000
332.261;  -29.375; -379.000; -265.000
332.396;   -7.175; -135.000; -242.000
332.531; -107.875;-1074.000;-1031.000
332.666;   32.600; -519.000; -363.000
332.801; -120.150; -726.000; -807.000
332.936;  -19.125; -192.000; -122.000
333.071; -164.175; -870.000; -817.000
333.206;   17.650;  307.000;  379.000
333.341;   20.125;  344.000;  418.000
333.476;  -80.725; -627.000; -623.000
333.611;  -54.750; -251.000; -173.000
333.746;  -55.050; -381.000; -464.000
333.881; -138.725; -973.000; -935.000
334.016; -139.200; -936.000; -917.000
334.151; -128.125; -746.000; -702.000
334.286;   16.600;  152.000;  186.000
334.421;  -23.800; -125.000; -178.000
334.556;  -93.075; -611.000; -567.000
334.690;  -82.475; -631.000; -577.000
334.825;   46.400;  381.000;   83.000
334.960;  -66.350; -285.000; -413.000
335.095;    1.775;  135.000;  -91.000
335.230; -110.300; -722.000; -738.000
335.365; -141.675;-1084.000; -990.000
335.499; -150.075;-1108.000;-1037.000
335.634;   -0.600;    9.000;  534.000
335.769; -111.625; -755.000; -720.000
335.904;  -76.725; -603.000; -561.000
336.038;  -77.175; -735.000; -657.000
336.173; -127.625;-1206.000;-1194.000
336.308;  -10.850; -116.000; -189.000
336.443;    8.875; -544.000; -634.000
336.577;  -90.250; -936.000; -787.000
336.712;   66.000;   -4.000;  -12.000
336.847;  -69.900; -724.000; -607.000
336.981;   48.175; -272.000; -208.000
337.116;  242.875;  615.000;  501.000
337.250;  109.350; -434.000; -421.000
337.385;  261.650; -297.000; -208.000
337.520;   93.275; -632.000; -603.000
337.654;  -46.975; -215.000; -126.000
337.789; -142.675; -989.000; -933.000
337.923;  -38.575; -104.000; -205.000
338.058;  -98.475; -673.000; -738.000
338.192;  -52.050; -611.000; -488.000
338.327;  -15.950;  -18.000; -155.000
338.461;  -80.100; -299.000; -469.000
338.596; -105.675; -780.000; -638.000
338.730; -106.750; -767.000; -803.000
338.865;   97.475;  -46.000; -140.000
338.999;  -66.125; -846.000; -702.000
339.134;  -43.775; -634.000; -536.000
339.268;    2.275; -741.000; -603.000
339.403;  368.225; -740.000; -775.000
339.537;  116.025; -894.000; -820.000
339.671; -115.525; -829.000; -813.000
339.806;  -72.325; -556.000; -512.000
339.940;   24.850; -261.000; -235.000
340.074; -104.825; -685.000; -510.000
340.209;  -51.825; -351.000; -230.000
340.343;  -97.475; -517.000; -573.000
340.477;  148.275;  998.000; 1036.000
340.612;  -63.725;-1033.000; -900.000
340.746;  134.300; -199.000; -243.000
340.880;  -85.850; -924.000; -785.000
341.014;  -29.225;  -45.000; -154.000
341.149; -116.025; -756.000; -718.000
341.283;  -95.550; -839.000; -754.000
341.417; -117.275;-1124.000; -938.000
341.551;   98.450; -768.000; -708.000
341.685;  -56.750; -633.000; -611.000
341.820;  -65.850; -562.000; -493.000
341.954;  -60.900; -218.000; -349.000
342.088; -173.600;-1102.000;-1019.000
342.222;   50.300;  565.000;  618.000
342.356;  -59.575; -395.000; -335.000
342.490; -118.250; -880.000; -841.000
342.624;  -46.775; -339.000; -242.000
342.758;  -23.750; -364.000; -312.000
342.892;  -80.100; -710.000; -585.000
343.026;  -54.000;  -58.000; -116.000
343.160;  -62.225; -426.000; -376.000
343.294;  -90.075; -474.000; -337.000
343.428;  -40.175; -488.000; -448.000
343.562;  -32.450; -172.000;  -23.000
343.696;  -47.450; -385.000; -314.000
343.830;  -35.225; -362.000; -356.000
343.964;   10.825; -231.000; -168.000
344.098;  795.525;  199.000;   70.000
344.232;  677.525; -266.000; -127.000
344.366;   52.750; -567.000; -453.000
344.500;   24.800; -665.000; -744.000
344.634;    0.600; -324.000; -164.000
344.768;  -23.350; -531.000; -341.000
344.902;    4.550;  278.000;  256.000
345.035;  -67.775; -556.000; -496.000
345.169; -137.950; -933.000; -656.000
345.303;  -24.150; -308.000; -482.000
345.437;  -94.850; -826.000; -717.000
345.571;  -77.700; -675.000; -594.000
345.704;  -82.575; -309.000; -532.000
345.838;  -31.675; -331.000; -284.000
345.972;  -44.225; -543.000; -495.000
346.106;  137.950; -179.000; -190.000
346.239;  373.075; -312.000; -243.000
346.373;  -20.900; -343.000; -302.000
346.507; -162.325; -950.000; -962.000
346.640;  119.750;  -30.000;   13.000
346.774;  -57.850; -650.000; -797.000
346.908;  -21.100; -138.000;  -11.000
347.041; -110.875; -646.000; -593.000
347.175;   -6.375;  259.000;   27.000
347.309;  -95.275; -698.000; -628.000
347.442; -112.200; -883.000; -732.000
347.576;  242.475;  670.000;  668.000
347.709;  159.875; -123.000;  -52.000
347.843;  -98.500; -933.000; -825.000
347.976;   35.400;  235.000;  294.000
348.110; -184.950;-1268.000;-1186.000
348.243; -102.875; -679.000; -772.000
348.377;    9.175;  -26.000;   60.000
348.510;   53.125;  403.000;  540.000
348.644;  -54.425;  -37.000; -159.000
348.777;  -11.350;  180.000;  191.000
348.911;  -66.875; -142.000; -112.000
349.044;  148.200;  471.000;  448.000
349.178;  102.950;-1069.000;-1006.000
349.311;  122.850;  141.000;  255.000
349.444;  -18.825; -927.000; -813.000
349.578;  -22.250; -347.000; -200.000
349.711; -130.000; -959.000; -862.000
349.845;  -19.800; -661.000; -591.000
349.978; -171.125;-1224.000;-1137.000
350.111;  -85.650; -546.000; -612.000
350.244;  -93.575; -596.000; -700.000
350.378;   -2.900; -392.000; -393.000
350.511;  -88.300; -393.000; -426.000
350.644; -104.975; -808.000; -806.000
350.778;    1.900;  168.000;  104.000
350.911;   -4.750;  134.000;  140.000
351.044; -119.225; -685.000; -615.000
351.177;  -45.350; -321.000; -281.000
351.310;  -24.075;    3.000; -131.000
351.444;  -93.350; -888.000; -788.000
351.577;  102.150;  140.000;   90.000
351.710;   95.150;  593.000;  417.000
351.843;  -50.100; -165.000;  -77.000
351.976;   -9.700;  149.000;  -79.000
352.109; -103.700; -621.000; -612.000
352.242;  -36.400; -464.000; -419.000
352.376;  -87.925; -580.000; -636.000
352.509;  141.775; -437.000; -356.000
352.642;  -27.900; -654.000; -604.000
352.775;   43.650; -141.000;  -98.000
352.908; -132.125; -933.000; -904.000
353.041; -122.625; -814.000; -824.000
353.174;  -79.575; -551.000; -424.000
353.307;  -90.650; -753.000; -764.000
353.440;   57.450;  541.000;  453.000
353.573; -126.225; -957.000;-1008.000
353.706;  -73.550; -384.000; -558.000
353.839;  -29.275; -264.000; -220.000
353.971;  -91.150; -657.000; -512.000
354.104; -101.075; -896.000; -835.000
354.237;  -53.525; -627.000; -662.000
354.370;  -84.300; -846.000; -879.000
354.503; -198.800;-1231.000;-1308.000
354.636;  -35.100; -529.000; -348.000
354.769; -141.050; -937.000; -860.000
354.902;   -9.375; -230.000; -139.000
355.034;  -38.200; -164.000; -220.000
355.167;  -26.075; -262.000; -162.000
355.300; -102.425;-1061.000; -880.000
355.433;  976.200;  -71.000;  -14.000
355.565; 1530.550; -402.000; -384.000
355.698;  386.400; -356.000; -296.000
355.831;   -4.100; -882.000; -801.000
355.964;   67.950; -285.000; -170.000
356.096; -109.775; -856.000; -843.000
356.229;  -17.450; -523.000; -530.000
356.362;  327.425; -373.000; -266.000
356.494;  619.575; -229.000; -162.000
356.627;  419.150;  269.000;  377.000
356.760;  651.950;  120.000;   53.000
356.892;  971.775; -286.000; -601.000
357.025;  575.300;  403.000;  389.000
357.157;  501.950; -167.000; -179.000
357.290;  711.125; -856.000; -713.000
357.423;  191.775; -667.000; -556.000
357.555;  105.750; -217.000; -228.000
357.688;   79.300; -483.000; -364.000
357.820;  395.350; -870.000; -877.000
357.953; 3413.450; -563.000; -589.000
358.085;  686.300; -632.000; -612.000
358.218;  876.550;-1131.000; -932.000
358.350;  163.225;  -58.000;  312.000
358.483; -143.775;-1300.000;-1187.000
358.615;  -53.550;-1182.000;-1078.000
358.747; -109.550;-1187.000;-1058.000
358.880;    0.625; -810.000; -744.000
359.012;  -22.225; -376.000; -202.000
359.145;  -45.925; -480.000; -511.000
359.277;   21.825; -962.000; -913.000
359.409; 2816.675;  536.000;  231.000
359.542;  705.900; -738.000; -688.000
359.674;   45.600;   46.000;   13.000
359.806;  -70.700; -565.000; -438.000
359.939;  -41.375; -617.000; -516.000
360.071;  -26.150; -583.000; -579.000
360.203;  -22.375; -411.000; -364.000
360.335;   45.325;  164.000;  -16.000
360.468;  169.125; -249.000; -307.000
360.600; 2277.075; -547.000; -454.000
360.732; 2934.100; -546.000; -423.000
360.864;  390.200;-1216.000;-1044.000
360.996;  215.025; -516.000; -554.000
361.129;    4.400; -389.000; -598.000
361.261;   17.100;  110.000; -113.000
361.393;  -49.325; -252.000; -214.000
361.525;   26.125;   94.000;  244.000
361.657;  -61.075; -821.000; -703.000
361.789;    2.225; -139.000; -155.000
361.921;  169.325; -642.000; -593.000
362.053;  234.350;  524.000;  541.000
362.185;   37.350;  288.000;   72.000
362.318;  -97.325; -709.000; -705.000
362.450;   92.625;  294.000;  444.000
362.582;   45.200; -913.000; -870.000
362.714;  -46.825; -353.000; -332.000
362.846;  -90.050; -606.000; -490.000
362.978; -156.250; -941.000; -811.000
363.109;   27.700; -161.000; -260.000
363.241;  355.950; -739.000; -749.000
363.373;  413.950; -649.000; -564.000
363.505;  697.000; -186.000;  -91.000
363.637;  137.450; -787.000; -601.000
363.769; -123.575;-1067.000;-1080.000
363.901;  -74.675; -596.000; -654.000
364.033; -132.800;-1103.000;-1062.000
364.165;   -6.075; -283.000; -283.000
364.296;   45.350; -316.000; -177.000
364.428;   62.750;-1344.000;-1220.000
364.560;  -71.925; -679.000; -661.000
364.692;  -87.125; -738.000; -835.000
364.824;  192.500; -588.000; -456.000
364.955;  417.750; -402.000; -564.000
365.087;  984.475;-1097.000; -852.000
365.219;   20.125; -686.000; -816.000
365.351;  -77.625; -526.000; -572.000
365.482;   32.925;  300.000;  240.000
365.614;  -63.800; -402.000; -314.000
365.746; -114.800; -729.000; -752.000
365.877; -106.250; -706.000; -672.000
366.009;  271.800;  -35.000;  -62.000
366.141;  -99.500;-1249.000;-1134.000
366.272; -106.625; -803.000; -719.000
366.404; -126.600;-1005.000; -874.000
366.535;  -26.775; -139.000;  -12.000
366.667; -127.525; -644.000; -649.000
366.799;   26.450;  353.000;  203.000
366.930; -145.200; -862.000; -996.000
367.062;   96.725; -639.000; -613.000
367.193;  159.675; -872.000; -842.000
367.325;  -66.625; -580.000; -684.000
367.456;   19.500; -246.000;   31.000
367.588;  150.000; -371.000; -318.000
367.719;   11.300;  -44.000;  -45.000
367.851;  -25.150; -222.000; -241.000
367.982;  -66.450; -875.000; -732.000
368.113;   73.350; -475.000; -358.000
368.245; -142.025; -960.000; -841.000
368.376;  -32.975; -254.000; -302.000
368.508;  -42.175; -188.000; -263.000
368.639; -146.650;-1166.000;-1034.000
368.770;  -49.475; -670.000; -589.000
368.902;  -79.625; -836.000; -926.000
369.033; -122.250; -906.000; -855.000
369.164;  -59.700; -720.000; -653.000
369.296; -104.250; -452.000; -601.000
369.427;  -28.450; -209.000; -144.000
369.558;  -77.450; -593.000; -377.000
369.689;  -93.425; -721.000; -569.000
369.821; -141.775; -951.000; -845.000
369.952;  -36.875;   42.000; -108.000
370.083;  -60.075; -229.000; -108.000
370.214;  -94.650; -735.000; -650.000
370.345;  -16.275;   65.000;   81.000
370.477; -104.850; -810.000; -790.000
370.608;  200.425; -328.000; -264.000
370.739;  -76.175;-1233.000;-1292.000
370.870;  -70.750;-1102.000; -923.000
371.001;   57.225; -378.000; -467.000
371.132;  -98.775; -754.000; -735.000
371.263;  -20.100;  -42.000; -148.000
371.394; -143.525; -841.000; -748.000
371.525;   29.300;  345.000;  225.000
371.657;  -99.600; -808.000; -670.000
371.788;   59.625;  103.000;  199.000
371.919;  128.400; -384.000; -304.000
372.050; 3231.850;  -91.000; -156.000
372.181;  915.875; -188.000; -294.000
372.311;  315.525;   42.000; -127.000
372.442;   10.550; -457.000; -451.000
372.573;  -35.750; -444.000; -340.000
372.704; -138.275;-1008.000; -980.000
372.835;   57.700; -228.000; -289.000
372.966;  -85.100; -646.000; -554.000
373.097;  -77.750; -575.000; -711.000
373.228;  -54.950; -717.000; -542.000
373.359;   86.000; -824.000; -536.000
373.490;  790.575; -881.000; -727.000
373.620;  997.025;-1001.000; -803.000
373.751; 1518.500; -332.000; -396.000
373.882;  658.675; -663.000; -733.000
374.013;   31.500; -449.000; -262.000
374.143;  -66.075; -581.000; -659.000
374.274; -126.800; -987.000; -908.000
374.405;  140.300; -388.000; -276.000
374.536;  365.300; -526.000; -387.000
374.666;  918.825; -759.000; -807.000
374.797;  154.550; -817.000; -868.000
374.928;  709.675; -710.000; -560.000
375.058;  754.300; -535.000; -500.000
375.189;   61.350;  -59.000;  -93.000
375.320; -117.100; -928.000;-1034.000
375.450;  -34.450; -625.000; -616.000
375.581;  -76.250; -526.000; -436.000
375.712;  -44.925; -574.000; -250.000
375.842;  230.100; -438.000; -415.000
375.973;  148.400; -554.000; -513.000
376.103;  -67.200; -665.000; -648.000
376.234; -101.325; -531.000; -552.000
376.364;  -59.925; -944.000; -867.000
376.495;  279.850;  925.000;  529.000
376.625;  -35.800; -472.000; -485.000
376.756;   17.075; -709.000; -678.000
376.886; -107.775;-1178.000;-1026.000
377.017;   41.700;-1048.000;-1061.000
377.147;  346.625; -786.000; -782.000
377.278;   52.025;  174.000;  228.000
377.408; -126.975; -801.000; -815.000
377.538; -108.550; -707.000; -693.000
377.669; -107.400; -537.000; -613.000
377.799;  -90.550; -645.000; -635.000
377.929;  -84.175; -610.000; -428.000
378.060; -137.625; -781.000; -847.000
378.190;  -65.225; -726.000; -531.000
378.320;  -42.025; -401.000; -406.000
378.451;  -21.650; -131.000;  -22.000
378.581;  -22.800;  -67.000; -110.000
378.711;  128.300; 1035.000;  866.000
378.841;  -33.725; -533.000; -675.000
378.972;  -88.675; -871.000; -751.000
379.102;  -30.300; -652.000; -579.000
379.232;  -29.075; -126.000;  -73.000
379.362; -109.925;-1001.000; -885.000
379.492;  -34.175; -373.000; -424.000
379.623;   75.025;    0.000;  111.000
379.753; -110.825;-1107.000; -974.000
379.883;  155.525;   59.000;  156.000
380.013;  -32.350;-1081.000;-1017.000
380.143; -126.575;-1097.000;-1056.000
380.273; -135.025; -985.000; -861.000
380.403;   -8.300; -344.000; -257.000
380.533;  -56.425; -651.000; -664.000
380.663;   55.400;  173.000;  128.000
380.793; -120.275;-1027.000;-1074.000
380.923;  -30.150; -103.000;  -34.000
381.053; -102.275; -613.000; -623.000
381.183;  -34.025; -106.000; -248.000
381.313;   11.125; -656.000; -470.000
381.443;   13.050; -692.000; -473.000
381.573;  138.625; -402.000; -409.000
381.703;  191.950;-1249.000;-1095.000
381.833; -150.725;-1454.000;-1336.000
381.963;   86.075; -134.000;  -87.000
382.093; 1260.600; -925.000; -909.000
382.223;  335.175; -713.000; -602.000
382.353;  -29.825; -801.000; -608.000
382.482;  307.075;-1091.000; -964.000
382.612;  657.600; -872.000; -644.000
382.742;  360.925; -695.000; -622.000
382.872;  172.275; -565.000; -551.000
383.002;   43.325;  347.000; -132.000
383.131;  -26.850; -226.000; -160.000
383.261;  -53.725; -706.000; -768.000
383.391;  270.350; -552.000; -377.000
383.521; 3409.650;  451.000;  263.000
383.650;  778.625; -947.000; -904.000
383.780;  -32.150; -783.000; -656.000
383.910;   94.475;  880.000;  802.000
384.039;   -6.125; -794.000; -656.000
384.169;  135.475;-1205.000;-1017.000
384.299;  -43.150; -650.000; -662.000
384.428; -101.900; -764.000; -680.000
384.558;  -67.150; -308.000; -275.000
384.687;  -64.375; -414.000; -334.000
384.817;    1.425;   75.000;   -2.000
384.947;   -9.350; -234.000; -141.000
385.076;  256.925;  982.000;  912.000
385.206;   66.000;  369.000;  480.000
385.335;  -48.700; -549.000; -417.000
385.465; -106.425; -655.000; -663.000
385.594;   90.575;  -53.000;  -44.000
385.724;  327.650; -868.000; -838.000
385.853;   83.250; -296.000; -270.000
385.982; 1182.675; -743.000; -787.000
386.112; 1846.225;-1052.000; -871.000
386.241;  106.225; -307.000; -312.000
386.371;    3.175; -174.000;  -87.000
386.500;  -30.000; -825.000; -789.000
386.629;    5.175; -874.000; -817.000
386.759;   47.325;  -43.000;   68.000
386.888;  -17.075; -170.000; -250.000
387.017; -104.025; -648.000; -620.000
387.147;  -96.300; -771.000; -798.000
387.276;  -26.425; -410.000; -397.000
387.405;    2.750; -398.000; -342.000
387.535;  -70.125; -452.000; -361.000
387.664;  -82.100; -692.000; -620.000
387.793;   28.350; -198.000; -113.000
387.922;  423.775;  255.000;  200.000
388.052;  -11.425; -576.000; -423.000
388.181;  -18.975; -342.000; -472.000
388.310;  -47.850; -889.000; -710.000
388.439;  -76.050; -749.000; -742.000
388.568;  164.150;  365.000;  244.000
388.697;  915.350; -756.000; -653.000
388.826;  147.000; -768.000; -666.000
388.956;   34.900; -285.000; -307.000
389.085;  -52.275; -347.000; -287.000
389.214; -111.025; -842.000; -872.000
389.343;  -83.475; -645.000; -413.000
389.472;  420.675;  126.000;  149.000
389.601;  500.600;   91.000;    0.000
389.730;   -3.200; -568.000; -687.000
389.859;   54.850;  226.000;   46.000
389.988;  148.250; -423.000; -408.000
390.117;  109.000; -168.000; -146.000
390.246;  -26.650; -331.000; -320.000
390.375;   23.475; -673.000; -626.000
390.504;  -74.100; -703.000; -621.000
390.633; -117.050; -672.000; -726.000
390.761;  -78.325; -732.000; -645.000
390.890;    1.225;   -4.000; -130.000
391.019;  -51.400; -421.000; -441.000
391.148; -136.325; -826.000; -855.000
391.277;  -82.900; -576.000; -493.000
391.406; -114.775; -821.000; -805.000
391.534;   11.025;  574.000; -301.000
391.663;  -83.850; -583.000; -645.000
391.792; -104.125; -673.000; -701.000
391.921;   59.125;   -3.000;   15.000
392.050;  126.400; -287.000; -228.000
392.178;  -83.075;-1206.000;-1061.000
392.307;  121.025; -758.000; -712.000
392.436;   40.775; -427.000; -641.000
392.564;   11.400;  166.000;   -6.000
392.693; -112.775; -860.000; -682.000
392.822;  161.925; -529.000; -534.000
392.950;   42.800; -880.000; -714.000
393.079;  264.975; -188.000; -328.000
393.208;   -5.675; -488.000; -511.000
393.336;  -24.675; -170.000; -145.000
393.465;  -54.250; -317.000; -199.000
393.593;   -4.325;   62.000;   79.000
393.722; -172.825;-1121.000; -916.000
393.850;  -36.425; -188.000;  -61.000
393.979; -153.050; -926.000; -805.000
394.107;  -75.050; -517.000; -537.000
394.236;  -49.125; -570.000; -507.000
394.364;  144.825;  383.000;  206.000
394.493;  198.800; -911.000; -767.000
394.621;  -31.325; -955.000; -916.000
394.750;  741.200; -873.000; -923.000
394.878; 3050.675; -247.000; -149.000
395.007; 4050.400; -721.000; -807.000
395.135;  279.475; -790.000; -721.000
395.263;  -94.575;-1038.000;-1040.000
395.392;   11.250;  -25.000; -107.000
395.520; -157.400; -818.000; -679.000
395.648;  -95.925; -865.000; -915.000
395.777;  -40.350; -366.000; -405.000
395.905;  -72.025; -449.000; -564.000
396.033;   -6.650;  217.000;  172.000
396.162;  372.250; -399.000; -453.000
396.290;  313.075;  -17.000;   -2.000
396.418;   57.975; -555.000; -514.000
396.546;  -91.150; -571.000; -466.000
396.674; -116.000; -850.000; -878.000
396.803;  -17.275;  -72.000;  -23.000
396.931;   60.900; -179.000; -199.000
397.059;  -11.950;-1026.000; -989.000
397.187; -125.700;-1026.000; -975.000
397.315; -143.250; -884.000; -649.000
397.443; -100.025; -592.000; -443.000
397.572; -109.775; -578.000; -424.000
397.700;  -34.900; -607.000; -614.000
397.828;   -9.175;  120.000;  -90.000
397.956;  -50.400; -508.000; -478.000
398.084;  -79.600; -767.000; -626.000
398.212;   13.775;  137.000;  124.000
398.340;   -9.625;  -56.000;  159.000
398.468;   15.975; -390.000; -169.000
398.596; -153.450; -993.000; -953.000
398.724; -135.700; -762.000; -767.000
398.852; -183.375;-1024.000; -976.000
398.980;  -73.375; -560.000; -560.000
399.108;  -79.550; -982.000; -735.000
399.236;   26.000;   13.000;    8.000
399.363;    2.150;  222.000;  196.000
399.491;  -77.200; -404.000; -398.000
399.619; -138.450; -829.000; -800.000
399.747; -112.175; -859.000; -771.000
399.875;   59.800;  220.000;  234.000
400.003;  -70.150; -359.000; -284.000
400.130; -101.650; -421.000; -341.000
400.258;  -39.600;  -83.000;   38.000
400.386;  -78.175; -352.000; -168.000
400.514;  -59.675; -526.000; -587.000
400.641; -122.250; -928.000; -802.000
400.769; -147.450; -979.000; -888.000
400.897; -132.150; -838.000; -793.000
401.025;  -31.525; -166.000; -152.000
401.152;  -25.875;  220.000;   38.000
401.280;  -96.000; -430.000; -429.000
401.408; -126.175; -712.000; -576.000
401.535; -109.100; -735.000; -758.000
401.663; -200.750;-1134.000;-1054.000
401.790;  -87.300; -514.000; -525.000
401.918;   26.500;  436.000;  405.000
402.046;  -26.400;  134.000;  122.000
402.173;  -56.225;  -18.000;    7.000
402.301;  -71.275; -519.000; -397.000
402.428;   32.050;  528.000;  383.000
402.556; -158.550;-1188.000; -913.000
402.683;  -43.100;  -20.000;   -1.000
402.811;  -28.625;  -37.000; -206.000
402.938;  -13.775;   20.000;   27.000
403.066;  164.325; -574.000; -558.000
403.193;  269.025;  299.000;  239.000
403.321;  220.650; -396.000; -574.000
403.448;  259.750;   83.000;   27.000
403.575;  122.500;  -90.000;  -46.000
403.703; -116.275; -732.000; -557.000
403.830;  -73.900; -531.000; -496.000
403.957; -161.475;-1117.000;-1023.000
404.085;    9.425;  -61.000; -172.000
404.212;   80.300;  -50.000;   63.000
404.339;  275.750; -566.000; -306.000
404.467; 6047.300; -612.000; -524.000
404.594; 3717.950; -287.000; -227.000
404.721;  798.450; -869.000; -764.000
404.848;   64.375; -113.000; -202.000
404.976; -126.475; -856.000; -783.000
405.103;  -12.200;  -14.000;  -82.000
405.230;  -16.200;  190.000;  226.000
405.357;   20.400;  117.000;   44.000
405.484;  269.475;  -49.000;    5.000
405.612;   31.700; -548.000; -563.000
405.739;  -76.275; -488.000; -243.000
405.866;   72.300;  669.000;  385.000
405.993;  -57.450; -398.000; -102.000
406.120; -140.350; -801.000; -887.000
406.247;  -77.975; -323.000; -342.000
406.374;  353.800;  540.000;  629.000
406.501;   45.875; -632.000; -702.000
406.628;  -72.425; -621.000; -589.000
406.755; -118.975; -803.000; -620.000
406.882;  -50.175; -228.000; -277.000
407.009; -119.000; -719.000; -628.000
407.136;   25.200; -480.000; -401.000
407.263;   60.725; -939.000; -829.000
407.390;  -88.275; -692.000; -614.000
407.517; -186.000;-1139.000;-1187.000
407.644;  -61.400; -332.000; -256.000
407.771;  -84.925; -249.000; -287.000
407.898;   -3.325;  168.000;  328.000
408.025;  -85.525; -421.000; -313.000
408.151;  -17.350;   82.000;  153.000
408.278;  -90.125; -267.000; -216.000
408.405; -127.475; -931.000; -899.000
408.532;  -80.225; -549.000; -542.000
408.659; -111.650; -677.000; -648.000
408.785; -216.350;-1298.000;-1170.000
408.912;  -75.000; -412.000; -296.000
409.039; -122.125; -610.000; -686.000
409.166; -110.175; -591.000; -555.000
409.292; -115.725; -571.000; -534.000
409.419; -138.775; -665.000; -649.000
409.546;  -97.225; -431.000; -192.000
409.672; -116.675; -713.000; -545.000
409.799;  -19.025;  -36.000;   34.000
409.926;  -51.850; -180.000; -179.000
410.052; -186.000;-1127.000;-1091.000
410.179;  -66.100; -368.000; -392.000
410.305; -105.900; -375.000; -493.000
410.432;  -51.400; -220.000; -333.000
410.558; -101.400; -305.000; -380.000
410.685; -116.400; -688.000; -431.000
410.812; -107.075; -409.000; -588.000
410.938; -146.250; -964.000; -808.000
411.065; -116.900; -671.000; -645.000
411.191;  -26.825; -189.000; -174.000
411.317; -132.375; -823.000; -742.000
411.444;  -64.100; -317.000; -246.000
411.570; -100.125; -339.000; -294.000
411.697; -130.250; -758.000; -752.000
411.823; -193.975; -989.000; -999.000
411.949;  -40.850;  -56.000;   17.000
412.076; -111.725; -539.000; -519.000
412.202; -126.125; -758.000; -757.000
412.329; -133.650; -798.000; -752.000
412.455; -117.225; -821.000; -657.000
412.581;  -31.600;  -15.000;  172.000
412.707;  -74.150; -540.000; -457.000
412.834;    6.225;  156.000;  219.000
412.960; -103.100; -785.000; -784.000
413.086; -106.400; -743.000; -701.000
413.212;  120.475;  604.000;  578.000
413.339; -102.850; -685.000; -701.000
413.465;  -20.775; -364.000; -310.000
413.591; -108.825; -757.000; -474.000
413.717;  -59.625; -358.000; -366.000
413.843; -157.050; -839.000; -861.000
413.969;  -72.975;  -47.000; -292.000
414.096; -119.375; -679.000; -679.000
414.222;  -11.075;  -33.000;   85.000
414.348;  -61.000; -652.000; -385.000
414.474;   59.400;   38.000;  -52.000
414.600;  -34.825; -126.000; -144.000
414.726;  -17.450;  -96.000;  -55.000
414.852;  -71.375; -365.000; -342.000
414.978;   18.925;  104.000;  -18.000
415.104;   33.250;   38.000;   80.000
415.230;   13.025; -329.000; -330.000
415.356;    8.225; -409.000; -514.000
415.482;  173.975;   13.000;  -35.000
415.608;  271.150; -247.000; -323.000
415.734;  992.575;   67.000;   38.000
415.860;20631.150; -875.000; -767.000
415.986;14355.725; -685.000; -607.000
416.111; 1214.250; -798.000; -652.000
416.237;  257.300; -424.000; -571.000
416.363; 1219.200; -765.000; -733.000
416.489; 4320.450; -324.000; -251.000
416.615;  439.025; -707.000; -742.000
416.741;  -22.425; -677.000; -784.000
416.866; -103.200; -673.000; -736.000
416.992; -119.000; -801.000; -818.000
417.118;  -36.375;  -41.000;  -80.000
417.244;  -71.050; -798.000; -531.000
417.369;  -93.400; -801.000; -612.000
417.495;  -20.675; -325.000; -254.000
417.621; -118.225;-1015.000; -803.000
417.746;   -6.575; -579.000; -572.000
417.872;   37.450; -254.000; -144.000
417.998;   44.275; -515.000; -530.000
418.123; 1135.650;-1073.000; -845.000
418.249; 5547.200; -512.000; -601.000
418.374;  743.125; -916.000; -824.000
418.500;  108.125; -383.000; -482.000
418.626;  111.075;   70.000;  -59.000
418.751;  119.450; -549.000; -448.000
418.877;  194.375; -637.000; -643.000
419.002; 1926.725; -688.000; -560.000
419.128;13091.075; -930.000; -721.000
419.253; 3063.275; -967.000; -837.000
419.379;  407.725; -391.000; -338.000
419.504;  398.600;  325.000;  415.000
419.629;  534.600; -393.000; -212.000
419.755; 3869.650; -317.000; -254.000
419.880;22357.700;  -98.000;   67.000
420.006;11946.825; -280.000; -221.000
420.131;30134.050; -662.000; -775.000
420.256; 4153.125; -315.000; -316.000
420.382;  526.275; -665.000; -687.000
420.507;   58.800; -649.000; -778.000
420.632;  106.475; -337.000; -339.000
420.758;  180.625; -251.000; -425.000
420.883; -104.575; -876.000; -672.000
421.008; -109.775; -775.000; -619.000
421.133; -100.600; -509.000; -467.000
421.259;  -53.500; -325.000; -259.000
421.384; -132.425; -834.000; -693.000
421.509;  -81.300;-1052.000; -862.000
421.634;  921.600; -936.000; -820.000
421.759;  380.725; -359.000; -327.000
421.885;  -83.925; -717.000; -656.000
422.010;  -88.375; -673.000; -542.000
422.135; -167.800; -695.000; -727.000
422.260;   13.650;  340.000;  280.000
422.385;  -66.225;   12.000;  -98.000
422.510;    7.900;  151.000;  -26.000
422.635;   -8.950;  -87.000;  -43.000
422.760;   75.500; -766.000; -791.000
422.885;   34.550;  -57.000;  -80.000
423.010;  -37.000; -112.000; -169.000
423.135; -111.750; -481.000; -561.000
423.260;  -42.675; -150.000; -245.000
423.385;   44.700;  476.000;  222.000
423.510;   29.975;   71.000;  -22.000
423.635;   64.625;  133.000;   45.000
423.760;   59.425;  383.000;  328.000
423.885;   31.075;  336.000;  391.000
424.010;    9.700;  -68.000;  -13.000
424.135;  -30.600;    5.000;  -33.000
424.259; -101.125; -654.000; -457.000
424.384;  -66.100; -279.000; -272.000
424.509;  -32.675; -260.000; -186.000
424.634; -118.375; -761.000; -623.000
424.759;  -36.250; -688.000; -544.000
424.883;  -30.175; -506.000; -527.000
425.008;  163.450; -502.000; -410.000
425.133; 2067.900; -679.000; -653.000
425.258;  909.975; -517.000; -381.000
425.382;  976.000; -867.000; -774.000
425.507; 2340.800; -487.000; -543.000
425.632;  381.750; -802.000; -663.000
425.756;  480.275; -256.000; -146.000
425.881; 7236.100; -831.000; -857.000
426.006;18848.900; -604.000; -355.000
426.130; 2763.050; -696.000; -508.000
426.255;  354.050; -611.000; -491.000
426.379;  151.900; -189.000; -577.000
426.504;  397.300;  660.000;  544.000
426.629; 4191.800; -519.000; -466.000
426.753; 2743.950;   64.000;  -46.000
426.878;  313.575; -252.000; -288.000
427.002;  174.425; -651.000; -668.000
427.127; 1661.050;  -35.000; -158.000
427.251;11874.400;  372.000;  401.000
427.375; 3221.100; -191.000; -173.000
427.500; 2098.275; -616.000; -610.000
427.624;  669.350; -234.000; -400.000
427.749;   68.350; -216.000; -225.000
427.873;  -62.300; -499.000; -412.000
427.997;  -49.175; -222.000; -230.000
428.122;   54.200;  795.000;  703.000
428.246;   74.075;  433.000;  434.000
428.371; -136.125; -869.000; -773.000
428.495; -111.750; -624.000; -646.000
428.619;  -46.250; -186.000; -117.000
428.743;   17.175;   65.000;  132.000
428.868;   -1.225; -732.000; -643.000
428.992; 1261.975; -219.000; -326.000
429.116;  451.350; -329.000; -357.000
429.240;  224.225;  419.000;  426.000
429.365;  -41.700; -454.000; -574.000
429.489;  -61.975; -638.000; -647.000
429.613;    1.275; -236.000; -177.000
429.737;   20.800; -563.000; -432.000
429.861;  257.900; -247.000; -133.000
429.985; 5866.100; -425.000; -305.000
430.109; 6163.625; -770.000; -908.000
430.234;  678.750;   76.000;  -50.000
430.358;   33.950; -250.000; -160.000
430.482;  -79.225; -672.000; -564.000
430.606;  -84.775; -655.000; -375.000
430.730;  -25.000; -437.000; -388.000
430.854;   47.950; -909.000; -835.000
430.978; -106.200; -795.000; -764.000
431.102; -105.800; -499.000; -422.000
431.226; -132.325; -874.000; -815.000
431.350;   14.675;  345.000;  422.000
431.474;  -81.425; -661.000; -373.000
431.597; -163.725;-1060.000; -848.000
431.721;  -90.750; -276.000; -267.000
431.845; -129.025; -704.000; -472.000
431.969;  -92.425; -304.000; -349.000
432.093;  -92.175; -395.000; -317.000
432.217;  -16.950;   32.000;   82.000
432.341; -106.400; -523.000; -518.000
432.464;   -0.475;   96.000;   40.000
432.588;  129.925; -401.000; -329.000
432.712;   70.350;  -52.000;  -52.000
432.836;   32.925;  213.000;  263.000
432.959;  -19.975; -372.000; -311.000
433.083;   70.550;   11.000;    2.000
433.207;  382.925;  285.000;  930.000
433.330; 5376.975; -391.000; -200.000
433.454; 6367.975; -654.000; -638.000
433.578; 3695.925;  583.000;  278.000
433.701;  643.150; -623.000; -675.000
433.825;  109.000; -292.000; -299.000
433.949;  133.400;   28.000;  -72.000
434.072;   10.275; -410.000; -323.000
434.196;  -16.700; -309.000; -117.000
434.319; 3846.950;25482.000;25124.000
434.443;  733.750; -656.000; -603.000
434.566; 2739.500;  281.000;   62.000
434.690;  422.975; -637.000; -383.000
434.813;   33.325; -251.000; -173.000
434.937;  -81.750; -569.000; -696.000
435.060;  -56.275; -423.000; -332.000
435.184;  206.675; -492.000; -217.000
435.307;   98.575;  159.000;  102.000
435.431;  -25.725;  -40.000;   24.000
435.554;  -96.000; -399.000; -240.000
435.677; -102.475; -350.000; -258.000
435.801;  -43.950;  -25.000;   49.000
435.924;  -33.475;    1.000;  -67.000
436.048; -145.650;-1019.000; -732.000
436.171;  -67.000; -240.000;  -66.000
436.294;  -36.700; -248.000; -229.000
436.417;   98.050; -963.000; -849.000
436.541;  -99.425; -814.000; -840.000
436.664;  -53.650; -242.000; -316.000
436.787;  -40.475;   13.000;  113.000
436.910; -119.425; -792.000; -422.000
437.034;  -13.850;  142.000;  143.000
437.157;   23.950;  -11.000;    0.000
437.280;  -65.850; -392.000; -292.000
437.403; -107.700; -982.000; -869.000
437.526;  470.925; -903.000; -865.000
437.649; 1788.475; -505.000; -332.000
437.772;  207.100; -692.000; -540.000
437.896;   94.175;  700.000;  544.000
438.019; -127.275; -758.000; -503.000
438.142; -101.225; -596.000; -506.000
438.265;  -49.625; -639.000; -670.000
438.388;  432.175; -520.000; -410.000
438.511;   29.025; -597.000; -394.000
438.634;  -65.650; -247.000; -125.000
438.757; -143.775; -693.000; -619.000
438.880;  -45.075;  -34.000;  -57.000
439.003;  -99.125; -417.000; -437.000
439.126;  -67.625; -287.000; -167.000
439.248;  -74.175;  -98.000; -139.000
439.371;  -53.625;    9.000;  -53.000
439.494;   22.525;  510.000;  439.000
439.617;  -53.525;   65.000;  -88.000
439.740; -206.250; -968.000; -816.000
439.863; -156.000; -755.000; -595.000
439.986; -129.075; -476.000; -431.000
440.108;  -58.925; -161.000; -112.000
440.231; -188.875; -950.000; -836.000
440.354;  -47.800;  -64.000; -150.000
440.477;  -25.900; -566.000; -542.000
440.599;  -41.275; -200.000; -225.000
440.722; -118.450; -709.000; -586.000
440.845;   59.250;  751.000;  928.000
440.968; -122.900; -415.000; -311.000
441.090;  -56.325; -199.000;  -33.000
441.213; -183.600;-1021.000; -825.000
441.336;  -57.150; -159.000;   -5.000
441.458;  -92.750; -549.000; -396.000
441.581; -109.225; -628.000; -629.000
441.703;  -77.575; -152.000;   13.000
441.826; -112.275; -557.000; -400.000
441.948;  -61.100;   56.000;   51.000
442.071;    7.025;  555.000;  424.000
442.193; -122.100; -531.000; -485.000
442.316;   11.575;  152.000;   97.000
442.438;   46.475; -233.000;  -10.000
442.561;   66.850;  272.000;  262.000
442.683;  410.700; -809.000; -522.000
442.806;  913.500;   -8.000;   74.000
442.928;  -36.175; -859.000; -604.000
443.051;  -75.100; -577.000; -373.000
443.173; -114.225; -341.000; -339.000
443.295;  -86.525; -263.000; -371.000
443.418;  -86.900; -321.000;  -29.000
443.540;  -26.025; -106.000;   -4.000
443.662; -125.225; -563.000; -465.000
443.785;  -19.800;  335.000;  199.000
443.907; -117.400; -362.000; -208.000
444.029; -147.975; -767.000; -494.000
444.152; -162.275; -644.000; -554.000
444.274;  -38.900;  -18.000;  -24.000
444.396; -123.025; -461.000; -221.000
444.518; -138.000; -691.000; -454.000
444.640; -103.575; -268.000; -111.000
444.763;  -26.175;  388.000;  249.000
444.885; -123.625; -432.000; -392.000
445.007;  -41.750;   35.000;   86.000
445.129; -152.900; -610.000; -515.000
445.251; -100.975; -372.000; -439.000
445.373; -143.175; -537.000; -386.000
445.495;  -10.950;  242.000;  350.000
445.617;   40.275;  853.000;  753.000
445.739;  -70.275; -215.000;  -97.000
445.861;  -46.825; -245.000; -112.000
445.984;  -58.425; -267.000; -101.000
446.105;  129.900; -418.000; -251.000
446.227;  469.875; -176.000;  -19.000
446.349;  -36.200; -358.000; -249.000
446.471; -118.725; -615.000; -448.000
446.593;  -82.975; -316.000;   19.000
446.715;  -29.775;  -67.000;   41.000
446.837;   40.875;  697.000;  832.000
446.959; -101.675; -457.000; -478.000
447.081; -146.950; -628.000; -518.000
447.203;   52.100;  862.000;  834.000
447.325;  -99.875; -270.000;   42.000
447.446;   -6.475;  286.000;  530.000
447.568; -153.225; -921.000; -803.000
447.690;  -69.800; -236.000; -245.000
447.812; -157.725; -798.000; -519.000
447.933;  -29.825;  155.000;  127.000
448.055;  -80.325; -306.000; -261.000
448.177;  107.675;   31.000;   79.000
448.299;   21.700; -935.000; -727.000
448.420;   23.575;  -25.000;  159.000
448.542;  -57.725;   -3.000;   33.000
448.664;  -24.875;  109.000;  322.000
448.785;  -38.125;  265.000;   83.000
448.907;  -97.075; -614.000; -353.000
449.028;  -74.925; -771.000; -471.000
449.150;   59.200;  492.000;  589.000
449.272; -186.900;-1044.000; -913.000
449.393;   28.800;  612.000;  694.000
449.515; -153.600; -634.000; -581.000
449.636;  -73.225; -264.000; -155.000
449.758;   62.825;  763.000;  622.000
449.879;  -96.250; -498.000; -396.000
450.001;  -91.700; -149.000;  -49.000
450.122;  -34.000;  -95.000;  162.000
450.244;  -35.725;   37.000;  364.000
450.365;  -98.800; -495.000; -301.000
450.486;  -43.950;   80.000;  268.000
450.608;    7.425;  393.000;  326.000
450.729;   75.475;  578.000;  645.000
450.850;   11.225; -574.000; -466.000
450.972;  814.925; -552.000; -389.000
451.093; 5221.025;  190.000;  588.000
451.214; 2160.150; -516.000; -337.000
451.336;  387.250;  773.000;  579.000
451.457;   53.900;  264.000;  393.000
451.578;  -47.925; -118.000;  -74.000
451.699; -133.600; -546.000; -540.000
451.821;  -73.300; -284.000;  -50.000
451.942;   -6.275;  278.000;  285.000
452.063;   24.550;  228.000;  419.000
452.184;  588.750;  -54.000;  -49.000
452.305; 1112.350;  103.000;  170.000
452.427;  111.975; -549.000; -301.000
452.548;  -12.325;   23.000;   79.000
452.669;  -71.375; -257.000;  -89.000
452.790;  -63.750;    3.000;  -18.000
452.911;   -7.825;  195.000;  259.000
453.032;  -77.075; -289.000;  -60.000
453.153;  -48.350;  -29.000;   81.000
453.274;   54.525;  737.000;  868.000
453.395;  -72.125;  -51.000;  175.000
453.516;  113.450; 1317.000; 1388.000
453.637;  -89.000; -205.000; -150.000
453.758;  -63.075;   15.000;   69.000
453.879; -121.325; -462.000; -250.000
454.000;   78.450; 1086.000;  948.000
454.121; -149.375; -554.000; -326.000
454.242; -128.550; -599.000; -383.000
454.362;  -69.500;  -99.000;  114.000
454.483;  -55.125; -309.000; -229.000
454.604;   49.400;  512.000;  580.000
454.725; -131.225; -627.000; -555.000
454.846; -134.600; -474.000; -406.000
454.967;  -33.350;  230.000;  539.000
455.087;  -52.275;  179.000;  153.000
455.208;   21.350;  554.000;  856.000
455.329;  -72.375;  -22.000;   82.000
455.450;   35.850;  473.000;  633.000
455.570;  -91.750; -234.000; -211.000
455.691;  -42.375;  201.000;  407.000
455.812; -107.400; -270.000;  -92.000
455.932;  -59.425;  107.000;  -97.000
456.053; -105.400;   36.000;   24.000
456.173; -123.225; -433.000; -355.000
456.294; -139.175; -476.000; -303.000
456.415;  -64.925;  -73.000;   70.000
456.535;  -33.975;  297.000;  273.000
456.656;  -50.825;  132.000;  240.000
456.776;  -72.550;    3.000;  298.000
456.897;    0.750;  308.000;  513.000
457.017;  -81.650; -153.000;   -3.000
457.138; -127.575; -402.000; -249.000
457.258;  -50.650;  263.000;  224.000
457.379;  -25.150;  509.000;  521.000
457.499;  -34.075;  443.000;  432.000
457.620; -127.525; -407.000; -231.000
457.740; -103.400; -132.000;  -11.000
457.860;  -64.575;   87.000;   44.000
457.981;  -47.375;  132.000;  124.000
458.101;  -85.300;  -89.000;   40.000
458.221;  -20.900;  336.000;  402.000
458.342;  -62.875;   -4.000;  -37.000
458.462;   18.550;  617.000;  352.000
458.582;  -37.450; -302.000; -294.000
458.703;    3.775;  303.000;  154.000
458.823;  -30.100;   22.000;  163.000
458.943;    8.450;  341.000;  467.000
459.063;  -36.950; 1124.000;  192.000
459.183;  -33.150;  328.000;  313.000
459.304;    9.125;  315.000;  517.000
459.424;  -79.475; -246.000;  -89.000
459.544;  348.050;  388.000;  764.000
459.664;  848.975;  499.000;  506.000
459.784;  293.950; 1004.000; 1175.000
459.904;   50.000;  867.000;  744.000
460.024;   47.675;  867.000;  684.000
460.144;   -7.050;  449.000;  554.000
460.264;  -12.100;  515.000;  327.000
460.385; -105.600; -145.000; -119.000
460.505;   35.825;  905.000;  858.000
460.625;  -98.900;  -17.000;  -68.000
460.745;  -20.425;  396.000;  541.000
460.864;  -71.125;  153.000;  469.000
460.984;   -9.025;  499.000;  573.000
461.104;  128.500; 1656.000; 1775.000
461.224;   19.925;  657.000;  650.000
461.344;  -38.900;  431.000;  360.000
461.464;  -49.425;  258.000;  513.000
461.584;  -31.450;  283.000;  466.000
461.704;  -49.350;   58.000;  108.000
461.824;  -65.700;  238.000;  259.000
461.943;  -48.750;  191.000;  130.000
462.063;  -91.325;    2.000;  324.000
462.183;   20.525;  639.000;  717.000
462.303;  100.050; 1678.000; 1230.000
462.422;   22.450;  781.000;  840.000
462.542;  -47.300;  271.000;  391.000
462.662;   34.125;  353.000;  380.000
462.782;  275.900;  833.000;  572.000
462.901;  493.125;  545.000;  717.000
463.021;  287.225; 1702.000; 1638.000
463.141;  -20.150;  337.000;  770.000
463.260;  -40.250;  614.000;  474.000
463.380;   25.050;  902.000;  884.000
463.499;  -50.350;  342.000;  332.000
463.619;  -36.600;  581.000;  559.000
463.738;  109.825; 1644.000;  903.000
463.858;   11.925;  657.000;  811.000
463.978;  -26.575;  542.000;  396.000
464.097;   40.900;  921.000; 1114.000
464.217;  109.775; 1196.000; 1143.000
464.336;  113.875; 1068.000; 1130.000
464.455;  -44.375;  328.000;  659.000
464.575;   25.075;  597.000;  602.000
464.694;  155.175; 1204.000; 1179.000
464.814;  134.850; 1190.000; 1138.000
464.933;   62.000; 1095.000; 1027.000
465.052;   91.400; 1412.000; 1054.000
465.172;   80.375;  922.000;  799.000
465.291;  127.300; 1376.000; 1320.000
465.410;    3.000;  462.000;  735.000
465.530;   92.050; 1355.000; 1310.000
465.649;   39.400; 1209.000; 1273.000
465.768;  132.625; 1673.000; 1508.000
465.888;   36.775;  941.000; 1174.000
466.007;   97.600; 1335.000; 1440.000
466.126;    3.550;  721.000;  641.000
466.245;   41.375; 1176.000; 1187.000
466.364;    7.725;  950.000; 1060.000
466.484;   47.500; 1024.000; 1213.000
466.603;   41.175; 1101.000; 1222.000
466.722;  115.700; 1490.000; 1769.000
466.841;   71.750; 1151.000; 1401.000
466.960;   36.525; 1069.000;  972.000
467.079;  128.075; 1971.000; 1786.000
467.198;   40.125; 1238.000; 1181.000
467.317;   74.500; 1768.000; 1162.000
467.436;   83.600; 1709.000; 1261.000
467.555;  120.825; 1796.000; 1746.000
467.674;   73.800; 1227.000; 1329.000
467.793;   34.575; 1376.000; 1374.000
467.912;   85.775; 1658.000; 1539.000
468.031;  121.100; 2038.000; 1930.000
468.150;  151.100; 1842.000; 1837.000
468.269;  181.950; 2313.000; 2090.000
468.388;  181.950; 2168.000; 2339.000
468.507;  252.625; 2884.000; 2903.000
468.626;  278.025; 2555.000; 2541.000
468.744;  118.975; 2018.000; 2174.000
468.863;  201.825; 2312.000; 2523.000
468.982;   87.325; 1503.000; 1555.000
469.101;  216.175; 2788.000; 2692.000
469.220;  152.800; 2333.000; 2176.000
469.338;  263.000; 2935.000; 3051.000
469.457;  193.650; 2719.000; 2545.000
469.576;  351.125; 3953.000; 3784.000
469.695;  233.175; 2877.000; 3066.000
469.813;  433.400; 4148.000; 4192.000
469.932;  406.675; 4255.000; 4485.000
470.051;  442.650; 4075.000; 4161.000
470.169;  885.650; 4470.000; 4338.000
470.288; 1504.325; 4700.000; 4809.000
470.406;  865.725; 5059.000; 5194.000
470.525;  629.775; 6101.000; 5787.000
470.644;  626.750; 6847.000; 6794.000
470.762;  811.700; 8397.000; 7873.000
470.881;  909.925; 8651.000; 8464.000
470.999; 1040.575; 9685.000; 9151.000
471.118; 1118.325;11174.000;10711.000

