
Integration time [ms]: 200.000
Averaging Nr. [scans]: 10
Smoothing Nr. [pixels]: 0
Data measured with spectrometer [name]: 2101012U2
Wave   ;Sample   ;Dark     ;Reference
[nm]   ;[counts] ;[counts] ;[counts] 

197.733;  117.600;  516.000;  404.000
197.879; -178.400; -610.000; -634.000
198.025;  -82.700; -475.000; -420.000
198.171; -159.000; -602.000; -612.000
198.317;  -48.900; -401.000; -316.000
198.463; -130.100; -655.000; -404.000
198.609;   47.600;  181.000; -137.000
198.755; -138.900; -644.000; -410.000
198.901; -129.500; -505.000; -424.000
199.047; -142.900; -615.000; -488.000
199.193;  -59.300; -230.000; -468.000
199.339;  -97.400; -222.000; -369.000
199.485;   97.500;  330.000;  271.000
199.631;   39.000;  227.000;  310.000
199.777;  -93.000; -466.000; -398.000
199.923; -141.600; -610.000; -424.000
200.069;   13.800; -141.000;  -58.000
200.215;   99.800;  128.000;  453.000
200.361;  103.600;  243.000;  477.000
200.507; -161.100; -600.000; -373.000
200.653;  -30.600; -371.000; -194.000
200.798; -103.200; -215.000; -125.000
200.944;   10.200; -146.000;  -41.000
201.090;   86.000;   61.000;  222.000
201.236;   -7.600; -116.000; -158.000
201.382;  283.000;  874.000;  903.000
201.528;   -7.500;  -58.000;  -48.000
201.674; -120.800; -386.000; -293.000
201.819; -124.200; -540.000; -439.000
201.965; -171.600; -699.000; -447.000
202.111;  -31.800; -273.000; -226.000
202.257;  -64.700; -250.000; -238.000
202.402;   31.000;   13.000;  -36.000
202.548;  -37.500; -169.000; -116.000
202.694;  181.000;  410.000; -183.000
202.840; -145.300; -603.000; -531.000
202.985; -148.400; -681.000; -639.000
203.131; -229.900; -832.000; -666.000
203.277;  -23.400; -199.000; -262.000
203.423; -123.800; -434.000; -520.000
203.568;  -89.600; -462.000; -237.000
203.714; -111.100; -535.000; -542.000
203.860; -176.800; -682.000; -641.000
204.005;   -6.200;  112.000;  167.000
204.151;  171.900;  561.000;  556.000
204.296; -104.200; -354.000; -221.000
204.442; -122.400; -600.000; -547.000
204.588; -211.600; -592.000; -579.000
204.733;   73.900;  178.000;  168.000
204.879; -245.600;-1018.000; -822.000
205.025;   16.400;  -99.000;  126.000
205.170;   -1.700;  -17.000;   94.000
205.316;  176.600;  438.000;  661.000
205.461; -204.500; -698.000; -554.000
205.607;  152.400;  609.000;  665.000
205.752; -150.100; -626.000; -551.000
205.898; -108.100; -501.000; -391.000
206.043; -141.900; -578.000; -506.000
206.189;  -69.500; -243.000; -285.000
206.334;  171.100;  554.000;  606.000
206.480;  194.100;  409.000;  239.000
206.625; -177.200; -529.000; -552.000
206.771;  -89.700; -451.000; -373.000
206.916;  -78.100; -210.000; -537.000
207.062; -150.400; -545.000; -591.000
207.207; -124.400; -546.000; -443.000
207.353;  127.600;  185.000;  460.000
207.498;   20.600;  196.000;   85.000
207.643; -102.400; -501.000; -370.000
207.789; -281.100;-1069.000; -910.000
207.934; -177.300; -665.000; -713.000
208.080;  -52.400; -154.000;   66.000
208.225;  -25.200;  -22.000;  -57.000
208.370; -208.000; -727.000; -619.000
208.516; -124.800; -741.000; -487.000
208.661;  -70.700; -127.000;  -69.000
208.806;  -19.500; -165.000; -171.000
208.952; -263.900;-1044.000; -731.000
209.097;  165.800;  378.000;  349.000
209.242; -109.900; -307.000; -382.000
209.387;  110.000;  392.000;  350.000
209.533; -122.400; -321.000; -350.000
209.678;  181.800;  472.000;  543.000
209.823; -128.900; -408.000; -310.000
209.969; -200.800; -860.000; -757.000
210.114; -209.400; -907.000; -719.000
210.259; -251.600; -939.000; -889.000
210.404;   -6.300; -171.000;  103.000
210.549;   11.300;  108.000;    3.000
210.695;  -40.400;   -3.000;  -95.000
210.840;   76.600;   94.000;   67.000
210.985; -111.700; -484.000; -303.000
211.130;  185.500;  268.000;  406.000
211.275;   55.800;  207.000;  199.000
211.420;  -87.700; -300.000; -289.000
211.566; -128.900; -536.000; -489.000
211.711;   61.800;  218.000;  157.000
211.856; -132.100; -545.000; -519.000
212.001;   27.500;  151.000;   44.000
212.146;   14.900;  153.000;   49.000
212.291;  -53.300; -210.000; -186.000
212.436;  -72.000; -280.000;   -6.000
212.581; -136.700; -685.000; -653.000
212.726; -168.400; -487.000; -538.000
212.871; -106.900; -552.000; -217.000
213.016; -294.700;-1172.000;-1029.000
213.161;  141.600;  406.000;  291.000
213.306; -178.400; -435.000; -577.000
213.451; -178.100; -778.000; -689.000
213.596;  -96.100; -455.000; -347.000
213.741; -117.700; -448.000; -538.000
213.886; -190.600; -498.000; -517.000
214.031;  -27.700; -294.000; -124.000
214.176; -105.800; -408.000; -341.000
214.321;  -13.900; -296.000; -157.000
214.466;  -37.800; -163.000;  -43.000
214.611;    3.000;  -61.000;  -10.000
214.756; -259.000; -948.000; -858.000
214.901;  -27.000; -388.000; -226.000
215.046; -273.600; -797.000; -825.000
215.191;   81.000;  128.000;   35.000
215.336;   -0.700; -157.000;  -19.000
215.480; -121.400; -684.000; -505.000
215.625;  -10.700; -175.000;  -19.000
215.770; -181.800; -757.000; -662.000
215.915;  -25.500;   -5.000;  -97.000
216.060;  -18.700; -113.000;  -21.000
216.205; -239.000; -731.000; -779.000
216.349; -139.400; -470.000; -533.000
216.494; -261.900; -939.000; -867.000
216.639; -211.200; -823.000; -888.000
216.784; -182.900; -577.000; -525.000
216.929;   99.700;  392.000;  281.000
217.073;  -67.700; -244.000;  -31.000
217.218;   -5.200;   78.000;  -47.000
217.363; -209.100; -656.000; -618.000
217.507; -156.900; -623.000; -588.000
217.652; -283.100; -845.000; -874.000
217.797; -195.200; -708.000; -659.000
217.942; -237.300; -856.000; -720.000
218.086;  173.200;  608.000;  539.000
218.231;  -59.800; -174.000;  -26.000
218.376;  -71.800; -337.000; -229.000
218.520;    4.100;  -41.000;   96.000
218.665;  -31.800; -338.000; -204.000
218.810;  -70.900; -275.000; -233.000
218.954;   37.300;  201.000;   35.000
219.099; -259.100; -713.000; -963.000
219.243; -133.200; -589.000; -554.000
219.388;  -27.400; -264.000; -136.000
219.532;   -7.900; -116.000; -116.000
219.677; -168.400; -564.000; -521.000
219.822;   -6.200;   33.000;   89.000
219.966;   12.500;   17.000;  -99.000
220.111;  -57.400; -328.000;  -40.000
220.255; -193.100; -797.000; -750.000
220.400;   -0.100; -180.000; -146.000
220.544; -143.000; -516.000; -450.000
220.689; -107.000; -422.000; -451.000
220.833;  -52.700; -123.000;  -58.000
220.978;  -70.700; -393.000; -563.000
221.122;   33.000;  319.000;  307.000
221.267; -223.900; -906.000; -837.000
221.411; -147.200; -478.000; -394.000
221.555;    6.500; -104.000;  -23.000
221.700;  -91.900; -329.000; -222.000
221.844;   79.600;  255.000;  272.000
221.989;  -82.300; -328.000; -311.000
222.133;  -53.400; -289.000; -307.000
222.277;  -16.700;    5.000;   78.000
222.422;   44.100;  227.000;  113.000
222.566;  -66.500; -381.000; -214.000
222.711; -108.600; -414.000; -479.000
222.855; -173.800; -643.000; -586.000
222.999; -171.400; -642.000; -717.000
223.144;  -66.600; -195.000; -194.000
223.288;  144.800;  423.000;  251.000
223.432;   19.100;  184.000;  230.000
223.576;   42.600;  152.000;  -21.000
223.721;  105.400;  364.000;  273.000
223.865;  -90.700; -472.000; -475.000
224.009;  444.800; 1673.000; 1631.000
224.153; -140.300; -660.000; -671.000
224.298; -139.000; -531.000; -489.000
224.442;  -28.000;  -74.000;  -33.000
224.586;  -44.900; -169.000; -106.000
224.730; -180.300; -858.000; -670.000
224.875; -210.600; -739.000; -688.000
225.019;   48.800;  102.000;  188.000
225.163;  141.200;  208.000;  341.000
225.307;   57.100;   97.000;  -91.000
225.451;   84.100;  360.000;  481.000
225.595;   99.400;  264.000;  176.000
225.739;  -35.100; -170.000;  -94.000
225.884;   23.100;   86.000;    5.000
226.028; -196.500; -760.000; -626.000
226.172;  -61.900; -260.000; -273.000
226.316; -270.400; -941.000; -902.000
226.460; -122.400; -645.000; -493.000
226.604; -129.500; -406.000; -400.000
226.748; -180.000; -836.000; -733.000
226.892;  -63.600; -227.000; -181.000
227.036;  -87.600; -537.000; -447.000
227.180; -112.200; -551.000; -375.000
227.324; -133.900; -561.000; -580.000
227.468; -223.100; -819.000; -717.000
227.612;   35.200;  242.000;  -28.000
227.756; -189.400; -845.000; -698.000
227.900;  140.500;  342.000;  441.000
228.044; -107.800; -509.000; -290.000
228.188;  119.500;  448.000;  568.000
228.332; -174.700; -546.000; -472.000
228.476;  -48.300; -223.000; -149.000
228.620;  -56.500; -210.000; -150.000
228.764;  157.000;  431.000;  349.000
228.908;  -12.600; -155.000;   30.000
229.052; -126.400; -615.000; -528.000
229.195;  -27.700; -172.000;   13.000
229.339;  -47.000; -235.000; -305.000
229.483;  -64.500;    5.000; -162.000
229.627;   15.300; -156.000;  139.000
229.771;  -81.400; -218.000; -294.000
229.915;   38.600;  230.000;   79.000
230.059; -214.200; -648.000; -663.000
230.202;  -75.100; -370.000; -317.000
230.346;  -21.600; -107.000;  107.000
230.490; -111.700; -489.000; -521.000
230.634; -202.100; -736.000; -553.000
230.777;  167.000;  478.000;  509.000
230.921; -121.900; -450.000; -359.000
231.065;  -72.400; -246.000; -286.000
231.209;   53.000;  261.000;  265.000
231.352;   60.900;   54.000;   40.000
231.496;   56.000;  568.000;  188.000
231.640; -152.100; -693.000; -621.000
231.783;  132.200;  546.000;  525.000
231.927;  -49.100; -294.000; -365.000
232.071; -243.900; -962.000; -736.000
232.214; -194.100; -980.000; -764.000
232.358; -183.700; -683.000; -599.000
232.502;   49.000;  -19.000;    7.000
232.645; -317.500;-1090.000; -927.000
232.789;  -22.200; -257.000; -218.000
232.933;  -83.000; -407.000; -224.000
233.076; -241.900;-1038.000; -897.000
233.220; -237.100; -752.000; -777.000
233.363; -162.100; -669.000; -477.000
233.507;  129.000;  371.000;  129.000
233.650; -203.900; -764.000; -834.000
233.794;   78.000;  438.000;  461.000
233.938; -108.800; -530.000; -362.000
234.081;  -49.600;  -93.000;   31.000
234.225; -137.300; -631.000; -539.000
234.368; -198.800; -773.000; -723.000
234.512;  -72.200; -385.000; -299.000
234.655; -174.600; -582.000; -555.000
234.798; -120.700; -493.000; -466.000
234.942; -269.700; -884.000;-1002.000
235.085; -132.900; -651.000; -443.000
235.229; -153.000; -405.000; -410.000
235.372;  -56.700; -247.000; -191.000
235.516; -101.000; -397.000; -321.000
235.659;   84.900;   92.000;  121.000
235.802;    4.000;  -38.000;  -22.000
235.946;   95.700;  335.000;  215.000
236.089;   54.400;  126.000;  250.000
236.233;  102.400;  275.000;  298.000
236.376;  -94.700; -235.000; -378.000
236.519;  -74.900; -297.000; -319.000
236.663;  -34.900; -215.000; -117.000
236.806; -290.800;-1029.000; -999.000
236.949;  160.900;  543.000;  431.000
237.092;  166.400;  412.000;  391.000
237.236; -171.900; -589.000; -502.000
237.379;  152.700;  352.000;  428.000
237.522; -241.200; -879.000; -768.000
237.666;  -17.400; -271.000;   18.000
237.809; -267.300; -851.000; -823.000
237.952;   72.100;  469.000;  271.000
238.095; -118.700; -447.000; -442.000
238.238;  189.300;  688.000;  700.000
238.382;  -21.300;  166.000;  103.000
238.525; -117.200; -598.000; -511.000
238.668; -278.700;-1060.000; -985.000
238.811; -154.500; -638.000; -643.000
238.954; -124.300; -483.000; -334.000
239.097;  231.900;  617.000;  664.000
239.241;   94.300;  394.000;  326.000
239.384;  -28.200; -254.000; -214.000
239.527; -109.800; -424.000; -224.000
239.670; -254.100; -994.000;-1091.000
239.813; -191.500; -696.000; -658.000
239.956;  161.500;  579.000;  473.000
240.099; -229.800; -778.000; -725.000
240.242;  172.500;  428.000;  432.000
240.385;   91.100;  466.000;  450.000
240.528; -129.000; -706.000; -473.000
240.671;   30.800;  189.000;  134.000
240.814;  -43.900; -441.000; -158.000
240.957; -192.400; -767.000; -578.000
241.100; -192.700; -779.000; -755.000
241.243; -319.900;-1234.000; -893.000
241.386; -106.400; -508.000; -379.000
241.529; -188.600; -735.000; -547.000
241.672;  -93.100; -566.000; -495.000
241.815; -225.600; -832.000; -808.000
241.958;  -47.600; -125.000; -182.000
242.101; -138.100; -545.000; -390.000
242.244;  -58.400; -270.000; -325.000
242.387;  -78.600; -304.000; -246.000
242.530;  151.700;  470.000;  134.000
242.673;  -81.900; -381.000; -309.000
242.815; -237.600; -925.000; -899.000
242.958;  -95.500; -482.000; -381.000
243.101;   71.700;  132.000;  187.000
243.244; -177.700; -564.000; -521.000
243.387;  -99.800; -313.000; -316.000
243.530; -175.400; -657.000; -674.000
243.672;   16.600;   43.000;  -92.000
243.815;  -99.500; -355.000; -283.000
243.958;   14.200;   98.000;  -26.000
244.101;   13.200;   59.000;  -16.000
244.243;   10.700;  -47.000;  101.000
244.386; -210.400; -761.000; -630.000
244.529;   -9.400; -132.000; -139.000
244.672; -298.100;-1154.000; -951.000
244.814; -212.200; -621.000; -794.000
244.957;  -97.600; -380.000; -304.000
245.100; -130.800; -489.000; -489.000
245.242; -128.800; -387.000; -374.000
245.385;   11.200;  -59.000;  -39.000
245.528; -224.000; -871.000; -705.000
245.670;  208.600;  612.000;  634.000
245.813; -166.700; -599.000; -547.000
245.956;  -72.200; -324.000; -275.000
246.098; -154.200; -508.000; -650.000
246.241;   40.600;  194.000;   48.000
246.383;  -22.300; -119.000;  -73.000
246.526; -150.100; -454.000; -525.000
246.669; -235.500; -889.000; -780.000
246.811;   42.500;  172.000;   -1.000
246.954; -109.900; -512.000; -426.000
247.096;   -9.800;  -84.000;   -6.000
247.239; -136.000; -482.000; -445.000
247.381; -110.200; -647.000; -488.000
247.524;  198.200;  645.000;  679.000
247.666;  -11.200;   58.000;   11.000
247.809; -240.400; -887.000; -691.000
247.951;   13.600;  -75.000;  138.000
248.094;   78.600;  432.000;  308.000
248.236; -309.300;-1262.000;-1238.000
248.378;   -3.600; -356.000;  -81.000
248.521;  -45.800; -334.000; -337.000
248.663;  -80.400; -236.000; -267.000
248.806;  -15.600; -300.000; -266.000
248.948; -211.300; -886.000; -763.000
249.090;  -91.800; -428.000; -398.000
249.233; -118.000; -344.000; -381.000
249.375; -107.900; -474.000; -451.000
249.518;  -11.100;  -83.000; -133.000
249.660;    7.700; -103.000;    3.000
249.802; -356.500;-1303.000;-1189.000
249.945; -116.800; -612.000; -540.000
250.087; -226.400; -834.000; -768.000
250.229;  -69.100; -362.000; -480.000
250.371; -152.300; -494.000; -439.000
250.514;  -97.900; -310.000; -244.000
250.656; -132.000;   69.000;  102.000
250.798; -246.200; -849.000; -800.000
250.940; -139.600; -322.000; -322.000
251.083;  -57.800; -335.000; -111.000
251.225;  140.400;  338.000;  310.000
251.367;  -39.900; -274.000; -373.000
251.509;  -70.000; -265.000; -210.000
251.651; -200.600; -731.000; -671.000
251.794;  134.300;  538.000;  632.000
251.936; -214.000; -821.000; -747.000
252.078; -135.100; -540.000; -461.000
252.220; -113.800; -645.000; -477.000
252.362;  156.000;  344.000;  462.000
252.504; -131.200; -677.000; -584.000
252.646; -208.500; -875.000; -722.000
252.788;   18.700;   14.000; -128.000
252.931;  -67.400; -257.000; -253.000
253.073;  -78.100; -376.000; -317.000
253.215;   -6.300;  141.000;  122.000
253.357;  -32.400;   82.000; -153.000
253.499;  -87.700; -374.000; -234.000
253.641; -170.700; -749.000; -594.000
253.783; -185.500; -609.000; -527.000
253.925; -179.100; -586.000; -591.000
254.067; -233.900; -744.000; -667.000
254.209;  -42.800; -391.000; -259.000
254.351; -288.200; -865.000; -883.000
254.493; -106.100; -441.000; -417.000
254.635; -225.400; -936.000; -818.000
254.777; -167.200; -752.000; -687.000
254.918; -160.800; -512.000; -430.000
255.060; -125.200; -551.000; -395.000
255.202; -108.100; -473.000; -261.000
255.344; -147.900; -658.000; -455.000
255.486; -127.000; -471.000; -406.000
255.628; -205.900; -780.000; -781.000
255.770; -137.700; -676.000; -536.000
255.912; -137.900; -559.000; -468.000
256.053; -160.800; -730.000; -508.000
256.195;  348.800; 1008.000;  903.000
256.337; -178.600; -861.000; -595.000
256.479;  177.600;  532.000;  416.000
256.621;  -85.800; -394.000; -212.000
256.762; -204.600; -789.000; -742.000
256.904;  132.500;  485.000;  487.000
257.046;  -47.000; -381.000; -271.000
257.188;  -97.800; -351.000; -264.000
257.329; -134.300; -525.000; -464.000
257.471; -239.700; -939.000; -807.000
257.613;  -86.400; -584.000; -498.000
257.755; -319.600;-1073.000; -982.000
257.896;   94.200;  286.000;  392.000
258.038; -124.900; -403.000; -352.000
258.180;  -80.600; -354.000; -279.000
258.321; -151.900; -581.000; -457.000
258.463;   21.500;  -71.000;  133.000
258.605; -160.600; -562.000; -570.000
258.746; -203.400; -886.000; -772.000
258.888; -310.800;-1026.000;-1020.000
259.029;   36.900;  121.000;   -8.000
259.171; -188.500; -614.000; -550.000
259.313;   16.500;  -49.000;  -47.000
259.454; -131.300; -536.000; -414.000
259.596;  -88.200; -483.000; -390.000
259.737; -127.200; -590.000; -474.000
259.879;   82.800;  217.000;  311.000
260.020;  223.700;  901.000;  636.000
260.162;  -52.000; -146.000; -253.000
260.303; -231.000; -768.000; -687.000
260.445; -169.000; -609.000; -613.000
260.586;   53.500;  392.000;  157.000
260.728;  -65.000; -360.000; -248.000
260.869; -113.900; -350.000; -343.000
261.011;  199.100;  706.000;  537.000
261.152; -123.100; -479.000; -319.000
261.293; -119.000; -576.000; -595.000
261.435;  -73.500; -219.000; -184.000
261.576;  -76.800; -455.000; -325.000
261.718;  114.000;  420.000;  470.000
261.859; -236.300; -940.000; -949.000
262.000; -281.900; -951.000;-1016.000
262.142;  -42.900;  -52.000;  -60.000
262.283; -232.300; -808.000; -691.000
262.424; -149.300; -666.000; -625.000
262.566; -307.800;-1161.000; -983.000
262.707; -209.500; -840.000; -830.000
262.848; -244.100; -769.000; -726.000
262.990;  -78.700; -362.000; -345.000
263.131;  170.500;  650.000;  681.000
263.272;    0.400;  -61.000;  -41.000
263.413; -170.200; -589.000; -561.000
263.555; -104.700; -669.000; -143.000
263.696; -170.900; -550.000; -641.000
263.837; -100.200; -449.000; -551.000
263.978;  -27.700;   -5.000;  -77.000
264.119;  -45.000; -283.000; -264.000
264.261; -218.100; -847.000; -630.000
264.402;   34.700;   33.000;   40.000
264.543; -142.400; -509.000; -524.000
264.684;    6.300;   61.000;  -50.000
264.825; -137.600; -816.000; -538.000
264.966;    9.400;  -84.000;  -67.000
265.107; -231.700; -646.000; -670.000
265.248; -215.700; -825.000; -812.000
265.390;    7.800;  152.000;   -9.000
265.531;  -52.400; -238.000; -107.000
265.672; -179.500; -557.000; -630.000
265.813;  168.400;  563.000;  439.000
265.954; -296.400; -959.000; -940.000
266.095;  -10.100; -372.000; -322.000
266.236; -186.600; -686.000; -548.000
266.377;  -92.700; -243.000; -297.000
266.518; -140.100; -619.000; -547.000
266.659;   79.600;  170.000;  268.000
266.800;   76.100;   83.000;   85.000
266.941; -137.800; -487.000; -478.000
267.082;   58.400;  354.000;   99.000
267.223;  -68.900; -344.000; -273.000
267.364; -240.700; -892.000; -686.000
267.504;  -17.600;    3.000;  135.000
267.645;    0.400;  160.000;   67.000
267.786;  -21.000; -147.000;  -86.000
267.927; -114.500; -473.000; -379.000
268.068;  -25.800; -186.000;  -61.000
268.209;  -80.000; -175.000; -413.000
268.350;  -76.700; -388.000; -532.000
268.490; -164.400; -648.000; -521.000
268.631;   69.700;  127.000;  225.000
268.772; -216.000; -874.000; -647.000
268.913;  -78.600; -328.000; -476.000
269.054;  -10.200; -117.000;   12.000
269.194;  -66.000; -418.000; -402.000
269.335; -313.800;-1137.000;-1074.000
269.476;  -14.300;   33.000;  -35.000
269.617;  -68.600; -347.000; -392.000
269.757; -146.800; -713.000; -646.000
269.898; -239.600; -856.000; -613.000
270.039;  -94.300; -415.000; -405.000
270.180; -271.200; -952.000; -816.000
270.320;  -14.400; -190.000; -250.000
270.461;  -65.500; -277.000; -249.000
270.602;   24.400; -186.000; -156.000
270.742; -240.500; -868.000; -943.000
270.883;  -76.900; -442.000; -390.000
271.023; -122.900; -358.000; -357.000
271.164; -120.600; -607.000; -528.000
271.305; -181.200; -666.000; -654.000
271.445; -195.800; -722.000; -683.000
271.586; -137.200; -462.000; -283.000
271.726;  -63.500; -397.000; -322.000
271.867; -122.700; -594.000; -534.000
272.008;  320.200; -473.000; -285.000
272.148;  254.500;  462.000;  468.000
272.289;   36.000; -113.000; -181.000
272.429;   48.000;   19.000;  185.000
272.570; -189.700; -633.000; -737.000
272.710; -189.200; -825.000; -775.000
272.851;  -11.200;  113.000; -130.000
272.991; -311.500;-1173.000;-1077.000
273.131; -110.300; -419.000; -459.000
273.272; -222.200; -683.000; -723.000
273.412;   26.600; -143.000;  -31.000
273.553; -128.200; -488.000; -507.000
273.693;  286.400;  913.000;  858.000
273.834; -206.900; -894.000; -692.000
273.974; -123.600; -664.000; -615.000
274.114; -191.300; -772.000; -560.000
274.255;  163.700;  414.000;  373.000
274.395;   38.300; -180.000; -125.000
274.535;   97.700;  199.000;  350.000
274.676;   69.400;  225.000;   94.000
274.816;   54.900;  110.000;   34.000
274.956; -146.900; -624.000; -690.000
275.097; -136.800;-1014.000; -922.000
275.237; -229.000; -913.000; -803.000
275.377; -149.900; -778.000; -689.000
275.517; -280.400; -878.000; -937.000
275.658;  -80.800; -590.000; -555.000
275.798; -112.000; -606.000; -413.000
275.938;   68.000;  215.000;  323.000
276.078; -170.000; -626.000; -395.000
276.218;   29.500;   99.000;  104.000
276.359; -289.200;-1026.000;-1024.000
276.499; -128.500; -605.000; -446.000
276.639;  -58.500; -305.000; -151.000
276.779;  -76.000; -475.000; -357.000
276.919; -210.700; -783.000; -624.000
277.059;  -14.800; -261.000; -212.000
277.199;  -72.500; -357.000; -259.000
277.340;  135.200;  287.000;  175.000
277.480; -219.100; -840.000; -693.000
277.620;   82.800;  192.000;   16.000
277.760; -387.500;-1533.000;-1294.000
277.900;   52.000;  113.000;   33.000
278.040;   70.400;  137.000;  159.000
278.180;  110.600;  270.000;  170.000
278.320;   45.100;   21.000;   56.000
278.460; -103.600; -443.000; -469.000
278.600; -153.200; -708.000; -598.000
278.740;  142.800;  448.000;  224.000
278.880; -124.100; -768.000; -791.000
279.020;   56.400; -194.000; -144.000
279.160; -175.000; -672.000; -595.000
279.300; -244.900; -926.000; -873.000
279.440; -159.200; -709.000; -622.000
279.579;  -78.700;-1014.000; -929.000
279.719; -117.200; -410.000; -394.000
279.859;  131.800;   -4.000;   41.000
279.999;   53.200; -208.000;  101.000
280.139;  -25.700; -435.000; -387.000
280.279; -128.100; -708.000; -745.000
280.419;    4.100; -229.000; -147.000
280.559;  -62.100; -259.000; -180.000
280.698; -162.500; -790.000; -639.000
280.838; -206.500; -778.000; -800.000
280.978; -190.500; -846.000; -790.000
281.118; -222.200; -811.000; -704.000
281.257;   64.300;   24.000;    6.000
281.397; -215.700;-1094.000; -960.000
281.537; -152.000; -599.000; -712.000
281.677;    3.800; -150.000; -101.000
281.816; -127.300; -700.000; -630.000
281.956;  -55.700; -193.000; -257.000
282.096; -104.600; -539.000; -396.000
282.235; -195.800; -672.000; -638.000
282.375;   -5.800; -243.000;  -98.000
282.515; -209.200; -715.000; -707.000
282.654;  118.700;   29.000;  106.000
282.794;   83.900;  388.000;  244.000
282.934;  -57.200; -530.000; -491.000
283.073; -250.100;-1030.000; -857.000
283.213;  -72.700; -460.000; -467.000
283.353;  -59.500; -408.000; -349.000
283.492;  -21.700; -264.000; -296.000
283.632;  -81.400; -254.000; -168.000
283.771; -160.400; -859.000; -730.000
283.911; -115.400; -369.000; -260.000
284.050; -171.000; -794.000; -748.000
284.190; -304.900;-1229.000;-1096.000
284.329; -251.400;-1055.000; -964.000
284.469; -156.200; -516.000; -591.000
284.608;  -67.400; -559.000; -598.000
284.748; -147.300; -614.000; -570.000
284.887;   47.000;  -87.000;  -20.000
285.027; -242.500; -844.000; -892.000
285.166;  -19.600; -192.000; -249.000
285.306;   21.500; -116.000;  -33.000
285.445;  -19.500; -229.000; -343.000
285.584; -150.600; -630.000; -494.000
285.724;  -72.700; -282.000; -322.000
285.863; -227.900; -857.000; -507.000
286.002;  -81.400; -366.000; -276.000
286.142; -227.000; -715.000; -622.000
286.281; -120.200; -525.000; -493.000
286.420; -139.300; -554.000; -417.000
286.560;  234.800;  653.000;  623.000
286.699; -246.300; -958.000; -912.000
286.838; -139.700; -590.000; -591.000
286.978; -187.100; -533.000; -537.000
287.117; -252.800;-1085.000; -950.000
287.256;  -17.100; -228.000; -211.000
287.395;  -77.400; -197.000; -378.000
287.535;  -79.000; -370.000; -298.000
287.674; -134.900; -509.000; -484.000
287.813;  140.700;  661.000;  533.000
287.952; -243.000;-1010.000; -871.000
288.091; -281.500;-1049.000; -915.000
288.231;   69.500;   13.000;   15.000
288.370; -315.500;-1217.000;-1200.000
288.509; -132.000; -728.000; -645.000
288.648; -165.000; -770.000; -548.000
288.787;   10.600; -243.000;  -87.000
288.926; -131.600; -454.000; -475.000
289.065;  261.800;  859.000;  672.000
289.204;  -81.300; -377.000; -217.000
289.344; -196.700; -791.000; -690.000
289.483;   54.900;  416.000;  304.000
289.622;   10.400; -291.000; -149.000
289.761;    8.900; -309.000; -166.000
289.900; -178.200; -785.000; -626.000
290.039;   14.300;  -12.000;  -95.000
290.178;  -82.300; -274.000; -180.000
290.317; -163.000; -618.000; -479.000
290.456;  -86.900; -463.000; -451.000
290.595; -275.400; -961.000; -833.000
290.734; -237.600; -904.000; -891.000
290.873;  -96.500; -456.000; -420.000
291.011; -203.600; -833.000; -843.000
291.150; -206.000; -770.000; -682.000
291.289;    6.800; -343.000; -110.000
291.428; -179.100; -599.000; -480.000
291.567;  -80.300; -370.000; -442.000
291.706;   33.300;  109.000;  154.000
291.845; -172.700; -597.000; -505.000
291.984; -323.200;-1234.000;-1061.000
292.122;  219.000;  602.000;  582.000
292.261;  122.700;  620.000;  463.000
292.400;   59.100; -144.000;  211.000
292.539; -258.700; -959.000; -813.000
292.678;  -43.300; -325.000; -300.000
292.816; -294.400;-1136.000; -965.000
292.955; -130.300; -844.000; -684.000
293.094;  -43.900; -173.000; -337.000
293.233;  -90.000; -556.000; -400.000
293.371;  -49.400; -225.000;  -84.000
293.510; -187.000; -866.000; -780.000
293.649; -234.700; -959.000; -924.000
293.787; -111.400;-1083.000;-1012.000
293.926;  -10.600; -113.000;  -32.000
294.065;  -89.600; -379.000; -290.000
294.203;  125.200;  298.000;  406.000
294.342;  109.300;   74.000;  156.000
294.481;11527.300;51180.000; -836.000
294.619;  -50.100; -425.000; -582.000
294.758; -280.700;-1230.000;-1137.000
294.896;  164.200; -125.000;    5.000
295.035; -203.500;-1040.000;-1006.000
295.174; -170.500;-1082.000; -954.000
295.312;  -69.400; -323.000; -203.000
295.451;   21.700; -307.000; -428.000
295.589;  -74.700; -389.000; -518.000
295.728;   88.800; -292.000; -165.000
295.866;   34.100;  -36.000;  -51.000
296.005; -102.600; -584.000; -341.000
296.143; -125.800; -558.000; -596.000
296.282; -187.000; -957.000; -881.000
296.420; -162.900; -657.000; -557.000
296.559; -158.100; -892.000; -633.000
296.697;   16.300; -847.000; -665.000
296.835;  120.000;-1141.000;-1002.000
296.974;  145.600;  -23.000;   39.000
297.112;    5.300; -443.000; -504.000
297.251; -126.000; -815.000; -755.000
297.389;  171.500; -576.000; -438.000
297.527;  127.100; -145.000;  -83.000
297.666;  -95.500; -486.000; -438.000
297.804; -108.200; -404.000; -264.000
297.942;   28.700; -136.000; -161.000
298.081;   13.600; -183.000;   63.000
298.219;  151.400;  -17.000;  -19.000
298.357;  106.200; -144.000;  -71.000
298.495;   58.400; -810.000; -812.000
298.634;  172.600;  245.000;  219.000
298.772;  147.800; -220.000; -338.000
298.910;  -44.400; -309.000; -182.000
299.048;   44.100; -130.000; -153.000
299.187;  -53.600; -350.000; -250.000
299.325;  104.500;   52.000;  122.000
299.463;  127.300; -389.000; -299.000
299.601;  225.900; -327.000; -271.000
299.739; -209.100; -908.000; -883.000
299.877; -146.300; -791.000; -703.000
300.016; -146.500;-1095.000; -935.000
300.154;  324.800;  -19.000; -161.000
300.292;  122.000; -428.000; -348.000
300.430;   18.100; -408.000; -291.000
300.568; -201.000; -940.000; -874.000
300.706;  -62.300; -366.000; -469.000
300.844; -150.900;-1108.000; -979.000
300.982;  277.800;  246.000;  282.000
301.120; -206.100; -965.000; -866.000
301.258; -123.800; -812.000; -705.000
301.396;  107.300;  104.000;  -41.000
301.534;  175.600; -218.000; -293.000
301.672;    4.600; -664.000; -521.000
301.810;  105.400; -613.000; -545.000
301.948;  262.200;   53.000;  149.000
302.086; 1036.300; -250.000;  -32.000
302.224; 1727.600; -610.000; -585.000
302.362;  112.900; -558.000; -622.000
302.500;  -24.600; -923.000; -893.000
302.638;  287.300;  128.000;  245.000
302.776;    7.600; -352.000; -408.000
302.913;  132.800;  447.000;  236.000
303.051;    4.800;  -86.000;  -23.000
303.189;  136.900;   90.000;  118.000
303.327;  -51.700; -341.000; -256.000
303.465;  -92.200; -832.000; -588.000
303.603; -155.400; -805.000; -604.000
303.740;  217.500;  417.000;  241.000
303.878;   53.400; -800.000; -759.000
304.016; -125.400; -915.000; -790.000
304.154; -252.800;-1123.000;-1152.000
304.291;  -37.300; -505.000; -554.000
304.429;   66.500;  102.000;   74.000
304.567; -242.900; -908.000; -893.000
304.705;  -92.200; -408.000; -515.000
304.842;  187.100; -616.000; -540.000
304.980;  119.600;  215.000;   35.000
305.118;  109.500; -367.000; -365.000
305.255; -119.200; -945.000; -927.000
305.393;  163.500;  178.000;  239.000
305.531; -192.900;-1173.000; -956.000
305.668;  -94.700; -663.000; -582.000
305.806;  188.100; -358.000; -439.000
305.943;  188.800; -629.000; -637.000
306.081;  121.500; -378.000; -267.000
306.219; -161.700; -863.000; -748.000
306.356;   54.100;  158.000;   27.000
306.494;  334.800;  981.000;  761.000
306.631;   16.100;  -11.000;  -55.000
306.769;   93.600; -613.000; -485.000
306.906;   40.200; -284.000; -258.000
307.044;  -54.400; -473.000; -488.000
307.181;  -84.500; -410.000; -332.000
307.319;  163.700;  112.000;   87.000
307.456; -327.700;-1191.000;-1153.000
307.594; -176.500; -980.000; -727.000
307.731;  -19.300; -371.000; -164.000
307.868;   64.200;  -15.000;   20.000
308.006; -229.300; -961.000; -847.000
308.143;  -69.300; -618.000; -330.000
308.281;  389.700;  -37.000; -254.000
308.418;   50.500; -748.000; -640.000
308.555; -113.000; -400.000; -250.000
308.693;  -94.500; -577.000; -573.000
308.830; -176.800; -712.000; -657.000
308.967;   20.500; -215.000;  -95.000
309.105;  -13.200; -507.000; -396.000
309.242;  152.800; -468.000; -367.000
309.379;  734.100; -577.000; -655.000
309.517;  -33.300; -936.000; -948.000
309.654; -162.800; -910.000; -734.000
309.791;  -87.500; -662.000; -580.000
309.928; -201.600; -977.000; -914.000
310.065;  427.900;  819.000;  697.000
310.203;    8.900; -825.000; -850.000
310.340;   59.500; -465.000; -321.000
310.477; -107.700; -412.000; -516.000
310.614;  -85.000; -383.000; -473.000
310.751; -110.200; -427.000; -518.000
310.889;   17.300;    1.000;   11.000
311.026; -269.600;-1161.000; -939.000
311.163;  -73.400; -386.000; -380.000
311.300;  -98.700; -512.000; -479.000
311.437;  -94.200; -658.000; -619.000
311.574; -268.100;-1226.000; -985.000
311.711;  -88.400; -595.000; -433.000
311.848;  -11.900; -380.000; -388.000
311.985;   68.100;  270.000;   93.000
312.122; -232.900; -932.000; -762.000
312.259; -194.200; -941.000; -994.000
312.396;  -89.000; -508.000; -551.000
312.533; -119.300; -812.000; -790.000
312.670; -229.000;-1070.000; -898.000
312.807;  -11.800; -352.000; -367.000
312.944;  -91.500; -513.000; -611.000
313.081;  -19.700; -150.000; -415.000
313.218; -169.200;-1111.000; -867.000
313.355;   51.900; -531.000; -449.000
313.492;   80.600; -455.000; -292.000
313.629;  341.900;  815.000;  735.000
313.766; -285.700;-1176.000;-1008.000
313.902;   18.200; -186.000;   21.000
314.039;  -44.800; -372.000; -289.000
314.176;  133.000;  286.000;  192.000
314.313; -108.000; -569.000; -473.000
314.450; -124.600; -788.000; -684.000
314.587;  -89.100; -468.000; -480.000
314.723;   45.900;  -78.000;  130.000
314.860;  118.500;  318.000;  332.000
314.997;  135.800;  223.000;  142.000
315.134;  -68.500; -385.000; -368.000
315.270;  -40.700; -480.000; -496.000
315.407; -251.300;-1094.000; -967.000
315.544;  -76.400; -657.000; -538.000
315.681;  -97.400; -681.000; -565.000
315.817;  102.600; -133.000; -176.000
315.954;   27.600; -613.000; -392.000
316.091; -231.300;-1045.000;-1023.000
316.227;  -11.600;  -71.000; -179.000
316.364;   32.200;   23.000;    6.000
316.500;  -17.900; -113.000; -300.000
316.637;  -22.500; -181.000; -302.000
316.774; -125.800; -625.000; -358.000
316.910; -143.400; -598.000; -629.000
317.047;  -98.300; -487.000; -351.000
317.183;  -58.900; -435.000; -566.000
317.320;  -42.600; -367.000; -321.000
317.456; -144.800; -733.000; -805.000
317.593; -129.300; -598.000; -641.000
317.729;   56.900;  168.000;  -67.000
317.866; -365.700;-1434.000;-1285.000
318.002; -119.500; -708.000; -948.000
318.139; -141.200; -883.000; -867.000
318.275; -174.200;-1003.000; -738.000
318.412;  -96.300; -517.000; -336.000
318.548;  -20.300; -751.000; -720.000
318.685; -176.300; -985.000; -888.000
318.821; -159.900; -762.000; -735.000
318.957;   12.000;   34.000;  -23.000
319.094;  139.900;  297.000;  154.000
319.230; -116.200; -756.000; -742.000
319.367;  259.200; -471.000; -520.000
319.503;  146.800; -538.000; -436.000
319.639; -168.100; -877.000; -793.000
319.775; -101.000; -750.000; -685.000
319.912;  -79.300; -424.000; -519.000
320.048; -191.600;-1184.000;-1184.000
320.184;  194.100;   59.000;   70.000
320.321; -102.600; -497.000; -467.000
320.457;  190.700;  475.000;  662.000
320.593; -108.600; -375.000; -382.000
320.729; -176.500; -732.000; -734.000
320.866; -130.500; -577.000; -635.000
321.002; -135.200; -759.000; -809.000
321.138;  -10.100; -135.000; -211.000
321.274;  185.700; -148.000; -115.000
321.410;  -41.800; -585.000; -353.000
321.546;  -43.100;-1011.000; -911.000
321.683;  128.900;  400.000;  185.000
321.819;   91.000;  -48.000; -117.000
321.955; -195.700; -743.000; -722.000
322.091;  -34.600; -585.000; -540.000
322.227;   -9.700; -382.000; -202.000
322.363;    6.200; -320.000; -215.000
322.499;  -80.300; -343.000; -331.000
322.635;  354.700;  636.000;  443.000
322.771;   82.800; -139.000;   12.000
322.907;  250.900;  129.000;  327.000
323.043;   14.300; -115.000; -206.000
323.179;  -39.500; -394.000; -363.000
323.315;   77.100; -401.000; -371.000
323.451;  216.900; -328.000; -236.000
323.587;  139.100;  -60.000;  -77.000
323.723;   47.900; -682.000; -601.000
323.859;  -30.600; -258.000;  -76.000
323.995;  -31.400; -467.000; -409.000
324.131; -244.200; -967.000; -892.000
324.267;  -18.600; -254.000; -276.000
324.402; -232.000; -960.000; -983.000
324.538;   32.200; -279.000; -104.000
324.674;   91.600;  164.000;   77.000
324.810;  357.400;  226.000;  308.000
324.946;   52.400; -810.000; -658.000
325.082; -111.500; -568.000; -475.000
325.217;   20.100;  -62.000;   16.000
325.353; -149.900; -764.000; -659.000
325.489; -136.500; -540.000; -506.000
325.625; -103.600; -579.000; -525.000
325.760;  138.800;  517.000;  376.000
325.896;  -42.400; -515.000; -702.000
326.032;  -80.800; -403.000; -352.000
326.168;  -63.700; -462.000; -369.000
326.303; -130.200; -352.000; -461.000
326.439;  -35.400; -336.000; -276.000
326.575;   58.800; -190.000;  -29.000
326.710;   24.000; -156.000;  -30.000
326.846;   15.500;  146.000;  103.000
326.982; -134.700; -530.000; -548.000
327.117; -111.100; -481.000; -442.000
327.253; -125.400; -745.000; -742.000
327.388; -287.200;-1137.000;-1153.000
327.524;  -61.800; -811.000; -578.000
327.659;    7.600;  -58.000;  -22.000
327.795;   -6.600;   69.000;   45.000
327.931; -165.400; -723.000; -499.000
328.066;  -18.100; -417.000; -276.000
328.202;   41.900;   12.000; -129.000
328.337;  224.100;  957.000;  713.000
328.473;   -1.200;  -12.000;  -74.000
328.608;   -8.900; -256.000; -267.000
328.743; -112.700; -799.000; -664.000
328.879;  111.900;  214.000;  114.000
329.014; -101.400; -102.000; -122.000
329.150; -127.300; -358.000; -483.000
329.285; -133.400; -465.000; -466.000
329.421;  -69.600; -548.000; -246.000
329.556;  -14.900;  -36.000;   85.000
329.691; -140.000; -633.000; -615.000
329.827; -144.500; -626.000; -480.000
329.962;   -6.100;  131.000; -301.000
330.097; -167.300; -673.000; -585.000
330.233;  -62.700; -410.000; -223.000
330.368; -221.100; -839.000; -628.000
330.503;   39.900;    3.000;   98.000
330.638;   73.600;  -93.000; -125.000
330.774;  -80.200; -609.000; -530.000
330.909;  -37.800; -434.000; -244.000
331.044; -142.300; -714.000; -708.000
331.179; -303.300;-1217.000;-1109.000
331.315;   87.700;   77.000;   20.000
331.450;   61.100;  157.000;  285.000
331.585; -118.800; -805.000; -706.000
331.720; -124.200; -510.000; -460.000
331.855;   41.100;  -35.000; -102.000
331.990;  453.300;   62.000;  138.000
332.126;  282.200; -110.000;   71.000
332.261;   -6.900; -379.000; -265.000
332.396;   30.400; -135.000; -242.000
332.531; -192.600;-1074.000;-1031.000
332.666;   98.200; -519.000; -363.000
332.801; -175.100; -726.000; -807.000
332.936;   13.800; -192.000; -122.000
333.071; -293.500; -870.000; -817.000
333.206;  107.400;  307.000;  379.000
333.341;   98.600;  344.000;  418.000
333.476; -125.000; -627.000; -623.000
333.611;  -42.500; -251.000; -173.000
333.746;  -78.500; -381.000; -464.000
333.881; -205.700; -973.000; -935.000
334.016; -232.100; -936.000; -917.000
334.151; -219.100; -746.000; -702.000
334.286;  104.900;  152.000;  186.000
334.421;   26.800; -125.000; -178.000
334.556;  -81.700; -611.000; -567.000
334.690; -111.500; -631.000; -577.000
334.825;  173.800;  381.000;   83.000
334.960;  -99.900; -285.000; -413.000
335.095;   54.600;  135.000;  -91.000
335.230; -191.200; -722.000; -738.000
335.365; -261.900;-1084.000; -990.000
335.499; -254.000;-1108.000;-1037.000
335.634;   96.900;    9.000;  534.000
335.769; -187.100; -755.000; -720.000
335.904;  -78.000; -603.000; -561.000
336.038; -103.700; -735.000; -657.000
336.173; -194.700;-1206.000;-1194.000
336.308;   26.600; -116.000; -189.000
336.443;   97.700; -544.000; -634.000
336.577; -150.700; -936.000; -787.000
336.712;  161.100;   -4.000;  -12.000
336.847;  -49.900; -724.000; -607.000
336.981;  181.600; -272.000; -208.000
337.116;  540.400;  615.000;  501.000
337.250;  322.800; -434.000; -421.000
337.385;  412.500; -297.000; -208.000
337.520;  162.600; -632.000; -603.000
337.654;  -31.800; -215.000; -126.000
337.789; -197.200; -989.000; -933.000
337.923;  -25.400; -104.000; -205.000
338.058; -130.100; -673.000; -738.000
338.192;  -28.400; -611.000; -488.000
338.327;   24.800;  -18.000; -155.000
338.461;  -84.800; -299.000; -469.000
338.596; -146.900; -780.000; -638.000
338.730; -162.000; -767.000; -803.000
338.865;  185.000;  -46.000; -140.000
338.999; -136.400; -846.000; -702.000
339.134;  -19.200; -634.000; -536.000
339.268;   24.400; -741.000; -603.000
339.403;  583.400; -740.000; -775.000
339.537;  147.000; -894.000; -820.000
339.671; -173.500; -829.000; -813.000
339.806; -157.000; -556.000; -512.000
339.940;   79.900; -261.000; -235.000
340.074; -161.100; -685.000; -510.000
340.209;  -46.700; -351.000; -230.000
340.343; -135.300; -517.000; -573.000
340.477;  353.800;  998.000; 1036.000
340.612; -107.600;-1033.000; -900.000
340.746;  228.900; -199.000; -243.000
340.880; -134.200; -924.000; -785.000
341.014;   17.900;  -45.000; -154.000
341.149; -172.200; -756.000; -718.000
341.283; -197.200; -839.000; -754.000
341.417; -160.500;-1124.000; -938.000
341.551;  279.500; -768.000; -708.000
341.685;  -24.400; -633.000; -611.000
341.820;  -49.000; -562.000; -493.000
341.954;  -88.900; -218.000; -349.000
342.088; -273.200;-1102.000;-1019.000
342.222;  118.800;  565.000;  618.000
342.356;  -62.800; -395.000; -335.000
342.490; -143.000; -880.000; -841.000
342.624;  -60.300; -339.000; -242.000
342.758;   37.200; -364.000; -312.000
342.892; -106.500; -710.000; -585.000
343.026;  -53.000;  -58.000; -116.000
343.160;  -86.900; -426.000; -376.000
343.294; -151.400; -474.000; -337.000
343.428;   -5.100; -488.000; -448.000
343.562;   -1.300; -172.000;  -23.000
343.696;   -7.400; -385.000; -314.000
343.830;   -0.800; -362.000; -356.000
343.964;   80.300; -231.000; -168.000
344.098; 1583.900;  199.000;   70.000
344.232; 1355.400; -266.000; -127.000
344.366;  167.200; -567.000; -453.000
344.500;  142.900; -665.000; -744.000
344.634;   88.000; -324.000; -164.000
344.768;   28.100; -531.000; -341.000
344.902;  114.800;  278.000;  256.000
345.035;  -91.400; -556.000; -496.000
345.169; -223.200; -933.000; -656.000
345.303;   -9.900; -308.000; -482.000
345.437; -140.200; -826.000; -717.000
345.571;  -99.300; -675.000; -594.000
345.704; -110.400; -309.000; -532.000
345.838;   38.900; -331.000; -284.000
345.972;  -42.500; -543.000; -495.000
346.106;  303.900; -179.000; -190.000
346.239;  740.300; -312.000; -243.000
346.373;   48.100; -343.000; -302.000
346.507; -243.600; -950.000; -962.000
346.640;  312.000;  -30.000;   13.000
346.774;  -80.100; -650.000; -797.000
346.908;   11.000; -138.000;  -11.000
347.041; -175.300; -646.000; -593.000
347.175;   64.000;  259.000;   27.000
347.309; -131.900; -698.000; -628.000
347.442; -145.600; -883.000; -732.000
347.576;  569.600;  670.000;  668.000
347.709;  410.700; -123.000;  -52.000
347.843; -148.900; -933.000; -825.000
347.976;  156.400;  235.000;  294.000
348.110; -323.300;-1268.000;-1186.000
348.243; -154.100; -679.000; -772.000
348.377;   27.400;  -26.000;   60.000
348.510;  158.700;  403.000;  540.000
348.644;  -32.900;  -37.000; -159.000
348.777;   78.500;  180.000;  191.000
348.911;  -46.600; -142.000; -112.000
349.044;  352.900;  471.000;  448.000
349.178;  258.600;-1069.000;-1006.000
349.311;  238.800;  141.000;  255.000
349.444;  -43.100; -927.000; -813.000
349.578;   10.900; -347.000; -200.000
349.711; -193.600; -959.000; -862.000
349.845;   45.200; -661.000; -591.000
349.978; -259.500;-1224.000;-1137.000
350.111; -125.700; -546.000; -612.000
350.244; -127.500; -596.000; -700.000
350.378;   57.100; -392.000; -393.000
350.511; -105.600; -393.000; -426.000
350.644; -182.400; -808.000; -806.000
350.778;   37.500;  168.000;  104.000
350.911;   85.000;  134.000;  140.000
351.044; -155.800; -685.000; -615.000
351.177;    7.600; -321.000; -281.000
351.310;   -0.400;    3.000; -131.000
351.444; -102.600; -888.000; -788.000
351.577;  260.200;  140.000;   90.000
351.710;  257.300;  593.000;  417.000
351.843;  -39.700; -165.000;  -77.000
351.976;   27.200;  149.000;  -79.000
352.109; -156.900; -621.000; -612.000
352.242;  -23.000; -464.000; -419.000
352.376;  -96.600; -580.000; -636.000
352.509;  361.300; -437.000; -356.000
352.642;    4.600; -654.000; -604.000
352.775;  179.300; -141.000;  -98.000
352.908; -181.000; -933.000; -904.000
353.041; -128.100; -814.000; -824.000
353.174;  -71.700; -551.000; -424.000
353.307; -109.400; -753.000; -764.000
353.440;  212.300;  541.000;  453.000
353.573; -195.500; -957.000;-1008.000
353.706;  -84.400; -384.000; -558.000
353.839;   11.200; -264.000; -220.000
353.971; -141.800; -657.000; -512.000
354.104; -131.500; -896.000; -835.000
354.237;  -26.600; -627.000; -662.000
354.370; -116.400; -846.000; -879.000
354.503; -322.400;-1231.000;-1308.000
354.636;    9.900; -529.000; -348.000
354.769; -223.700; -937.000; -860.000
354.902;   -6.200; -230.000; -139.000
355.034;   10.000; -164.000; -220.000
355.167;    1.300; -262.000; -162.000
355.300; -170.400;-1061.000; -880.000
355.433; 1679.800;  -71.000;  -14.000
355.565; 2559.000; -402.000; -384.000
355.698;  661.900; -356.000; -296.000
355.831;  -23.100; -882.000; -801.000
355.964;  190.500; -285.000; -170.000
356.096; -134.200; -856.000; -843.000
356.229;   46.600; -523.000; -530.000
356.362;  550.000; -373.000; -266.000
356.494; 1034.200; -229.000; -162.000
356.627;  930.400;  269.000;  377.000
356.760; 1206.100;  120.000;   53.000
356.892; 1617.700; -286.000; -601.000
357.025; 1307.500;  403.000;  389.000
357.157; 1122.200; -167.000; -179.000
357.290; 1112.200; -856.000; -713.000
357.423;  298.500; -667.000; -556.000
357.555;  260.300; -217.000; -228.000
357.688;  228.300; -483.000; -364.000
357.820;  754.000; -870.000; -877.000
357.953; 6336.700; -563.000; -589.000
358.085; 1357.800; -632.000; -612.000
358.218; 2178.600;-1131.000; -932.000
358.350;  422.200;  -58.000;  312.000
358.483; -195.100;-1300.000;-1187.000
358.615;    8.900;-1182.000;-1078.000
358.747;  -98.100;-1187.000;-1058.000
358.880;   57.500; -810.000; -744.000
359.012;   40.500; -376.000; -202.000
359.145;  -26.700; -480.000; -511.000
359.277;   69.300; -962.000; -913.000
359.409; 5275.800;  536.000;  231.000
359.542; 1278.600; -738.000; -688.000
359.674;  166.900;   46.000;   13.000
359.806;  -70.700; -565.000; -438.000
359.939;  -39.500; -617.000; -516.000
360.071;   -3.900; -583.000; -579.000
360.203;    9.900; -411.000; -364.000
360.335;  130.200;  164.000;  -16.000
360.468;  340.100; -249.000; -307.000
360.600; 4155.100; -547.000; -454.000
360.732; 4501.700; -546.000; -423.000
360.864;  545.800;-1216.000;-1044.000
360.996;  568.300; -516.000; -554.000
361.129;  132.000; -389.000; -598.000
361.261;  101.500;  110.000; -113.000
361.393;  -50.300; -252.000; -214.000
361.525;   89.100;   94.000;  244.000
361.657;  -81.100; -821.000; -703.000
361.789;   88.800; -139.000; -155.000
361.921;  433.200; -642.000; -593.000
362.053;  539.800;  524.000;  541.000
362.185;  173.800;  288.000;   72.000
362.318;  -82.500; -709.000; -705.000
362.450;  293.900;  294.000;  444.000
362.582;  250.800; -913.000; -870.000
362.714;   -6.700; -353.000; -332.000
362.846; -107.700; -606.000; -490.000
362.978; -264.800; -941.000; -811.000
363.109;  104.000; -161.000; -260.000
363.241;  829.900; -739.000; -749.000
363.373;  800.400; -649.000; -564.000
363.505; 1140.000; -186.000;  -91.000
363.637;  273.500; -787.000; -601.000
363.769; -224.700;-1067.000;-1080.000
363.901;  -85.200; -596.000; -654.000
364.033; -215.100;-1103.000;-1062.000
364.165;   38.100; -283.000; -283.000
364.296;  188.400; -316.000; -177.000
364.428;   86.500;-1344.000;-1220.000
364.560; -134.400; -679.000; -661.000
364.692;  -90.100; -738.000; -835.000
364.824;  535.700; -588.000; -456.000
364.955;  797.900; -402.000; -564.000
365.087; 1434.200;-1097.000; -852.000
365.219;   42.300; -686.000; -816.000
365.351; -120.100; -526.000; -572.000
365.482;  190.000;  300.000;  240.000
365.614;  -67.800; -402.000; -314.000
365.746; -123.800; -729.000; -752.000
365.877; -174.200; -706.000; -672.000
366.009;  491.900;  -35.000;  -62.000
366.141; -195.200;-1249.000;-1134.000
366.272; -174.200; -803.000; -719.000
366.404; -222.400;-1005.000; -874.000
366.535;   37.200; -139.000;  -12.000
366.667; -160.900; -644.000; -649.000
366.799;  158.600;  353.000;  203.000
366.930; -185.200; -862.000; -996.000
367.062;  250.200; -639.000; -613.000
367.193;  256.000; -872.000; -842.000
367.325;  -99.400; -580.000; -684.000
367.456;  172.300; -246.000;   31.000
367.588;  335.100; -371.000; -318.000
367.719;   66.200;  -44.000;  -45.000
367.851;   26.900; -222.000; -241.000
367.982;  -62.500; -875.000; -732.000
368.113;  220.400; -475.000; -358.000
368.245; -201.600; -960.000; -841.000
368.376;   47.800; -254.000; -302.000
368.508;   13.300; -188.000; -263.000
368.639; -231.500;-1166.000;-1034.000
368.770;  -28.800; -670.000; -589.000
368.902;  -86.700; -836.000; -926.000
369.033; -157.800; -906.000; -855.000
369.164;  -71.600; -720.000; -653.000
369.296; -172.500; -452.000; -601.000
369.427;   64.600; -209.000; -144.000
369.558;  -47.700; -593.000; -377.000
369.689; -130.400; -721.000; -569.000
369.821; -240.400; -951.000; -845.000
369.952;    9.300;   42.000; -108.000
370.083;  -53.600; -229.000; -108.000
370.214; -121.000; -735.000; -650.000
370.345;   46.700;   65.000;   81.000
370.477; -122.500; -810.000; -790.000
370.608;  432.400; -328.000; -264.000
370.739;  -75.400;-1233.000;-1292.000
370.870;  -78.000;-1102.000; -923.000
371.001;  215.600; -378.000; -467.000
371.132; -102.900; -754.000; -735.000
371.263;   32.300;  -42.000; -148.000
371.394; -202.900; -841.000; -748.000
371.525;  113.100;  345.000;  225.000
371.657; -160.200; -808.000; -670.000
371.788;  189.200;  103.000;  199.000
371.919;  363.100; -384.000; -304.000
372.050; 6517.200;  -91.000; -156.000
372.181; 1866.200; -188.000; -294.000
372.311;  720.000;   42.000; -127.000
372.442;   67.300; -457.000; -451.000
372.573;    2.500; -444.000; -340.000
372.704; -205.000;-1008.000; -980.000
372.835;  202.800; -228.000; -289.000
372.966; -103.800; -646.000; -554.000
373.097;  -86.200; -575.000; -711.000
373.228;  -61.000; -717.000; -542.000
373.359;  262.700; -824.000; -536.000
373.490; 1707.000; -881.000; -727.000
373.620; 2012.500;-1001.000; -803.000
373.751; 3220.500; -332.000; -396.000
373.882; 1357.800; -663.000; -733.000
374.013;  144.900; -449.000; -262.000
374.143;  -21.500; -581.000; -659.000
374.274; -177.500; -987.000; -908.000
374.405;  368.400; -388.000; -276.000
374.536;  883.700; -526.000; -387.000
374.666; 2027.300; -759.000; -807.000
374.797;  438.600; -817.000; -868.000
374.928; 1574.000; -710.000; -560.000
375.058; 1592.600; -535.000; -500.000
375.189;  198.500;  -59.000;  -93.000
375.320; -172.300; -928.000;-1034.000
375.450;  -54.100; -625.000; -616.000
375.581;  -76.800; -526.000; -436.000
375.712;  -16.700; -574.000; -250.000
375.842;  604.300; -438.000; -415.000
375.973;  416.800; -554.000; -513.000
376.103;  -41.000; -665.000; -648.000
376.234;  -83.300; -531.000; -552.000
376.364;  -43.800; -944.000; -867.000
376.495;  665.700;  925.000;  529.000
376.625;   23.200; -472.000; -485.000
376.756;  157.200; -709.000; -678.000
376.886; -129.000;-1178.000;-1026.000
377.017;  117.200;-1048.000;-1061.000
377.147;  599.300; -786.000; -782.000
377.278;  167.300;  174.000;  228.000
377.408; -208.600; -801.000; -815.000
377.538; -162.000; -707.000; -693.000
377.669; -132.400; -537.000; -613.000
377.799; -107.500; -645.000; -635.000
377.929;  -79.100; -610.000; -428.000
378.060; -195.500; -781.000; -847.000
378.190;  -69.700; -726.000; -531.000
378.320;  -55.900; -401.000; -406.000
378.451;   55.300; -131.000;  -22.000
378.581;   50.200;  -67.000; -110.000
378.711;  398.800; 1035.000;  866.000
378.841;   26.000; -533.000; -675.000
378.972; -117.300; -871.000; -751.000
379.102;   53.200; -652.000; -579.000
379.232;   -5.600; -126.000;  -73.000
379.362; -167.300;-1001.000; -885.000
379.492;   70.700; -373.000; -424.000
379.623;  270.800;    0.000;  111.000
379.753; -154.900;-1107.000; -974.000
379.883;  444.800;   59.000;  156.000
380.013;    4.700;-1081.000;-1017.000
380.143; -160.500;-1097.000;-1056.000
380.273; -155.000; -985.000; -861.000
380.403;   72.100; -344.000; -257.000
380.533;  -34.900; -651.000; -664.000
380.663;  221.500;  173.000;  128.000
380.793; -168.500;-1027.000;-1074.000
380.923;   25.500; -103.000;  -34.000
381.053; -134.400; -613.000; -623.000
381.183;   23.800; -106.000; -248.000
381.313;  127.600; -656.000; -470.000
381.443;  102.700; -692.000; -473.000
381.573;  397.100; -402.000; -409.000
381.703;  532.100;-1249.000;-1095.000
381.833; -224.700;-1454.000;-1336.000
381.963;  249.400; -134.000;  -87.000
382.093; 2492.000; -925.000; -909.000
382.223;  720.400; -713.000; -602.000
382.353;   12.300; -801.000; -608.000
382.482;  723.600;-1091.000; -964.000
382.612; 1426.000; -872.000; -644.000
382.742;  810.100; -695.000; -622.000
382.872;  506.700; -565.000; -551.000
383.002;  208.200;  347.000; -132.000
383.131;   15.600; -226.000; -160.000
383.261;  -21.800; -706.000; -768.000
383.391;  505.800; -552.000; -377.000
383.521; 5194.300;  451.000;  263.000
383.650; 1102.800; -947.000; -904.000
383.780;   29.400; -783.000; -656.000
383.910;  309.100;  880.000;  802.000
384.039;  114.900; -794.000; -656.000
384.169;  407.700;-1205.000;-1017.000
384.299;   21.300; -650.000; -662.000
384.428; -115.900; -764.000; -680.000
384.558;    2.300; -308.000; -275.000
384.687;    8.000; -414.000; -334.000
384.817;  107.300;   75.000;   -2.000
384.947;  118.100; -234.000; -141.000
385.076;  657.900;  982.000;  912.000
385.206;  296.900;  369.000;  480.000
385.335;    8.400; -549.000; -417.000
385.465; -110.000; -655.000; -663.000
385.594;  349.800;  -53.000;  -44.000
385.724;  816.700; -868.000; -838.000
385.853;  247.800; -296.000; -270.000
385.982; 2537.900; -743.000; -787.000
386.112; 3714.700;-1052.000; -871.000
386.241;  302.400; -307.000; -312.000
386.371;   40.700; -174.000;  -87.000
386.500;   37.600; -825.000; -789.000
386.629;  124.400; -874.000; -817.000
386.759;  192.000;  -43.000;   68.000
386.888;  115.900; -170.000; -250.000
387.017;  -68.300; -648.000; -620.000
387.147;  -93.000; -771.000; -798.000
387.276;   78.000; -410.000; -397.000
387.405;   98.200; -398.000; -342.000
387.535;  -24.300; -452.000; -361.000
387.664;  -73.800; -692.000; -620.000
387.793;  160.200; -198.000; -113.000
387.922; 1024.700;  255.000;  200.000
388.052;   90.200; -576.000; -423.000
388.181;  129.300; -342.000; -472.000
388.310;  114.300; -889.000; -710.000
388.439;   -1.500; -749.000; -742.000
388.568;  442.900;  365.000;  244.000
388.697; 1899.200; -756.000; -653.000
388.826;  363.700; -768.000; -666.000
388.956;  144.600; -285.000; -307.000
389.085;   -1.800; -347.000; -287.000
389.214; -141.600; -842.000; -872.000
389.343;  -74.500; -645.000; -413.000
389.472;  778.200;  126.000;  149.000
389.601;  950.700;   91.000;    0.000
389.730;   51.500; -568.000; -687.000
389.859;  193.100;  226.000;   46.000
389.988;  387.400; -423.000; -408.000
390.117;  283.100; -168.000; -146.000
390.246;   41.500; -331.000; -320.000
390.375;  259.700; -673.000; -626.000
390.504;  -53.800; -703.000; -621.000
390.633; -151.800; -672.000; -726.000
390.761;  -84.800; -732.000; -645.000
390.890;  121.600;   -4.000; -130.000
391.019;    1.300; -421.000; -441.000
391.148; -181.800; -826.000; -855.000
391.277;  -80.100; -576.000; -493.000
391.406;  -92.200; -821.000; -805.000
391.534;  153.300;  574.000; -301.000
391.663;  -76.800; -583.000; -645.000
391.792; -116.900; -673.000; -701.000
391.921;  230.200;   -3.000;   15.000
392.050;  398.900; -287.000; -228.000
392.178;  -55.700;-1206.000;-1061.000
392.307;  272.800; -758.000; -712.000
392.436;  112.100; -427.000; -641.000
392.564;   68.800;  166.000;   -6.000
392.693; -120.700; -860.000; -682.000
392.822;  445.100; -529.000; -534.000
392.950;  166.000; -880.000; -714.000
393.079;  640.400; -188.000; -328.000
393.208;   90.900; -488.000; -511.000
393.336;   33.100; -170.000; -145.000
393.465;  -19.900; -317.000; -199.000
393.593;   46.300;   62.000;   79.000
393.722; -273.400;-1121.000; -916.000
393.850;   12.300; -188.000;  -61.000
393.979; -255.400; -926.000; -805.000
394.107;  -58.100; -517.000; -537.000
394.236;    2.100; -570.000; -507.000
394.364;  524.500;  383.000;  206.000
394.493;  772.100; -911.000; -767.000
394.621;    8.500; -955.000; -916.000
394.750; 1198.500; -873.000; -923.000
394.878; 5202.900; -247.000; -149.000
395.007; 6631.200; -721.000; -807.000
395.135;  497.600; -790.000; -721.000
395.263; -154.600;-1038.000;-1040.000
395.392;   94.500;  -25.000; -107.000
395.520; -172.100; -818.000; -679.000
395.648; -109.400; -865.000; -915.000
395.777;  -14.400; -366.000; -405.000
395.905;  -62.300; -449.000; -564.000
396.033;   97.600;  217.000;  172.000
396.162; 1309.300; -399.000; -453.000
396.290; 1121.100;  -17.000;   -2.000
396.418;  244.400; -555.000; -514.000
396.546; -107.300; -571.000; -466.000
396.674; -140.000; -850.000; -878.000
396.803;   52.100;  -72.000;  -23.000
396.931;  255.900; -179.000; -199.000
397.059;  107.200;-1026.000; -989.000
397.187; -163.300;-1026.000; -975.000
397.315; -217.800; -884.000; -649.000
397.443; -133.000; -592.000; -443.000
397.572; -134.200; -578.000; -424.000
397.700;   24.600; -607.000; -614.000
397.828;   58.900;  120.000;  -90.000
397.956;  -60.900; -508.000; -478.000
398.084;  -87.100; -767.000; -626.000
398.212;  157.300;  137.000;  124.000
398.340;   87.100;  -56.000;  159.000
398.468;  133.800; -390.000; -169.000
398.596; -246.100; -993.000; -953.000
398.724; -172.600; -762.000; -767.000
398.852; -271.400;-1024.000; -976.000
398.980;  -53.700; -560.000; -560.000
399.108;  -76.200; -982.000; -735.000
399.236;  112.000;   13.000;    8.000
399.363;   86.400;  222.000;  196.000
399.491;  -82.700; -404.000; -398.000
399.619; -178.700; -829.000; -800.000
399.747; -147.400; -859.000; -771.000
399.875;  195.200;  220.000;  234.000
400.003;  -60.200; -359.000; -284.000
400.130; -113.100; -421.000; -341.000
400.258;   16.200;  -83.000;   38.000
400.386;  -65.100; -352.000; -168.000
400.514;  -38.000; -526.000; -587.000
400.641; -143.900; -928.000; -802.000
400.769; -205.300; -979.000; -888.000
400.897; -150.900; -838.000; -793.000
401.025;   25.200; -166.000; -152.000
401.152;   75.400;  220.000;   38.000
401.280; -103.100; -430.000; -429.000
401.408; -184.800; -712.000; -576.000
401.535; -171.300; -735.000; -758.000
401.663; -335.400;-1134.000;-1054.000
401.790; -118.200; -514.000; -525.000
401.918;  139.800;  436.000;  405.000
402.046;   54.600;  134.000;  122.000
402.173;   -2.300;  -18.000;    7.000
402.301;  -36.100; -519.000; -397.000
402.428;  146.300;  528.000;  383.000
402.556; -208.000;-1188.000; -913.000
402.683;    3.500;  -20.000;   -1.000
402.811;   43.300;  -37.000; -206.000
402.938;   34.700;   20.000;   27.000
403.066;  379.000; -574.000; -558.000
403.193;  606.100;  299.000;  239.000
403.321;  473.700; -396.000; -574.000
403.448;  593.900;   83.000;   27.000
403.575;  300.200;  -90.000;  -46.000
403.703; -179.500; -732.000; -557.000
403.830;  -67.700; -531.000; -496.000
403.957; -252.500;-1117.000;-1023.000
404.085;   99.400;  -61.000; -172.000
404.212;  242.000;  -50.000;   63.000
404.339;  513.100; -566.000; -306.000
404.467;10117.100; -612.000; -524.000
404.594; 6461.400; -287.000; -227.000
404.721; 1465.300; -869.000; -764.000
404.848;  261.600; -113.000; -202.000
404.976; -174.500; -856.000; -783.000
405.103;   59.300;  -14.000;  -82.000
405.230;   82.900;  190.000;  226.000
405.357;  128.300;  117.000;   44.000
405.484;  530.200;  -49.000;    5.000
405.612;   91.600; -548.000; -563.000
405.739;  -67.900; -488.000; -243.000
405.866;  265.900;  669.000;  385.000
405.993;  -58.200; -398.000; -102.000
406.120; -199.600; -801.000; -887.000
406.247;  -34.500; -323.000; -342.000
406.374;  967.100;  540.000;  629.000
406.501;  206.600; -632.000; -702.000
406.628;  -79.600; -621.000; -589.000
406.755; -136.300; -803.000; -620.000
406.882;   14.100; -228.000; -277.000
407.009; -138.500; -719.000; -628.000
407.136;  153.600; -480.000; -401.000
407.263;  276.700; -939.000; -829.000
407.390;  -81.200; -692.000; -614.000
407.517; -276.600;-1139.000;-1187.000
407.644;  -58.700; -332.000; -256.000
407.771;  -96.700; -249.000; -287.000
407.898;  118.600;  168.000;  328.000
408.025;  -65.700; -421.000; -313.000
408.151;   82.400;   82.000;  153.000
408.278;  -95.500; -267.000; -216.000
408.405; -161.300; -931.000; -899.000
408.532;  -97.800; -549.000; -542.000
408.659; -158.700; -677.000; -648.000
408.785; -350.000;-1298.000;-1170.000
408.912;  -56.500; -412.000; -296.000
409.039; -174.200; -610.000; -686.000
409.166; -132.700; -591.000; -555.000
409.292; -165.600; -571.000; -534.000
409.419; -163.500; -665.000; -649.000
409.546; -104.400; -431.000; -192.000
409.672; -147.500; -713.000; -545.000
409.799;   18.100;  -36.000;   34.000
409.926;  -17.700; -180.000; -179.000
410.052; -306.000;-1127.000;-1091.000
410.179;  -38.300; -368.000; -392.000
410.305; -105.600; -375.000; -493.000
410.432;    2.200; -220.000; -333.000
410.558; -132.300; -305.000; -380.000
410.685; -142.200; -688.000; -431.000
410.812; -136.200; -409.000; -588.000
410.938; -217.700; -964.000; -808.000
411.065; -140.700; -671.000; -645.000
411.191;   31.200; -189.000; -174.000
411.317; -178.800; -823.000; -742.000
411.444;  -79.400; -317.000; -246.000
411.570;  -66.700; -339.000; -294.000
411.697; -171.700; -758.000; -752.000
411.823; -299.500; -989.000; -999.000
411.949;   14.900;  -56.000;   17.000
412.076; -162.700; -539.000; -519.000
412.202; -196.700; -758.000; -757.000
412.329; -206.500; -798.000; -752.000
412.455; -156.100; -821.000; -657.000
412.581;   29.400;  -15.000;  172.000
412.707;  -76.700; -540.000; -457.000
412.834;  109.700;  156.000;  219.000
412.960; -115.200; -785.000; -784.000
413.086; -173.700; -743.000; -701.000
413.212;  401.000;  604.000;  578.000
413.339;  -98.200; -685.000; -701.000
413.465;   71.000; -364.000; -310.000
413.591; -144.800; -757.000; -474.000
413.717;  -43.600; -358.000; -366.000
413.843; -213.500; -839.000; -861.000
413.969;  -52.400;  -47.000; -292.000
414.096; -169.700; -679.000; -679.000
414.222;   48.300;  -33.000;   85.000
414.348;   -7.700; -652.000; -385.000
414.474;  252.900;   38.000;  -52.000
414.600;   52.700; -126.000; -144.000
414.726;   51.200;  -96.000;  -55.000
414.852;  -51.600; -365.000; -342.000
414.978;  157.200;  104.000;  -18.000
415.104;  140.800;   38.000;   80.000
415.230;  111.600; -329.000; -330.000
415.356;  121.500; -409.000; -514.000
415.482;  456.400;   13.000;  -35.000
415.608;  554.800; -247.000; -323.000
415.734; 1823.000;   67.000;   38.000
415.860;36838.000; -875.000; -767.000
415.986;24020.700; -685.000; -607.000
416.111; 1977.200; -798.000; -652.000
416.237;  479.300; -424.000; -571.000
416.363; 2156.800; -765.000; -733.000
416.489; 7145.600; -324.000; -251.000
416.615;  689.100; -707.000; -742.000
416.741;  -30.200; -677.000; -784.000
416.866; -139.300; -673.000; -736.000
416.992; -200.800; -801.000; -818.000
417.118;   28.100;  -41.000;  -80.000
417.244;  -62.000; -798.000; -531.000
417.369;  -96.000; -801.000; -612.000
417.495;   82.100; -325.000; -254.000
417.621; -130.300;-1015.000; -803.000
417.746;   31.100; -579.000; -572.000
417.872;  100.400; -254.000; -144.000
417.998;   87.200; -515.000; -530.000
418.123; 1986.300;-1073.000; -845.000
418.249; 9314.200; -512.000; -601.000
418.374; 1169.400; -916.000; -824.000
418.500;  249.300; -383.000; -482.000
418.626;  220.400;   70.000;  -59.000
418.751;  269.700; -549.000; -448.000
418.877;  388.200; -637.000; -643.000
419.002; 3442.300; -688.000; -560.000
419.128;21807.700; -930.000; -721.000
419.253; 4715.600; -967.000; -837.000
419.379;  719.200; -391.000; -338.000
419.504;  752.200;  325.000;  415.000
419.629;  893.300; -393.000; -212.000
419.755; 6705.100; -317.000; -254.000
419.880;35158.700;  -98.000;   67.000
420.006;20190.900; -280.000; -221.000
420.131;49680.400; -662.000; -775.000
420.256; 6593.600; -315.000; -316.000
420.382;  887.300; -665.000; -687.000
420.507;  146.500; -649.000; -778.000
420.632;  319.700; -337.000; -339.000
420.758;  518.300; -251.000; -425.000
420.883; -128.000; -876.000; -672.000
421.008; -137.200; -775.000; -619.000
421.133; -122.200; -509.000; -467.000
421.259;  -11.000; -325.000; -259.000
421.384; -174.800; -834.000; -693.000
421.509;  -46.300;-1052.000; -862.000
421.634; 2285.100; -936.000; -820.000
421.759;  885.300; -359.000; -327.000
421.885;  -72.800; -717.000; -656.000
422.010;  -82.000; -673.000; -542.000
422.135; -223.300; -695.000; -727.000
422.260;  147.500;  340.000;  280.000
422.385;  -16.900;   12.000;  -98.000
422.510;   67.300;  151.000;  -26.000
422.635;  109.300;  -87.000;  -43.000
422.760;  196.800; -766.000; -791.000
422.885;  150.500;  -57.000;  -80.000
423.010;   29.900; -112.000; -169.000
423.135; -146.200; -481.000; -561.000
423.260;   28.100; -150.000; -245.000
423.385;  209.300;  476.000;  222.000
423.510;  140.600;   71.000;  -22.000
423.635;  196.700;  133.000;   45.000
423.760;  192.300;  383.000;  328.000
423.885;  181.100;  336.000;  391.000
424.010;   53.200;  -68.000;  -13.000
424.135;    3.800;    5.000;  -33.000
424.259; -106.300; -654.000; -457.000
424.384;  -68.500; -279.000; -272.000
424.509;   51.500; -260.000; -186.000
424.634; -158.300; -761.000; -623.000
424.759;   35.900; -688.000; -544.000
424.883;   11.600; -506.000; -527.000
425.008;  367.700; -502.000; -410.000
425.133; 3564.700; -679.000; -653.000
425.258; 1489.800; -517.000; -381.000
425.382; 1927.200; -867.000; -774.000
425.507; 4458.700; -487.000; -543.000
425.632;  665.600; -802.000; -663.000
425.756;  810.200; -256.000; -146.000
425.881;11697.200; -831.000; -857.000
426.006;28243.400; -604.000; -355.000
426.130; 4097.200; -696.000; -508.000
426.255;  588.400; -611.000; -491.000
426.379;  296.200; -189.000; -577.000
426.504;  792.200;  660.000;  544.000
426.629; 7515.700; -519.000; -466.000
426.753; 4647.900;   64.000;  -46.000
426.878;  552.100; -252.000; -288.000
427.002;  277.600; -651.000; -668.000
427.127; 3071.700;  -35.000; -158.000
427.251;19966.300;  372.000;  401.000
427.375; 5038.400; -191.000; -173.000
427.500; 4002.800; -616.000; -610.000
427.624; 1262.700; -234.000; -400.000
427.749;  249.000; -216.000; -225.000
427.873;   -7.200; -499.000; -412.000
427.997;   -0.200; -222.000; -230.000
428.122;  259.700;  795.000;  703.000
428.246;  239.000;  433.000;  434.000
428.371; -205.800; -869.000; -773.000
428.495; -106.800; -624.000; -646.000
428.619;   14.300; -186.000; -117.000
428.743;  109.800;   65.000;  132.000
428.868;   60.800; -732.000; -643.000
428.992; 2557.800; -219.000; -326.000
429.116;  988.400; -329.000; -357.000
429.240;  547.600;  419.000;  426.000
429.365;   37.700; -454.000; -574.000
429.489;  -41.100; -638.000; -647.000
429.613;  121.500; -236.000; -177.000
429.737;  148.300; -563.000; -432.000
429.861;  549.000; -247.000; -133.000
429.985;10276.800; -425.000; -305.000
430.109;10051.600; -770.000; -908.000
430.234; 1239.100;   76.000;  -50.000
430.358;  162.000; -250.000; -160.000
430.482;  -44.600; -672.000; -564.000
430.606;  -65.600; -655.000; -375.000
430.730;  126.300; -437.000; -388.000
430.854;  279.700; -909.000; -835.000
430.978;  -57.600; -795.000; -764.000
431.102; -109.200; -499.000; -422.000
431.226; -100.500; -874.000; -815.000
431.350;  145.100;  345.000;  422.000
431.474;  -94.000; -661.000; -373.000
431.597; -266.200;-1060.000; -848.000
431.721;  -85.500; -276.000; -267.000
431.845; -224.000; -704.000; -472.000
431.969;  -60.600; -304.000; -349.000
432.093; -125.500; -395.000; -317.000
432.217;   32.100;   32.000;   82.000
432.341; -127.900; -523.000; -518.000
432.464;  108.000;   96.000;   40.000
432.588;  470.500; -401.000; -329.000
432.712;  236.100;  -52.000;  -52.000
432.836;  158.900;  213.000;  263.000
432.959;   39.500; -372.000; -311.000
433.083;  196.600;   11.000;    2.000
433.207;  746.000;  285.000;  930.000
433.330; 9390.500; -391.000; -200.000
433.454;10142.700; -654.000; -638.000
433.578; 6192.700;  583.000;  278.000
433.701; 1006.600; -623.000; -675.000
433.825;  298.900; -292.000; -299.000
433.949;  448.200;   28.000;  -72.000
434.072;  157.500; -410.000; -323.000
434.196;   49.200; -309.000; -117.000
434.319; 7884.100;25482.000;25124.000
434.443; 1487.200; -656.000; -603.000
434.566; 4568.800;  281.000;   62.000
434.690;  693.800; -637.000; -383.000
434.813;  123.800; -251.000; -173.000
434.937;  -76.100; -569.000; -696.000
435.060;  -24.500; -423.000; -332.000
435.184;  686.900; -492.000; -217.000
435.307;  351.400;  159.000;  102.000
435.431;   59.600;  -40.000;   24.000
435.554;  -76.900; -399.000; -240.000
435.677;  -85.600; -350.000; -258.000
435.801;   -9.700;  -25.000;   49.000
435.924;   41.100;    1.000;  -67.000
436.048; -171.000;-1019.000; -732.000
436.171;  -53.300; -240.000;  -66.000
436.294;   -7.500; -248.000; -229.000
436.417;  203.900; -963.000; -849.000
436.541; -147.000; -814.000; -840.000
436.664;  -22.700; -242.000; -316.000
436.787;   22.700;   13.000;  113.000
436.910; -136.300; -792.000; -422.000
437.034;   89.300;  142.000;  143.000
437.157;  189.300;  -11.000;    0.000
437.280;  -34.800; -392.000; -292.000
437.403; -100.900; -982.000; -869.000
437.526; 1299.600; -903.000; -865.000
437.649; 4286.100; -505.000; -332.000
437.772;  552.700; -692.000; -540.000
437.896;  309.700;  700.000;  544.000
438.019; -109.500; -758.000; -503.000
438.142;  -80.900; -596.000; -506.000
438.265;   36.200; -639.000; -670.000
438.388; 1121.800; -520.000; -410.000
438.511;  233.700; -597.000; -394.000
438.634;   -2.800; -247.000; -125.000
438.757; -207.200; -693.000; -619.000
438.880;    7.800;  -34.000;  -57.000
439.003;  -88.200; -417.000; -437.000
439.126;  -76.100; -287.000; -167.000
439.248;  -50.300;  -98.000; -139.000
439.371;    6.600;    9.000;  -53.000
439.494;  157.200;  510.000;  439.000
439.617;  -33.700;   65.000;  -88.000
439.740; -311.200; -968.000; -816.000
439.863; -224.200; -755.000; -595.000
439.986; -203.700; -476.000; -431.000
440.108;  -13.000; -161.000; -112.000
440.231; -282.700; -950.000; -836.000
440.354;  -26.700;  -64.000; -150.000
440.477;  125.200; -566.000; -542.000
440.599;   61.300; -200.000; -225.000
440.722; -195.200; -709.000; -586.000
440.845;  225.000;  751.000;  928.000
440.968; -142.100; -415.000; -311.000
441.090;  -42.500; -199.000;  -33.000
441.213; -299.200;-1021.000; -825.000
441.336;  -23.000; -159.000;   -5.000
441.458; -123.000; -549.000; -396.000
441.581; -133.700; -628.000; -629.000
441.703;  -34.600; -152.000;   13.000
441.826; -167.900; -557.000; -400.000
441.948;   -1.700;   56.000;   51.000
442.071;  145.000;  555.000;  424.000
442.193; -173.900; -531.000; -485.000
442.316;  136.600;  152.000;   97.000
442.438;  141.200; -233.000;  -10.000
442.561;  250.800;  272.000;  262.000
442.683; 1110.800; -809.000; -522.000
442.806; 2156.400;   -8.000;   74.000
442.928;   36.500; -859.000; -604.000
443.051;  -72.800; -577.000; -373.000
443.173; -130.400; -341.000; -339.000
443.295; -124.000; -263.000; -371.000
443.418;  -86.900; -321.000;  -29.000
443.540;   17.400; -106.000;   -4.000
443.662; -193.000; -563.000; -465.000
443.785;   47.900;  335.000;  199.000
443.907; -169.600; -362.000; -208.000
444.029; -163.500; -767.000; -494.000
444.152; -249.300; -644.000; -554.000
444.274;  -14.900;  -18.000;  -24.000
444.396; -189.600; -461.000; -221.000
444.518; -214.300; -691.000; -454.000
444.640; -177.600; -268.000; -111.000
444.763;   26.400;  388.000;  249.000
444.885; -159.000; -432.000; -392.000
445.007;   49.900;   35.000;   86.000
445.129; -164.800; -610.000; -515.000
445.251; -157.100; -372.000; -439.000
445.373; -237.600; -537.000; -386.000
445.495;   86.400;  242.000;  350.000
445.617;  174.900;  853.000;  753.000
445.739;  -72.000; -215.000;  -97.000
445.861;  -21.200; -245.000; -112.000
445.984;  -24.500; -267.000; -101.000
446.105;  475.100; -418.000; -251.000
446.227; 1143.400; -176.000;  -19.000
446.349;   26.200; -358.000; -249.000
446.471; -154.000; -615.000; -448.000
446.593;  -47.200; -316.000;   19.000
446.715;   78.900;  -67.000;   41.000
446.837;  239.400;  697.000;  832.000
446.959; -125.900; -457.000; -478.000
447.081; -193.500; -628.000; -518.000
447.203;  179.200;  862.000;  834.000
447.325; -114.100; -270.000;   42.000
447.446;   77.600;  286.000;  530.000
447.568; -240.700; -921.000; -803.000
447.690;  -67.900; -236.000; -245.000
447.812; -246.200; -798.000; -519.000
447.933;   19.300;  155.000;  127.000
448.055;  -78.100; -306.000; -261.000
448.177;  367.000;   31.000;   79.000
448.299;  128.400; -935.000; -727.000
448.420;   87.200;  -25.000;  159.000
448.542;  -20.000;   -3.000;   33.000
448.664;   56.800;  109.000;  322.000
448.785;  -46.300;  265.000;   83.000
448.907;  -96.800; -614.000; -353.000
449.028;  -37.700; -771.000; -471.000
449.150;  225.300;  492.000;  589.000
449.272; -315.800;-1044.000; -913.000
449.393;  147.900;  612.000;  694.000
449.515; -221.200; -634.000; -581.000
449.636;  -48.300; -264.000; -155.000
449.758;  197.600;  763.000;  622.000
449.879;  -98.800; -498.000; -396.000
450.001;  -95.600; -149.000;  -49.000
450.122;   43.900;  -95.000;  162.000
450.244;  -10.300;   37.000;  364.000
450.365; -107.000; -495.000; -301.000
450.486;   13.000;   80.000;  268.000
450.608;  104.200;  393.000;  326.000
450.729;  187.000;  578.000;  645.000
450.850;   61.600; -574.000; -466.000
450.972; 1411.900; -552.000; -389.000
451.093; 8562.300;  190.000;  588.000
451.214; 3188.200; -516.000; -337.000
451.336;  699.800;  773.000;  579.000
451.457;  157.300;  264.000;  393.000
451.578;  -13.200; -118.000;  -74.000
451.699; -196.100; -546.000; -540.000
451.821;  -41.400; -284.000;  -50.000
451.942;   47.400;  278.000;  285.000
452.063;  154.200;  228.000;  419.000
452.184; 1095.500;  -54.000;  -49.000
452.305; 1914.700;  103.000;  170.000
452.427;  213.500; -549.000; -301.000
452.548;   59.600;   23.000;   79.000
452.669;  -44.500; -257.000;  -89.000
452.790;  -15.500;    3.000;  -18.000
452.911;   42.500;  195.000;  259.000
453.032;  -40.000; -289.000;  -60.000
453.153;  -31.700;  -29.000;   81.000
453.274;  213.300;  737.000;  868.000
453.395;  -39.000;  -51.000;  175.000
453.516;  360.800; 1317.000; 1388.000
453.637;  -75.500; -205.000; -150.000
453.758;  -13.300;   15.000;   69.000
453.879; -189.400; -462.000; -250.000
454.000;  260.700; 1086.000;  948.000
454.121; -161.200; -554.000; -326.000
454.242; -150.000; -599.000; -383.000
454.362;  -28.500;  -99.000;  114.000
454.483;   14.100; -309.000; -229.000
454.604;  176.800;  512.000;  580.000
454.725; -188.700; -627.000; -555.000
454.846; -189.100; -474.000; -406.000
454.967;   45.700;  230.000;  539.000
455.087;   12.300;  179.000;  153.000
455.208;  105.300;  554.000;  856.000
455.329;  -59.800;  -22.000;   82.000
455.450;  149.200;  473.000;  633.000
455.570;  -93.700; -234.000; -211.000
455.691;   -9.500;  201.000;  407.000
455.812; -150.200; -270.000;  -92.000
455.932;  -73.000;  107.000;  -97.000
456.053; -106.200;   36.000;   24.000
456.173; -170.300; -433.000; -355.000
456.294; -221.000; -476.000; -303.000
456.415;  -46.500;  -73.000;   70.000
456.535;   -9.600;  297.000;  273.000
456.656;   -5.800;  132.000;  240.000
456.776;  -70.300;    3.000;  298.000
456.897;   76.400;  308.000;  513.000
457.017;  -65.800; -153.000;   -3.000
457.138; -184.900; -402.000; -249.000
457.258;   28.600;  263.000;  224.000
457.379;   24.200;  509.000;  521.000
457.499;    3.000;  443.000;  432.000
457.620; -177.500; -407.000; -231.000
457.740; -114.600; -132.000;  -11.000
457.860;  -47.000;   87.000;   44.000
457.981;  -35.900;  132.000;  124.000
458.101;  -75.300;  -89.000;   40.000
458.221;   43.000;  336.000;  402.000
458.342;  -42.300;   -4.000;  -37.000
458.462;   99.600;  617.000;  352.000
458.582;   -5.700; -302.000; -294.000
458.703;   45.300;  303.000;  154.000
458.823;   24.500;   22.000;  163.000
458.943;   88.000;  341.000;  467.000
459.063;   34.500; 1124.000;  192.000
459.183;   15.100;  328.000;  313.000
459.304;  108.800;  315.000;  517.000
459.424;  -51.800; -246.000;  -89.000
459.544;  714.000;  388.000;  764.000
459.664; 1521.600;  499.000;  506.000
459.784;  581.000; 1004.000; 1175.000
459.904;  145.000;  867.000;  744.000
460.024;  202.800;  867.000;  684.000
460.144;   87.900;  449.000;  554.000
460.264;   69.900;  515.000;  327.000
460.385; -146.800; -145.000; -119.000
460.505;  156.400;  905.000;  858.000
460.625; -115.800;  -17.000;  -68.000
460.745;   32.700;  396.000;  541.000
460.864;  -51.200;  153.000;  469.000
460.984;  119.200;  499.000;  573.000
461.104;  345.300; 1656.000; 1775.000
461.224;  123.500;  657.000;  650.000
461.344;    9.000;  431.000;  360.000
461.464;    1.300;  258.000;  513.000
461.584;   20.100;  283.000;  466.000
461.704;   -8.200;   58.000;  108.000
461.824;  -41.800;  238.000;  259.000
461.943;   -1.000;  191.000;  130.000
462.063;  -84.300;    2.000;  324.000
462.183;  168.900;  639.000;  717.000
462.303;  269.400; 1678.000; 1230.000
462.422;  167.600;  781.000;  840.000
462.542;   18.600;  271.000;  391.000
462.662;  156.000;  353.000;  380.000
462.782;  512.500;  833.000;  572.000
462.901;  886.900;  545.000;  717.000
463.021;  584.000; 1702.000; 1638.000
463.141;   72.300;  337.000;  770.000
463.260;   32.100;  614.000;  474.000
463.380;  109.900;  902.000;  884.000
463.499;  -10.800;  342.000;  332.000
463.619;   15.800;  581.000;  559.000
463.738;  305.800; 1644.000;  903.000
463.858;   98.100;  657.000;  811.000
463.978;   19.600;  542.000;  396.000
464.097;  133.200;  921.000; 1114.000
464.217;  271.000; 1196.000; 1143.000
464.336;  308.400; 1068.000; 1130.000
464.455;    7.700;  328.000;  659.000
464.575;  158.700;  597.000;  602.000
464.694;  402.300; 1204.000; 1179.000
464.814;  315.500; 1190.000; 1138.000
464.933;  216.000; 1095.000; 1027.000
465.052;  256.700; 1412.000; 1054.000
465.172;  232.900;  922.000;  799.000
465.291;  377.200; 1376.000; 1320.000
465.410;   84.900;  462.000;  735.000
465.530;  269.300; 1355.000; 1310.000
465.649;  200.800; 1209.000; 1273.000
465.768;  360.400; 1673.000; 1508.000
465.888;  179.200;  941.000; 1174.000
466.007;  274.100; 1335.000; 1440.000
466.126;   60.500;  721.000;  641.000
466.245;  183.900; 1176.000; 1187.000
466.364;   89.900;  950.000; 1060.000
466.484;  212.500; 1024.000; 1213.000
466.603;  150.400; 1101.000; 1222.000
466.722;  322.000; 1490.000; 1769.000
466.841;  213.900; 1151.000; 1401.000
466.960;  187.400; 1069.000;  972.000
467.079;  346.700; 1971.000; 1786.000
467.198;  183.100; 1238.000; 1181.000
467.317;  230.500; 1768.000; 1162.000
467.436;  251.200; 1709.000; 1261.000
467.555;  336.500; 1796.000; 1746.000
467.674;  198.200; 1227.000; 1329.000
467.793;  158.800; 1376.000; 1374.000
467.912;  256.600; 1658.000; 1539.000
468.031;  379.400; 2038.000; 1930.000
468.150;  409.400; 1842.000; 1837.000
468.269;  473.400; 2313.000; 2090.000
468.388;  501.500; 2168.000; 2339.000
468.507;  638.700; 2884.000; 2903.000
468.626;  644.500; 2555.000; 2541.000
468.744;  338.300; 2018.000; 2174.000
468.863;  478.300; 2312.000; 2523.000
468.982;  271.400; 1503.000; 1555.000
469.101;  510.000; 2788.000; 2692.000
469.220;  396.300; 2333.000; 2176.000
469.338;  615.100; 2935.000; 3051.000
469.457;  474.000; 2719.000; 2545.000
469.576;  841.400; 3953.000; 3784.000
469.695;  565.700; 2877.000; 3066.000
469.813;  954.600; 4148.000; 4192.000
469.932;  919.100; 4255.000; 4485.000
470.051;  947.500; 4075.000; 4161.000
470.169; 1729.400; 4470.000; 4338.000
470.288; 2774.300; 4700.000; 4809.000
470.406; 1628.400; 5059.000; 5194.000
470.525; 1326.300; 6101.000; 5787.000
470.644; 1355.800; 6847.000; 6794.000
470.762; 1689.600; 8397.000; 7873.000
470.881; 1859.600; 8651.000; 8464.000
470.999; 2203.700; 9685.000; 9151.000
471.118; 2307.100;11174.000;10711.000

