
Integration time [ms]: 100.000
Averaging Nr. [scans]: 40
Smoothing Nr. [pixels]: 0
Data measured with spectrometer [name]: 2101012U2
Wave   ;Sample   ;Dark     ;Reference
[nm]   ;[counts] ;[counts] ;[counts] 

197.733;   58.325;  516.000;  404.000
197.879;  -76.625; -610.000; -634.000
198.025;  -52.325; -475.000; -420.000
198.171;  -68.950; -602.000; -612.000
198.317;  -38.525; -401.000; -316.000
198.463;  -58.500; -655.000; -404.000
198.609;   28.200;  181.000; -137.000
198.755;  -83.050; -644.000; -410.000
198.901;  -71.250; -505.000; -424.000
199.047;  -65.550; -615.000; -488.000
199.193;  -42.825; -230.000; -468.000
199.339;  -38.325; -222.000; -369.000
199.485;   39.850;  330.000;  271.000
199.631;   15.525;  227.000;  310.000
199.777;  -62.500; -466.000; -398.000
199.923;  -61.150; -610.000; -424.000
200.069;   -4.650; -141.000;  -58.000
200.215;   55.350;  128.000;  453.000
200.361;   41.775;  243.000;  477.000
200.507;  -52.450; -600.000; -373.000
200.653;  -36.775; -371.000; -194.000
200.798;  -34.200; -215.000; -125.000
200.944;   -8.850; -146.000;  -41.000
201.090;   36.175;   61.000;  222.000
201.236;   -3.125; -116.000; -158.000
201.382;  128.525;  874.000;  903.000
201.528;  -14.500;  -58.000;  -48.000
201.674;  -50.475; -386.000; -293.000
201.819;  -67.450; -540.000; -439.000
201.965;  -87.225; -699.000; -447.000
202.111;  -18.750; -273.000; -226.000
202.257;  -38.350; -250.000; -238.000
202.402;    8.125;   13.000;  -36.000
202.548;  -33.625; -169.000; -116.000
202.694;   83.350;  410.000; -183.000
202.840;  -84.450; -603.000; -531.000
202.985;  -81.425; -681.000; -639.000
203.131; -117.200; -832.000; -666.000
203.277;  -24.875; -199.000; -262.000
203.423;  -32.950; -434.000; -520.000
203.568;  -48.775; -462.000; -237.000
203.714;  -59.550; -535.000; -542.000
203.860;  -81.775; -682.000; -641.000
204.005;   21.725;  112.000;  167.000
204.151;   77.750;  561.000;  556.000
204.296;  -43.050; -354.000; -221.000
204.442;  -74.275; -600.000; -547.000
204.588;  -72.175; -592.000; -579.000
204.733;   21.775;  178.000;  168.000
204.879; -122.900;-1018.000; -822.000
205.025;   12.375;  -99.000;  126.000
205.170;    2.875;  -17.000;   94.000
205.316;   87.825;  438.000;  661.000
205.461;  -83.000; -698.000; -554.000
205.607;   96.000;  609.000;  665.000
205.752;  -86.075; -626.000; -551.000
205.898;  -54.800; -501.000; -391.000
206.043;  -69.225; -578.000; -506.000
206.189;  -50.250; -243.000; -285.000
206.334;   74.850;  554.000;  606.000
206.480;   77.975;  409.000;  239.000
206.625;  -67.775; -529.000; -552.000
206.771;  -47.975; -451.000; -373.000
206.916;  -39.775; -210.000; -537.000
207.062;  -69.025; -545.000; -591.000
207.207;  -61.400; -546.000; -443.000
207.353;   47.200;  185.000;  460.000
207.498;   15.375;  196.000;   85.000
207.643;  -62.050; -501.000; -370.000
207.789; -133.625;-1069.000; -910.000
207.934; -113.225; -665.000; -713.000
208.080;  -20.475; -154.000;   66.000
208.225;    0.600;  -22.000;  -57.000
208.370;  -79.450; -727.000; -619.000
208.516;  -69.825; -741.000; -487.000
208.661;  -23.925; -127.000;  -69.000
208.806;  -21.625; -165.000; -171.000
208.952; -118.750;-1044.000; -731.000
209.097;   79.300;  378.000;  349.000
209.242;  -33.175; -307.000; -382.000
209.387;   69.175;  392.000;  350.000
209.533;  -52.300; -321.000; -350.000
209.678;   85.350;  472.000;  543.000
209.823;  -54.225; -408.000; -310.000
209.969; -105.675; -860.000; -757.000
210.114; -101.050; -907.000; -719.000
210.259; -126.300; -939.000; -889.000
210.404;   -2.725; -171.000;  103.000
210.549;    3.975;  108.000;    3.000
210.695;  -22.300;   -3.000;  -95.000
210.840;   34.100;   94.000;   67.000
210.985;  -54.675; -484.000; -303.000
211.130;   62.150;  268.000;  406.000
211.275;   15.025;  207.000;  199.000
211.420;  -45.275; -300.000; -289.000
211.566;  -68.875; -536.000; -489.000
211.711;   10.100;  218.000;  157.000
211.856;  -58.875; -545.000; -519.000
212.001;    7.925;  151.000;   44.000
212.146;   20.125;  153.000;   49.000
212.291;  -24.325; -210.000; -186.000
212.436;  -32.150; -280.000;   -6.000
212.581;  -92.875; -685.000; -653.000
212.726;  -76.050; -487.000; -538.000
212.871;  -49.975; -552.000; -217.000
213.016; -149.200;-1172.000;-1029.000
213.161;   55.775;  406.000;  291.000
213.306;  -70.700; -435.000; -577.000
213.451;  -86.575; -778.000; -689.000
213.596;  -39.600; -455.000; -347.000
213.741;  -47.925; -448.000; -538.000
213.886;  -78.850; -498.000; -517.000
214.031;  -23.825; -294.000; -124.000
214.176;  -62.250; -408.000; -341.000
214.321;  -24.600; -296.000; -157.000
214.466;  -33.725; -163.000;  -43.000
214.611;   -6.750;  -61.000;  -10.000
214.756; -126.525; -948.000; -858.000
214.901;  -30.075; -388.000; -226.000
215.046; -131.150; -797.000; -825.000
215.191;   20.400;  128.000;   35.000
215.336;   -3.025; -157.000;  -19.000
215.480;  -70.300; -684.000; -505.000
215.625;  -15.325; -175.000;  -19.000
215.770;  -80.950; -757.000; -662.000
215.915;   -4.775;   -5.000;  -97.000
216.060;    8.425; -113.000;  -21.000
216.205; -117.975; -731.000; -779.000
216.349;  -69.875; -470.000; -533.000
216.494; -122.225; -939.000; -867.000
216.639; -122.075; -823.000; -888.000
216.784;  -72.975; -577.000; -525.000
216.929;   55.475;  392.000;  281.000
217.073;  -17.225; -244.000;  -31.000
217.218;   -7.975;   78.000;  -47.000
217.363;  -89.525; -656.000; -618.000
217.507;  -84.500; -623.000; -588.000
217.652; -111.600; -845.000; -874.000
217.797;  -89.550; -708.000; -659.000
217.942; -121.075; -856.000; -720.000
218.086;   73.800;  608.000;  539.000
218.231;   -8.600; -174.000;  -26.000
218.376;  -46.325; -337.000; -229.000
218.520;    5.250;  -41.000;   96.000
218.665;  -33.900; -338.000; -204.000
218.810;  -48.725; -275.000; -233.000
218.954;   17.475;  201.000;   35.000
219.099; -120.025; -713.000; -963.000
219.243;  -75.500; -589.000; -554.000
219.388;  -27.325; -264.000; -136.000
219.532;  -13.750; -116.000; -116.000
219.677;  -81.200; -564.000; -521.000
219.822;   -3.700;   33.000;   89.000
219.966;   10.550;   17.000;  -99.000
220.111;  -38.750; -328.000;  -40.000
220.255;  -91.850; -797.000; -750.000
220.400;  -34.750; -180.000; -146.000
220.544;  -68.050; -516.000; -450.000
220.689;  -65.275; -422.000; -451.000
220.833;  -21.575; -123.000;  -58.000
220.978;  -39.925; -393.000; -563.000
221.122;   32.775;  319.000;  307.000
221.267; -109.900; -906.000; -837.000
221.411;  -64.900; -478.000; -394.000
221.555;  -10.600; -104.000;  -23.000
221.700;  -33.200; -329.000; -222.000
221.844;   35.150;  255.000;  272.000
221.989;  -52.950; -328.000; -311.000
222.133;  -42.675; -289.000; -307.000
222.277;   -6.875;    5.000;   78.000
222.422;   21.075;  227.000;  113.000
222.566;  -26.500; -381.000; -214.000
222.711;  -57.875; -414.000; -479.000
222.855;  -77.750; -643.000; -586.000
222.999;  -78.525; -642.000; -717.000
223.144;  -21.500; -195.000; -194.000
223.288;   50.800;  423.000;  251.000
223.432;   21.450;  184.000;  230.000
223.576;    7.500;  152.000;  -21.000
223.721;   39.650;  364.000;  273.000
223.865;  -58.325; -472.000; -475.000
224.009;  212.725; 1673.000; 1631.000
224.153;  -89.075; -660.000; -671.000
224.298;  -72.750; -531.000; -489.000
224.442;  -19.575;  -74.000;  -33.000
224.586;  -13.425; -169.000; -106.000
224.730; -105.725; -858.000; -670.000
224.875; -109.300; -739.000; -688.000
225.019;   19.000;  102.000;  188.000
225.163;   67.150;  208.000;  341.000
225.307;   20.325;   97.000;  -91.000
225.451;   51.025;  360.000;  481.000
225.595;   31.525;  264.000;  176.000
225.739;  -22.625; -170.000;  -94.000
225.884;   -0.750;   86.000;    5.000
226.028; -107.125; -760.000; -626.000
226.172;  -35.275; -260.000; -273.000
226.316; -110.875; -941.000; -902.000
226.460;  -74.650; -645.000; -493.000
226.604;  -59.925; -406.000; -400.000
226.748; -104.050; -836.000; -733.000
226.892;  -31.200; -227.000; -181.000
227.036;  -50.725; -537.000; -447.000
227.180;  -60.475; -551.000; -375.000
227.324;  -78.725; -561.000; -580.000
227.468; -127.725; -819.000; -717.000
227.612;    5.750;  242.000;  -28.000
227.756; -106.200; -845.000; -698.000
227.900;   49.225;  342.000;  441.000
228.044;  -63.675; -509.000; -290.000
228.188;   57.225;  448.000;  568.000
228.332;  -91.125; -546.000; -472.000
228.476;  -41.275; -223.000; -149.000
228.620;  -36.725; -210.000; -150.000
228.764;   73.225;  431.000;  349.000
228.908;  -10.400; -155.000;   30.000
229.052;  -64.975; -615.000; -528.000
229.195;   -7.950; -172.000;   13.000
229.339;  -35.750; -235.000; -305.000
229.483;  -13.575;    5.000; -162.000
229.627;   -1.325; -156.000;  139.000
229.771;  -44.200; -218.000; -294.000
229.915;    7.275;  230.000;   79.000
230.059;  -86.050; -648.000; -663.000
230.202;  -44.900; -370.000; -317.000
230.346;  -22.125; -107.000;  107.000
230.490;  -75.375; -489.000; -521.000
230.634; -107.950; -736.000; -553.000
230.777;   64.375;  478.000;  509.000
230.921;  -55.075; -450.000; -359.000
231.065;  -66.250; -246.000; -286.000
231.209;   39.775;  261.000;  265.000
231.352;   17.175;   54.000;   40.000
231.496;   23.700;  568.000;  188.000
231.640;  -88.550; -693.000; -621.000
231.783;   74.550;  546.000;  525.000
231.927;  -45.200; -294.000; -365.000
232.071; -118.075; -962.000; -736.000
232.214; -121.050; -980.000; -764.000
232.358; -103.525; -683.000; -599.000
232.502;    0.500;  -19.000;    7.000
232.645; -144.400;-1090.000; -927.000
232.789;  -28.875; -257.000; -218.000
232.933;  -48.800; -407.000; -224.000
233.076; -121.250;-1038.000; -897.000
233.220; -117.025; -752.000; -777.000
233.363;  -68.550; -669.000; -477.000
233.507;   51.200;  371.000;  129.000
233.650; -109.125; -764.000; -834.000
233.794;   40.500;  438.000;  461.000
233.938;  -62.950; -530.000; -362.000
234.081;  -13.450;  -93.000;   31.000
234.225;  -81.050; -631.000; -539.000
234.368; -121.050; -773.000; -723.000
234.512;  -33.350; -385.000; -299.000
234.655;  -93.150; -582.000; -555.000
234.798;  -82.675; -493.000; -466.000
234.942; -123.225; -884.000;-1002.000
235.085;  -66.800; -651.000; -443.000
235.229;  -76.575; -405.000; -410.000
235.372;  -52.250; -247.000; -191.000
235.516;  -66.675; -397.000; -321.000
235.659;   14.025;   92.000;  121.000
235.802;  -12.100;  -38.000;  -22.000
235.946;   13.900;  335.000;  215.000
236.089;   25.100;  126.000;  250.000
236.233;   57.700;  275.000;  298.000
236.376;  -57.000; -235.000; -378.000
236.519;  -55.400; -297.000; -319.000
236.663;  -21.300; -215.000; -117.000
236.806; -144.700;-1029.000; -999.000
236.949;   53.150;  543.000;  431.000
237.092;   55.350;  412.000;  391.000
237.236;  -88.875; -589.000; -502.000
237.379;   71.200;  352.000;  428.000
237.522; -121.800; -879.000; -768.000
237.666;  -34.850; -271.000;   18.000
237.809; -122.650; -851.000; -823.000
237.952;   35.825;  469.000;  271.000
238.095;  -66.075; -447.000; -442.000
238.238;   85.950;  688.000;  700.000
238.382;   -5.700;  166.000;  103.000
238.525;  -71.175; -598.000; -511.000
238.668; -155.275;-1060.000; -985.000
238.811;  -87.050; -638.000; -643.000
238.954;  -61.800; -483.000; -334.000
239.097;   80.625;  617.000;  664.000
239.241;   21.125;  394.000;  326.000
239.384;  -40.600; -254.000; -214.000
239.527;  -62.950; -424.000; -224.000
239.670; -143.650; -994.000;-1091.000
239.813; -109.600; -696.000; -658.000
239.956;   73.300;  579.000;  473.000
240.099; -110.350; -778.000; -725.000
240.242;   55.200;  428.000;  432.000
240.385;   43.575;  466.000;  450.000
240.528;  -71.950; -706.000; -473.000
240.671;    5.850;  189.000;  134.000
240.814;  -47.025; -441.000; -158.000
240.957;  -95.350; -767.000; -578.000
241.100;  -94.075; -779.000; -755.000
241.243; -139.775;-1234.000; -893.000
241.386;  -66.350; -508.000; -379.000
241.529;  -87.625; -735.000; -547.000
241.672;  -66.350; -566.000; -495.000
241.815; -120.175; -832.000; -808.000
241.958;  -36.600; -125.000; -182.000
242.101;  -82.675; -545.000; -390.000
242.244;  -36.500; -270.000; -325.000
242.387;  -45.675; -304.000; -246.000
242.530;   47.200;  470.000;  134.000
242.673;  -47.175; -381.000; -309.000
242.815; -140.325; -925.000; -899.000
242.958;  -60.200; -482.000; -381.000
243.101;   20.950;  132.000;  187.000
243.244;  -81.350; -564.000; -521.000
243.387;  -56.650; -313.000; -316.000
243.530; -103.575; -657.000; -674.000
243.672;   -8.300;   43.000;  -92.000
243.815;  -63.950; -355.000; -283.000
243.958;  -19.750;   98.000;  -26.000
244.101;    3.900;   59.000;  -16.000
244.243;  -18.775;  -47.000;  101.000
244.386; -116.050; -761.000; -630.000
244.529;  -33.050; -132.000; -139.000
244.672; -158.300;-1154.000; -951.000
244.814; -111.075; -621.000; -794.000
244.957;  -62.775; -380.000; -304.000
245.100;  -94.725; -489.000; -489.000
245.242;  -76.925; -387.000; -374.000
245.385;    1.625;  -59.000;  -39.000
245.528; -123.675; -871.000; -705.000
245.670;   94.675;  612.000;  634.000
245.813;  -92.775; -599.000; -547.000
245.956;  -42.700; -324.000; -275.000
246.098;  -80.150; -508.000; -650.000
246.241;    4.575;  194.000;   48.000
246.383;  -28.725; -119.000;  -73.000
246.526;  -84.400; -454.000; -525.000
246.669; -127.325; -889.000; -780.000
246.811;   -1.200;  172.000;   -1.000
246.954;  -64.550; -512.000; -426.000
247.096;  -43.075;  -84.000;   -6.000
247.239;  -61.050; -482.000; -445.000
247.381;  -75.975; -647.000; -488.000
247.524;   92.900;  645.000;  679.000
247.666;    4.500;   58.000;   11.000
247.809; -122.625; -887.000; -691.000
247.951;   -5.925;  -75.000;  138.000
248.094;   30.525;  432.000;  308.000
248.236; -153.825;-1262.000;-1238.000
248.378;   -2.700; -356.000;  -81.000
248.521;  -22.700; -334.000; -337.000
248.663;  -40.250; -236.000; -267.000
248.806;  -24.650; -300.000; -266.000
248.948;  -99.100; -886.000; -763.000
249.090;  -45.525; -428.000; -398.000
249.233;  -49.125; -344.000; -381.000
249.375;  -68.200; -474.000; -451.000
249.518;  -20.775;  -83.000; -133.000
249.660;  -13.800; -103.000;    3.000
249.802; -173.150;-1303.000;-1189.000
249.945;  -66.375; -612.000; -540.000
250.087; -112.100; -834.000; -768.000
250.229;  -50.400; -362.000; -480.000
250.371;  -83.850; -494.000; -439.000
250.514;  -67.325; -310.000; -244.000
250.656;  -64.675;   69.000;  102.000
250.798; -129.850; -849.000; -800.000
250.940;  -68.850; -322.000; -322.000
251.083;  -47.175; -335.000; -111.000
251.225;   64.875;  338.000;  310.000
251.367;  -49.300; -274.000; -373.000
251.509;  -26.425; -265.000; -210.000
251.651; -102.025; -731.000; -671.000
251.794;   76.075;  538.000;  632.000
251.936; -114.300; -821.000; -747.000
252.078;  -73.000; -540.000; -461.000
252.220;  -82.375; -645.000; -477.000
252.362;   91.675;  344.000;  462.000
252.504;  -63.850; -677.000; -584.000
252.646; -114.700; -875.000; -722.000
252.788;  -12.175;   14.000; -128.000
252.931;  -44.150; -257.000; -253.000
253.073;  -43.550; -376.000; -317.000
253.215;   -5.500;  141.000;  122.000
253.357;  -29.700;   82.000; -153.000
253.499;  -44.275; -374.000; -234.000
253.641;  -78.925; -749.000; -594.000
253.783; -104.875; -609.000; -527.000
253.925; -101.300; -586.000; -591.000
254.067; -105.675; -744.000; -667.000
254.209;  -47.850; -391.000; -259.000
254.351; -123.875; -865.000; -883.000
254.493;  -68.900; -441.000; -417.000
254.635; -129.500; -936.000; -818.000
254.777;  -93.900; -752.000; -687.000
254.918;  -75.075; -512.000; -430.000
255.060;  -63.725; -551.000; -395.000
255.202;  -47.725; -473.000; -261.000
255.344;  -65.200; -658.000; -455.000
255.486;  -74.175; -471.000; -406.000
255.628; -120.950; -780.000; -781.000
255.770; -100.725; -676.000; -536.000
255.912;  -58.950; -559.000; -468.000
256.053; -100.400; -730.000; -508.000
256.195;  158.200; 1008.000;  903.000
256.337;  -99.475; -861.000; -595.000
256.479;   59.000;  532.000;  416.000
256.621;  -49.075; -394.000; -212.000
256.762;  -99.775; -789.000; -742.000
256.904;   48.775;  485.000;  487.000
257.046;  -50.825; -381.000; -271.000
257.188;  -37.500; -351.000; -264.000
257.329;  -82.375; -525.000; -464.000
257.471; -121.375; -939.000; -807.000
257.613;  -64.425; -584.000; -498.000
257.755; -144.050;-1073.000; -982.000
257.896;   30.075;  286.000;  392.000
258.038;  -73.375; -403.000; -352.000
258.180;  -49.175; -354.000; -279.000
258.321;  -76.575; -581.000; -457.000
258.463;   -5.675;  -71.000;  133.000
258.605;  -89.550; -562.000; -570.000
258.746; -110.625; -886.000; -772.000
258.888; -149.025;-1026.000;-1020.000
259.029;   15.625;  121.000;   -8.000
259.171;  -88.850; -614.000; -550.000
259.313;  -16.975;  -49.000;  -47.000
259.454;  -77.075; -536.000; -414.000
259.596;  -61.650; -483.000; -390.000
259.737;  -79.875; -590.000; -474.000
259.879;   37.750;  217.000;  311.000
260.020;   94.025;  901.000;  636.000
260.162;  -35.200; -146.000; -253.000
260.303; -113.025; -768.000; -687.000
260.445;  -80.200; -609.000; -613.000
260.586;   23.550;  392.000;  157.000
260.728;  -45.925; -360.000; -248.000
260.869;  -63.625; -350.000; -343.000
261.011;   84.900;  706.000;  537.000
261.152;  -45.350; -479.000; -319.000
261.293;  -74.175; -576.000; -595.000
261.435;  -25.150; -219.000; -184.000
261.576;  -49.250; -455.000; -325.000
261.718;   59.775;  420.000;  470.000
261.859; -137.000; -940.000; -949.000
262.000; -137.450; -951.000;-1016.000
262.142;  -18.375;  -52.000;  -60.000
262.283; -115.725; -808.000; -691.000
262.424; -108.900; -666.000; -625.000
262.566; -148.300;-1161.000; -983.000
262.707; -126.300; -840.000; -830.000
262.848; -116.350; -769.000; -726.000
262.990;  -41.125; -362.000; -345.000
263.131;   76.975;  650.000;  681.000
263.272;  -19.375;  -61.000;  -41.000
263.413;  -94.325; -589.000; -561.000
263.555;  -77.275; -669.000; -143.000
263.696;  -93.300; -550.000; -641.000
263.837;  -70.250; -449.000; -551.000
263.978;  -10.375;   -5.000;  -77.000
264.119;  -54.450; -283.000; -264.000
264.261; -119.325; -847.000; -630.000
264.402;   -2.600;   33.000;   40.000
264.543;  -82.500; -509.000; -524.000
264.684;  -21.350;   61.000;  -50.000
264.825;  -68.400; -816.000; -538.000
264.966;    0.100;  -84.000;  -67.000
265.107; -120.600; -646.000; -670.000
265.248; -116.050; -825.000; -812.000
265.390;  -20.475;  152.000;   -9.000
265.531;  -28.500; -238.000; -107.000
265.672;  -94.625; -557.000; -630.000
265.813;   69.775;  563.000;  439.000
265.954; -141.600; -959.000; -940.000
266.095;  -18.225; -372.000; -322.000
266.236; -109.575; -686.000; -548.000
266.377;  -52.075; -243.000; -297.000
266.518;  -73.450; -619.000; -547.000
266.659;   39.500;  170.000;  268.000
266.800;    7.525;   83.000;   85.000
266.941;  -88.675; -487.000; -478.000
267.082;   30.550;  354.000;   99.000
267.223;  -56.450; -344.000; -273.000
267.364; -115.425; -892.000; -686.000
267.504;  -23.475;    3.000;  135.000
267.645;    3.950;  160.000;   67.000
267.786;  -38.775; -147.000;  -86.000
267.927;  -70.600; -473.000; -379.000
268.068;  -11.150; -186.000;  -61.000
268.209;  -40.550; -175.000; -413.000
268.350;  -80.950; -388.000; -532.000
268.490;  -79.275; -648.000; -521.000
268.631;   33.250;  127.000;  225.000
268.772;  -99.625; -874.000; -647.000
268.913;  -53.650; -328.000; -476.000
269.054;   -0.400; -117.000;   12.000
269.194;  -39.750; -418.000; -402.000
269.335; -144.400;-1137.000;-1074.000
269.476;  -26.175;   33.000;  -35.000
269.617;  -41.325; -347.000; -392.000
269.757;  -96.075; -713.000; -646.000
269.898; -100.350; -856.000; -613.000
270.039;  -48.625; -415.000; -405.000
270.180; -134.750; -952.000; -816.000
270.320;  -31.425; -190.000; -250.000
270.461;  -35.750; -277.000; -249.000
270.602;  -35.825; -186.000; -156.000
270.742; -113.800; -868.000; -943.000
270.883;  -49.350; -442.000; -390.000
271.023;  -66.175; -358.000; -357.000
271.164;  -69.400; -607.000; -528.000
271.305; -107.975; -666.000; -654.000
271.445;  -81.200; -722.000; -683.000
271.586;  -68.725; -462.000; -283.000
271.726;  -48.500; -397.000; -322.000
271.867;  -45.775; -594.000; -534.000
272.008;  205.825; -473.000; -285.000
272.148;  144.350;  462.000;  468.000
272.289;    1.325; -113.000; -181.000
272.429;   21.100;   19.000;  185.000
272.570;  -89.325; -633.000; -737.000
272.710;  -96.575; -825.000; -775.000
272.851;  -24.425;  113.000; -130.000
272.991; -161.425;-1173.000;-1077.000
273.131;  -60.400; -419.000; -459.000
273.272;  -89.925; -683.000; -723.000
273.412;   16.025; -143.000;  -31.000
273.553;  -47.725; -488.000; -507.000
273.693;  142.425;  913.000;  858.000
273.834;  -65.975; -894.000; -692.000
273.974;  -72.400; -664.000; -615.000
274.114;  -83.650; -772.000; -560.000
274.255;   86.150;  414.000;  373.000
274.395;   21.675; -180.000; -125.000
274.535;   53.875;  199.000;  350.000
274.676;   40.975;  225.000;   94.000
274.816;    5.375;  110.000;   34.000
274.956;  -72.275; -624.000; -690.000
275.097;  -56.600;-1014.000; -922.000
275.237; -116.850; -913.000; -803.000
275.377; -100.450; -778.000; -689.000
275.517; -147.675; -878.000; -937.000
275.658;  -41.425; -590.000; -555.000
275.798;  -76.050; -606.000; -413.000
275.938;   23.125;  215.000;  323.000
276.078;  -99.950; -626.000; -395.000
276.218;    2.725;   99.000;  104.000
276.359; -120.000;-1026.000;-1024.000
276.499;  -68.850; -605.000; -446.000
276.639;  -32.325; -305.000; -151.000
276.779;  -52.250; -475.000; -357.000
276.919; -102.450; -783.000; -624.000
277.059;  -21.975; -261.000; -212.000
277.199;  -41.275; -357.000; -259.000
277.340;   48.275;  287.000;  175.000
277.480; -102.775; -840.000; -693.000
277.620;   20.825;  192.000;   16.000
277.760; -200.575;-1533.000;-1294.000
277.900;   23.700;  113.000;   33.000
278.040;   15.500;  137.000;  159.000
278.180;   38.775;  270.000;  170.000
278.320;   -4.275;   21.000;   56.000
278.460;  -79.625; -443.000; -469.000
278.600;  -83.625; -708.000; -598.000
278.740;   53.575;  448.000;  224.000
278.880;  -15.050; -768.000; -791.000
279.020;    7.550; -194.000; -144.000
279.160;  -85.775; -672.000; -595.000
279.300; -108.175; -926.000; -873.000
279.440;  -89.975; -709.000; -622.000
279.579;   -4.450;-1014.000; -929.000
279.719;  -43.200; -410.000; -394.000
279.859;   72.300;   -4.000;   41.000
279.999;   31.800; -208.000;  101.000
280.139;  -10.650; -435.000; -387.000
280.279;  -68.925; -708.000; -745.000
280.419;  -16.325; -229.000; -147.000
280.559;  -20.450; -259.000; -180.000
280.698;  -79.500; -790.000; -639.000
280.838;  -87.200; -778.000; -800.000
280.978;  -96.025; -846.000; -790.000
281.118; -104.075; -811.000; -704.000
281.257;   -4.550;   24.000;    6.000
281.397;  -79.675;-1094.000; -960.000
281.537;  -73.375; -599.000; -712.000
281.677;  -17.200; -150.000; -101.000
281.816; -102.550; -700.000; -630.000
281.956;  -26.225; -193.000; -257.000
282.096;  -61.775; -539.000; -396.000
282.235; -102.750; -672.000; -638.000
282.375;  -19.125; -243.000;  -98.000
282.515;  -94.975; -715.000; -707.000
282.654;   43.125;   29.000;  106.000
282.794;   22.475;  388.000;  244.000
282.934;  -53.425; -530.000; -491.000
283.073; -130.950;-1030.000; -857.000
283.213;  -63.400; -460.000; -467.000
283.353;   -6.725; -408.000; -349.000
283.492;  -34.525; -264.000; -296.000
283.632;  -18.250; -254.000; -168.000
283.771;  -96.275; -859.000; -730.000
283.911;  -44.425; -369.000; -260.000
284.050;  -91.675; -794.000; -748.000
284.190; -150.125;-1229.000;-1096.000
284.329; -144.400;-1055.000; -964.000
284.469;  -43.100; -516.000; -591.000
284.608;  -39.800; -559.000; -598.000
284.748;  -71.600; -614.000; -570.000
284.887;   -0.425;  -87.000;  -20.000
285.027; -106.350; -844.000; -892.000
285.166;  -21.525; -192.000; -249.000
285.306;   23.950; -116.000;  -33.000
285.445;  -37.000; -229.000; -343.000
285.584;  -85.150; -630.000; -494.000
285.724;  -34.675; -282.000; -322.000
285.863; -110.200; -857.000; -507.000
286.002;  -50.400; -366.000; -276.000
286.142; -103.975; -715.000; -622.000
286.281;  -70.025; -525.000; -493.000
286.420;  -76.800; -554.000; -417.000
286.560;   91.425;  653.000;  623.000
286.699; -124.500; -958.000; -912.000
286.838;  -70.600; -590.000; -591.000
286.978;  -85.600; -533.000; -537.000
287.117; -133.625;-1085.000; -950.000
287.256;  -29.650; -228.000; -211.000
287.395;  -42.975; -197.000; -378.000
287.535;  -31.875; -370.000; -298.000
287.674;  -75.875; -509.000; -484.000
287.813;   66.700;  661.000;  533.000
287.952; -129.475;-1010.000; -871.000
288.091; -134.150;-1049.000; -915.000
288.231;   23.575;   13.000;   15.000
288.370; -168.975;-1217.000;-1200.000
288.509;  -86.750; -728.000; -645.000
288.648;  -83.675; -770.000; -548.000
288.787;  -32.875; -243.000;  -87.000
288.926;  -56.150; -454.000; -475.000
289.065;  131.800;  859.000;  672.000
289.204;  -40.200; -377.000; -217.000
289.344;  -91.925; -791.000; -690.000
289.483;   37.250;  416.000;  304.000
289.622;  -23.150; -291.000; -149.000
289.761;   -1.375; -309.000; -166.000
289.900; -119.600; -785.000; -626.000
290.039;   -8.625;  -12.000;  -95.000
290.178;  -38.675; -274.000; -180.000
290.317;  -71.650; -618.000; -479.000
290.456;  -61.375; -463.000; -451.000
290.595; -132.100; -961.000; -833.000
290.734; -139.075; -904.000; -891.000
290.873;  -68.125; -456.000; -420.000
291.011; -105.500; -833.000; -843.000
291.150;  -80.125; -770.000; -682.000
291.289;  -18.425; -343.000; -110.000
291.428;  -83.850; -599.000; -480.000
291.567;  -55.000; -370.000; -442.000
291.706;   -6.950;  109.000;  154.000
291.845;  -88.100; -597.000; -505.000
291.984; -150.350;-1234.000;-1061.000
292.122;   55.025;  602.000;  582.000
292.261;   42.625;  620.000;  463.000
292.400;   24.325; -144.000;  211.000
292.539; -118.000; -959.000; -813.000
292.678;  -35.050; -325.000; -300.000
292.816; -148.750;-1136.000; -965.000
292.955;  -94.300; -844.000; -684.000
293.094;   -9.325; -173.000; -337.000
293.233;  -46.100; -556.000; -400.000
293.371;  -37.650; -225.000;  -84.000
293.510; -103.050; -866.000; -780.000
293.649; -121.675; -959.000; -924.000
293.787;  -31.875;-1083.000;-1012.000
293.926;   10.000; -113.000;  -32.000
294.065;  -41.750; -379.000; -290.000
294.203;   68.600;  298.000;  406.000
294.342;   27.200;   74.000;  156.000
294.481; 5705.600;51180.000; -836.000
294.619;  -16.125; -425.000; -582.000
294.758; -135.475;-1230.000;-1137.000
294.896;  113.200; -125.000;    5.000
295.035; -121.050;-1040.000;-1006.000
295.174; -110.975;-1082.000; -954.000
295.312;  -33.875; -323.000; -203.000
295.451;   10.475; -307.000; -428.000
295.589;  -35.725; -389.000; -518.000
295.728;   28.425; -292.000; -165.000
295.866;   26.575;  -36.000;  -51.000
296.005;  -59.650; -584.000; -341.000
296.143;  -56.925; -558.000; -596.000
296.282;  -98.450; -957.000; -881.000
296.420;  -67.300; -657.000; -557.000
296.559;  -74.975; -892.000; -633.000
296.697;   71.525; -847.000; -665.000
296.835;  146.825;-1141.000;-1002.000
296.974;   61.550;  -23.000;   39.000
297.112;   32.975; -443.000; -504.000
297.251;  -54.575; -815.000; -755.000
297.389;  152.850; -576.000; -438.000
297.527;   71.000; -145.000;  -83.000
297.666;  -32.525; -486.000; -438.000
297.804;  -52.275; -404.000; -264.000
297.942;    0.300; -136.000; -161.000
298.081;   16.475; -183.000;   63.000
298.219;   99.000;  -17.000;  -19.000
298.357;   78.075; -144.000;  -71.000
298.495;   78.275; -810.000; -812.000
298.634;  107.450;  245.000;  219.000
298.772;   98.200; -220.000; -338.000
298.910;  -11.300; -309.000; -182.000
299.048;  -19.725; -130.000; -153.000
299.187;  -20.050; -350.000; -250.000
299.325;   28.725;   52.000;  122.000
299.463;   99.450; -389.000; -299.000
299.601;  167.100; -327.000; -271.000
299.739;  -94.925; -908.000; -883.000
299.877;  -72.725; -791.000; -703.000
300.016;  -25.075;-1095.000; -935.000
300.154;  200.150;  -19.000; -161.000
300.292;  104.500; -428.000; -348.000
300.430;   60.850; -408.000; -291.000
300.568;  -87.275; -940.000; -874.000
300.706;  -44.200; -366.000; -469.000
300.844;  -43.775;-1108.000; -979.000
300.982;  138.700;  246.000;  282.000
301.120; -105.800; -965.000; -866.000
301.258;  -58.675; -812.000; -705.000
301.396;   48.525;  104.000;  -41.000
301.534;  136.900; -218.000; -293.000
301.672;   41.750; -664.000; -521.000
301.810;   77.375; -613.000; -545.000
301.948;  143.175;   53.000;  149.000
302.086;  756.325; -250.000;  -32.000
302.224; 1200.000; -610.000; -585.000
302.362;   93.625; -558.000; -622.000
302.500;   17.925; -923.000; -893.000
302.638;  157.050;  128.000;  245.000
302.776;   12.500; -352.000; -408.000
302.913;   39.975;  447.000;  236.000
303.051;   22.825;  -86.000;  -23.000
303.189;   93.125;   90.000;  118.000
303.327;  -15.825; -341.000; -256.000
303.465;  -72.625; -832.000; -588.000
303.603;  -81.225; -805.000; -604.000
303.740;  120.400;  417.000;  241.000
303.878;   59.175; -800.000; -759.000
304.016;  -75.625; -915.000; -790.000
304.154; -109.450;-1123.000;-1152.000
304.291;  -22.700; -505.000; -554.000
304.429;   25.075;  102.000;   74.000
304.567; -121.100; -908.000; -893.000
304.705;  -53.575; -408.000; -515.000
304.842;  136.900; -616.000; -540.000
304.980;   64.525;  215.000;   35.000
305.118;   79.725; -367.000; -365.000
305.255;  -31.375; -945.000; -927.000
305.393;   67.450;  178.000;  239.000
305.531;  -81.150;-1173.000; -956.000
305.668;  -66.450; -663.000; -582.000
305.806;  123.475; -358.000; -439.000
305.943;  153.450; -629.000; -637.000
306.081;   79.525; -378.000; -267.000
306.219;  -91.475; -863.000; -748.000
306.356;    7.650;  158.000;   27.000
306.494;  120.400;  981.000;  761.000
306.631;    6.150;  -11.000;  -55.000
306.769;   12.575; -613.000; -485.000
306.906;    9.100; -284.000; -258.000
307.044;  -68.100; -473.000; -488.000
307.181;  -52.650; -410.000; -332.000
307.319;   18.025;  112.000;   87.000
307.456; -161.600;-1191.000;-1153.000
307.594;  -90.950; -980.000; -727.000
307.731;   -8.175; -371.000; -164.000
307.868;    1.325;  -15.000;   20.000
308.006; -117.725; -961.000; -847.000
308.143;  -73.700; -618.000; -330.000
308.281;  210.125;  -37.000; -254.000
308.418;   -6.675; -748.000; -640.000
308.555;  -65.675; -400.000; -250.000
308.693;  -75.675; -577.000; -573.000
308.830;  -97.675; -712.000; -657.000
308.967;  -20.700; -215.000;  -95.000
309.105;  -40.975; -507.000; -396.000
309.242;   55.750; -468.000; -367.000
309.379;  330.100; -577.000; -655.000
309.517;  -42.175; -936.000; -948.000
309.654; -106.725; -910.000; -734.000
309.791;  -66.125; -662.000; -580.000
309.928; -100.250; -977.000; -914.000
310.065;  182.400;  819.000;  697.000
310.203;   40.225; -825.000; -850.000
310.340;   14.825; -465.000; -321.000
310.477;  -67.400; -412.000; -516.000
310.614;  -56.450; -383.000; -473.000
310.751;  -78.150; -427.000; -518.000
310.889;  -17.425;    1.000;   11.000
311.026; -132.725;-1161.000; -939.000
311.163;  -37.375; -386.000; -380.000
311.300;  -57.350; -512.000; -479.000
311.437;  -76.750; -658.000; -619.000
311.574; -136.825;-1226.000; -985.000
311.711;  -34.300; -595.000; -433.000
311.848;  -29.400; -380.000; -388.000
311.985;    5.175;  270.000;   93.000
312.122; -102.250; -932.000; -762.000
312.259; -115.775; -941.000; -994.000
312.396;  -75.650; -508.000; -551.000
312.533;  -83.250; -812.000; -790.000
312.670; -117.575;-1070.000; -898.000
312.807;  -47.875; -352.000; -367.000
312.944;  -65.475; -513.000; -611.000
313.081;  -21.025; -150.000; -415.000
313.218;  -98.150;-1111.000; -867.000
313.355;   29.375; -531.000; -449.000
313.492;   47.600; -455.000; -292.000
313.629;  159.575;  815.000;  735.000
313.766; -152.825;-1176.000;-1008.000
313.902;   -0.325; -186.000;   21.000
314.039;  -36.875; -372.000; -289.000
314.176;   32.625;  286.000;  192.000
314.313;  -73.425; -569.000; -473.000
314.450;  -80.475; -788.000; -684.000
314.587;  -39.650; -468.000; -480.000
314.723;    3.350;  -78.000;  130.000
314.860;   48.000;  318.000;  332.000
314.997;   42.350;  223.000;  142.000
315.134;  -21.300; -385.000; -368.000
315.270;  -23.575; -480.000; -496.000
315.407; -115.625;-1094.000; -967.000
315.544;  -37.700; -657.000; -538.000
315.681;  -46.100; -681.000; -565.000
315.817;   37.425; -133.000; -176.000
315.954;   54.275; -613.000; -392.000
316.091; -112.850;-1045.000;-1023.000
316.227;  -14.875;  -71.000; -179.000
316.364;    3.000;   23.000;    6.000
316.500;  -40.375; -113.000; -300.000
316.637;  -43.375; -181.000; -302.000
316.774;  -79.250; -625.000; -358.000
316.910;  -82.825; -598.000; -629.000
317.047;  -58.350; -487.000; -351.000
317.183;  -46.500; -435.000; -566.000
317.320;  -17.650; -367.000; -321.000
317.456;  -83.900; -733.000; -805.000
317.593;  -86.075; -598.000; -641.000
317.729;   -0.575;  168.000;  -67.000
317.866; -185.975;-1434.000;-1285.000
318.002;  -82.750; -708.000; -948.000
318.139;  -65.350; -883.000; -867.000
318.275;  -93.325;-1003.000; -738.000
318.412;  -50.925; -517.000; -336.000
318.548;   -5.250; -751.000; -720.000
318.685;  -94.225; -985.000; -888.000
318.821;  -90.600; -762.000; -735.000
318.957;  -10.575;   34.000;  -23.000
319.094;   35.700;  297.000;  154.000
319.230;  -42.250; -756.000; -742.000
319.367;  178.425; -471.000; -520.000
319.503;   85.525; -538.000; -436.000
319.639;  -81.200; -877.000; -793.000
319.775;  -51.350; -750.000; -685.000
319.912;  -49.900; -424.000; -519.000
320.048;  -82.925;-1184.000;-1184.000
320.184;   60.750;   59.000;   70.000
320.321;  -56.475; -497.000; -467.000
320.457;   44.700;  475.000;  662.000
320.593;  -57.575; -375.000; -382.000
320.729; -100.075; -732.000; -734.000
320.866;  -64.925; -577.000; -635.000
321.002;  -75.075; -759.000; -809.000
321.138;   -6.375; -135.000; -211.000
321.274;   76.250; -148.000; -115.000
321.410;  -10.925; -585.000; -353.000
321.546;    8.250;-1011.000; -911.000
321.683;   75.850;  400.000;  185.000
321.819;    9.925;  -48.000; -117.000
321.955; -101.775; -743.000; -722.000
322.091;  -34.325; -585.000; -540.000
322.227;    0.000; -382.000; -202.000
322.363;    3.050; -320.000; -215.000
322.499;  -23.175; -343.000; -331.000
322.635;  189.400;  636.000;  443.000
322.771;   50.075; -139.000;   12.000
322.907;  129.725;  129.000;  327.000
323.043;   -4.475; -115.000; -206.000
323.179;  -30.050; -394.000; -363.000
323.315;   87.775; -401.000; -371.000
323.451;  170.025; -328.000; -236.000
323.587;   68.875;  -60.000;  -77.000
323.723;   53.050; -682.000; -601.000
323.859;    2.825; -258.000;  -76.000
323.995;  -17.100; -467.000; -409.000
324.131; -100.600; -967.000; -892.000
324.267;  -30.375; -254.000; -276.000
324.402; -122.400; -960.000; -983.000
324.538;   -9.375; -279.000; -104.000
324.674;   37.250;  164.000;   77.000
324.810;  187.000;  226.000;  308.000
324.946;   62.725; -810.000; -658.000
325.082;  -59.375; -568.000; -475.000
325.217;    9.425;  -62.000;   16.000
325.353;  -92.225; -764.000; -659.000
325.489;  -87.450; -540.000; -506.000
325.625;  -62.400; -579.000; -525.000
325.760;   46.625;  517.000;  376.000
325.896;  -45.950; -515.000; -702.000
326.032;  -48.525; -403.000; -352.000
326.168;  -54.075; -462.000; -369.000
326.303;  -48.850; -352.000; -461.000
326.439;  -18.700; -336.000; -276.000
326.575;    6.275; -190.000;  -29.000
326.710;   -1.825; -156.000;  -30.000
326.846;    1.150;  146.000;  103.000
326.982;  -79.725; -530.000; -548.000
327.117;  -59.650; -481.000; -442.000
327.253;  -83.100; -745.000; -742.000
327.388; -122.100;-1137.000;-1153.000
327.524;  -21.525; -811.000; -578.000
327.659;   -8.825;  -58.000;  -22.000
327.795;  -16.300;   69.000;   45.000
327.931;  -70.000; -723.000; -499.000
328.066;  -13.125; -417.000; -276.000
328.202;   -0.275;   12.000; -129.000
328.337;  108.250;  957.000;  713.000
328.473;   48.275;  -12.000;  -74.000
328.608;  -19.025; -256.000; -267.000
328.743;  -60.950; -799.000; -664.000
328.879;   29.050;  214.000;  114.000
329.014;  -34.125; -102.000; -122.000
329.150;  -79.200; -358.000; -483.000
329.285;  -70.850; -465.000; -466.000
329.421;  -46.425; -548.000; -246.000
329.556;  -12.150;  -36.000;   85.000
329.691;  -97.575; -633.000; -615.000
329.827;  -75.350; -626.000; -480.000
329.962;  -40.200;  131.000; -301.000
330.097;  -90.925; -673.000; -585.000
330.233;  -47.900; -410.000; -223.000
330.368; -124.675; -839.000; -628.000
330.503;  -14.475;    3.000;   98.000
330.638;    9.325;  -93.000; -125.000
330.774;  -14.900; -609.000; -530.000
330.909;  -36.475; -434.000; -244.000
331.044;  -94.950; -714.000; -708.000
331.179; -159.125;-1217.000;-1109.000
331.315;    9.050;   77.000;   20.000
331.450;   18.450;  157.000;  285.000
331.585;  -88.050; -805.000; -706.000
331.720;  -84.300; -510.000; -460.000
331.855;  -11.725;  -35.000; -102.000
331.990;  179.150;   62.000;  138.000
332.126;   85.250; -110.000;   71.000
332.261;  -27.150; -379.000; -265.000
332.396;   -5.350; -135.000; -242.000
332.531; -115.050;-1074.000;-1031.000
332.666;    4.075; -519.000; -363.000
332.801;  -89.075; -726.000; -807.000
332.936;   -8.300; -192.000; -122.000
333.071; -117.450; -870.000; -817.000
333.206;   21.050;  307.000;  379.000
333.341;   35.075;  344.000;  418.000
333.476;  -77.550; -627.000; -623.000
333.611;  -30.975; -251.000; -173.000
333.746;  -36.625; -381.000; -464.000
333.881; -101.650; -973.000; -935.000
334.016; -121.475; -936.000; -917.000
334.151;  -96.325; -746.000; -702.000
334.286;   52.175;  152.000;  186.000
334.421;   -1.250; -125.000; -178.000
334.556;  -69.275; -611.000; -567.000
334.690;  -56.000; -631.000; -577.000
334.825;   74.575;  381.000;   83.000
334.960;  -44.500; -285.000; -413.000
335.095;   24.400;  135.000;  -91.000
335.230;  -76.325; -722.000; -738.000
335.365; -109.050;-1084.000; -990.000
335.499; -108.750;-1108.000;-1037.000
335.634;   38.825;    9.000;  534.000
335.769;  -82.075; -755.000; -720.000
335.904;  -35.300; -603.000; -561.000
336.038;  -26.625; -735.000; -657.000
336.173;  -86.675;-1206.000;-1194.000
336.308;   42.275; -116.000; -189.000
336.443;   46.500; -544.000; -634.000
336.577;  -48.075; -936.000; -787.000
336.712;   87.600;   -4.000;  -12.000
336.847;    9.100; -724.000; -607.000
336.981;  122.050; -272.000; -208.000
337.116;  346.650;  615.000;  501.000
337.250;  226.975; -434.000; -421.000
337.385;  152.375; -297.000; -208.000
337.520;   20.100; -632.000; -603.000
337.654;  -42.725; -215.000; -126.000
337.789; -130.425; -989.000; -933.000
337.923;  -24.575; -104.000; -205.000
338.058;  -71.750; -673.000; -738.000
338.192;  -11.150; -611.000; -488.000
338.327;    4.500;  -18.000; -155.000
338.461;  -46.900; -299.000; -469.000
338.596;  -92.300; -780.000; -638.000
338.730;  -95.025; -767.000; -803.000
338.865;   54.900;  -46.000; -140.000
338.999;  -76.650; -846.000; -702.000
339.134;  -44.500; -634.000; -536.000
339.268;   15.675; -741.000; -603.000
339.403;  274.825; -740.000; -775.000
339.537;   41.500; -894.000; -820.000
339.671; -124.575; -829.000; -813.000
339.806;  -70.350; -556.000; -512.000
339.940;   18.125; -261.000; -235.000
340.074;  -88.950; -685.000; -510.000
340.209;  -41.425; -351.000; -230.000
340.343;  -86.425; -517.000; -573.000
340.477;  161.150;  998.000; 1036.000
340.612;  -81.350;-1033.000; -900.000
340.746;   89.800; -199.000; -243.000
340.880;  -59.725; -924.000; -785.000
341.014;   -1.225;  -45.000; -154.000
341.149; -121.475; -756.000; -718.000
341.283; -110.525; -839.000; -754.000
341.417;  -50.200;-1124.000; -938.000
341.551;  240.250; -768.000; -708.000
341.685;   -0.125; -633.000; -611.000
341.820;  -46.300; -562.000; -493.000
341.954;  -34.150; -218.000; -349.000
342.088; -144.275;-1102.000;-1019.000
342.222;   60.475;  565.000;  618.000
342.356;  -56.975; -395.000; -335.000
342.490;  -66.200; -880.000; -841.000
342.624;  -36.900; -339.000; -242.000
342.758;   36.175; -364.000; -312.000
342.892;  -47.825; -710.000; -585.000
343.026;   -6.525;  -58.000; -116.000
343.160;  -55.325; -426.000; -376.000
343.294;  -67.200; -474.000; -337.000
343.428;    3.200; -488.000; -448.000
343.562;    9.425; -172.000;  -23.000
343.696;   -4.025; -385.000; -314.000
343.830;   12.375; -362.000; -356.000
343.964;   33.975; -231.000; -168.000
344.098; 1247.525;  199.000;   70.000
344.232; 1046.250; -266.000; -127.000
344.366;   90.225; -567.000; -453.000
344.500;  103.725; -665.000; -744.000
344.634;   78.400; -324.000; -164.000
344.768;    8.850; -531.000; -341.000
344.902;   41.400;  278.000;  256.000
345.035;  -65.650; -556.000; -496.000
345.169; -118.225; -933.000; -656.000
345.303;  -16.625; -308.000; -482.000
345.437;  -49.325; -826.000; -717.000
345.571;  -71.275; -675.000; -594.000
345.704;  -63.300; -309.000; -532.000
345.838;  -13.625; -331.000; -284.000
345.972;  -18.275; -543.000; -495.000
346.106;  121.850; -179.000; -190.000
346.239;  437.825; -312.000; -243.000
346.373;   26.375; -343.000; -302.000
346.507; -135.550; -950.000; -962.000
346.640;  209.475;  -30.000;   13.000
346.774;  -21.175; -650.000; -797.000
346.908;    0.150; -138.000;  -11.000
347.041;  -97.350; -646.000; -593.000
347.175;   14.875;  259.000;   27.000
347.309;  -33.550; -698.000; -628.000
347.442;  -84.650; -883.000; -732.000
347.576;  367.050;  670.000;  668.000
347.709;  291.975; -123.000;  -52.000
347.843;  -70.075; -933.000; -825.000
347.976;   29.700;  235.000;  294.000
348.110; -171.725;-1268.000;-1186.000
348.243; -102.375; -679.000; -772.000
348.377;   19.425;  -26.000;   60.000
348.510;   51.500;  403.000;  540.000
348.644;  -10.175;  -37.000; -159.000
348.777;   -1.450;  180.000;  191.000
348.911;  -46.400; -142.000; -112.000
349.044;  224.750;  471.000;  448.000
349.178;  266.550;-1069.000;-1006.000
349.311;  120.500;  141.000;  255.000
349.444;  -24.800; -927.000; -813.000
349.578;   -1.550; -347.000; -200.000
349.711;  -75.100; -959.000; -862.000
349.845;   37.500; -661.000; -591.000
349.978; -133.325;-1224.000;-1137.000
350.111;  -77.700; -546.000; -612.000
350.244;  -55.500; -596.000; -700.000
350.378;   40.300; -392.000; -393.000
350.511;  -55.775; -393.000; -426.000
350.644; -109.225; -808.000; -806.000
350.778;    8.625;  168.000;  104.000
350.911;   13.800;  134.000;  140.000
351.044;  -75.200; -685.000; -615.000
351.177;  -24.150; -321.000; -281.000
351.310;   -2.475;    3.000; -131.000
351.444;  -53.175; -888.000; -788.000
351.577;  168.550;  140.000;   90.000
351.710;  112.025;  593.000;  417.000
351.843;  -15.450; -165.000;  -77.000
351.976;    5.425;  149.000;  -79.000
352.109;  -77.750; -621.000; -612.000
352.242;  -13.000; -464.000; -419.000
352.376;  -32.000; -580.000; -636.000
352.509;  278.050; -437.000; -356.000
352.642;   78.050; -654.000; -604.000
352.775;   84.800; -141.000;  -98.000
352.908;  -95.925; -933.000; -904.000
353.041;  -91.500; -814.000; -824.000
353.174;  -35.800; -551.000; -424.000
353.307;  -61.675; -753.000; -764.000
353.440;   92.625;  541.000;  453.000
353.573; -101.975; -957.000;-1008.000
353.706;  -34.925; -384.000; -558.000
353.839;  -12.125; -264.000; -220.000
353.971;  -70.575; -657.000; -512.000
354.104;  -73.525; -896.000; -835.000
354.237;  -17.025; -627.000; -662.000
354.370;  -71.475; -846.000; -879.000
354.503; -170.000;-1231.000;-1308.000
354.636;  -34.000; -529.000; -348.000
354.769; -104.975; -937.000; -860.000
354.902;    9.325; -230.000; -139.000
355.034;   -3.375; -164.000; -220.000
355.167;  -13.050; -262.000; -162.000
355.300;  -75.825;-1061.000; -880.000
355.433;  710.850;  -71.000;  -14.000
355.565; 1094.350; -402.000; -384.000
355.698;  276.650; -356.000; -296.000
355.831;   14.625; -882.000; -801.000
355.964;  137.850; -285.000; -170.000
356.096;  -60.750; -856.000; -843.000
356.229;   52.150; -523.000; -530.000
356.362;  239.625; -373.000; -266.000
356.494;  443.825; -229.000; -162.000
356.627;  580.150;  269.000;  377.000
356.760;  545.900;  120.000;   53.000
356.892;  687.600; -286.000; -601.000
357.025;  822.150;  403.000;  389.000
357.157;  805.100; -167.000; -179.000
357.290;  417.150; -856.000; -713.000
357.423;  160.075; -667.000; -556.000
357.555;  161.575; -217.000; -228.000
357.688;  176.000; -483.000; -364.000
357.820;  554.825; -870.000; -877.000
357.953; 4289.075; -563.000; -589.000
358.085; 1043.675; -632.000; -612.000
358.218; 1818.850;-1131.000; -932.000
358.350;  315.425;  -58.000;  312.000
358.483;  -85.000;-1300.000;-1187.000
358.615;   47.675;-1182.000;-1078.000
358.747;   -6.075;-1187.000;-1058.000
358.880;   92.700; -810.000; -744.000
359.012;   15.450; -376.000; -202.000
359.145;  -30.825; -480.000; -511.000
359.277;  109.675; -962.000; -913.000
359.409; 3613.775;  536.000;  231.000
359.542;  985.650; -738.000; -688.000
359.674;   91.275;   46.000;   13.000
359.806;  -58.175; -565.000; -438.000
359.939;  -39.300; -617.000; -516.000
360.071;  -37.500; -583.000; -579.000
360.203;  -21.850; -411.000; -364.000
360.335;   72.875;  164.000;  -16.000
360.468;  212.825; -249.000; -307.000
360.600; 2784.450; -547.000; -454.000
360.732; 2001.850; -546.000; -423.000
360.864;  294.650;-1216.000;-1044.000
360.996;  430.975; -516.000; -554.000
361.129;  103.125; -389.000; -598.000
361.261;   26.250;  110.000; -113.000
361.393;  -14.475; -252.000; -214.000
361.525;   30.625;   94.000;  244.000
361.657;  -37.400; -821.000; -703.000
361.789;   37.250; -139.000; -155.000
361.921;  371.575; -642.000; -593.000
362.053;  348.550;  524.000;  541.000
362.185;   81.825;  288.000;   72.000
362.318;  -52.675; -709.000; -705.000
362.450;  201.475;  294.000;  444.000
362.582;  322.000; -913.000; -870.000
362.714;  -12.400; -353.000; -332.000
362.846;  -80.450; -606.000; -490.000
362.978; -132.325; -941.000; -811.000
363.109;   77.575; -161.000; -260.000
363.241;  614.675; -739.000; -749.000
363.373;  338.775; -649.000; -564.000
363.505;  447.750; -186.000;  -91.000
363.637;  121.325; -787.000; -601.000
363.769; -102.725;-1067.000;-1080.000
363.901;  -53.425; -596.000; -654.000
364.033;  -92.825;-1103.000;-1062.000
364.165;   12.900; -283.000; -283.000
364.296;   52.500; -316.000; -177.000
364.428;    0.200;-1344.000;-1220.000
364.560;  -72.400; -679.000; -661.000
364.692;  -48.525; -738.000; -835.000
364.824;  439.750; -588.000; -456.000
364.955;  416.150; -402.000; -564.000
365.087;  499.225;-1097.000; -852.000
365.219;   -5.850; -686.000; -816.000
365.351;  -45.875; -526.000; -572.000
365.482;   65.475;  300.000;  240.000
365.614;  -25.275; -402.000; -314.000
365.746;  -93.175; -729.000; -752.000
365.877;  -86.925; -706.000; -672.000
366.009;  166.275;  -35.000;  -62.000
366.141; -103.075;-1249.000;-1134.000
366.272; -107.800; -803.000; -719.000
366.404; -111.775;-1005.000; -874.000
366.535;  -11.450; -139.000;  -12.000
366.667;  -82.100; -644.000; -649.000
366.799;   42.125;  353.000;  203.000
366.930;  -98.250; -862.000; -996.000
367.062;  106.825; -639.000; -613.000
367.193;   61.575; -872.000; -842.000
367.325;  -73.175; -580.000; -684.000
367.456;  138.400; -246.000;   31.000
367.588;  122.675; -371.000; -318.000
367.719;   27.300;  -44.000;  -45.000
367.851;   -5.850; -222.000; -241.000
367.982;   -9.600; -875.000; -732.000
368.113;  168.850; -475.000; -358.000
368.245;  -84.675; -960.000; -841.000
368.376;    2.150; -254.000; -302.000
368.508;   -7.975; -188.000; -263.000
368.639; -131.400;-1166.000;-1034.000
368.770;    4.050; -670.000; -589.000
368.902;  -31.500; -836.000; -926.000
369.033;  -85.950; -906.000; -855.000
369.164;  -49.875; -720.000; -653.000
369.296;  -95.900; -452.000; -601.000
369.427;   18.725; -209.000; -144.000
369.558;  -15.350; -593.000; -377.000
369.689;  -84.200; -721.000; -569.000
369.821; -125.550; -951.000; -845.000
369.952;  -14.525;   42.000; -108.000
370.083;  -42.850; -229.000; -108.000
370.214;  -79.825; -735.000; -650.000
370.345;    2.225;   65.000;   81.000
370.477;  -83.600; -810.000; -790.000
370.608;  347.375; -328.000; -264.000
370.739;   19.350;-1233.000;-1292.000
370.870;   -1.725;-1102.000; -923.000
371.001;  156.400; -378.000; -467.000
371.132;  -48.975; -754.000; -735.000
371.263;   -8.100;  -42.000; -148.000
371.394; -116.325; -841.000; -748.000
371.525;   33.425;  345.000;  225.000
371.657;  -66.800; -808.000; -670.000
371.788;   76.775;  103.000;  199.000
371.919;  253.850; -384.000; -304.000
372.050; 4680.375;  -91.000; -156.000
372.181; 1399.300; -188.000; -294.000
372.311;  533.575;   42.000; -127.000
372.442;  108.675; -457.000; -451.000
372.573;   -0.600; -444.000; -340.000
372.704; -100.575;-1008.000; -980.000
372.835;  134.075; -228.000; -289.000
372.966;  -25.250; -646.000; -554.000
373.097;  -32.525; -575.000; -711.000
373.228;   -3.000; -717.000; -542.000
373.359;  225.050; -824.000; -536.000
373.490; 1331.300; -881.000; -727.000
373.620; 1628.425;-1001.000; -803.000
373.751; 2476.925; -332.000; -396.000
373.882; 1126.475; -663.000; -733.000
374.013;  144.475; -449.000; -262.000
374.143;  -16.175; -581.000; -659.000
374.274;  -85.775; -987.000; -908.000
374.405;  226.850; -388.000; -276.000
374.536;  636.550; -526.000; -387.000
374.666; 1590.400; -759.000; -807.000
374.797;  354.875; -817.000; -868.000
374.928; 1254.575; -710.000; -560.000
375.058; 1213.525; -535.000; -500.000
375.189;  126.125;  -59.000;  -93.000
375.320;  -76.400; -928.000;-1034.000
375.450;  -27.350; -625.000; -616.000
375.581;  -26.150; -526.000; -436.000
375.712;  -14.300; -574.000; -250.000
375.842;  464.100; -438.000; -415.000
375.973;  327.500; -554.000; -513.000
376.103;   12.025; -665.000; -648.000
376.234;  -55.450; -531.000; -552.000
376.364;   14.475; -944.000; -867.000
376.495;  395.925;  925.000;  529.000
376.625;   64.625; -472.000; -485.000
376.756;  118.575; -709.000; -678.000
376.886;  -30.000;-1178.000;-1026.000
377.017;    4.800;-1048.000;-1061.000
377.147;  199.400; -786.000; -782.000
377.278;   58.925;  174.000;  228.000
377.408; -133.425; -801.000; -815.000
377.538;  -84.575; -707.000; -693.000
377.669;  -54.275; -537.000; -613.000
377.799;  -65.575; -645.000; -635.000
377.929;  -15.325; -610.000; -428.000
378.060; -122.550; -781.000; -847.000
378.190;  -57.725; -726.000; -531.000
378.320;  -59.125; -401.000; -406.000
378.451;    4.975; -131.000;  -22.000
378.581;   23.000;  -67.000; -110.000
378.711;  192.750; 1035.000;  866.000
378.841;   15.600; -533.000; -675.000
378.972;  -30.725; -871.000; -751.000
379.102;   55.450; -652.000; -579.000
379.232;   17.175; -126.000;  -73.000
379.362;  -84.200;-1001.000; -885.000
379.492;   59.425; -373.000; -424.000
379.623;  154.750;    0.000;  111.000
379.753;  -62.925;-1107.000; -974.000
379.883;  253.625;   59.000;  156.000
380.013;   54.225;-1081.000;-1017.000
380.143;  -80.675;-1097.000;-1056.000
380.273;  -61.075; -985.000; -861.000
380.403;    7.575; -344.000; -257.000
380.533;    7.300; -651.000; -664.000
380.663;  109.250;  173.000;  128.000
380.793;  -46.850;-1027.000;-1074.000
380.923;   -4.925; -103.000;  -34.000
381.053;  -80.400; -613.000; -623.000
381.183;  -27.350; -106.000; -248.000
381.313;   87.825; -656.000; -470.000
381.443;   78.375; -692.000; -473.000
381.573;  320.425; -402.000; -409.000
381.703;  482.825;-1249.000;-1095.000
381.833;  -74.425;-1454.000;-1336.000
381.963;  153.650; -134.000;  -87.000
382.093; 1749.775; -925.000; -909.000
382.223;  565.175; -713.000; -602.000
382.353;   27.175; -801.000; -608.000
382.482;  592.975;-1091.000; -964.000
382.612;  988.175; -872.000; -644.000
382.742;  555.200; -695.000; -622.000
382.872;  399.875; -565.000; -551.000
383.002;   90.850;  347.000; -132.000
383.131;   -9.450; -226.000; -160.000
383.261;  -38.100; -706.000; -768.000
383.391;  247.975; -552.000; -377.000
383.521; 2164.225;  451.000;  263.000
383.650;  422.575; -947.000; -904.000
383.780;  -31.375; -783.000; -656.000
383.910;  142.400;  880.000;  802.000
384.039;   73.900; -794.000; -656.000
384.169;  355.050;-1205.000;-1017.000
384.299;   16.275; -650.000; -662.000
384.428;  -56.325; -764.000; -680.000
384.558;  -44.550; -308.000; -275.000
384.687;    2.000; -414.000; -334.000
384.817;   43.075;   75.000;   -2.000
384.947;   60.800; -234.000; -141.000
385.076;  369.450;  982.000;  912.000
385.206;  154.975;  369.000;  480.000
385.335;    7.550; -549.000; -417.000
385.465;  -55.100; -655.000; -663.000
385.594;  207.425;  -53.000;  -44.000
385.724;  677.750; -868.000; -838.000
385.853;  194.525; -296.000; -270.000
385.982; 1914.300; -743.000; -787.000
386.112; 2970.625;-1052.000; -871.000
386.241;  251.875; -307.000; -312.000
386.371;   45.625; -174.000;  -87.000
386.500;   19.825; -825.000; -789.000
386.629;   33.700; -874.000; -817.000
386.759;   89.925;  -43.000;   68.000
386.888;   17.925; -170.000; -250.000
387.017;  -41.875; -648.000; -620.000
387.147;  -58.475; -771.000; -798.000
387.276;   39.525; -410.000; -397.000
387.405;   50.250; -398.000; -342.000
387.535;   -3.125; -452.000; -361.000
387.664;  -41.950; -692.000; -620.000
387.793;  100.800; -198.000; -113.000
387.922;  749.350;  255.000;  200.000
388.052;  110.600; -576.000; -423.000
388.181;   84.850; -342.000; -472.000
388.310;  103.350; -889.000; -710.000
388.439;   19.200; -749.000; -742.000
388.568;  274.450;  365.000;  244.000
388.697; 1520.075; -756.000; -653.000
388.826;  345.625; -768.000; -666.000
388.956;  107.825; -285.000; -307.000
389.085;  -11.550; -347.000; -287.000
389.214;  -89.725; -842.000; -872.000
389.343;  -36.400; -645.000; -413.000
389.472;  309.925;  126.000;  149.000
389.601;  483.300;   91.000;    0.000
389.730;   61.850; -568.000; -687.000
389.859;   89.725;  226.000;   46.000
389.988;  290.650; -423.000; -408.000
390.117;  210.800; -168.000; -146.000
390.246;   13.575; -331.000; -320.000
390.375;  211.200; -673.000; -626.000
390.504;  -32.775; -703.000; -621.000
390.633;  -76.600; -672.000; -726.000
390.761;  -33.275; -732.000; -645.000
390.890;   69.550;   -4.000; -130.000
391.019;   -2.100; -421.000; -441.000
391.148; -115.900; -826.000; -855.000
391.277;  -46.050; -576.000; -493.000
391.406;  -34.850; -821.000; -805.000
391.534;   33.175;  574.000; -301.000
391.663;  -37.725; -583.000; -645.000
391.792;  -64.825; -673.000; -701.000
391.921;  205.225;   -3.000;   15.000
392.050;  326.250; -287.000; -228.000
392.178;   25.375;-1206.000;-1061.000
392.307;  247.175; -758.000; -712.000
392.436;  146.575; -427.000; -641.000
392.564;   31.850;  166.000;   -6.000
392.693;  -67.550; -860.000; -682.000
392.822;  321.200; -529.000; -534.000
392.950;  185.350; -880.000; -714.000
393.079;  484.150; -188.000; -328.000
393.208;   65.850; -488.000; -511.000
393.336;    3.975; -170.000; -145.000
393.465;  -51.925; -317.000; -199.000
393.593;    5.175;   62.000;   79.000
393.722; -144.225;-1121.000; -916.000
393.850;  -28.150; -188.000;  -61.000
393.979; -153.525; -926.000; -805.000
394.107;  -57.450; -517.000; -537.000
394.236;    3.250; -570.000; -507.000
394.364;  227.625;  383.000;  206.000
394.493;  371.575; -911.000; -767.000
394.621;  -24.625; -955.000; -916.000
394.750;  486.400; -873.000; -923.000
394.878; 2155.175; -247.000; -149.000
395.007; 2922.250; -721.000; -807.000
395.135;  203.200; -790.000; -721.000
395.263;  -97.075;-1038.000;-1040.000
395.392;    5.175;  -25.000; -107.000
395.520; -135.775; -818.000; -679.000
395.648;  -72.425; -865.000; -915.000
395.777;   29.600; -366.000; -405.000
395.905;  -48.000; -449.000; -564.000
396.033;   19.850;  217.000;  172.000
396.162;  602.575; -399.000; -453.000
396.290;  554.325;  -17.000;   -2.000
396.418;  166.825; -555.000; -514.000
396.546;  -49.800; -571.000; -466.000
396.674;  -87.975; -850.000; -878.000
396.803;   24.700;  -72.000;  -23.000
396.931;  158.275; -179.000; -199.000
397.059;  158.400;-1026.000; -989.000
397.187;  -91.200;-1026.000; -975.000
397.315; -107.225; -884.000; -649.000
397.443;  -71.975; -592.000; -443.000
397.572;  -79.425; -578.000; -424.000
397.700;   51.900; -607.000; -614.000
397.828;   44.425;  120.000;  -90.000
397.956;  -32.550; -508.000; -478.000
398.084;  -69.100; -767.000; -626.000
398.212;   53.325;  137.000;  124.000
398.340;   16.475;  -56.000;  159.000
398.468;   71.950; -390.000; -169.000
398.596; -115.475; -993.000; -953.000
398.724; -114.075; -762.000; -767.000
398.852; -156.025;-1024.000; -976.000
398.980;  -56.425; -560.000; -560.000
399.108;   -4.125; -982.000; -735.000
399.236;   72.875;   13.000;    8.000
399.363;   24.925;  222.000;  196.000
399.491;  -56.450; -404.000; -398.000
399.619; -114.575; -829.000; -800.000
399.747;  -94.075; -859.000; -771.000
399.875;  106.975;  220.000;  234.000
400.003;  -46.100; -359.000; -284.000
400.130;  -90.550; -421.000; -341.000
400.258;  -24.975;  -83.000;   38.000
400.386;  -54.725; -352.000; -168.000
400.514;  -18.125; -526.000; -587.000
400.641;  -57.900; -928.000; -802.000
400.769; -130.875; -979.000; -888.000
400.897;  -97.050; -838.000; -793.000
401.025;    0.050; -166.000; -152.000
401.152;    7.125;  220.000;   38.000
401.280;  -87.200; -430.000; -429.000
401.408;  -97.300; -712.000; -576.000
401.535;  -91.650; -735.000; -758.000
401.663; -186.575;-1134.000;-1054.000
401.790;  -77.150; -514.000; -525.000
401.918;   44.900;  436.000;  405.000
402.046;  -15.900;  134.000;  122.000
402.173;  -38.000;  -18.000;    7.000
402.301;  -62.725; -519.000; -397.000
402.428;   50.350;  528.000;  383.000
402.556; -134.000;-1188.000; -913.000
402.683;  -25.425;  -20.000;   -1.000
402.811;  -12.075;  -37.000; -206.000
402.938;    1.925;   20.000;   27.000
403.066;  286.450; -574.000; -558.000
403.193;  469.875;  299.000;  239.000
403.321;  365.875; -396.000; -574.000
403.448;  446.775;   83.000;   27.000
403.575;  204.700;  -90.000;  -46.000
403.703;  -79.775; -732.000; -557.000
403.830;  -59.250; -531.000; -496.000
403.957; -138.050;-1117.000;-1023.000
404.085;   10.850;  -61.000; -172.000
404.212;  125.400;  -50.000;   63.000
404.339;  181.925; -566.000; -306.000
404.467; 4155.475; -612.000; -524.000
404.594; 3266.550; -287.000; -227.000
404.721;  987.750; -869.000; -764.000
404.848;  101.675; -113.000; -202.000
404.976;  -97.200; -856.000; -783.000
405.103;  -19.625;  -14.000;  -82.000
405.230;    1.800;  190.000;  226.000
405.357;   28.100;  117.000;   44.000
405.484;  180.150;  -49.000;    5.000
405.612;   45.175; -548.000; -563.000
405.739;  -61.175; -488.000; -243.000
405.866;   98.125;  669.000;  385.000
405.993;  -35.400; -398.000; -102.000
406.120; -139.900; -801.000; -887.000
406.247;  -42.925; -323.000; -342.000
406.374;  630.025;  540.000;  629.000
406.501;  230.050; -632.000; -702.000
406.628;  -66.225; -621.000; -589.000
406.755;  -82.450; -803.000; -620.000
406.882;  -36.575; -228.000; -277.000
407.009;  -96.700; -719.000; -628.000
407.136;   98.875; -480.000; -401.000
407.263;  262.625; -939.000; -829.000
407.390;  -60.100; -692.000; -614.000
407.517; -133.925;-1139.000;-1187.000
407.644;  -55.050; -332.000; -256.000
407.771;  -63.050; -249.000; -287.000
407.898;   21.375;  168.000;  328.000
408.025;  -58.775; -421.000; -313.000
408.151;  -23.350;   82.000;  153.000
408.278;  -63.075; -267.000; -216.000
408.405; -104.325; -931.000; -899.000
408.532;  -61.125; -549.000; -542.000
408.659; -112.525; -677.000; -648.000
408.785; -198.575;-1298.000;-1170.000
408.912;  -66.875; -412.000; -296.000
409.039; -102.400; -610.000; -686.000
409.166; -107.975; -591.000; -555.000
409.292; -106.900; -571.000; -534.000
409.419; -116.750; -665.000; -649.000
409.546;  -76.025; -431.000; -192.000
409.672; -104.675; -713.000; -545.000
409.799;  -15.175;  -36.000;   34.000
409.926;  -38.325; -180.000; -179.000
410.052; -176.350;-1127.000;-1091.000
410.179;  -40.500; -368.000; -392.000
410.305;  -88.000; -375.000; -493.000
410.432;  -23.575; -220.000; -333.000
410.558;  -76.200; -305.000; -380.000
410.685;  -99.750; -688.000; -431.000
410.812;  -89.825; -409.000; -588.000
410.938; -143.150; -964.000; -808.000
411.065;  -90.400; -671.000; -645.000
411.191;  -14.550; -189.000; -174.000
411.317; -115.925; -823.000; -742.000
411.444;  -69.500; -317.000; -246.000
411.570;  -61.500; -339.000; -294.000
411.697; -129.100; -758.000; -752.000
411.823; -168.325; -989.000; -999.000
411.949;  -14.250;  -56.000;   17.000
412.076; -108.875; -539.000; -519.000
412.202; -101.300; -758.000; -757.000
412.329; -120.050; -798.000; -752.000
412.455; -102.725; -821.000; -657.000
412.581;  -18.025;  -15.000;  172.000
412.707;  -43.300; -540.000; -457.000
412.834;   26.325;  156.000;  219.000
412.960;  -74.875; -785.000; -784.000
413.086;  -96.925; -743.000; -701.000
413.212;  196.575;  604.000;  578.000
413.339;  -40.000; -685.000; -701.000
413.465;   34.500; -364.000; -310.000
413.591;  -72.650; -757.000; -474.000
413.717;  -56.800; -358.000; -366.000
413.843; -136.050; -839.000; -861.000
413.969;  -49.825;  -47.000; -292.000
414.096; -104.925; -679.000; -679.000
414.222;   -6.800;  -33.000;   85.000
414.348;    8.000; -652.000; -385.000
414.474;  158.775;   38.000;  -52.000
414.600;   -4.975; -126.000; -144.000
414.726;  -21.550;  -96.000;  -55.000
414.852;  -54.225; -365.000; -342.000
414.978;   38.225;  104.000;  -18.000
415.104;   39.000;   38.000;   80.000
415.230;    9.400; -329.000; -330.000
415.356;   41.475; -409.000; -514.000
415.482;  189.850;   13.000;  -35.000
415.608;  206.700; -247.000; -323.000
415.734;  770.800;   67.000;   38.000
415.860;16144.875; -875.000; -767.000
415.986;11686.650; -685.000; -607.000
416.111;  980.425; -798.000; -652.000
416.237;  186.625; -424.000; -571.000
416.363;  798.825; -765.000; -733.000
416.489; 3060.800; -324.000; -251.000
416.615;  282.500; -707.000; -742.000
416.741;  -41.125; -677.000; -784.000
416.866; -100.575; -673.000; -736.000
416.992; -123.250; -801.000; -818.000
417.118;  -32.225;  -41.000;  -80.000
417.244;  -63.450; -798.000; -531.000
417.369;  -78.425; -801.000; -612.000
417.495;    7.300; -325.000; -254.000
417.621;  -76.850;-1015.000; -803.000
417.746;    2.200; -579.000; -572.000
417.872;   33.050; -254.000; -144.000
417.998;   17.775; -515.000; -530.000
418.123;  739.200;-1073.000; -845.000
418.249; 3979.100; -512.000; -601.000
418.374;  530.850; -916.000; -824.000
418.500;   62.825; -383.000; -482.000
418.626;   89.625;   70.000;  -59.000
418.751;   86.300; -549.000; -448.000
418.877;  137.825; -637.000; -643.000
419.002; 1319.650; -688.000; -560.000
419.128; 9324.375; -930.000; -721.000
419.253; 2214.575; -967.000; -837.000
419.379;  278.275; -391.000; -338.000
419.504;  298.300;  325.000;  415.000
419.629;  358.725; -393.000; -212.000
419.755; 2425.750; -317.000; -254.000
419.880;14345.050;  -98.000;   67.000
420.006; 8517.075; -280.000; -221.000
420.131;22752.975; -662.000; -775.000
420.256; 3314.875; -315.000; -316.000
420.382;  430.350; -665.000; -687.000
420.507;   45.475; -649.000; -778.000
420.632;  207.550; -337.000; -339.000
420.758;  428.975; -251.000; -425.000
420.883;  -62.800; -876.000; -672.000
421.008;  -92.850; -775.000; -619.000
421.133;  -73.275; -509.000; -467.000
421.259;  -22.925; -325.000; -259.000
421.384;  -93.575; -834.000; -693.000
421.509;    1.350;-1052.000; -862.000
421.634; 1894.800; -936.000; -820.000
421.759;  821.175; -359.000; -327.000
421.885;  -16.325; -717.000; -656.000
422.010;  -68.200; -673.000; -542.000
422.135; -139.275; -695.000; -727.000
422.260;   39.625;  340.000;  280.000
422.385;  -39.650;   12.000;  -98.000
422.510;    0.175;  151.000;  -26.000
422.635;   34.900;  -87.000;  -43.000
422.760;  119.800; -766.000; -791.000
422.885;   67.325;  -57.000;  -80.000
423.010;  -33.725; -112.000; -169.000
423.135;  -89.525; -481.000; -561.000
423.260;   14.600; -150.000; -245.000
423.385;   88.425;  476.000;  222.000
423.510;   39.975;   71.000;  -22.000
423.635;  121.375;  133.000;   45.000
423.760;   65.250;  383.000;  328.000
423.885;   59.850;  336.000;  391.000
424.010;    0.425;  -68.000;  -13.000
424.135;   -8.125;    5.000;  -33.000
424.259;  -87.825; -654.000; -457.000
424.384;  -70.425; -279.000; -272.000
424.509;  -25.600; -260.000; -186.000
424.634;  -93.925; -761.000; -623.000
424.759;  -35.650; -688.000; -544.000
424.883;   -9.750; -506.000; -527.000
425.008;  131.550; -502.000; -410.000
425.133; 1509.800; -679.000; -653.000
425.258;  695.850; -517.000; -381.000
425.382; 1275.325; -867.000; -774.000
425.507; 3321.750; -487.000; -543.000
425.632;  467.050; -802.000; -663.000
425.756;  341.825; -256.000; -146.000
425.881; 4247.075; -831.000; -857.000
426.006;11169.175; -604.000; -355.000
426.130; 1933.050; -696.000; -508.000
426.255;  243.850; -611.000; -491.000
426.379;  109.475; -189.000; -577.000
426.504;  315.125;  660.000;  544.000
426.629; 3270.575; -519.000; -466.000
426.753; 2238.900;   64.000;  -46.000
426.878;  261.525; -252.000; -288.000
427.002;  158.575; -651.000; -668.000
427.127; 1262.700;  -35.000; -158.000
427.251; 8491.325;  372.000;  401.000
427.375; 2499.500; -191.000; -173.000
427.500; 2821.725; -616.000; -610.000
427.624;  989.850; -234.000; -400.000
427.749;  131.925; -216.000; -225.000
427.873;   -2.350; -499.000; -412.000
427.997;  -34.750; -222.000; -230.000
428.122;   90.775;  795.000;  703.000
428.246;   91.000;  433.000;  434.000
428.371; -120.750; -869.000; -773.000
428.495;  -86.400; -624.000; -646.000
428.619;  -15.025; -186.000; -117.000
428.743;   38.925;   65.000;  132.000
428.868;   74.075; -732.000; -643.000
428.992; 1876.625; -219.000; -326.000
429.116;  814.150; -329.000; -357.000
429.240;  392.875;  419.000;  426.000
429.365;    7.825; -454.000; -574.000
429.489;  -17.625; -638.000; -647.000
429.613;   30.400; -236.000; -177.000
429.737;   16.000; -563.000; -432.000
429.861;  244.700; -247.000; -133.000
429.985; 4268.550; -425.000; -305.000
430.109; 4649.175; -770.000; -908.000
430.234;  551.325;   76.000;  -50.000
430.358;   48.075; -250.000; -160.000
430.482;  -67.225; -672.000; -564.000
430.606;  -61.425; -655.000; -375.000
430.730;   51.400; -437.000; -388.000
430.854;  244.050; -909.000; -835.000
430.978;  -55.350; -795.000; -764.000
431.102;  -63.300; -499.000; -422.000
431.226;  -81.575; -874.000; -815.000
431.350;   80.025;  345.000;  422.000
431.474;  -54.325; -661.000; -373.000
431.597; -137.025;-1060.000; -848.000
431.721;  -85.100; -276.000; -267.000
431.845; -129.325; -704.000; -472.000
431.969;  -87.800; -304.000; -349.000
432.093;  -84.250; -395.000; -317.000
432.217;  -23.075;   32.000;   82.000
432.341;  -85.275; -523.000; -518.000
432.464;   23.625;   96.000;   40.000
432.588;  336.825; -401.000; -329.000
432.712;  147.050;  -52.000;  -52.000
432.836;   40.425;  213.000;  263.000
432.959;  -38.175; -372.000; -311.000
433.083;   39.375;   11.000;    2.000
433.207;  289.400;  285.000;  930.000
433.330; 3616.300; -391.000; -200.000
433.454; 4472.875; -654.000; -638.000
433.578; 2652.825;  583.000;  278.000
433.701;  522.875; -623.000; -675.000
433.825;  224.600; -292.000; -299.000
433.949;  354.225;   28.000;  -72.000
434.072;  174.425; -410.000; -323.000
434.196;   11.625; -309.000; -117.000
434.319; 3721.900;25482.000;25124.000
434.443;  684.825; -656.000; -603.000
434.566; 2052.950;  281.000;   62.000
434.690;  305.025; -637.000; -383.000
434.813;   74.200; -251.000; -173.000
434.937;  -84.850; -569.000; -696.000
435.060;    8.175; -423.000; -332.000
435.184;  611.275; -492.000; -217.000
435.307;  343.500;  159.000;  102.000
435.431;    8.375;  -40.000;   24.000
435.554;  -70.600; -399.000; -240.000
435.677; -101.900; -350.000; -258.000
435.801;  -42.375;  -25.000;   49.000
435.924;   24.925;    1.000;  -67.000
436.048;  -60.975;-1019.000; -732.000
436.171;  -60.350; -240.000;  -66.000
436.294;  -26.425; -248.000; -229.000
436.417;   23.675; -963.000; -849.000
436.541; -103.575; -814.000; -840.000
436.664;  -37.200; -242.000; -316.000
436.787;  -26.750;   13.000;  113.000
436.910;  -97.525; -792.000; -422.000
437.034;   34.275;  142.000;  143.000
437.157;  132.250;  -11.000;    0.000
437.280;  -11.525; -392.000; -292.000
437.403;  -38.075; -982.000; -869.000
437.526; 1133.825; -903.000; -865.000
437.649; 3767.150; -505.000; -332.000
437.772;  646.800; -692.000; -540.000
437.896;  173.725;  700.000;  544.000
438.019;  -81.250; -758.000; -503.000
438.142;  -66.550; -596.000; -506.000
438.265;   47.625; -639.000; -670.000
438.388;  898.150; -520.000; -410.000
438.511;  217.850; -597.000; -394.000
438.634;  -12.425; -247.000; -125.000
438.757; -125.675; -693.000; -619.000
438.880;  -14.125;  -34.000;  -57.000
439.003;  -70.050; -417.000; -437.000
439.126;  -71.600; -287.000; -167.000
439.248;  -64.225;  -98.000; -139.000
439.371;  -43.575;    9.000;  -53.000
439.494;   19.625;  510.000;  439.000
439.617;  -68.700;   65.000;  -88.000
439.740; -187.925; -968.000; -816.000
439.863; -147.000; -755.000; -595.000
439.986; -115.750; -476.000; -431.000
440.108;  -44.600; -161.000; -112.000
440.231; -160.025; -950.000; -836.000
440.354;  -24.125;  -64.000; -150.000
440.477;  107.325; -566.000; -542.000
440.599;   36.600; -200.000; -225.000
440.722; -118.550; -709.000; -586.000
440.845;   76.800;  751.000;  928.000
440.968; -106.850; -415.000; -311.000
441.090;  -68.700; -199.000;  -33.000
441.213; -168.100;-1021.000; -825.000
441.336;  -50.400; -159.000;   -5.000
441.458;  -54.525; -549.000; -396.000
441.581;  -62.575; -628.000; -629.000
441.703;  -79.225; -152.000;   13.000
441.826; -112.075; -557.000; -400.000
441.948;  -45.750;   56.000;   51.000
442.071;   13.275;  555.000;  424.000
442.193; -106.775; -531.000; -485.000
442.316;   21.025;  152.000;   97.000
442.438;   39.100; -233.000;  -10.000
442.561;   92.525;  272.000;  262.000
442.683;  923.750; -809.000; -522.000
442.806; 1884.325;   -8.000;   74.000
442.928;  141.125; -859.000; -604.000
443.051;  -45.875; -577.000; -373.000
443.173;  -83.875; -341.000; -339.000
443.295;  -78.625; -263.000; -371.000
443.418;  -66.825; -321.000;  -29.000
443.540;  -11.375; -106.000;   -4.000
443.662; -111.250; -563.000; -465.000
443.785;  -11.200;  335.000;  199.000
443.907; -106.050; -362.000; -208.000
444.029; -132.400; -767.000; -494.000
444.152; -153.675; -644.000; -554.000
444.274;  -35.675;  -18.000;  -24.000
444.396; -118.875; -461.000; -221.000
444.518; -133.250; -691.000; -454.000
444.640; -109.225; -268.000; -111.000
444.763;  -16.450;  388.000;  249.000
444.885; -110.750; -432.000; -392.000
445.007;  -30.975;   35.000;   86.000
445.129; -121.325; -610.000; -515.000
445.251; -110.100; -372.000; -439.000
445.373; -133.525; -537.000; -386.000
445.495;   19.225;  242.000;  350.000
445.617;   62.350;  853.000;  753.000
445.739;  -61.875; -215.000;  -97.000
445.861;  -12.050; -245.000; -112.000
445.984;  -25.450; -267.000; -101.000
446.105;  329.800; -418.000; -251.000
446.227;  885.600; -176.000;  -19.000
446.349;   44.575; -358.000; -249.000
446.471;  -73.525; -615.000; -448.000
446.593;  -53.275; -316.000;   19.000
446.715;    0.750;  -67.000;   41.000
446.837;   72.925;  697.000;  832.000
446.959; -109.725; -457.000; -478.000
447.081; -131.925; -628.000; -518.000
447.203;   54.725;  862.000;  834.000
447.325;  -91.450; -270.000;   42.000
447.446;  -13.875;  286.000;  530.000
447.568; -148.250; -921.000; -803.000
447.690;  -83.250; -236.000; -245.000
447.812; -150.625; -798.000; -519.000
447.933;  -45.950;  155.000;  127.000
448.055;  -57.850; -306.000; -261.000
448.177;  204.150;   31.000;   79.000
448.299;  178.000; -935.000; -727.000
448.420;   36.200;  -25.000;  159.000
448.542;  -39.725;   -3.000;   33.000
448.664;  -27.400;  109.000;  322.000
448.785;  -32.925;  265.000;   83.000
448.907;  -76.100; -614.000; -353.000
449.028;   -8.175; -771.000; -471.000
449.150;   62.075;  492.000;  589.000
449.272; -177.625;-1044.000; -913.000
449.393;   26.475;  612.000;  694.000
449.515; -146.700; -634.000; -581.000
449.636;  -56.850; -264.000; -155.000
449.758;  123.375;  763.000;  622.000
449.879; -100.350; -498.000; -396.000
450.001;  -76.125; -149.000;  -49.000
450.122;  -28.100;  -95.000;  162.000
450.244;  -23.225;   37.000;  364.000
450.365;  -90.200; -495.000; -301.000
450.486;  -36.450;   80.000;  268.000
450.608;    8.450;  393.000;  326.000
450.729;   49.700;  578.000;  645.000
450.850;  -32.325; -574.000; -466.000
450.972;  461.700; -552.000; -389.000
451.093; 3333.450;  190.000;  588.000
451.214; 1422.725; -516.000; -337.000
451.336;  282.550;  773.000;  579.000
451.457;   45.025;  264.000;  393.000
451.578;  -52.875; -118.000;  -74.000
451.699; -129.625; -546.000; -540.000
451.821;  -77.400; -284.000;  -50.000
451.942;    5.825;  278.000;  285.000
452.063;   18.300;  228.000;  419.000
452.184;  373.625;  -54.000;  -49.000
452.305;  808.175;  103.000;  170.000
452.427;   57.900; -549.000; -301.000
452.548;  -36.300;   23.000;   79.000
452.669;  -36.225; -257.000;  -89.000
452.790;  -37.725;    3.000;  -18.000
452.911;   -1.025;  195.000;  259.000
453.032;  -68.175; -289.000;  -60.000
453.153;  -32.350;  -29.000;   81.000
453.274;   72.025;  737.000;  868.000
453.395;  -50.300;  -51.000;  175.000
453.516;  139.875; 1317.000; 1388.000
453.637;  -34.050; -205.000; -150.000
453.758;  -64.300;   15.000;   69.000
453.879; -114.200; -462.000; -250.000
454.000;   75.800; 1086.000;  948.000
454.121; -110.075; -554.000; -326.000
454.242; -124.250; -599.000; -383.000
454.362;  -58.625;  -99.000;  114.000
454.483;  -40.875; -309.000; -229.000
454.604;   70.050;  512.000;  580.000
454.725; -104.825; -627.000; -555.000
454.846; -128.875; -474.000; -406.000
454.967;  -23.500;  230.000;  539.000
455.087;  -48.650;  179.000;  153.000
455.208;    8.075;  554.000;  856.000
455.329;  -68.800;  -22.000;   82.000
455.450;   14.175;  473.000;  633.000
455.570;  -89.275; -234.000; -211.000
455.691;  -40.150;  201.000;  407.000
455.812; -100.875; -270.000;  -92.000
455.932;  -76.100;  107.000;  -97.000
456.053;  -84.375;   36.000;   24.000
456.173; -110.825; -433.000; -355.000
456.294; -126.825; -476.000; -303.000
456.415;  -64.150;  -73.000;   70.000
456.535;  -43.875;  297.000;  273.000
456.656;  -52.700;  132.000;  240.000
456.776;  -84.375;    3.000;  298.000
456.897;  -10.000;  308.000;  513.000
457.017;  -75.825; -153.000;   -3.000
457.138; -105.100; -402.000; -249.000
457.258;   -7.900;  263.000;  224.000
457.379;  -16.500;  509.000;  521.000
457.499;  -17.900;  443.000;  432.000
457.620; -132.850; -407.000; -231.000
457.740;  -94.975; -132.000;  -11.000
457.860;  -52.850;   87.000;   44.000
457.981;  -36.750;  132.000;  124.000
458.101;  -72.275;  -89.000;   40.000
458.221;   -3.300;  336.000;  402.000
458.342;  -65.150;   -4.000;  -37.000
458.462;    4.750;  617.000;  352.000
458.582;  -73.225; -302.000; -294.000
458.703;  -15.125;  303.000;  154.000
458.823;  -55.750;   22.000;  163.000
458.943;   16.875;  341.000;  467.000
459.063;  -13.075; 1124.000;  192.000
459.183;  -16.500;  328.000;  313.000
459.304;  -10.725;  315.000;  517.000
459.424;  -70.025; -246.000;  -89.000
459.544;  223.525;  388.000;  764.000
459.664;  615.075;  499.000;  506.000
459.784;  257.825; 1004.000; 1175.000
459.904;   46.900;  867.000;  744.000
460.024;   58.875;  867.000;  684.000
460.144;   24.150;  449.000;  554.000
460.264;   -3.400;  515.000;  327.000
460.385; -100.325; -145.000; -119.000
460.505;   40.350;  905.000;  858.000
460.625;  -96.100;  -17.000;  -68.000
460.745;  -17.050;  396.000;  541.000
460.864;  -55.850;  153.000;  469.000
460.984;   20.150;  499.000;  573.000
461.104;  148.475; 1656.000; 1775.000
461.224;   12.725;  657.000;  650.000
461.344;  -37.075;  431.000;  360.000
461.464;  -20.450;  258.000;  513.000
461.584;  -15.350;  283.000;  466.000
461.704;  -28.300;   58.000;  108.000
461.824;  -43.200;  238.000;  259.000
461.943;  -47.600;  191.000;  130.000
462.063;  -62.900;    2.000;  324.000
462.183;   38.225;  639.000;  717.000
462.303;  104.650; 1678.000; 1230.000
462.422;   30.550;  781.000;  840.000
462.542;  -36.425;  271.000;  391.000
462.662;   36.050;  353.000;  380.000
462.782;  174.425;  833.000;  572.000
462.901;  352.750;  545.000;  717.000
463.021;  253.400; 1702.000; 1638.000
463.141;  -22.450;  337.000;  770.000
463.260;  -13.850;  614.000;  474.000
463.380;    6.925;  902.000;  884.000
463.499;  -48.100;  342.000;  332.000
463.619;  -37.600;  581.000;  559.000
463.738;  109.875; 1644.000;  903.000
463.858;   16.925;  657.000;  811.000
463.978;  -18.725;  542.000;  396.000
464.097;   46.575;  921.000; 1114.000
464.217;   86.225; 1196.000; 1143.000
464.336;   96.225; 1068.000; 1130.000
464.455;  -42.450;  328.000;  659.000
464.575;   65.750;  597.000;  602.000
464.694;  193.050; 1204.000; 1179.000
464.814;  129.375; 1190.000; 1138.000
464.933;   93.350; 1095.000; 1027.000
465.052;  107.300; 1412.000; 1054.000
465.172;   99.300;  922.000;  799.000
465.291;  155.250; 1376.000; 1320.000
465.410;   25.425;  462.000;  735.000
465.530;   76.025; 1355.000; 1310.000
465.649;   77.350; 1209.000; 1273.000
465.768;  146.525; 1673.000; 1508.000
465.888;   53.550;  941.000; 1174.000
466.007;   85.275; 1335.000; 1440.000
466.126;  -10.150;  721.000;  641.000
466.245;   31.600; 1176.000; 1187.000
466.364;   24.650;  950.000; 1060.000
466.484;   67.475; 1024.000; 1213.000
466.603;   21.375; 1101.000; 1222.000
466.722;   94.500; 1490.000; 1769.000
466.841;   75.600; 1151.000; 1401.000
466.960;   40.850; 1069.000;  972.000
467.079;  135.825; 1971.000; 1786.000
467.198;   41.925; 1238.000; 1181.000
467.317;   70.425; 1768.000; 1162.000
467.436;   78.525; 1709.000; 1261.000
467.555;  129.150; 1796.000; 1746.000
467.674;   38.600; 1227.000; 1329.000
467.793;   40.025; 1376.000; 1374.000
467.912;   90.800; 1658.000; 1539.000
468.031;  144.875; 2038.000; 1930.000
468.150;  143.625; 1842.000; 1837.000
468.269;  200.600; 2313.000; 2090.000
468.388;  187.100; 2168.000; 2339.000
468.507;  269.225; 2884.000; 2903.000
468.626;  227.775; 2555.000; 2541.000
468.744;  134.425; 2018.000; 2174.000
468.863;  191.350; 2312.000; 2523.000
468.982;  109.525; 1503.000; 1555.000
469.101;  222.375; 2788.000; 2692.000
469.220;  159.325; 2333.000; 2176.000
469.338;  252.050; 2935.000; 3051.000
469.457;  208.275; 2719.000; 2545.000
469.576;  353.375; 3953.000; 3784.000
469.695;  265.675; 2877.000; 3066.000
469.813;  418.675; 4148.000; 4192.000
469.932;  417.925; 4255.000; 4485.000
470.051;  406.350; 4075.000; 4161.000
470.169;  737.875; 4470.000; 4338.000
470.288; 1204.975; 4700.000; 4809.000
470.406;  758.100; 5059.000; 5194.000
470.525;  626.500; 6101.000; 5787.000
470.644;  641.125; 6847.000; 6794.000
470.762;  814.500; 8397.000; 7873.000
470.881;  900.200; 8651.000; 8464.000
470.999; 1015.275; 9685.000; 9151.000
471.118; 1092.150;11174.000;10711.000

