
Integration time [ms]: 100.000
Averaging Nr. [scans]: 40
Smoothing Nr. [pixels]: 0
Data measured with spectrometer [name]: 2101012U2
Wave   ;Sample   ;Dark     ;Reference
[nm]   ;[counts] ;[counts] ;[counts] 

197.733;   52.075;  516.000;  404.000
197.879;  -93.075; -610.000; -634.000
198.025;  -52.425; -475.000; -420.000
198.171;  -77.550; -602.000; -612.000
198.317;  -34.500; -401.000; -316.000
198.463;  -65.525; -655.000; -404.000
198.609;   26.750;  181.000; -137.000
198.755;  -86.325; -644.000; -410.000
198.901;  -68.350; -505.000; -424.000
199.047;  -63.325; -615.000; -488.000
199.193;  -32.650; -230.000; -468.000
199.339;  -48.650; -222.000; -369.000
199.485;   47.475;  330.000;  271.000
199.631;   14.500;  227.000;  310.000
199.777;  -48.025; -466.000; -398.000
199.923;  -61.775; -610.000; -424.000
200.069;   -5.650; -141.000;  -58.000
200.215;   43.950;  128.000;  453.000
200.361;   46.650;  243.000;  477.000
200.507;  -54.400; -600.000; -373.000
200.653;  -13.100; -371.000; -194.000
200.798;  -46.700; -215.000; -125.000
200.944;   15.500; -146.000;  -41.000
201.090;   26.500;   61.000;  222.000
201.236;   -8.225; -116.000; -158.000
201.382;  125.950;  874.000;  903.000
201.528;   -2.900;  -58.000;  -48.000
201.674;  -51.725; -386.000; -293.000
201.819;  -51.825; -540.000; -439.000
201.965;  -84.200; -699.000; -447.000
202.111;  -16.600; -273.000; -226.000
202.257;  -34.550; -250.000; -238.000
202.402;   15.150;   13.000;  -36.000
202.548;  -30.425; -169.000; -116.000
202.694;   90.725;  410.000; -183.000
202.840;  -76.625; -603.000; -531.000
202.985;  -64.450; -681.000; -639.000
203.131; -111.475; -832.000; -666.000
203.277;  -21.025; -199.000; -262.000
203.423;  -57.300; -434.000; -520.000
203.568;  -30.550; -462.000; -237.000
203.714;  -54.225; -535.000; -542.000
203.860;  -80.575; -682.000; -641.000
204.005;    4.825;  112.000;  167.000
204.151;   64.475;  561.000;  556.000
204.296;  -50.375; -354.000; -221.000
204.442;  -58.650; -600.000; -547.000
204.588;  -71.875; -592.000; -579.000
204.733;    5.975;  178.000;  168.000
204.879; -130.775;-1018.000; -822.000
205.025;   13.250;  -99.000;  126.000
205.170;  -12.075;  -17.000;   94.000
205.316;   69.500;  438.000;  661.000
205.461;  -85.100; -698.000; -554.000
205.607;   88.825;  609.000;  665.000
205.752;  -79.100; -626.000; -551.000
205.898;  -49.700; -501.000; -391.000
206.043;  -67.050; -578.000; -506.000
206.189;  -26.550; -243.000; -285.000
206.334;   63.625;  554.000;  606.000
206.480;   77.975;  409.000;  239.000
206.625;  -83.325; -529.000; -552.000
206.771;  -46.350; -451.000; -373.000
206.916;  -29.125; -210.000; -537.000
207.062;  -56.450; -545.000; -591.000
207.207;  -65.900; -546.000; -443.000
207.353;   51.175;  185.000;  460.000
207.498;   -1.325;  196.000;   85.000
207.643;  -39.550; -501.000; -370.000
207.789; -125.125;-1069.000; -910.000
207.934;  -79.775; -665.000; -713.000
208.080;  -25.550; -154.000;   66.000
208.225;    3.100;  -22.000;  -57.000
208.370;  -82.475; -727.000; -619.000
208.516;  -63.300; -741.000; -487.000
208.661;  -36.525; -127.000;  -69.000
208.806;  -27.975; -165.000; -171.000
208.952; -121.625;-1044.000; -731.000
209.097;   69.375;  378.000;  349.000
209.242;  -57.050; -307.000; -382.000
209.387;   94.175;  392.000;  350.000
209.533;  -50.600; -321.000; -350.000
209.678;   77.600;  472.000;  543.000
209.823;  -56.500; -408.000; -310.000
209.969;  -93.500; -860.000; -757.000
210.114; -111.975; -907.000; -719.000
210.259; -118.600; -939.000; -889.000
210.404;  -18.775; -171.000;  103.000
210.549;   12.575;  108.000;    3.000
210.695;  -13.750;   -3.000;  -95.000
210.840;   46.175;   94.000;   67.000
210.985;  -77.975; -484.000; -303.000
211.130;   71.625;  268.000;  406.000
211.275;   16.425;  207.000;  199.000
211.420;  -37.700; -300.000; -289.000
211.566;  -76.675; -536.000; -489.000
211.711;   21.875;  218.000;  157.000
211.856;  -57.750; -545.000; -519.000
212.001;   16.425;  151.000;   44.000
212.146;   18.700;  153.000;   49.000
212.291;  -14.725; -210.000; -186.000
212.436;  -34.900; -280.000;   -6.000
212.581;  -81.425; -685.000; -653.000
212.726;  -72.700; -487.000; -538.000
212.871;  -45.975; -552.000; -217.000
213.016; -153.550;-1172.000;-1029.000
213.161;   53.675;  406.000;  291.000
213.306;  -69.050; -435.000; -577.000
213.451;  -85.475; -778.000; -689.000
213.596;  -55.300; -455.000; -347.000
213.741;  -52.125; -448.000; -538.000
213.886;  -74.975; -498.000; -517.000
214.031;  -34.375; -294.000; -124.000
214.176;  -59.625; -408.000; -341.000
214.321;  -10.450; -296.000; -157.000
214.466;  -48.425; -163.000;  -43.000
214.611;   -0.650;  -61.000;  -10.000
214.756; -119.025; -948.000; -858.000
214.901;  -22.925; -388.000; -226.000
215.046; -115.975; -797.000; -825.000
215.191;   17.825;  128.000;   35.000
215.336;  -17.850; -157.000;  -19.000
215.480;  -43.850; -684.000; -505.000
215.625;  -13.000; -175.000;  -19.000
215.770;  -66.700; -757.000; -662.000
215.915;  -12.050;   -5.000;  -97.000
216.060;  -16.400; -113.000;  -21.000
216.205; -115.300; -731.000; -779.000
216.349;  -59.150; -470.000; -533.000
216.494; -136.200; -939.000; -867.000
216.639; -108.600; -823.000; -888.000
216.784;  -90.450; -577.000; -525.000
216.929;   46.800;  392.000;  281.000
217.073;  -20.225; -244.000;  -31.000
217.218;    4.850;   78.000;  -47.000
217.363;  -77.225; -656.000; -618.000
217.507;  -73.450; -623.000; -588.000
217.652; -124.025; -845.000; -874.000
217.797;  -74.300; -708.000; -659.000
217.942; -119.350; -856.000; -720.000
218.086;   73.425;  608.000;  539.000
218.231;  -16.550; -174.000;  -26.000
218.376;  -27.475; -337.000; -229.000
218.520;   -9.800;  -41.000;   96.000
218.665;  -34.000; -338.000; -204.000
218.810;  -53.400; -275.000; -233.000
218.954;   35.775;  201.000;   35.000
219.099; -107.825; -713.000; -963.000
219.243;  -63.575; -589.000; -554.000
219.388;  -37.175; -264.000; -136.000
219.532;  -16.225; -116.000; -116.000
219.677;  -69.575; -564.000; -521.000
219.822;    3.225;   33.000;   89.000
219.966;   -1.925;   17.000;  -99.000
220.111;  -35.325; -328.000;  -40.000
220.255;  -88.850; -797.000; -750.000
220.400;  -17.225; -180.000; -146.000
220.544;  -67.900; -516.000; -450.000
220.689;  -41.550; -422.000; -451.000
220.833;  -20.600; -123.000;  -58.000
220.978;  -49.000; -393.000; -563.000
221.122;   22.525;  319.000;  307.000
221.267; -111.075; -906.000; -837.000
221.411;  -67.625; -478.000; -394.000
221.555;    0.050; -104.000;  -23.000
221.700;  -54.150; -329.000; -222.000
221.844;   31.775;  255.000;  272.000
221.989;  -54.600; -328.000; -311.000
222.133;  -44.750; -289.000; -307.000
222.277;  -10.950;    5.000;   78.000
222.422;   22.100;  227.000;  113.000
222.566;  -59.125; -381.000; -214.000
222.711;  -49.225; -414.000; -479.000
222.855;  -85.925; -643.000; -586.000
222.999;  -71.525; -642.000; -717.000
223.144;  -20.875; -195.000; -194.000
223.288;   48.175;  423.000;  251.000
223.432;   11.800;  184.000;  230.000
223.576;    9.475;  152.000;  -21.000
223.721;   40.150;  364.000;  273.000
223.865;  -36.675; -472.000; -475.000
224.009;  236.500; 1673.000; 1631.000
224.153;  -68.825; -660.000; -671.000
224.298;  -68.450; -531.000; -489.000
224.442;  -17.800;  -74.000;  -33.000
224.586;  -15.200; -169.000; -106.000
224.730;  -95.800; -858.000; -670.000
224.875; -115.600; -739.000; -688.000
225.019;    7.875;  102.000;  188.000
225.163;   30.775;  208.000;  341.000
225.307;   13.875;   97.000;  -91.000
225.451;   46.050;  360.000;  481.000
225.595;   39.075;  264.000;  176.000
225.739;  -33.850; -170.000;  -94.000
225.884;   10.150;   86.000;    5.000
226.028;  -99.800; -760.000; -626.000
226.172;  -41.975; -260.000; -273.000
226.316; -122.225; -941.000; -902.000
226.460;  -56.475; -645.000; -493.000
226.604;  -44.900; -406.000; -400.000
226.748; -101.025; -836.000; -733.000
226.892;  -36.450; -227.000; -181.000
227.036;  -50.050; -537.000; -447.000
227.180;  -56.450; -551.000; -375.000
227.324;  -57.550; -561.000; -580.000
227.468; -112.000; -819.000; -717.000
227.612;   27.525;  242.000;  -28.000
227.756; -102.950; -845.000; -698.000
227.900;   39.075;  342.000;  441.000
228.044;  -68.125; -509.000; -290.000
228.188;   62.450;  448.000;  568.000
228.332;  -93.650; -546.000; -472.000
228.476;  -28.750; -223.000; -149.000
228.620;  -35.200; -210.000; -150.000
228.764;   57.325;  431.000;  349.000
228.908;  -21.950; -155.000;   30.000
229.052;  -54.875; -615.000; -528.000
229.195;   -5.850; -172.000;   13.000
229.339;  -24.100; -235.000; -305.000
229.483;  -25.150;    5.000; -162.000
229.627;   -1.100; -156.000;  139.000
229.771;  -46.600; -218.000; -294.000
229.915;    4.575;  230.000;   79.000
230.059;  -89.400; -648.000; -663.000
230.202;  -48.725; -370.000; -317.000
230.346;  -32.300; -107.000;  107.000
230.490;  -53.125; -489.000; -521.000
230.634; -112.825; -736.000; -553.000
230.777;   78.250;  478.000;  509.000
230.921;  -60.275; -450.000; -359.000
231.065;  -35.550; -246.000; -286.000
231.209;   11.775;  261.000;  265.000
231.352;   21.525;   54.000;   40.000
231.496;   18.350;  568.000;  188.000
231.640;  -86.100; -693.000; -621.000
231.783;   43.075;  546.000;  525.000
231.927;  -46.700; -294.000; -365.000
232.071; -121.525; -962.000; -736.000
232.214; -100.150; -980.000; -764.000
232.358; -102.200; -683.000; -599.000
232.502;    8.375;  -19.000;    7.000
232.645; -130.850;-1090.000; -927.000
232.789;   -5.875; -257.000; -218.000
232.933;  -56.025; -407.000; -224.000
233.076; -112.200;-1038.000; -897.000
233.220; -104.825; -752.000; -777.000
233.363;  -58.550; -669.000; -477.000
233.507;   52.350;  371.000;  129.000
233.650;  -91.550; -764.000; -834.000
233.794;   33.275;  438.000;  461.000
233.938;  -57.075; -530.000; -362.000
234.081;  -24.275;  -93.000;   31.000
234.225;  -80.100; -631.000; -539.000
234.368; -105.000; -773.000; -723.000
234.512;  -37.125; -385.000; -299.000
234.655; -101.375; -582.000; -555.000
234.798;  -63.150; -493.000; -466.000
234.942; -127.825; -884.000;-1002.000
235.085;  -71.175; -651.000; -443.000
235.229;  -60.400; -405.000; -410.000
235.372;  -36.950; -247.000; -191.000
235.516;  -75.125; -397.000; -321.000
235.659;   15.525;   92.000;  121.000
235.802;  -12.275;  -38.000;  -22.000
235.946;   21.900;  335.000;  215.000
236.089;   18.675;  126.000;  250.000
236.233;   55.475;  275.000;  298.000
236.376;  -45.025; -235.000; -378.000
236.519;  -45.550; -297.000; -319.000
236.663;  -28.675; -215.000; -117.000
236.806; -119.950;-1029.000; -999.000
236.949;   49.250;  543.000;  431.000
237.092;   57.700;  412.000;  391.000
237.236;  -99.800; -589.000; -502.000
237.379;   66.850;  352.000;  428.000
237.522; -121.550; -879.000; -768.000
237.666;  -14.925; -271.000;   18.000
237.809; -126.500; -851.000; -823.000
237.952;   28.525;  469.000;  271.000
238.095;  -66.475; -447.000; -442.000
238.238;   86.625;  688.000;  700.000
238.382;  -13.425;  166.000;  103.000
238.525;  -65.000; -598.000; -511.000
238.668; -134.875;-1060.000; -985.000
238.811;  -88.700; -638.000; -643.000
238.954;  -67.350; -483.000; -334.000
239.097;   88.500;  617.000;  664.000
239.241;   20.775;  394.000;  326.000
239.384;  -24.975; -254.000; -214.000
239.527;  -69.900; -424.000; -224.000
239.670; -138.150; -994.000;-1091.000
239.813; -108.725; -696.000; -658.000
239.956;   68.200;  579.000;  473.000
240.099; -108.775; -778.000; -725.000
240.242;   57.450;  428.000;  432.000
240.385;   33.475;  466.000;  450.000
240.528;  -65.475; -706.000; -473.000
240.671;    8.725;  189.000;  134.000
240.814;  -47.650; -441.000; -158.000
240.957;  -88.975; -767.000; -578.000
241.100;  -89.850; -779.000; -755.000
241.243; -138.725;-1234.000; -893.000
241.386;  -57.550; -508.000; -379.000
241.529;  -81.975; -735.000; -547.000
241.672;  -49.950; -566.000; -495.000
241.815; -106.975; -832.000; -808.000
241.958;  -15.250; -125.000; -182.000
242.101;  -77.475; -545.000; -390.000
242.244;  -41.600; -270.000; -325.000
242.387;  -57.550; -304.000; -246.000
242.530;   68.550;  470.000;  134.000
242.673;  -37.925; -381.000; -309.000
242.815; -115.350; -925.000; -899.000
242.958;  -58.125; -482.000; -381.000
243.101;   15.825;  132.000;  187.000
243.244;  -89.750; -564.000; -521.000
243.387;  -39.700; -313.000; -316.000
243.530;  -96.550; -657.000; -674.000
243.672;    1.025;   43.000;  -92.000
243.815;  -51.250; -355.000; -283.000
243.958;   -8.300;   98.000;  -26.000
244.101;   -8.075;   59.000;  -16.000
244.243;  -12.850;  -47.000;  101.000
244.386; -115.000; -761.000; -630.000
244.529;  -31.300; -132.000; -139.000
244.672; -153.300;-1154.000; -951.000
244.814;  -87.000; -621.000; -794.000
244.957;  -62.200; -380.000; -304.000
245.100;  -70.050; -489.000; -489.000
245.242;  -62.700; -387.000; -374.000
245.385;    3.450;  -59.000;  -39.000
245.528; -113.075; -871.000; -705.000
245.670;   93.600;  612.000;  634.000
245.813;  -90.900; -599.000; -547.000
245.956;  -23.125; -324.000; -275.000
246.098;  -61.950; -508.000; -650.000
246.241;    2.475;  194.000;   48.000
246.383;  -27.625; -119.000;  -73.000
246.526;  -65.600; -454.000; -525.000
246.669; -123.050; -889.000; -780.000
246.811;   32.050;  172.000;   -1.000
246.954;  -62.125; -512.000; -426.000
247.096;  -15.125;  -84.000;   -6.000
247.239;  -84.175; -482.000; -445.000
247.381;  -78.125; -647.000; -488.000
247.524;   69.725;  645.000;  679.000
247.666;  -11.950;   58.000;   11.000
247.809; -114.875; -887.000; -691.000
247.951;  -15.575;  -75.000;  138.000
248.094;   21.075;  432.000;  308.000
248.236; -155.225;-1262.000;-1238.000
248.378;  -14.675; -356.000;  -81.000
248.521;  -42.575; -334.000; -337.000
248.663;  -53.050; -236.000; -267.000
248.806;  -26.425; -300.000; -266.000
248.948; -114.675; -886.000; -763.000
249.090;  -49.275; -428.000; -398.000
249.233;  -57.275; -344.000; -381.000
249.375;  -73.950; -474.000; -451.000
249.518;  -31.875;  -83.000; -133.000
249.660;  -12.775; -103.000;    3.000
249.802; -158.350;-1303.000;-1189.000
249.945;  -74.900; -612.000; -540.000
250.087; -113.200; -834.000; -768.000
250.229;  -38.450; -362.000; -480.000
250.371;  -84.350; -494.000; -439.000
250.514;  -43.675; -310.000; -244.000
250.656;  -23.375;   69.000;  102.000
250.798; -103.750; -849.000; -800.000
250.940;  -69.675; -322.000; -322.000
251.083;  -27.525; -335.000; -111.000
251.225;   48.950;  338.000;  310.000
251.367;  -47.425; -274.000; -373.000
251.509;  -46.375; -265.000; -210.000
251.651;  -83.325; -731.000; -671.000
251.794;   45.850;  538.000;  632.000
251.936; -122.375; -821.000; -747.000
252.078;  -87.225; -540.000; -461.000
252.220;  -72.650; -645.000; -477.000
252.362;   48.475;  344.000;  462.000
252.504;  -79.400; -677.000; -584.000
252.646; -120.575; -875.000; -722.000
252.788;  -10.975;   14.000; -128.000
252.931;  -45.775; -257.000; -253.000
253.073;  -35.850; -376.000; -317.000
253.215;  -12.500;  141.000;  122.000
253.357;   -3.875;   82.000; -153.000
253.499;  -56.525; -374.000; -234.000
253.641;  -90.750; -749.000; -594.000
253.783; -102.350; -609.000; -527.000
253.925;  -87.125; -586.000; -591.000
254.067; -120.925; -744.000; -667.000
254.209;  -24.275; -391.000; -259.000
254.351; -130.875; -865.000; -883.000
254.493;  -61.725; -441.000; -417.000
254.635; -123.175; -936.000; -818.000
254.777;  -89.600; -752.000; -687.000
254.918;  -72.350; -512.000; -430.000
255.060;  -65.725; -551.000; -395.000
255.202;  -64.425; -473.000; -261.000
255.344;  -75.125; -658.000; -455.000
255.486;  -61.825; -471.000; -406.000
255.628;  -97.900; -780.000; -781.000
255.770;  -98.600; -676.000; -536.000
255.912;  -62.075; -559.000; -468.000
256.053; -101.550; -730.000; -508.000
256.195;  148.300; 1008.000;  903.000
256.337; -106.750; -861.000; -595.000
256.479;   57.375;  532.000;  416.000
256.621;  -52.950; -394.000; -212.000
256.762;  -87.375; -789.000; -742.000
256.904;   31.500;  485.000;  487.000
257.046;  -42.025; -381.000; -271.000
257.188;  -53.150; -351.000; -264.000
257.329;  -67.700; -525.000; -464.000
257.471; -117.375; -939.000; -807.000
257.613;  -53.375; -584.000; -498.000
257.755; -137.675;-1073.000; -982.000
257.896;   27.450;  286.000;  392.000
258.038;  -73.000; -403.000; -352.000
258.180;  -38.125; -354.000; -279.000
258.321;  -88.700; -581.000; -457.000
258.463;  -19.100;  -71.000;  133.000
258.605;  -91.675; -562.000; -570.000
258.746;  -94.300; -886.000; -772.000
258.888; -153.650;-1026.000;-1020.000
259.029;   22.225;  121.000;   -8.000
259.171;  -82.825; -614.000; -550.000
259.313;    8.125;  -49.000;  -47.000
259.454;  -77.250; -536.000; -414.000
259.596;  -62.900; -483.000; -390.000
259.737;  -82.325; -590.000; -474.000
259.879;   37.900;  217.000;  311.000
260.020;   68.750;  901.000;  636.000
260.162;  -25.650; -146.000; -253.000
260.303; -118.900; -768.000; -687.000
260.445;  -84.975; -609.000; -613.000
260.586;   13.875;  392.000;  157.000
260.728;  -55.000; -360.000; -248.000
260.869;  -82.550; -350.000; -343.000
261.011;   65.000;  706.000;  537.000
261.152;  -74.050; -479.000; -319.000
261.293;  -70.625; -576.000; -595.000
261.435;  -39.475; -219.000; -184.000
261.576;  -57.375; -455.000; -325.000
261.718;   49.925;  420.000;  470.000
261.859; -115.975; -940.000; -949.000
262.000; -127.825; -951.000;-1016.000
262.142;  -15.675;  -52.000;  -60.000
262.283; -115.800; -808.000; -691.000
262.424;  -93.300; -666.000; -625.000
262.566; -162.900;-1161.000; -983.000
262.707; -108.300; -840.000; -830.000
262.848; -118.525; -769.000; -726.000
262.990;  -44.975; -362.000; -345.000
263.131;   50.075;  650.000;  681.000
263.272;  -25.900;  -61.000;  -41.000
263.413;  -92.175; -589.000; -561.000
263.555;  -60.400; -669.000; -143.000
263.696;  -92.950; -550.000; -641.000
263.837;  -69.975; -449.000; -551.000
263.978;   -1.500;   -5.000;  -77.000
264.119;  -32.500; -283.000; -264.000
264.261; -116.275; -847.000; -630.000
264.402;  -11.850;   33.000;   40.000
264.543;  -62.650; -509.000; -524.000
264.684;  -13.250;   61.000;  -50.000
264.825;  -89.375; -816.000; -538.000
264.966;  -15.875;  -84.000;  -67.000
265.107; -113.825; -646.000; -670.000
265.248; -124.075; -825.000; -812.000
265.390;  -16.150;  152.000;   -9.000
265.531;  -17.400; -238.000; -107.000
265.672;  -94.000; -557.000; -630.000
265.813;   51.175;  563.000;  439.000
265.954; -142.300; -959.000; -940.000
266.095;  -11.350; -372.000; -322.000
266.236;  -99.250; -686.000; -548.000
266.377;  -37.450; -243.000; -297.000
266.518;  -71.675; -619.000; -547.000
266.659;   25.000;  170.000;  268.000
266.800;   -3.625;   83.000;   85.000
266.941;  -79.675; -487.000; -478.000
267.082;   -4.825;  354.000;   99.000
267.223;  -43.475; -344.000; -273.000
267.364; -119.175; -892.000; -686.000
267.504;  -23.175;    3.000;  135.000
267.645;  -19.025;  160.000;   67.000
267.786;  -42.550; -147.000;  -86.000
267.927;  -66.600; -473.000; -379.000
268.068;  -21.950; -186.000;  -61.000
268.209;  -53.750; -175.000; -413.000
268.350;  -59.075; -388.000; -532.000
268.490;  -91.600; -648.000; -521.000
268.631;   22.900;  127.000;  225.000
268.772; -116.750; -874.000; -647.000
268.913;  -46.000; -328.000; -476.000
269.054;  -30.275; -117.000;   12.000
269.194;  -47.475; -418.000; -402.000
269.335; -155.550;-1137.000;-1074.000
269.476;  -10.125;   33.000;  -35.000
269.617;  -51.250; -347.000; -392.000
269.757;  -89.925; -713.000; -646.000
269.898; -114.850; -856.000; -613.000
270.039;  -62.475; -415.000; -405.000
270.180; -143.450; -952.000; -816.000
270.320;  -32.175; -190.000; -250.000
270.461;  -43.775; -277.000; -249.000
270.602;  -13.125; -186.000; -156.000
270.742; -130.675; -868.000; -943.000
270.883;  -54.350; -442.000; -390.000
271.023;  -72.050; -358.000; -357.000
271.164;  -73.150; -607.000; -528.000
271.305; -112.175; -666.000; -654.000
271.445;  -91.450; -722.000; -683.000
271.586;  -77.675; -462.000; -283.000
271.726;  -39.125; -397.000; -322.000
271.867;  -75.400; -594.000; -534.000
272.008;   40.725; -473.000; -285.000
272.148;   76.150;  462.000;  468.000
272.289;   -2.700; -113.000; -181.000
272.429;  -10.825;   19.000;  185.000
272.570; -105.075; -633.000; -737.000
272.710;  -95.200; -825.000; -775.000
272.851;  -25.600;  113.000; -130.000
272.991; -166.100;-1173.000;-1077.000
273.131;  -71.250; -419.000; -459.000
273.272; -107.700; -683.000; -723.000
273.412;   -7.350; -143.000;  -31.000
273.553;  -70.475; -488.000; -507.000
273.693;  117.700;  913.000;  858.000
273.834; -123.525; -894.000; -692.000
273.974;  -88.800; -664.000; -615.000
274.114; -106.800; -772.000; -560.000
274.255;   57.050;  414.000;  373.000
274.395;  -38.950; -180.000; -125.000
274.535;   26.175;  199.000;  350.000
274.676;    4.700;  225.000;   94.000
274.816;  -11.825;  110.000;   34.000
274.956;  -89.175; -624.000; -690.000
275.097;  -78.575;-1014.000; -922.000
275.237; -116.200; -913.000; -803.000
275.377;  -92.525; -778.000; -689.000
275.517; -152.825; -878.000; -937.000
275.658;  -72.200; -590.000; -555.000
275.798;  -89.325; -606.000; -413.000
275.938;   22.450;  215.000;  323.000
276.078;  -78.300; -626.000; -395.000
276.218;   -5.925;   99.000;  104.000
276.359; -142.725;-1026.000;-1024.000
276.499;  -68.675; -605.000; -446.000
276.639;  -58.300; -305.000; -151.000
276.779;  -47.925; -475.000; -357.000
276.919; -118.150; -783.000; -624.000
277.059;  -19.550; -261.000; -212.000
277.199;  -52.575; -357.000; -259.000
277.340;   24.800;  287.000;  175.000
277.480; -125.625; -840.000; -693.000
277.620;   28.400;  192.000;   16.000
277.760; -198.125;-1533.000;-1294.000
277.900;   -8.200;  113.000;   33.000
278.040;  -20.925;  137.000;  159.000
278.180;   19.550;  270.000;  170.000
278.320;   -2.800;   21.000;   56.000
278.460;  -57.075; -443.000; -469.000
278.600;  -99.975; -708.000; -598.000
278.740;   54.825;  448.000;  224.000
278.880; -119.175; -768.000; -791.000
279.020;  -24.450; -194.000; -144.000
279.160;  -93.675; -672.000; -595.000
279.300; -108.525; -926.000; -873.000
279.440;  -99.000; -709.000; -622.000
279.579;  -81.550;-1014.000; -929.000
279.719;  -65.000; -410.000; -394.000
279.859;   33.725;   -4.000;   41.000
279.999;   -9.200; -208.000;  101.000
280.139;  -43.825; -435.000; -387.000
280.279;  -98.725; -708.000; -745.000
280.419;  -16.725; -229.000; -147.000
280.559;  -36.150; -259.000; -180.000
280.698;  -96.350; -790.000; -639.000
280.838; -112.350; -778.000; -800.000
280.978; -101.650; -846.000; -790.000
281.118; -107.900; -811.000; -704.000
281.257;    5.350;   24.000;    6.000
281.397; -147.025;-1094.000; -960.000
281.537;  -88.475; -599.000; -712.000
281.677;  -36.050; -150.000; -101.000
281.816;  -74.600; -700.000; -630.000
281.956;  -46.975; -193.000; -257.000
282.096;  -54.450; -539.000; -396.000
282.235; -111.975; -672.000; -638.000
282.375;  -11.825; -243.000;  -98.000
282.515; -106.675; -715.000; -707.000
282.654;   12.800;   29.000;  106.000
282.794;   22.400;  388.000;  244.000
282.934;  -60.650; -530.000; -491.000
283.073; -132.825;-1030.000; -857.000
283.213;  -54.650; -460.000; -467.000
283.353;  -52.025; -408.000; -349.000
283.492;  -15.300; -264.000; -296.000
283.632;  -52.600; -254.000; -168.000
283.771;  -89.850; -859.000; -730.000
283.911;  -66.450; -369.000; -260.000
284.050; -101.925; -794.000; -748.000
284.190; -168.825;-1229.000;-1096.000
284.329; -135.125;-1055.000; -964.000
284.469;  -84.200; -516.000; -591.000
284.608;  -64.400; -559.000; -598.000
284.748;  -92.475; -614.000; -570.000
284.887;   -9.000;  -87.000;  -20.000
285.027; -133.875; -844.000; -892.000
285.166;  -25.125; -192.000; -249.000
285.306;  -37.550; -116.000;  -33.000
285.445;  -35.075; -229.000; -343.000
285.584;  -98.450; -630.000; -494.000
285.724;  -36.000; -282.000; -322.000
285.863; -118.550; -857.000; -507.000
286.002;  -51.600; -366.000; -276.000
286.142; -109.700; -715.000; -622.000
286.281;  -64.175; -525.000; -493.000
286.420;  -95.200; -554.000; -417.000
286.560;   92.550;  653.000;  623.000
286.699; -149.175; -958.000; -912.000
286.838;  -80.400; -590.000; -591.000
286.978;  -92.125; -533.000; -537.000
287.117; -122.750;-1085.000; -950.000
287.256;  -57.500; -228.000; -211.000
287.395;  -47.500; -197.000; -378.000
287.535;  -60.750; -370.000; -298.000
287.674;  -76.600; -509.000; -484.000
287.813;   46.125;  661.000;  533.000
287.952; -124.025;-1010.000; -871.000
288.091; -158.850;-1049.000; -915.000
288.231;   -1.925;   13.000;   15.000
288.370; -161.775;-1217.000;-1200.000
288.509;  -86.125; -728.000; -645.000
288.648;  -92.000; -770.000; -548.000
288.787;  -42.325; -243.000;  -87.000
288.926;  -81.400; -454.000; -475.000
289.065;   92.925;  859.000;  672.000
289.204;  -53.025; -377.000; -217.000
289.344;  -98.750; -791.000; -690.000
289.483;   -5.825;  416.000;  304.000
289.622;  -24.525; -291.000; -149.000
289.761;  -31.425; -309.000; -166.000
289.900;  -94.775; -785.000; -626.000
290.039;  -25.550;  -12.000;  -95.000
290.178;  -27.300; -274.000; -180.000
290.317;  -94.075; -618.000; -479.000
290.456;  -53.750; -463.000; -451.000
290.595; -132.325; -961.000; -833.000
290.734; -134.425; -904.000; -891.000
290.873;  -80.650; -456.000; -420.000
291.011; -111.450; -833.000; -843.000
291.150; -113.475; -770.000; -682.000
291.289;  -40.425; -343.000; -110.000
291.428;  -95.225; -599.000; -480.000
291.567;  -55.750; -370.000; -442.000
291.706;   -6.500;  109.000;  154.000
291.845;  -86.575; -597.000; -505.000
291.984; -165.450;-1234.000;-1061.000
292.122;   53.500;  602.000;  582.000
292.261;   33.875;  620.000;  463.000
292.400;    7.375; -144.000;  211.000
292.539; -120.125; -959.000; -813.000
292.678;  -28.725; -325.000; -300.000
292.816; -160.400;-1136.000; -965.000
292.955;  -88.925; -844.000; -684.000
293.094;  -47.450; -173.000; -337.000
293.233;  -50.700; -556.000; -400.000
293.371;  -41.725; -225.000;  -84.000
293.510;  -98.375; -866.000; -780.000
293.649; -140.650; -959.000; -924.000
293.787; -112.075;-1083.000;-1012.000
293.926;  -17.325; -113.000;  -32.000
294.065;  -39.600; -379.000; -290.000
294.203;   30.475;  298.000;  406.000
294.342;   28.500;   74.000;  156.000
294.481; 4991.550;51180.000; -836.000
294.619;  -41.000; -425.000; -582.000
294.758; -162.350;-1230.000;-1137.000
294.896;   13.775; -125.000;    5.000
295.035; -144.175;-1040.000;-1006.000
295.174; -115.475;-1082.000; -954.000
295.312;  -53.875; -323.000; -203.000
295.451;  -40.450; -307.000; -428.000
295.589;  -83.350; -389.000; -518.000
295.728;    7.975; -292.000; -165.000
295.866;  -32.800;  -36.000;  -51.000
296.005;  -72.675; -584.000; -341.000
296.143;  -85.300; -558.000; -596.000
296.282;  -96.525; -957.000; -881.000
296.420;  -94.825; -657.000; -557.000
296.559;  -88.450; -892.000; -633.000
296.697;  -68.225; -847.000; -665.000
296.835;  -83.025;-1141.000;-1002.000
296.974;   15.975;  -23.000;   39.000
297.112;  -37.775; -443.000; -504.000
297.251; -103.175; -815.000; -755.000
297.389;  -24.350; -576.000; -438.000
297.527;   -0.025; -145.000;  -83.000
297.666;  -62.250; -486.000; -438.000
297.804;  -63.675; -404.000; -264.000
297.942;    1.600; -136.000; -161.000
298.081;  -18.400; -183.000;   63.000
298.219;   -0.800;  -17.000;  -19.000
298.357;  -33.975; -144.000;  -71.000
298.495;  -55.100; -810.000; -812.000
298.634;   10.350;  245.000;  219.000
298.772;  -24.125; -220.000; -338.000
298.910;  -55.425; -309.000; -182.000
299.048;   -8.950; -130.000; -153.000
299.187;  -51.950; -350.000; -250.000
299.325;    3.650;   52.000;  122.000
299.463;  -31.375; -389.000; -299.000
299.601;   -1.825; -327.000; -271.000
299.739; -121.375; -908.000; -883.000
299.877;  -88.325; -791.000; -703.000
300.016; -117.450;-1095.000; -935.000
300.154;   39.775;  -19.000; -161.000
300.292;  -49.875; -428.000; -348.000
300.430;  -27.900; -408.000; -291.000
300.568; -134.975; -940.000; -874.000
300.706;  -64.000; -366.000; -469.000
300.844; -124.900;-1108.000; -979.000
300.982;   67.250;  246.000;  282.000
301.120; -127.875; -965.000; -866.000
301.258;  -96.850; -812.000; -705.000
301.396;  -13.750;  104.000;  -41.000
301.534;  -14.825; -218.000; -293.000
301.672;  -77.775; -664.000; -521.000
301.810;  -63.725; -613.000; -545.000
301.948;   14.500;   53.000;  149.000
302.086;  215.075; -250.000;  -32.000
302.224;  235.450; -610.000; -585.000
302.362;  -56.400; -558.000; -622.000
302.500;  -95.650; -923.000; -893.000
302.638;   30.400;  128.000;  245.000
302.776;  -36.800; -352.000; -408.000
302.913;   32.375;  447.000;  236.000
303.051;  -32.950;  -86.000;  -23.000
303.189;   19.075;   90.000;  118.000
303.327;  -49.325; -341.000; -256.000
303.465;  -98.975; -832.000; -588.000
303.603; -104.075; -805.000; -604.000
303.740;   49.100;  417.000;  241.000
303.878;  -80.925; -800.000; -759.000
304.016; -104.300; -915.000; -790.000
304.154; -153.450;-1123.000;-1152.000
304.291;  -51.975; -505.000; -554.000
304.429;   -7.575;  102.000;   74.000
304.567; -137.725; -908.000; -893.000
304.705;  -62.550; -408.000; -515.000
304.842;  -18.450; -616.000; -540.000
304.980;    5.200;  215.000;   35.000
305.118;  -20.025; -367.000; -365.000
305.255; -136.900; -945.000; -927.000
305.393;   26.925;  178.000;  239.000
305.531; -147.100;-1173.000; -956.000
305.668;  -83.675; -663.000; -582.000
305.806;    4.375; -358.000; -439.000
305.943;   -3.550; -629.000; -637.000
306.081;  -27.575; -378.000; -267.000
306.219; -100.450; -863.000; -748.000
306.356;    2.125;  158.000;   27.000
306.494;  122.450;  981.000;  761.000
306.631;  -17.275;  -11.000;  -55.000
306.769;  -16.100; -613.000; -485.000
306.906;  -30.975; -284.000; -258.000
307.044;  -48.400; -473.000; -488.000
307.181;  -69.425; -410.000; -332.000
307.319;    7.925;  112.000;   87.000
307.456; -166.950;-1191.000;-1153.000
307.594; -105.950; -980.000; -727.000
307.731;  -32.500; -371.000; -164.000
307.868;   -3.850;  -15.000;   20.000
308.006; -134.150; -961.000; -847.000
308.143;  -77.950; -618.000; -330.000
308.281;   47.425;  -37.000; -254.000
308.418;  -51.100; -748.000; -640.000
308.555;  -83.150; -400.000; -250.000
308.693;  -64.500; -577.000; -573.000
308.830; -112.925; -712.000; -657.000
308.967;  -18.625; -215.000;  -95.000
309.105;  -45.775; -507.000; -396.000
309.242;   -7.350; -468.000; -367.000
309.379;   41.150; -577.000; -655.000
309.517;  -86.550; -936.000; -948.000
309.654; -109.850; -910.000; -734.000
309.791;  -76.350; -662.000; -580.000
309.928; -113.450; -977.000; -914.000
310.065;  130.200;  819.000;  697.000
310.203;  -81.400; -825.000; -850.000
310.340;  -22.425; -465.000; -321.000
310.477;  -91.825; -412.000; -516.000
310.614;  -62.450; -383.000; -473.000
310.751;  -78.500; -427.000; -518.000
310.889;  -21.075;    1.000;   11.000
311.026; -144.125;-1161.000; -939.000
311.163;  -37.625; -386.000; -380.000
311.300;  -83.800; -512.000; -479.000
311.437;  -72.025; -658.000; -619.000
311.574; -152.075;-1226.000; -985.000
311.711;  -41.100; -595.000; -433.000
311.848;  -28.700; -380.000; -388.000
311.985;    3.200;  270.000;   93.000
312.122; -110.700; -932.000; -762.000
312.259;  -98.900; -941.000; -994.000
312.396;  -69.950; -508.000; -551.000
312.533;  -72.400; -812.000; -790.000
312.670; -141.325;-1070.000; -898.000
312.807;  -34.825; -352.000; -367.000
312.944;  -73.475; -513.000; -611.000
313.081;  -11.375; -150.000; -415.000
313.218;  -86.525;-1111.000; -867.000
313.355;   -6.550; -531.000; -449.000
313.492;  -23.250; -455.000; -292.000
313.629;  134.575;  815.000;  735.000
313.766; -160.400;-1176.000;-1008.000
313.902;   -6.925; -186.000;   21.000
314.039;  -54.450; -372.000; -289.000
314.176;   23.000;  286.000;  192.000
314.313;  -67.150; -569.000; -473.000
314.450;  -70.375; -788.000; -684.000
314.587;  -67.225; -468.000; -480.000
314.723;   12.575;  -78.000;  130.000
314.860;   39.600;  318.000;  332.000
314.997;   25.150;  223.000;  142.000
315.134;  -35.425; -385.000; -368.000
315.270;  -27.975; -480.000; -496.000
315.407; -124.875;-1094.000; -967.000
315.544;  -45.675; -657.000; -538.000
315.681;  -54.950; -681.000; -565.000
315.817;   50.750; -133.000; -176.000
315.954;   38.450; -613.000; -392.000
316.091; -116.275;-1045.000;-1023.000
316.227;  -32.075;  -71.000; -179.000
316.364;    3.600;   23.000;    6.000
316.500;  -48.300; -113.000; -300.000
316.637;  -42.675; -181.000; -302.000
316.774;  -89.925; -625.000; -358.000
316.910;  -93.850; -598.000; -629.000
317.047;  -77.900; -487.000; -351.000
317.183;  -73.425; -435.000; -566.000
317.320;   33.000; -367.000; -321.000
317.456;  -30.850; -733.000; -805.000
317.593;  -89.300; -598.000; -641.000
317.729;   -0.650;  168.000;  -67.000
317.866; -194.800;-1434.000;-1285.000
318.002; -100.000; -708.000; -948.000
318.139; -124.375; -883.000; -867.000
318.275;  -99.750;-1003.000; -738.000
318.412;  -66.450; -517.000; -336.000
318.548;  -68.875; -751.000; -720.000
318.685; -104.700; -985.000; -888.000
318.821;  -90.950; -762.000; -735.000
318.957;  -25.100;   34.000;  -23.000
319.094;   50.550;  297.000;  154.000
319.230;  -93.600; -756.000; -742.000
319.367;    1.525; -471.000; -520.000
319.503;  -37.550; -538.000; -436.000
319.639; -102.575; -877.000; -793.000
319.775; -102.850; -750.000; -685.000
319.912;  -59.775; -424.000; -519.000
320.048;  -96.500;-1184.000;-1184.000
320.184;   89.125;   59.000;   70.000
320.321;  -67.075; -497.000; -467.000
320.457;   69.975;  475.000;  662.000
320.593;  -73.150; -375.000; -382.000
320.729; -103.475; -732.000; -734.000
320.866;  -67.725; -577.000; -635.000
321.002; -102.375; -759.000; -809.000
321.138;  -43.350; -135.000; -211.000
321.274;   17.025; -148.000; -115.000
321.410;  -59.575; -585.000; -353.000
321.546;  -95.275;-1011.000; -911.000
321.683;    9.475;  400.000;  185.000
321.819;   -9.675;  -48.000; -117.000
321.955; -122.700; -743.000; -722.000
322.091;  -74.775; -585.000; -540.000
322.227;  -53.275; -382.000; -202.000
322.363;  -52.750; -320.000; -215.000
322.499;  -54.175; -343.000; -331.000
322.635;   90.400;  636.000;  443.000
322.771;  -23.200; -139.000;   12.000
322.907;   37.200;  129.000;  327.000
323.043;  -34.550; -115.000; -206.000
323.179;  -54.650; -394.000; -363.000
323.315;  -60.925; -401.000; -371.000
323.451;   19.050; -328.000; -236.000
323.587;   52.800;  -60.000;  -77.000
323.723;  -45.925; -682.000; -601.000
323.859;  -36.975; -258.000;  -76.000
323.995;  -38.000; -467.000; -409.000
324.131; -128.000; -967.000; -892.000
324.267;  -44.075; -254.000; -276.000
324.402; -142.025; -960.000; -983.000
324.538;  -34.500; -279.000; -104.000
324.674;   -7.275;  164.000;   77.000
324.810;   35.425;  226.000;  308.000
324.946;  -61.750; -810.000; -658.000
325.082;  -84.275; -568.000; -475.000
325.217;  -23.925;  -62.000;   16.000
325.353; -102.325; -764.000; -659.000
325.489;  -95.725; -540.000; -506.000
325.625;  -69.850; -579.000; -525.000
325.760;   67.475;  517.000;  376.000
325.896;   14.800; -515.000; -702.000
326.032;  -61.475; -403.000; -352.000
326.168;  -63.725; -462.000; -369.000
326.303;  -81.000; -352.000; -461.000
326.439;   -0.325; -336.000; -276.000
326.575;  -28.175; -190.000;  -29.000
326.710;  -21.975; -156.000;  -30.000
326.846;  -23.950;  146.000;  103.000
326.982;  -84.325; -530.000; -548.000
327.117;  -76.200; -481.000; -442.000
327.253;  -84.975; -745.000; -742.000
327.388; -169.300;-1137.000;-1153.000
327.524;  -73.475; -811.000; -578.000
327.659;  -48.675;  -58.000;  -22.000
327.795;  -11.575;   69.000;   45.000
327.931;  -79.225; -723.000; -499.000
328.066;  -24.425; -417.000; -276.000
328.202;  -36.725;   12.000; -129.000
328.337;   93.200;  957.000;  713.000
328.473;   18.225;  -12.000;  -74.000
328.608;  -25.950; -256.000; -267.000
328.743; -114.975; -799.000; -664.000
328.879;   19.600;  214.000;  114.000
329.014;  -48.700; -102.000; -122.000
329.150;  -90.575; -358.000; -483.000
329.285; -100.125; -465.000; -466.000
329.421;  -43.025; -548.000; -246.000
329.556;  -23.725;  -36.000;   85.000
329.691;  -86.300; -633.000; -615.000
329.827;  -89.500; -626.000; -480.000
329.962;  -40.175;  131.000; -301.000
330.097;  -85.200; -673.000; -585.000
330.233;  -49.900; -410.000; -223.000
330.368; -133.900; -839.000; -628.000
330.503;  -11.150;    3.000;   98.000
330.638;  -29.725;  -93.000; -125.000
330.774;  -76.800; -609.000; -530.000
330.909;  -64.425; -434.000; -244.000
331.044;  -96.925; -714.000; -708.000
331.179; -167.925;-1217.000;-1109.000
331.315;   17.800;   77.000;   20.000
331.450;   -2.875;  157.000;  285.000
331.585;  -83.450; -805.000; -706.000
331.720;  -90.550; -510.000; -460.000
331.855;    7.150;  -35.000; -102.000
331.990;  426.225;   62.000;  138.000
332.126;  216.475; -110.000;   71.000
332.261;   -9.050; -379.000; -265.000
332.396;   16.500; -135.000; -242.000
332.531;  -67.975;-1074.000;-1031.000
332.666;   90.300; -519.000; -363.000
332.801;  -97.200; -726.000; -807.000
332.936;  -26.025; -192.000; -122.000
333.071; -127.775; -870.000; -817.000
333.206;   18.825;  307.000;  379.000
333.341;   16.700;  344.000;  418.000
333.476;  -76.225; -627.000; -623.000
333.611;  -58.350; -251.000; -173.000
333.746;  -43.825; -381.000; -464.000
333.881; -124.800; -973.000; -935.000
334.016; -126.975; -936.000; -917.000
334.151; -128.900; -746.000; -702.000
334.286;   36.350;  152.000;  186.000
334.421;  -21.625; -125.000; -178.000
334.556;  -77.700; -611.000; -567.000
334.690;  -97.525; -631.000; -577.000
334.825;   37.850;  381.000;   83.000
334.960;  -52.800; -285.000; -413.000
335.095;    9.950;  135.000;  -91.000
335.230; -103.175; -722.000; -738.000
335.365; -118.150;-1084.000; -990.000
335.499; -120.675;-1108.000;-1037.000
335.634;   29.375;    9.000;  534.000
335.769;  -88.625; -755.000; -720.000
335.904;  -54.575; -603.000; -561.000
336.038;  -33.000; -735.000; -657.000
336.173; -115.400;-1206.000;-1194.000
336.308;   10.100; -116.000; -189.000
336.443;   72.075; -544.000; -634.000
336.577;  -55.050; -936.000; -787.000
336.712;   84.000;   -4.000;  -12.000
336.847;  -29.250; -724.000; -607.000
336.981;   72.400; -272.000; -208.000
337.116;  287.300;  615.000;  501.000
337.250;  134.875; -434.000; -421.000
337.385;  446.575; -297.000; -208.000
337.520;  234.925; -632.000; -603.000
337.654;  -45.750; -215.000; -126.000
337.789; -123.950; -989.000; -933.000
337.923;  -39.725; -104.000; -205.000
338.058; -107.750; -673.000; -738.000
338.192;  -70.700; -611.000; -488.000
338.327;   -5.775;  -18.000; -155.000
338.461;  -76.800; -299.000; -469.000
338.596;  -91.825; -780.000; -638.000
338.730;  -95.900; -767.000; -803.000
338.865;  143.725;  -46.000; -140.000
338.999;    5.200; -846.000; -702.000
339.134;   -3.850; -634.000; -536.000
339.268;   30.200; -741.000; -603.000
339.403;  568.750; -740.000; -775.000
339.537;  259.375; -894.000; -820.000
339.671;  -85.975; -829.000; -813.000
339.806;  -23.750; -556.000; -512.000
339.940;   41.325; -261.000; -235.000
340.074;  -94.075; -685.000; -510.000
340.209;  -48.050; -351.000; -230.000
340.343;  -90.900; -517.000; -573.000
340.477;  115.450;  998.000; 1036.000
340.612;    4.800;-1033.000; -900.000
340.746;  242.400; -199.000; -243.000
340.880; -104.725; -924.000; -785.000
341.014;  -24.275;  -45.000; -154.000
341.149; -128.075; -756.000; -718.000
341.283; -115.325; -839.000; -754.000
341.417; -135.475;-1124.000; -938.000
341.551;  -39.900; -768.000; -708.000
341.685;  -62.350; -633.000; -611.000
341.820;  -37.800; -562.000; -493.000
341.954;  -60.150; -218.000; -349.000
342.088; -140.975;-1102.000;-1019.000
342.222;   38.100;  565.000;  618.000
342.356;  -73.075; -395.000; -335.000
342.490; -155.800; -880.000; -841.000
342.624;  -62.450; -339.000; -242.000
342.758;  -58.375; -364.000; -312.000
342.892;  -96.525; -710.000; -585.000
343.026;  -55.775;  -58.000; -116.000
343.160;  -54.875; -426.000; -376.000
343.294; -100.150; -474.000; -337.000
343.428;  -77.300; -488.000; -448.000
343.562;  -40.075; -172.000;  -23.000
343.696;  -46.125; -385.000; -314.000
343.830;  -48.000; -362.000; -356.000
343.964;  -29.150; -231.000; -168.000
344.098;  306.900;  199.000;   70.000
344.232;  266.975; -266.000; -127.000
344.366;   71.725; -567.000; -453.000
344.500;  -36.600; -665.000; -744.000
344.634;  -27.950; -324.000; -164.000
344.768;  -52.250; -531.000; -341.000
344.902;   -6.275;  278.000;  256.000
345.035;  -78.150; -556.000; -496.000
345.169; -149.775; -933.000; -656.000
345.303;  -61.800; -308.000; -482.000
345.437; -118.900; -826.000; -717.000
345.571;  -65.425; -675.000; -594.000
345.704;  -64.025; -309.000; -532.000
345.838;  -27.800; -331.000; -284.000
345.972;  -66.500; -543.000; -495.000
346.106;  252.075; -179.000; -190.000
346.239;  465.650; -312.000; -243.000
346.373;   -8.650; -343.000; -302.000
346.507; -148.475; -950.000; -962.000
346.640;   32.200;  -30.000;   13.000
346.774;  -86.525; -650.000; -797.000
346.908;  -34.150; -138.000;  -11.000
347.041; -109.600; -646.000; -593.000
347.175;   -9.850;  259.000;   27.000
347.309; -110.150; -698.000; -628.000
347.442; -110.575; -883.000; -732.000
347.576;  117.500;  670.000;  668.000
347.709;   46.500; -123.000;  -52.000
347.843; -128.700; -933.000; -825.000
347.976;   25.275;  235.000;  294.000
348.110; -183.950;-1268.000;-1186.000
348.243; -102.850; -679.000; -772.000
348.377;    8.025;  -26.000;   60.000
348.510;   31.775;  403.000;  540.000
348.644;  -46.650;  -37.000; -159.000
348.777;    4.175;  180.000;  191.000
348.911;  -54.200; -142.000; -112.000
349.044;   94.725;  471.000;  448.000
349.178;  -29.375;-1069.000;-1006.000
349.311;   91.575;  141.000;  255.000
349.444;   24.275; -927.000; -813.000
349.578;  -24.175; -347.000; -200.000
349.711; -131.700; -959.000; -862.000
349.845;  -53.250; -661.000; -591.000
349.978; -168.625;-1224.000;-1137.000
350.111;  -84.400; -546.000; -612.000
350.244;  -98.425; -596.000; -700.000
350.378;  -55.700; -392.000; -393.000
350.511;  -90.925; -393.000; -426.000
350.644;  -93.425; -808.000; -806.000
350.778;    0.150;  168.000;  104.000
350.911;  -12.300;  134.000;  140.000
351.044; -101.725; -685.000; -615.000
351.177;  -39.075; -321.000; -281.000
351.310;  -35.925;    3.000; -131.000
351.444; -106.850; -888.000; -788.000
351.577;   21.325;  140.000;   90.000
351.710;   66.275;  593.000;  417.000
351.843;  -44.050; -165.000;  -77.000
351.976;  -16.350;  149.000;  -79.000
352.109; -110.575; -621.000; -612.000
352.242;  -61.100; -464.000; -419.000
352.376;  -94.425; -580.000; -636.000
352.509;    4.875; -437.000; -356.000
352.642;  -97.600; -654.000; -604.000
352.775;   10.850; -141.000;  -98.000
352.908; -133.625; -933.000; -904.000
353.041; -108.475; -814.000; -824.000
353.174;  -67.450; -551.000; -424.000
353.307;  -90.100; -753.000; -764.000
353.440;   43.150;  541.000;  453.000
353.573; -106.825; -957.000;-1008.000
353.706;  -50.475; -384.000; -558.000
353.839;  -31.550; -264.000; -220.000
353.971; -107.125; -657.000; -512.000
354.104;  -96.550; -896.000; -835.000
354.237;  -93.300; -627.000; -662.000
354.370;  -94.550; -846.000; -879.000
354.503; -189.825;-1231.000;-1308.000
354.636;  -31.625; -529.000; -348.000
354.769; -135.725; -937.000; -860.000
354.902;  -21.100; -230.000; -139.000
355.034;  -13.375; -164.000; -220.000
355.167;  -15.825; -262.000; -162.000
355.300;  -65.450;-1061.000; -880.000
355.433; 1461.025;  -71.000;  -14.000
355.565; 2296.975; -402.000; -384.000
355.698;  588.050; -356.000; -296.000
355.831;  -12.075; -882.000; -801.000
355.964;   36.050; -285.000; -170.000
356.096;  -79.775; -856.000; -843.000
356.229;    2.450; -523.000; -530.000
356.362;  502.200; -373.000; -266.000
356.494;  928.650; -229.000; -162.000
356.627;  337.650;  269.000;  377.000
356.760;  900.425;  120.000;   53.000
356.892; 1525.875; -286.000; -601.000
357.025;  356.700;  403.000;  389.000
357.157;  251.375; -167.000; -179.000
357.290; 1213.850; -856.000; -713.000
357.423;  359.250; -667.000; -556.000
357.555;  112.150; -217.000; -228.000
357.688;  138.650; -483.000; -364.000
357.820;  166.950; -870.000; -877.000
357.953; 1573.825; -563.000; -589.000
358.085;  256.325; -632.000; -612.000
358.218;  117.125;-1131.000; -932.000
358.350;   57.775;  -58.000;  312.000
358.483; -150.275;-1300.000;-1187.000
358.615; -123.325;-1182.000;-1078.000
358.747; -171.475;-1187.000;-1058.000
358.880;  -46.050; -810.000; -744.000
359.012;  -34.800; -376.000; -202.000
359.145;  -59.750; -480.000; -511.000
359.277;  -69.475; -962.000; -913.000
359.409; 1293.250;  536.000;  231.000
359.542;  279.925; -738.000; -688.000
359.674;   27.650;   46.000;   13.000
359.806;  -75.750; -565.000; -438.000
359.939;  -34.775; -617.000; -516.000
360.071;   33.075; -583.000; -579.000
360.203;  -24.100; -411.000; -364.000
360.335;   13.925;  164.000;  -16.000
360.468;   92.300; -249.000; -307.000
360.600; 1379.975; -547.000; -454.000
360.732; 4259.025; -546.000; -423.000
360.864;  654.600;-1216.000;-1044.000
360.996;   65.950; -516.000; -554.000
361.129;  -58.000; -389.000; -598.000
361.261;    2.025;  110.000; -113.000
361.393;  -52.325; -252.000; -214.000
361.525;   -1.675;   94.000;  244.000
361.657; -109.875; -821.000; -703.000
361.789;  -37.400; -139.000; -155.000
361.921;  -53.450; -642.000; -593.000
362.053;   89.000;  524.000;  541.000
362.185;   -2.300;  288.000;   72.000
362.318; -108.925; -709.000; -705.000
362.450;   28.250;  294.000;  444.000
362.582;  -78.850; -913.000; -870.000
362.714;  -64.375; -353.000; -332.000
362.846;  -95.925; -606.000; -490.000
362.978; -146.050; -941.000; -811.000
363.109;  -25.125; -161.000; -260.000
363.241;  159.525; -739.000; -749.000
363.373;  638.000; -649.000; -564.000
363.505; 1056.500; -186.000;  -91.000
363.637;  238.275; -787.000; -601.000
363.769; -128.375;-1067.000;-1080.000
363.901;  -84.200; -596.000; -654.000
364.033; -154.950;-1103.000;-1062.000
364.165;  -33.850; -283.000; -283.000
364.296;   99.850; -316.000; -177.000
364.428;  183.800;-1344.000;-1220.000
364.560;  -65.575; -679.000; -661.000
364.692;  -67.350; -738.000; -835.000
364.824;  -10.300; -588.000; -456.000
364.955;  513.050; -402.000; -564.000
365.087; 1706.475;-1097.000; -852.000
365.219;  109.650; -686.000; -816.000
365.351;  -75.025; -526.000; -572.000
365.482;   20.425;  300.000;  240.000
365.614;  -62.075; -402.000; -314.000
365.746; -105.950; -729.000; -752.000
365.877;  -99.375; -706.000; -672.000
366.009;  409.675;  -35.000;  -62.000
366.141;  -45.475;-1249.000;-1134.000
366.272; -108.825; -803.000; -719.000
366.404; -119.550;-1005.000; -874.000
366.535;  -15.875; -139.000;  -12.000
366.667; -109.500; -644.000; -649.000
366.799;   29.525;  353.000;  203.000
366.930; -137.850; -862.000; -996.000
367.062;  181.700; -639.000; -613.000
367.193;  353.775; -872.000; -842.000
367.325;  -46.525; -580.000; -684.000
367.456;   -4.600; -246.000;   31.000
367.588;  262.725; -371.000; -318.000
367.719;   40.575;  -44.000;  -45.000
367.851;  -23.050; -222.000; -241.000
367.982; -126.200; -875.000; -732.000
368.113;  -12.375; -475.000; -358.000
368.245; -164.600; -960.000; -841.000
368.376;  -43.775; -254.000; -302.000
368.508;  -60.200; -188.000; -263.000
368.639; -153.500;-1166.000;-1034.000
368.770; -106.925; -670.000; -589.000
368.902; -113.375; -836.000; -926.000
369.033; -127.550; -906.000; -855.000
369.164;  -27.775; -720.000; -653.000
369.296; -108.350; -452.000; -601.000
369.427;  -48.825; -209.000; -144.000
369.558;  -85.900; -593.000; -377.000
369.689;  -79.850; -721.000; -569.000
369.821; -133.300; -951.000; -845.000
369.952;  -38.575;   42.000; -108.000
370.083;  -55.525; -229.000; -108.000
370.214; -101.850; -735.000; -650.000
370.345;  -34.775;   65.000;   81.000
370.477; -108.525; -810.000; -790.000
370.608;   33.225; -328.000; -264.000
370.739; -122.475;-1233.000;-1292.000
370.870; -130.400;-1102.000; -923.000
371.001;  -20.875; -378.000; -467.000
371.132; -101.375; -754.000; -735.000
371.263;  -27.150;  -42.000; -148.000
371.394; -143.250; -841.000; -748.000
371.525;   -9.475;  345.000;  225.000
371.657; -129.375; -808.000; -670.000
371.788;   25.800;  103.000;  199.000
371.919;   10.575; -384.000; -304.000
372.050; 1343.475;  -91.000; -156.000
372.181;  410.300; -188.000; -294.000
372.311;  104.500;   42.000; -127.000
372.442;  -44.900; -457.000; -451.000
372.573;  -38.725; -444.000; -340.000
372.704; -145.650;-1008.000; -980.000
372.835;  -27.500; -228.000; -289.000
372.966;  -83.850; -646.000; -554.000
373.097;  -94.075; -575.000; -711.000
373.228; -100.025; -717.000; -542.000
373.359;  -31.425; -824.000; -536.000
373.490;  180.100; -881.000; -727.000
373.620;  284.875;-1001.000; -803.000
373.751;  578.100; -332.000; -396.000
373.882;  220.525; -663.000; -733.000
374.013;  -16.625; -449.000; -262.000
374.143;  -81.775; -581.000; -659.000
374.274; -135.350; -987.000; -908.000
374.405;   56.625; -388.000; -276.000
374.536;  105.100; -526.000; -387.000
374.666;  324.825; -759.000; -807.000
374.797;   -9.125; -817.000; -868.000
374.928;  211.675; -710.000; -560.000
375.058;  213.675; -535.000; -500.000
375.189;   17.850;  -59.000;  -93.000
375.320; -131.100; -928.000;-1034.000
375.450;  -55.700; -625.000; -616.000
375.581;  -43.975; -526.000; -436.000
375.712;  -46.425; -574.000; -250.000
375.842;   -4.250; -438.000; -415.000
375.973;  -15.650; -554.000; -513.000
376.103; -102.500; -665.000; -648.000
376.234;  -88.500; -531.000; -552.000
376.364; -128.800; -944.000; -867.000
376.495;  152.025;  925.000;  529.000
376.625;  -61.850; -472.000; -485.000
376.756;  -58.150; -709.000; -678.000
376.886; -147.775;-1178.000;-1026.000
377.017;  153.450;-1048.000;-1061.000
377.147;  646.950; -786.000; -782.000
377.278;   96.425;  174.000;  228.000
377.408; -132.250; -801.000; -815.000
377.538; -102.350; -707.000; -693.000
377.669;  -97.675; -537.000; -613.000
377.799; -105.550; -645.000; -635.000
377.929;  -99.325; -610.000; -428.000
378.060; -128.300; -781.000; -847.000
378.190;  -57.350; -726.000; -531.000
378.320;  -45.300; -401.000; -406.000
378.451;  -41.850; -131.000;  -22.000
378.581;  -18.600;  -67.000; -110.000
378.711;   82.375; 1035.000;  866.000
378.841;  -67.200; -533.000; -675.000
378.972; -120.300; -871.000; -751.000
379.102;  -62.675; -652.000; -579.000
379.232;  -54.925; -126.000;  -73.000
379.362; -117.000;-1001.000; -885.000
379.492;  -70.325; -373.000; -424.000
379.623;   39.725;    0.000;  111.000
379.753; -128.475;-1107.000; -974.000
379.883;   81.125;   59.000;  156.000
380.013;  -86.825;-1081.000;-1017.000
380.143; -125.725;-1097.000;-1056.000
380.273; -105.725; -985.000; -861.000
380.403;   15.225; -344.000; -257.000
380.533;  -55.225; -651.000; -664.000
380.663;   14.775;  173.000;  128.000
380.793; -148.500;-1027.000;-1074.000
380.923;  -43.450; -103.000;  -34.000
381.053; -119.825; -613.000; -623.000
381.183;  -44.800; -106.000; -248.000
381.313;  -76.675; -656.000; -470.000
381.443;  -44.675; -692.000; -473.000
381.573;  -38.750; -402.000; -409.000
381.703;  -73.725;-1249.000;-1095.000
381.833; -181.725;-1454.000;-1336.000
381.963;   16.775; -134.000;  -87.000
382.093;  421.950; -925.000; -909.000
382.223;  105.275; -713.000; -602.000
382.353; -105.275; -801.000; -608.000
382.482;    5.025;-1091.000; -964.000
382.612;  188.350; -872.000; -644.000
382.742;   86.075; -695.000; -622.000
382.872;  -11.775; -565.000; -551.000
383.002;   30.275;  347.000; -132.000
383.131;  -39.775; -226.000; -160.000
383.261;  -46.025; -706.000; -768.000
383.391;  326.125; -552.000; -377.000
383.521; 5069.975;  451.000;  263.000
383.650; 1510.700; -947.000; -904.000
383.780;   44.800; -783.000; -656.000
383.910;   86.725;  880.000;  802.000
384.039;  -83.525; -794.000; -656.000
384.169;  -82.500;-1205.000;-1017.000
384.299;  -92.725; -650.000; -662.000
384.428; -123.775; -764.000; -680.000
384.558;  -54.925; -308.000; -275.000
384.687;  -75.125; -414.000; -334.000
384.817;   -4.200;   75.000;   -2.000
384.947;  -35.000; -234.000; -141.000
385.076;  162.275;  982.000;  912.000
385.206;   49.625;  369.000;  480.000
385.335;  -55.250; -549.000; -417.000
385.465; -119.300; -655.000; -663.000
385.594;   20.475;  -53.000;  -44.000
385.724;   60.975; -868.000; -838.000
385.853;   -6.900; -296.000; -270.000
385.982;  378.825; -743.000; -787.000
386.112;  723.575;-1052.000; -871.000
386.241;    4.625; -307.000; -312.000
386.371;  -44.025; -174.000;  -87.000
386.500;  -51.450; -825.000; -789.000
386.629;   -5.050; -874.000; -817.000
386.759;   60.975;  -43.000;   68.000
386.888;  -23.250; -170.000; -250.000
387.017; -111.475; -648.000; -620.000
387.147; -108.825; -771.000; -798.000
387.276;  -67.575; -410.000; -397.000
387.405;  -42.950; -398.000; -342.000
387.535;  -73.675; -452.000; -361.000
387.664;  -74.500; -692.000; -620.000
387.793;  -24.000; -198.000; -113.000
387.922;  161.125;  255.000;  200.000
388.052;  -69.250; -576.000; -423.000
388.181;  -64.975; -342.000; -472.000
388.310; -110.300; -889.000; -710.000
388.439; -111.775; -749.000; -742.000
388.568;   45.400;  365.000;  244.000
388.697;  274.075; -756.000; -653.000
388.826;   -9.925; -768.000; -666.000
388.956;  -31.225; -285.000; -307.000
389.085;  -65.850; -347.000; -287.000
389.214; -128.525; -842.000; -872.000
389.343;  -91.350; -645.000; -413.000
389.472;  568.350;  126.000;  149.000
389.601;  628.525;   91.000;    0.000
389.730;  -35.325; -568.000; -687.000
389.859;   12.800;  226.000;   46.000
389.988;   30.825; -423.000; -408.000
390.117;   22.200; -168.000; -146.000
390.246;  -47.600; -331.000; -320.000
390.375;  -52.425; -673.000; -626.000
390.504;  -82.250; -703.000; -621.000
390.633; -138.325; -672.000; -726.000
390.761;  -94.525; -732.000; -645.000
390.890;  -42.425;   -4.000; -130.000
391.019;  -76.700; -421.000; -441.000
391.148; -142.650; -826.000; -855.000
391.277;  -85.600; -576.000; -493.000
391.406; -118.950; -821.000; -805.000
391.534;   11.850;  574.000; -301.000
391.663;  -96.975; -583.000; -645.000
391.792; -107.400; -673.000; -701.000
391.921;  -21.350;   -3.000;   15.000
392.050;    7.775; -287.000; -228.000
392.178; -142.250;-1206.000;-1061.000
392.307;  -23.075; -758.000; -712.000
392.436;  -60.875; -427.000; -641.000
392.564;    2.250;  166.000;   -6.000
392.693; -120.275; -860.000; -682.000
392.822;  -10.925; -529.000; -534.000
392.950;  -51.250; -880.000; -714.000
393.079;   59.275; -188.000; -328.000
393.208;  -50.925; -488.000; -511.000
393.336;  -21.225; -170.000; -145.000
393.465;  -50.350; -317.000; -199.000
393.593;  -20.625;   62.000;   79.000
393.722; -153.800;-1121.000; -916.000
393.850;  -24.500; -188.000;  -61.000
393.979; -145.200; -926.000; -805.000
394.107;  -54.200; -517.000; -537.000
394.236;  -58.025; -570.000; -507.000
394.364;   97.225;  383.000;  206.000
394.493;   69.300; -911.000; -767.000
394.621;    6.575; -955.000; -916.000
394.750; 1134.425; -873.000; -923.000
394.878; 4497.125; -247.000; -149.000
395.007; 6547.775; -721.000; -807.000
395.135;  579.100; -790.000; -721.000
395.263;  -64.925;-1038.000;-1040.000
395.392;    6.425;  -25.000; -107.000
395.520; -123.725; -818.000; -679.000
395.648; -133.125; -865.000; -915.000
395.777;  -70.575; -366.000; -405.000
395.905;  -73.275; -449.000; -564.000
396.033;  -16.025;  217.000;  172.000
396.162;  118.700; -399.000; -453.000
396.290;  118.550;  -17.000;   -2.000
396.418;  -36.325; -555.000; -514.000
396.546; -108.250; -571.000; -466.000
396.674; -120.275; -850.000; -878.000
396.803;  -33.000;  -72.000;  -23.000
396.931;  -30.575; -179.000; -199.000
397.059; -135.750;-1026.000; -989.000
397.187; -150.750;-1026.000; -975.000
397.315; -155.075; -884.000; -649.000
397.443;  -99.775; -592.000; -443.000
397.572; -109.425; -578.000; -424.000
397.700;  -91.350; -607.000; -614.000
397.828;  -43.325;  120.000;  -90.000
397.956;  -30.450; -508.000; -478.000
398.084;  -41.875; -767.000; -626.000
398.212;    6.025;  137.000;  124.000
398.340;  -34.900;  -56.000;  159.000
398.468;  -50.525; -390.000; -169.000
398.596; -153.325; -993.000; -953.000
398.724; -119.625; -762.000; -767.000
398.852; -161.275;-1024.000; -976.000
398.980;  -80.700; -560.000; -560.000
399.108;  -95.650; -982.000; -735.000
399.236;  -14.225;   13.000;    8.000
399.363;  -22.175;  222.000;  196.000
399.491;  -64.150; -404.000; -398.000
399.619; -135.650; -829.000; -800.000
399.747; -107.600; -859.000; -771.000
399.875;   31.100;  220.000;  234.000
400.003;  -53.725; -359.000; -284.000
400.130; -106.975; -421.000; -341.000
400.258;  -46.500;  -83.000;   38.000
400.386;  -82.950; -352.000; -168.000
400.514;  -72.150; -526.000; -587.000
400.641; -144.075; -928.000; -802.000
400.769; -143.050; -979.000; -888.000
400.897; -134.200; -838.000; -793.000
401.025;  -31.375; -166.000; -152.000
401.152;  -18.775;  220.000;   38.000
401.280;  -84.475; -430.000; -429.000
401.408; -118.975; -712.000; -576.000
401.535; -113.150; -735.000; -758.000
401.663; -183.875;-1134.000;-1054.000
401.790;  -95.800; -514.000; -525.000
401.918;   20.250;  436.000;  405.000
402.046;  -30.925;  134.000;  122.000
402.173;  -59.050;  -18.000;    7.000
402.301;  -77.975; -519.000; -397.000
402.428;   14.650;  528.000;  383.000
402.556; -152.500;-1188.000; -913.000
402.683;  -53.275;  -20.000;   -1.000
402.811;  -35.300;  -37.000; -206.000
402.938;  -24.650;   20.000;   27.000
403.066;    6.525; -574.000; -558.000
403.193;  100.550;  299.000;  239.000
403.321;   61.700; -396.000; -574.000
403.448;  118.050;   83.000;   27.000
403.575;   51.525;  -90.000;  -46.000
403.703; -101.175; -732.000; -557.000
403.830;  -58.625; -531.000; -496.000
403.957; -126.050;-1117.000;-1023.000
404.085;   28.500;  -61.000; -172.000
404.212;   93.425;  -50.000;   63.000
404.339;  448.100; -566.000; -306.000
404.467; 8946.475; -612.000; -524.000
404.594; 5589.850; -287.000; -227.000
404.721;  957.175; -869.000; -764.000
404.848;  103.125; -113.000; -202.000
404.976; -112.825; -856.000; -783.000
405.103;   -9.350;  -14.000;  -82.000
405.230;  -12.700;  190.000;  226.000
405.357;   59.225;  117.000;   44.000
405.484;  415.525;  -49.000;    5.000
405.612;  134.975; -548.000; -563.000
405.739;  -64.675; -488.000; -243.000
405.866;   67.575;  669.000;  385.000
405.993;  -58.275; -398.000; -102.000
406.120; -141.225; -801.000; -887.000
406.247;  -88.550; -323.000; -342.000
406.374;  116.350;  540.000;  629.000
406.501;  -83.250; -632.000; -702.000
406.628;  -98.750; -621.000; -589.000
406.755; -128.750; -803.000; -620.000
406.882;  -67.750; -228.000; -277.000
407.009; -110.425; -719.000; -628.000
407.136;  -36.375; -480.000; -401.000
407.263;  -56.500; -939.000; -829.000
407.390;  -97.150; -692.000; -614.000
407.517; -193.700;-1139.000;-1187.000
407.644;  -74.475; -332.000; -256.000
407.771;  -83.900; -249.000; -287.000
407.898;   -1.400;  168.000;  328.000
408.025;  -84.400; -421.000; -313.000
408.151;   -5.175;   82.000;  153.000
408.278;  -77.750; -267.000; -216.000
408.405; -126.150; -931.000; -899.000
408.532;  -91.525; -549.000; -542.000
408.659; -112.875; -677.000; -648.000
408.785; -196.525;-1298.000;-1170.000
408.912;  -73.175; -412.000; -296.000
409.039; -114.900; -610.000; -686.000
409.166; -102.050; -591.000; -555.000
409.292; -113.700; -571.000; -534.000
409.419; -107.025; -665.000; -649.000
409.546;  -95.875; -431.000; -192.000
409.672; -106.075; -713.000; -545.000
409.799;  -44.500;  -36.000;   34.000
409.926;  -63.950; -180.000; -179.000
410.052; -190.875;-1127.000;-1091.000
410.179;  -87.900; -368.000; -392.000
410.305;  -95.000; -375.000; -493.000
410.432;  -40.900; -220.000; -333.000
410.558;  -98.875; -305.000; -380.000
410.685; -114.225; -688.000; -431.000
410.812; -116.500; -409.000; -588.000
410.938; -149.250; -964.000; -808.000
411.065; -115.925; -671.000; -645.000
411.191;  -30.075; -189.000; -174.000
411.317; -142.725; -823.000; -742.000
411.444;  -53.650; -317.000; -246.000
411.570;  -69.700; -339.000; -294.000
411.697; -106.775; -758.000; -752.000
411.823; -170.350; -989.000; -999.000
411.949;  -49.250;  -56.000;   17.000
412.076; -114.100; -539.000; -519.000
412.202; -128.950; -758.000; -757.000
412.329; -146.900; -798.000; -752.000
412.455; -113.750; -821.000; -657.000
412.581;  -48.100;  -15.000;  172.000
412.707;  -81.900; -540.000; -457.000
412.834;  -17.325;  156.000;  219.000
412.960;  -98.225; -785.000; -784.000
413.086; -109.425; -743.000; -701.000
413.212;  102.750;  604.000;  578.000
413.339; -115.300; -685.000; -701.000
413.465;  -54.450; -364.000; -310.000
413.591; -108.875; -757.000; -474.000
413.717;  -50.000; -358.000; -366.000
413.843; -151.825; -839.000; -861.000
413.969;  -69.150;  -47.000; -292.000
414.096;  -87.650; -679.000; -679.000
414.222;   -7.500;  -33.000;   85.000
414.348;  -69.300; -652.000; -385.000
414.474;   -0.475;   38.000;  -52.000
414.600;  -23.775; -126.000; -144.000
414.726;  -19.575;  -96.000;  -55.000
414.852;  -53.700; -365.000; -342.000
414.978;   34.375;  104.000;  -18.000
415.104;   49.875;   38.000;   80.000
415.230;   36.125; -329.000; -330.000
415.356;   53.725; -409.000; -514.000
415.482;  240.075;   13.000;  -35.000
415.608;  403.800; -247.000; -323.000
415.734; 1320.200;   67.000;   38.000
415.860;27764.600; -875.000; -767.000
415.986;22913.650; -685.000; -607.000
416.111; 2125.950; -798.000; -652.000
416.237;  465.800; -424.000; -571.000
416.363; 1664.350; -765.000; -733.000
416.489; 6755.975; -324.000; -251.000
416.615;  932.300; -707.000; -742.000
416.741;   64.750; -677.000; -784.000
416.866;  -69.825; -673.000; -736.000
416.992;  -95.150; -801.000; -818.000
417.118;  -24.475;  -41.000;  -80.000
417.244;  -62.850; -798.000; -531.000
417.369;  -85.800; -801.000; -612.000
417.495;  -17.500; -325.000; -254.000
417.621;  -89.400;-1015.000; -803.000
417.746;    7.025; -579.000; -572.000
417.872;   69.025; -254.000; -144.000
417.998;  124.150; -515.000; -530.000
418.123; 1542.025;-1073.000; -845.000
418.249; 8646.275; -512.000; -601.000
418.374; 1465.700; -916.000; -824.000
418.500;  253.150; -383.000; -482.000
418.626;  159.450;   70.000;  -59.000
418.751;  162.175; -549.000; -448.000
418.877;  306.175; -637.000; -643.000
419.002; 2578.125; -688.000; -560.000
419.128;19599.525; -930.000; -721.000
419.253; 5625.850; -967.000; -837.000
419.379;  764.275; -391.000; -338.000
419.504;  591.575;  325.000;  415.000
419.629;  833.225; -393.000; -212.000
419.755; 5332.175; -317.000; -254.000
419.880;34925.450;  -98.000;   67.000
420.006;17552.250; -280.000; -221.000
420.131;43880.975; -662.000; -775.000
420.256; 7104.850; -315.000; -316.000
420.382;  961.325; -665.000; -687.000
420.507;  161.950; -649.000; -778.000
420.632;   53.500; -337.000; -339.000
420.758;   56.475; -251.000; -425.000
420.883; -102.575; -876.000; -672.000
421.008; -113.425; -775.000; -619.000
421.133;  -85.075; -509.000; -467.000
421.259;  -49.300; -325.000; -259.000
421.384; -140.200; -834.000; -693.000
421.509; -114.650;-1052.000; -862.000
421.634;  186.600; -936.000; -820.000
421.759;  103.750; -359.000; -327.000
421.885; -100.775; -717.000; -656.000
422.010; -101.800; -673.000; -542.000
422.135; -149.825; -695.000; -727.000
422.260;    4.575;  340.000;  280.000
422.385;  -46.850;   12.000;  -98.000
422.510;   -5.075;  151.000;  -26.000
422.635;  -14.250;  -87.000;  -43.000
422.760;   -4.450; -766.000; -791.000
422.885;   15.075;  -57.000;  -80.000
423.010;  -37.625; -112.000; -169.000
423.135; -106.550; -481.000; -561.000
423.260;  -31.250; -150.000; -245.000
423.385;   16.575;  476.000;  222.000
423.510;   -3.675;   71.000;  -22.000
423.635;    4.100;  133.000;   45.000
423.760;   37.200;  383.000;  328.000
423.885;   12.425;  336.000;  391.000
424.010;    2.650;  -68.000;  -13.000
424.135;  -22.850;    5.000;  -33.000
424.259;  -77.050; -654.000; -457.000
424.384;  -65.725; -279.000; -272.000
424.509;  -24.975; -260.000; -186.000
424.634;  -82.100; -761.000; -623.000
424.759;  -35.275; -688.000; -544.000
424.883;   -3.700; -506.000; -527.000
425.008;  202.925; -502.000; -410.000
425.133; 2891.925; -679.000; -653.000
425.258; 1587.475; -517.000; -381.000
425.382;  510.750; -867.000; -774.000
425.507; 1200.175; -487.000; -543.000
425.632;  387.875; -802.000; -663.000
425.756;  704.500; -256.000; -146.000
425.881;10018.675; -831.000; -857.000
426.006;31196.850; -604.000; -355.000
426.130; 5160.675; -696.000; -508.000
426.255;  710.200; -611.000; -491.000
426.379;  296.025; -189.000; -577.000
426.504;  505.350;  660.000;  544.000
426.629; 5780.625; -519.000; -466.000
426.753; 4519.375;   64.000;  -46.000
426.878;  577.875; -252.000; -288.000
427.002;  322.200; -651.000; -668.000
427.127; 2055.950;  -35.000; -158.000
427.251;17324.700;  372.000;  401.000
427.375; 5694.725; -191.000; -173.000
427.500; 1382.675; -616.000; -610.000
427.624;  418.450; -234.000; -400.000
427.749;  100.700; -216.000; -225.000
427.873;  -26.075; -499.000; -412.000
427.997;  -30.250; -222.000; -230.000
428.122;   42.250;  795.000;  703.000
428.246;   42.325;  433.000;  434.000
428.371; -150.625; -869.000; -773.000
428.495; -105.825; -624.000; -646.000
428.619;  -57.375; -186.000; -117.000
428.743;    5.500;   65.000;  132.000
428.868;  -79.200; -732.000; -643.000
428.992;  496.700; -219.000; -326.000
429.116;  190.350; -329.000; -357.000
429.240;  114.400;  419.000;  426.000
429.365;  -61.200; -454.000; -574.000
429.489;  -51.525; -638.000; -647.000
429.613;   29.850; -236.000; -177.000
429.737;   78.600; -563.000; -432.000
429.861;  372.250; -247.000; -133.000
429.985; 7989.150; -425.000; -305.000
430.109;10152.150; -770.000; -908.000
430.234; 1237.200;   76.000;  -50.000
430.358;  148.075; -250.000; -160.000
430.482;  -36.000; -672.000; -564.000
430.606;  -65.075; -655.000; -375.000
430.730;  -55.775; -437.000; -388.000
430.854;  -86.825; -909.000; -835.000
430.978;  -82.075; -795.000; -764.000
431.102;  -98.800; -499.000; -422.000
431.226; -121.600; -874.000; -815.000
431.350;   -0.225;  345.000;  422.000
431.474;  -88.750; -661.000; -373.000
431.597; -163.100;-1060.000; -848.000
431.721;  -74.850; -276.000; -267.000
431.845; -144.075; -704.000; -472.000
431.969;  -81.525; -304.000; -349.000
432.093;  -91.725; -395.000; -317.000
432.217;    1.400;   32.000;   82.000
432.341;  -89.025; -523.000; -518.000
432.464;   -1.775;   96.000;   40.000
432.588;  -27.800; -401.000; -329.000
432.712;   16.575;  -52.000;  -52.000
432.836;   62.025;  213.000;  263.000
432.959;   18.575; -372.000; -311.000
433.083;  159.650;   11.000;    2.000
433.207;  562.575;  285.000;  930.000
433.330; 7639.150; -391.000; -200.000
433.454;10696.375; -654.000; -638.000
433.578; 5884.800;  583.000;  278.000
433.701; 1272.675; -623.000; -675.000
433.825;  151.400; -292.000; -299.000
433.949;   45.950;   28.000;  -72.000
434.072;  -23.725; -410.000; -323.000
434.196;   -9.025; -309.000; -117.000
434.319; 3576.625;25482.000;25124.000
434.443;  902.650; -656.000; -603.000
434.566; 4150.450;  281.000;   62.000
434.690;  904.800; -637.000; -383.000
434.813;  140.500; -251.000; -173.000
434.937;  -54.450; -569.000; -696.000
435.060;  -92.325; -423.000; -332.000
435.184;   -4.525; -492.000; -217.000
435.307;   -6.025;  159.000;  102.000
435.431;  -37.325;  -40.000;   24.000
435.554;  -90.125; -399.000; -240.000
435.677;  -75.600; -350.000; -258.000
435.801;  -60.550;  -25.000;   49.000
435.924;  -43.725;    1.000;  -67.000
436.048; -150.750;-1019.000; -732.000
436.171;  -70.100; -240.000;  -66.000
436.294;  -16.800; -248.000; -229.000
436.417;  235.300; -963.000; -849.000
436.541;  -23.450; -814.000; -840.000
436.664;  -65.025; -242.000; -316.000
436.787;  -41.975;   13.000;  113.000
436.910; -114.350; -792.000; -422.000
437.034;  -13.200;  142.000;  143.000
437.157;    1.800;  -11.000;    0.000
437.280;  -98.400; -392.000; -292.000
437.403; -137.650; -982.000; -869.000
437.526;   -2.675; -903.000; -865.000
437.649;  505.775; -505.000; -332.000
437.772;   -8.000; -692.000; -540.000
437.896;   62.900;  700.000;  544.000
438.019; -114.900; -758.000; -503.000
438.142;  -88.125; -596.000; -506.000
438.265; -124.175; -639.000; -670.000
438.388;   28.900; -520.000; -410.000
438.511;  -71.300; -597.000; -394.000
438.634;  -67.175; -247.000; -125.000
438.757; -140.825; -693.000; -619.000
438.880;  -60.475;  -34.000;  -57.000
439.003; -102.200; -417.000; -437.000
439.126;  -76.225; -287.000; -167.000
439.248;  -68.225;  -98.000; -139.000
439.371;  -50.150;    9.000;  -53.000
439.494;   11.250;  510.000;  439.000
439.617;  -60.175;   65.000;  -88.000
439.740; -180.800; -968.000; -816.000
439.863; -135.150; -755.000; -595.000
439.986; -125.375; -476.000; -431.000
440.108;  -44.725; -161.000; -112.000
440.231; -172.200; -950.000; -836.000
440.354;  -55.950;  -64.000; -150.000
440.477; -128.275; -566.000; -542.000
440.599;  -78.300; -200.000; -225.000
440.722; -129.450; -709.000; -586.000
440.845;   47.500;  751.000;  928.000
440.968; -109.950; -415.000; -311.000
441.090;  -69.475; -199.000;  -33.000
441.213; -175.700;-1021.000; -825.000
441.336;  -61.425; -159.000;   -5.000
441.458;  -88.550; -549.000; -396.000
441.581; -123.200; -628.000; -629.000
441.703; -105.100; -152.000;   13.000
441.826; -108.725; -557.000; -400.000
441.948;  -65.275;   56.000;   51.000
442.071;   12.175;  555.000;  424.000
442.193; -125.500; -531.000; -485.000
442.316;    5.325;  152.000;   97.000
442.438;   67.575; -233.000;  -10.000
442.561;   58.625;  272.000;  262.000
442.683;   43.025; -809.000; -522.000
442.806;  286.700;   -8.000;   74.000
442.928; -101.275; -859.000; -604.000
443.051;  -79.900; -577.000; -373.000
443.173;  -96.875; -341.000; -339.000
443.295;  -95.325; -263.000; -371.000
443.418;  -88.175; -321.000;  -29.000
443.540;  -50.500; -106.000;   -4.000
443.662; -128.475; -563.000; -465.000
443.785;  -26.250;  335.000;  199.000
443.907; -106.575; -362.000; -208.000
444.029; -133.800; -767.000; -494.000
444.152; -145.500; -644.000; -554.000
444.274;  -48.375;  -18.000;  -24.000
444.396; -128.900; -461.000; -221.000
444.518; -124.000; -691.000; -454.000
444.640; -106.250; -268.000; -111.000
444.763;  -24.000;  388.000;  249.000
444.885; -125.750; -432.000; -392.000
445.007;  -39.475;   35.000;   86.000
445.129; -120.325; -610.000; -515.000
445.251; -113.250; -372.000; -439.000
445.373; -143.975; -537.000; -386.000
445.495;   -3.900;  242.000;  350.000
445.617;   22.025;  853.000;  753.000
445.739;  -80.900; -215.000;  -97.000
445.861;  -73.000; -245.000; -112.000
445.984;  -72.175; -267.000; -101.000
446.105;  -27.500; -418.000; -251.000
446.227;  119.800; -176.000;  -19.000
446.349;  -84.275; -358.000; -249.000
446.471; -112.800; -615.000; -448.000
446.593;  -96.600; -316.000;   19.000
446.715;  -40.500;  -67.000;   41.000
446.837;   29.225;  697.000;  832.000
446.959; -110.525; -457.000; -478.000
447.081; -144.825; -628.000; -518.000
447.203;   32.625;  862.000;  834.000
447.325;  -91.900; -270.000;   42.000
447.446;  -17.375;  286.000;  530.000
447.568; -168.175; -921.000; -803.000
447.690;  -91.950; -236.000; -245.000
447.812; -152.000; -798.000; -519.000
447.933;  -28.375;  155.000;  127.000
448.055;  -67.875; -306.000; -261.000
448.177;   16.200;   31.000;   79.000
448.299; -103.550; -935.000; -727.000
448.420;  -22.050;  -25.000;  159.000
448.542;  -70.875;   -3.000;   33.000
448.664;  -26.025;  109.000;  322.000
448.785;  -40.375;  265.000;   83.000
448.907;  -98.475; -614.000; -353.000
449.028; -104.475; -771.000; -471.000
449.150;   41.125;  492.000;  589.000
449.272; -184.725;-1044.000; -913.000
449.393;   15.850;  612.000;  694.000
449.515; -144.250; -634.000; -581.000
449.636;  -83.750; -264.000; -155.000
449.758;   40.950;  763.000;  622.000
449.879;  -88.325; -498.000; -396.000
450.001;  -84.150; -149.000;  -49.000
450.122;  -32.475;  -95.000;  162.000
450.244;  -24.975;   37.000;  364.000
450.365;  -74.775; -495.000; -301.000
450.486;  -10.450;   80.000;  268.000
450.608;   45.975;  393.000;  326.000
450.729;   91.150;  578.000;  645.000
450.850;   90.125; -574.000; -466.000
450.972; 1202.950; -552.000; -389.000
451.093; 7989.700;  190.000;  588.000
451.214; 4161.700; -516.000; -337.000
451.336;  706.300;  773.000;  579.000
451.457;  101.650;  264.000;  393.000
451.578;  -26.825; -118.000;  -74.000
451.699; -107.975; -546.000; -540.000
451.821;  -65.125; -284.000;  -50.000
451.942;   -2.975;  278.000;  285.000
452.063;   63.200;  228.000;  419.000
452.184;  801.900;  -54.000;  -49.000
452.305; 1733.450;  103.000;  170.000
452.427;  332.875; -549.000; -301.000
452.548;   12.750;   23.000;   79.000
452.669;  -72.225; -257.000;  -89.000
452.790;  -55.900;    3.000;  -18.000
452.911;  -34.975;  195.000;  259.000
453.032;  -68.950; -289.000;  -60.000
453.153;  -72.150;  -29.000;   81.000
453.274;   58.075;  737.000;  868.000
453.395;  -75.450;  -51.000;  175.000
453.516;    9.350; 1317.000; 1388.000
453.637; -102.050; -205.000; -150.000
453.758;  -59.075;   15.000;   69.000
453.879; -136.950; -462.000; -250.000
454.000;   63.025; 1086.000;  948.000
454.121; -118.475; -554.000; -326.000
454.242; -112.550; -599.000; -383.000
454.362;  -54.400;  -99.000;  114.000
454.483;  -26.400; -309.000; -229.000
454.604;   59.975;  512.000;  580.000
454.725; -123.350; -627.000; -555.000
454.846; -115.550; -474.000; -406.000
454.967;  -33.400;  230.000;  539.000
455.087;  -58.400;  179.000;  153.000
455.208;   20.175;  554.000;  856.000
455.329;  -59.000;  -22.000;   82.000
455.450;   64.750;  473.000;  633.000
455.570;  -70.150; -234.000; -211.000
455.691;  -33.250;  201.000;  407.000
455.812; -109.275; -270.000;  -92.000
455.932;  -58.775;  107.000;  -97.000
456.053;  -88.575;   36.000;   24.000
456.173;  -90.775; -433.000; -355.000
456.294; -146.200; -476.000; -303.000
456.415;  -69.300;  -73.000;   70.000
456.535;  -42.125;  297.000;  273.000
456.656;  -46.650;  132.000;  240.000
456.776;  -62.125;    3.000;  298.000
456.897;    4.925;  308.000;  513.000
457.017;  -87.700; -153.000;   -3.000
457.138; -106.150; -402.000; -249.000
457.258;  -48.750;  263.000;  224.000
457.379;  -10.925;  509.000;  521.000
457.499;  -33.875;  443.000;  432.000
457.620; -114.250; -407.000; -231.000
457.740; -112.425; -132.000;  -11.000
457.860;  -45.100;   87.000;   44.000
457.981;  -43.125;  132.000;  124.000
458.101;  -91.825;  -89.000;   40.000
458.221;  -22.150;  336.000;  402.000
458.342;  -52.575;   -4.000;  -37.000
458.462;   24.300;  617.000;  352.000
458.582;   11.800; -302.000; -294.000
458.703;   50.050;  303.000;  154.000
458.823;    8.675;   22.000;  163.000
458.943;   31.800;  341.000;  467.000
459.063;   15.350; 1124.000;  192.000
459.183;  -28.825;  328.000;  313.000
459.304;   12.725;  315.000;  517.000
459.424;  -49.750; -246.000;  -89.000
459.544;  473.925;  388.000;  764.000
459.664; 1332.775;  499.000;  506.000
459.784;  518.900; 1004.000; 1175.000
459.904;   94.300;  867.000;  744.000
460.024;   56.850;  867.000;  684.000
460.144;  -16.500;  449.000;  554.000
460.264;  -20.775;  515.000;  327.000
460.385;  -88.975; -145.000; -119.000
460.505;   31.800;  905.000;  858.000
460.625; -118.000;  -17.000;  -68.000
460.745;  -10.875;  396.000;  541.000
460.864;  -49.775;  153.000;  469.000
460.984;   41.925;  499.000;  573.000
461.104;  134.050; 1656.000; 1775.000
461.224;   11.975;  657.000;  650.000
461.344;  -50.500;  431.000;  360.000
461.464;  -26.450;  258.000;  513.000
461.584;  -39.575;  283.000;  466.000
461.704;  -53.925;   58.000;  108.000
461.824;  -67.425;  238.000;  259.000
461.943;  -34.150;  191.000;  130.000
462.063;  -82.125;    2.000;  324.000
462.183;    5.125;  639.000;  717.000
462.303;   82.325; 1678.000; 1230.000
462.422;   15.375;  781.000;  840.000
462.542;  -40.700;  271.000;  391.000
462.662;   35.150;  353.000;  380.000
462.782;  339.575;  833.000;  572.000
462.901;  741.500;  545.000;  717.000
463.021;  386.850; 1702.000; 1638.000
463.141;   10.375;  337.000;  770.000
463.260;  -23.050;  614.000;  474.000
463.380;   15.725;  902.000;  884.000
463.499;  -51.100;  342.000;  332.000
463.619;  -29.000;  581.000;  559.000
463.738;   93.600; 1644.000;  903.000
463.858;    3.325;  657.000;  811.000
463.978;  -64.650;  542.000;  396.000
464.097;   54.075;  921.000; 1114.000
464.217;  136.175; 1196.000; 1143.000
464.336;  150.350; 1068.000; 1130.000
464.455;  -42.350;  328.000;  659.000
464.575;    3.700;  597.000;  602.000
464.694;  125.375; 1204.000; 1179.000
464.814;  160.075; 1190.000; 1138.000
464.933;   82.250; 1095.000; 1027.000
465.052;   88.975; 1412.000; 1054.000
465.172;   70.300;  922.000;  799.000
465.291;  116.150; 1376.000; 1320.000
465.410;    8.225;  462.000;  735.000
465.530;   76.275; 1355.000; 1310.000
465.649;   56.475; 1209.000; 1273.000
465.768;  124.925; 1673.000; 1508.000
465.888;   56.925;  941.000; 1174.000
466.007;   87.550; 1335.000; 1440.000
466.126;  -12.200;  721.000;  641.000
466.245;   50.625; 1176.000; 1187.000
466.364;   15.950;  950.000; 1060.000
466.484;   49.700; 1024.000; 1213.000
466.603;   23.575; 1101.000; 1222.000
466.722;   88.650; 1490.000; 1769.000
466.841;   63.975; 1151.000; 1401.000
466.960;   43.875; 1069.000;  972.000
467.079;  121.400; 1971.000; 1786.000
467.198;   42.250; 1238.000; 1181.000
467.317;   95.800; 1768.000; 1162.000
467.436;   64.150; 1709.000; 1261.000
467.555;  110.275; 1796.000; 1746.000
467.674;   71.275; 1227.000; 1329.000
467.793;   41.500; 1376.000; 1374.000
467.912;   92.775; 1658.000; 1539.000
468.031;  108.325; 2038.000; 1930.000
468.150;  122.950; 1842.000; 1837.000
468.269;  177.700; 2313.000; 2090.000
468.388;  176.925; 2168.000; 2339.000
468.507;  243.625; 2884.000; 2903.000
468.626;  261.000; 2555.000; 2541.000
468.744;  145.300; 2018.000; 2174.000
468.863;  200.475; 2312.000; 2523.000
468.982;   85.025; 1503.000; 1555.000
469.101;  228.625; 2788.000; 2692.000
469.220;  152.625; 2333.000; 2176.000
469.338;  246.775; 2935.000; 3051.000
469.457;  181.650; 2719.000; 2545.000
469.576;  343.575; 3953.000; 3784.000
469.695;  226.675; 2877.000; 3066.000
469.813;  405.650; 4148.000; 4192.000
469.932;  392.500; 4255.000; 4485.000
470.051;  455.775; 4075.000; 4161.000
470.169; 1032.050; 4470.000; 4338.000
470.288; 2042.900; 4700.000; 4809.000
470.406; 1177.275; 5059.000; 5194.000
470.525;  679.025; 6101.000; 5787.000
470.644;  637.125; 6847.000; 6794.000
470.762;  800.575; 8397.000; 7873.000
470.881;  905.250; 8651.000; 8464.000
470.999; 1065.725; 9685.000; 9151.000
471.118; 1114.500;11174.000;10711.000

