
Integration time [ms]: 200.000
Averaging Nr. [scans]: 10
Smoothing Nr. [pixels]: 0
Data measured with spectrometer [name]: 2101012U2
Wave   ;Sample   ;Dark     ;Reference
[nm]   ;[counts] ;[counts] ;[counts] 

197.733;  121.900;  516.000;  404.000
197.879; -173.400; -610.000; -634.000
198.025; -109.800; -475.000; -420.000
198.171; -167.200; -602.000; -612.000
198.317;  -88.100; -401.000; -316.000
198.463; -129.600; -655.000; -404.000
198.609;   82.200;  181.000; -137.000
198.755; -155.400; -644.000; -410.000
198.901; -158.600; -505.000; -424.000
199.047; -124.100; -615.000; -488.000
199.193;  -90.100; -230.000; -468.000
199.339; -110.500; -222.000; -369.000
199.485;   73.200;  330.000;  271.000
199.631;   24.400;  227.000;  310.000
199.777; -120.800; -466.000; -398.000
199.923; -139.000; -610.000; -424.000
200.069;    4.600; -141.000;  -58.000
200.215;  135.400;  128.000;  453.000
200.361;   61.300;  243.000;  477.000
200.507; -166.500; -600.000; -373.000
200.653;  -62.700; -371.000; -194.000
200.798;  -99.200; -215.000; -125.000
200.944;    0.400; -146.000;  -41.000
201.090;   53.600;   61.000;  222.000
201.236;  -32.900; -116.000; -158.000
201.382;  284.800;  874.000;  903.000
201.528;   21.400;  -58.000;  -48.000
201.674; -140.500; -386.000; -293.000
201.819; -128.900; -540.000; -439.000
201.965; -184.800; -699.000; -447.000
202.111;  -54.500; -273.000; -226.000
202.257;  -74.600; -250.000; -238.000
202.402;  -13.600;   13.000;  -36.000
202.548;  -73.000; -169.000; -116.000
202.694;  159.800;  410.000; -183.000
202.840; -160.200; -603.000; -531.000
202.985; -148.200; -681.000; -639.000
203.131; -236.300; -832.000; -666.000
203.277;  -34.100; -199.000; -262.000
203.423; -109.100; -434.000; -520.000
203.568;  -76.000; -462.000; -237.000
203.714; -119.800; -535.000; -542.000
203.860; -156.400; -682.000; -641.000
204.005;   18.800;  112.000;  167.000
204.151;  167.800;  561.000;  556.000
204.296;  -79.800; -354.000; -221.000
204.442; -136.200; -600.000; -547.000
204.588; -133.700; -592.000; -579.000
204.733;   45.300;  178.000;  168.000
204.879; -285.700;-1018.000; -822.000
205.025;   10.000;  -99.000;  126.000
205.170;  -16.700;  -17.000;   94.000
205.316;  169.900;  438.000;  661.000
205.461; -162.200; -698.000; -554.000
205.607;  182.100;  609.000;  665.000
205.752; -165.800; -626.000; -551.000
205.898; -114.300; -501.000; -391.000
206.043; -119.300; -578.000; -506.000
206.189;  -96.500; -243.000; -285.000
206.334;  182.400;  554.000;  606.000
206.480;  184.400;  409.000;  239.000
206.625; -170.800; -529.000; -552.000
206.771;  -78.000; -451.000; -373.000
206.916;  -51.400; -210.000; -537.000
207.062; -162.400; -545.000; -591.000
207.207; -164.900; -546.000; -443.000
207.353;  130.500;  185.000;  460.000
207.498;   28.300;  196.000;   85.000
207.643;  -88.900; -501.000; -370.000
207.789; -275.600;-1069.000; -910.000
207.934; -219.600; -665.000; -713.000
208.080;  -34.800; -154.000;   66.000
208.225;  -43.200;  -22.000;  -57.000
208.370; -202.500; -727.000; -619.000
208.516; -177.100; -741.000; -487.000
208.661;  -61.500; -127.000;  -69.000
208.806;  -65.500; -165.000; -171.000
208.952; -265.800;-1044.000; -731.000
209.097;  175.000;  378.000;  349.000
209.242;  -86.300; -307.000; -382.000
209.387;  115.800;  392.000;  350.000
209.533; -113.000; -321.000; -350.000
209.678;  175.800;  472.000;  543.000
209.823; -123.000; -408.000; -310.000
209.969; -198.500; -860.000; -757.000
210.114; -220.700; -907.000; -719.000
210.259; -228.100; -939.000; -889.000
210.404;  -21.200; -171.000;  103.000
210.549;    0.000;  108.000;    3.000
210.695;  -40.800;   -3.000;  -95.000
210.840;   73.500;   94.000;   67.000
210.985; -130.800; -484.000; -303.000
211.130;  144.800;  268.000;  406.000
211.275;   -0.200;  207.000;  199.000
211.420;  -94.700; -300.000; -289.000
211.566; -168.600; -536.000; -489.000
211.711;   33.600;  218.000;  157.000
211.856; -166.800; -545.000; -519.000
212.001;   47.100;  151.000;   44.000
212.146;   27.000;  153.000;   49.000
212.291;  -34.400; -210.000; -186.000
212.436;  -61.500; -280.000;   -6.000
212.581; -175.700; -685.000; -653.000
212.726; -160.300; -487.000; -538.000
212.871;  -94.000; -552.000; -217.000
213.016; -314.300;-1172.000;-1029.000
213.161;  120.600;  406.000;  291.000
213.306; -174.600; -435.000; -577.000
213.451; -223.200; -778.000; -689.000
213.596; -112.000; -455.000; -347.000
213.741; -113.800; -448.000; -538.000
213.886; -167.200; -498.000; -517.000
214.031;  -16.800; -294.000; -124.000
214.176; -109.700; -408.000; -341.000
214.321;  -58.100; -296.000; -157.000
214.466;  -58.000; -163.000;  -43.000
214.611;   -9.000;  -61.000;  -10.000
214.756; -272.900; -948.000; -858.000
214.901;  -38.100; -388.000; -226.000
215.046; -262.600; -797.000; -825.000
215.191;   29.200;  128.000;   35.000
215.336;  -30.900; -157.000;  -19.000
215.480; -158.700; -684.000; -505.000
215.625;  -23.100; -175.000;  -19.000
215.770; -176.600; -757.000; -662.000
215.915;  -15.000;   -5.000;  -97.000
216.060;   -4.000; -113.000;  -21.000
216.205; -248.900; -731.000; -779.000
216.349; -135.400; -470.000; -533.000
216.494; -319.900; -939.000; -867.000
216.639; -240.600; -823.000; -888.000
216.784; -166.900; -577.000; -525.000
216.929;  104.900;  392.000;  281.000
217.073;  -47.500; -244.000;  -31.000
217.218;    8.700;   78.000;  -47.000
217.363; -159.200; -656.000; -618.000
217.507; -166.400; -623.000; -588.000
217.652; -259.900; -845.000; -874.000
217.797; -191.200; -708.000; -659.000
217.942; -231.100; -856.000; -720.000
218.086;  161.400;  608.000;  539.000
218.231;  -60.500; -174.000;  -26.000
218.376;  -66.400; -337.000; -229.000
218.520;   15.500;  -41.000;   96.000
218.665;  -52.600; -338.000; -204.000
218.810; -100.200; -275.000; -233.000
218.954;   39.600;  201.000;   35.000
219.099; -224.600; -713.000; -963.000
219.243; -118.800; -589.000; -554.000
219.388;  -71.000; -264.000; -136.000
219.532;  -25.500; -116.000; -116.000
219.677; -154.000; -564.000; -521.000
219.822;   11.600;   33.000;   89.000
219.966;   -7.400;   17.000;  -99.000
220.111;  -41.700; -328.000;  -40.000
220.255; -195.200; -797.000; -750.000
220.400;  -14.500; -180.000; -146.000
220.544; -138.200; -516.000; -450.000
220.689; -130.400; -422.000; -451.000
220.833;  -41.900; -123.000;  -58.000
220.978;  -96.100; -393.000; -563.000
221.122;   49.200;  319.000;  307.000
221.267; -233.000; -906.000; -837.000
221.411; -131.600; -478.000; -394.000
221.555;  -26.600; -104.000;  -23.000
221.700; -100.200; -329.000; -222.000
221.844;   92.800;  255.000;  272.000
221.989; -122.100; -328.000; -311.000
222.133;  -89.800; -289.000; -307.000
222.277;  -45.300;    5.000;   78.000
222.422;   68.900;  227.000;  113.000
222.566; -106.700; -381.000; -214.000
222.711; -104.400; -414.000; -479.000
222.855; -185.500; -643.000; -586.000
222.999; -175.900; -642.000; -717.000
223.144; -104.400; -195.000; -194.000
223.288;  141.600;  423.000;  251.000
223.432;   -7.700;  184.000;  230.000
223.576;   46.400;  152.000;  -21.000
223.721;  125.800;  364.000;  273.000
223.865;  -89.700; -472.000; -475.000
224.009;  435.100; 1673.000; 1631.000
224.153; -164.200; -660.000; -671.000
224.298; -154.300; -531.000; -489.000
224.442;   -1.600;  -74.000;  -33.000
224.586;   -6.400; -169.000; -106.000
224.730; -205.100; -858.000; -670.000
224.875; -218.500; -739.000; -688.000
225.019;   14.300;  102.000;  188.000
225.163;   99.000;  208.000;  341.000
225.307;   49.900;   97.000;  -91.000
225.451;   98.000;  360.000;  481.000
225.595;   58.900;  264.000;  176.000
225.739;  -40.800; -170.000;  -94.000
225.884;   -0.400;   86.000;    5.000
226.028; -235.900; -760.000; -626.000
226.172;  -59.100; -260.000; -273.000
226.316; -229.700; -941.000; -902.000
226.460; -157.800; -645.000; -493.000
226.604; -135.700; -406.000; -400.000
226.748; -203.300; -836.000; -733.000
226.892;  -50.300; -227.000; -181.000
227.036;  -99.700; -537.000; -447.000
227.180; -133.400; -551.000; -375.000
227.324; -135.700; -561.000; -580.000
227.468; -220.700; -819.000; -717.000
227.612;   48.800;  242.000;  -28.000
227.756; -223.100; -845.000; -698.000
227.900;  103.100;  342.000;  441.000
228.044;  -93.800; -509.000; -290.000
228.188;  117.000;  448.000;  568.000
228.332; -181.600; -546.000; -472.000
228.476;  -64.100; -223.000; -149.000
228.620;  -74.400; -210.000; -150.000
228.764;  142.600;  431.000;  349.000
228.908;  -15.000; -155.000;   30.000
229.052; -123.900; -615.000; -528.000
229.195;  -37.700; -172.000;   13.000
229.339;  -68.200; -235.000; -305.000
229.483;  -50.600;    5.000; -162.000
229.627;   -3.000; -156.000;  139.000
229.771; -104.700; -218.000; -294.000
229.915;   27.500;  230.000;   79.000
230.059; -208.200; -648.000; -663.000
230.202;  -79.900; -370.000; -317.000
230.346;  -35.200; -107.000;  107.000
230.490; -109.100; -489.000; -521.000
230.634; -231.100; -736.000; -553.000
230.777;  166.500;  478.000;  509.000
230.921;  -80.900; -450.000; -359.000
231.065;  -81.900; -246.000; -286.000
231.209;   70.100;  261.000;  265.000
231.352;   38.600;   54.000;   40.000
231.496;   26.400;  568.000;  188.000
231.640; -172.200; -693.000; -621.000
231.783;  122.900;  546.000;  525.000
231.927;  -63.700; -294.000; -365.000
232.071; -259.400; -962.000; -736.000
232.214; -227.400; -980.000; -764.000
232.358; -228.600; -683.000; -599.000
232.502;   10.500;  -19.000;    7.000
232.645; -270.200;-1090.000; -927.000
232.789;  -40.400; -257.000; -218.000
232.933;  -69.000; -407.000; -224.000
233.076; -244.400;-1038.000; -897.000
233.220; -229.500; -752.000; -777.000
233.363; -157.300; -669.000; -477.000
233.507;  125.600;  371.000;  129.000
233.650; -191.200; -764.000; -834.000
233.794;   90.500;  438.000;  461.000
233.938; -145.200; -530.000; -362.000
234.081;  -63.300;  -93.000;   31.000
234.225; -123.700; -631.000; -539.000
234.368; -258.300; -773.000; -723.000
234.512;  -70.800; -385.000; -299.000
234.655; -172.000; -582.000; -555.000
234.798; -124.200; -493.000; -466.000
234.942; -275.200; -884.000;-1002.000
235.085; -154.400; -651.000; -443.000
235.229; -146.700; -405.000; -410.000
235.372;  -94.200; -247.000; -191.000
235.516; -112.200; -397.000; -321.000
235.659;   43.400;   92.000;  121.000
235.802;  -34.100;  -38.000;  -22.000
235.946;   59.900;  335.000;  215.000
236.089;   62.600;  126.000;  250.000
236.233;   75.500;  275.000;  298.000
236.376;  -71.800; -235.000; -378.000
236.519;  -90.800; -297.000; -319.000
236.663;  -46.700; -215.000; -117.000
236.806; -257.400;-1029.000; -999.000
236.949;  127.700;  543.000;  431.000
237.092;  134.900;  412.000;  391.000
237.236; -155.000; -589.000; -502.000
237.379;  156.300;  352.000;  428.000
237.522; -251.600; -879.000; -768.000
237.666;   -6.400; -271.000;   18.000
237.809; -249.400; -851.000; -823.000
237.952;   83.800;  469.000;  271.000
238.095; -126.300; -447.000; -442.000
238.238;  173.500;  688.000;  700.000
238.382;   11.600;  166.000;  103.000
238.525; -139.900; -598.000; -511.000
238.668; -288.900;-1060.000; -985.000
238.811; -157.400; -638.000; -643.000
238.954; -133.200; -483.000; -334.000
239.097;  200.400;  617.000;  664.000
239.241;   66.100;  394.000;  326.000
239.384;  -75.700; -254.000; -214.000
239.527; -138.200; -424.000; -224.000
239.670; -297.300; -994.000;-1091.000
239.813; -206.700; -696.000; -658.000
239.956;  148.500;  579.000;  473.000
240.099; -225.000; -778.000; -725.000
240.242;  120.900;  428.000;  432.000
240.385;  101.700;  466.000;  450.000
240.528; -142.500; -706.000; -473.000
240.671;   34.600;  189.000;  134.000
240.814; -101.900; -441.000; -158.000
240.957; -220.800; -767.000; -578.000
241.100; -174.100; -779.000; -755.000
241.243; -294.800;-1234.000; -893.000
241.386; -139.000; -508.000; -379.000
241.529; -169.300; -735.000; -547.000
241.672; -113.300; -566.000; -495.000
241.815; -244.500; -832.000; -808.000
241.958;  -19.300; -125.000; -182.000
242.101; -170.000; -545.000; -390.000
242.244; -105.200; -270.000; -325.000
242.387;  -85.000; -304.000; -246.000
242.530;  121.800;  470.000;  134.000
242.673;  -91.300; -381.000; -309.000
242.815; -231.900; -925.000; -899.000
242.958; -161.500; -482.000; -381.000
243.101;   61.000;  132.000;  187.000
243.244; -183.400; -564.000; -521.000
243.387;  -88.900; -313.000; -316.000
243.530; -181.700; -657.000; -674.000
243.672;   38.800;   43.000;  -92.000
243.815;  -85.000; -355.000; -283.000
243.958;  -10.500;   98.000;  -26.000
244.101;  -17.400;   59.000;  -16.000
244.243;   10.600;  -47.000;  101.000
244.386; -246.600; -761.000; -630.000
244.529;  -30.500; -132.000; -139.000
244.672; -312.900;-1154.000; -951.000
244.814; -195.200; -621.000; -794.000
244.957;  -91.400; -380.000; -304.000
245.100; -146.900; -489.000; -489.000
245.242; -122.800; -387.000; -374.000
245.385;   18.400;  -59.000;  -39.000
245.528; -250.800; -871.000; -705.000
245.670;  207.300;  612.000;  634.000
245.813; -163.200; -599.000; -547.000
245.956;  -25.800; -324.000; -275.000
246.098; -161.400; -508.000; -650.000
246.241;   59.400;  194.000;   48.000
246.383;  -32.000; -119.000;  -73.000
246.526; -150.100; -454.000; -525.000
246.669; -244.600; -889.000; -780.000
246.811;   59.100;  172.000;   -1.000
246.954; -112.400; -512.000; -426.000
247.096;  -37.700;  -84.000;   -6.000
247.239; -141.500; -482.000; -445.000
247.381; -158.300; -647.000; -488.000
247.524;  158.400;  645.000;  679.000
247.666;  -12.600;   58.000;   11.000
247.809; -244.600; -887.000; -691.000
247.951;    1.500;  -75.000;  138.000
248.094;   37.800;  432.000;  308.000
248.236; -319.900;-1262.000;-1238.000
248.378;  -18.900; -356.000;  -81.000
248.521;  -67.100; -334.000; -337.000
248.663; -111.200; -236.000; -267.000
248.806;  -29.800; -300.000; -266.000
248.948; -232.700; -886.000; -763.000
249.090; -115.100; -428.000; -398.000
249.233; -128.800; -344.000; -381.000
249.375; -123.900; -474.000; -451.000
249.518;  -31.500;  -83.000; -133.000
249.660;  -14.600; -103.000;    3.000
249.802; -386.500;-1303.000;-1189.000
249.945; -174.400; -612.000; -540.000
250.087; -255.800; -834.000; -768.000
250.229; -112.200; -362.000; -480.000
250.371; -150.500; -494.000; -439.000
250.514;  -95.200; -310.000; -244.000
250.656; -138.200;   69.000;  102.000
250.798; -225.400; -849.000; -800.000
250.940; -102.800; -322.000; -322.000
251.083;  -44.200; -335.000; -111.000
251.225;  115.500;  338.000;  310.000
251.367;  -57.400; -274.000; -373.000
251.509;  -59.700; -265.000; -210.000
251.651; -182.200; -731.000; -671.000
251.794;  130.200;  538.000;  632.000
251.936; -224.600; -821.000; -747.000
252.078; -155.100; -540.000; -461.000
252.220; -135.000; -645.000; -477.000
252.362;   83.100;  344.000;  462.000
252.504; -132.300; -677.000; -584.000
252.646; -220.700; -875.000; -722.000
252.788;  -16.300;   14.000; -128.000
252.931; -101.900; -257.000; -253.000
253.073;  -57.800; -376.000; -317.000
253.215;  -46.300;  141.000;  122.000
253.357;   -3.000;   82.000; -153.000
253.499; -106.200; -374.000; -234.000
253.641; -171.500; -749.000; -594.000
253.783; -204.900; -609.000; -527.000
253.925; -174.000; -586.000; -591.000
254.067; -227.700; -744.000; -667.000
254.209;  -84.500; -391.000; -259.000
254.351; -298.600; -865.000; -883.000
254.493; -124.900; -441.000; -417.000
254.635; -217.600; -936.000; -818.000
254.777; -174.400; -752.000; -687.000
254.918; -143.500; -512.000; -430.000
255.060; -139.400; -551.000; -395.000
255.202; -121.600; -473.000; -261.000
255.344; -138.300; -658.000; -455.000
255.486; -148.400; -471.000; -406.000
255.628; -215.700; -780.000; -781.000
255.770; -177.800; -676.000; -536.000
255.912; -106.300; -559.000; -468.000
256.053; -176.700; -730.000; -508.000
256.195;  324.200; 1008.000;  903.000
256.337; -193.500; -861.000; -595.000
256.479;  165.000;  532.000;  416.000
256.621;  -78.500; -394.000; -212.000
256.762; -191.100; -789.000; -742.000
256.904;   96.600;  485.000;  487.000
257.046;  -70.900; -381.000; -271.000
257.188;  -93.900; -351.000; -264.000
257.329; -128.700; -525.000; -464.000
257.471; -248.500; -939.000; -807.000
257.613; -152.700; -584.000; -498.000
257.755; -310.200;-1073.000; -982.000
257.896;   79.100;  286.000;  392.000
258.038; -135.100; -403.000; -352.000
258.180;  -69.100; -354.000; -279.000
258.321; -187.100; -581.000; -457.000
258.463;  -22.100;  -71.000;  133.000
258.605; -160.900; -562.000; -570.000
258.746; -198.000; -886.000; -772.000
258.888; -304.200;-1026.000;-1020.000
259.029;   45.200;  121.000;   -8.000
259.171; -199.300; -614.000; -550.000
259.313;  -14.500;  -49.000;  -47.000
259.454; -191.100; -536.000; -414.000
259.596;  -62.200; -483.000; -390.000
259.737; -156.600; -590.000; -474.000
259.879;  100.900;  217.000;  311.000
260.020;  178.300;  901.000;  636.000
260.162;  -56.700; -146.000; -253.000
260.303; -216.700; -768.000; -687.000
260.445; -157.800; -609.000; -613.000
260.586;   22.900;  392.000;  157.000
260.728;  -71.500; -360.000; -248.000
260.869; -150.400; -350.000; -343.000
261.011;  196.500;  706.000;  537.000
261.152; -125.700; -479.000; -319.000
261.293; -156.400; -576.000; -595.000
261.435;  -70.900; -219.000; -184.000
261.576;  -85.900; -455.000; -325.000
261.718;  129.500;  420.000;  470.000
261.859; -250.200; -940.000; -949.000
262.000; -263.800; -951.000;-1016.000
262.142;  -53.800;  -52.000;  -60.000
262.283; -243.800; -808.000; -691.000
262.424; -157.800; -666.000; -625.000
262.566; -315.400;-1161.000; -983.000
262.707; -244.800; -840.000; -830.000
262.848; -237.200; -769.000; -726.000
262.990;  -92.300; -362.000; -345.000
263.131;  177.600;  650.000;  681.000
263.272;  -31.200;  -61.000;  -41.000
263.413; -180.900; -589.000; -561.000
263.555; -114.800; -669.000; -143.000
263.696; -152.300; -550.000; -641.000
263.837; -118.500; -449.000; -551.000
263.978;    0.900;   -5.000;  -77.000
264.119;  -69.700; -283.000; -264.000
264.261; -225.500; -847.000; -630.000
264.402;   15.100;   33.000;   40.000
264.543; -158.500; -509.000; -524.000
264.684;   -9.900;   61.000;  -50.000
264.825; -138.600; -816.000; -538.000
264.966;    6.800;  -84.000;  -67.000
265.107; -227.600; -646.000; -670.000
265.248; -217.200; -825.000; -812.000
265.390;  -19.100;  152.000;   -9.000
265.531;  -50.500; -238.000; -107.000
265.672; -153.500; -557.000; -630.000
265.813;  142.900;  563.000;  439.000
265.954; -297.100; -959.000; -940.000
266.095;  -21.200; -372.000; -322.000
266.236; -215.300; -686.000; -548.000
266.377;  -69.700; -243.000; -297.000
266.518; -155.300; -619.000; -547.000
266.659;   86.900;  170.000;  268.000
266.800;   32.600;   83.000;   85.000
266.941; -132.700; -487.000; -478.000
267.082;   24.800;  354.000;   99.000
267.223; -106.300; -344.000; -273.000
267.364; -262.900; -892.000; -686.000
267.504;  -33.500;    3.000;  135.000
267.645;  -12.700;  160.000;   67.000
267.786;  -80.500; -147.000;  -86.000
267.927; -128.400; -473.000; -379.000
268.068;  -31.200; -186.000;  -61.000
268.209;  -89.200; -175.000; -413.000
268.350; -138.900; -388.000; -532.000
268.490; -173.600; -648.000; -521.000
268.631;   73.600;  127.000;  225.000
268.772; -213.400; -874.000; -647.000
268.913;  -50.900; -328.000; -476.000
269.054;  -28.100; -117.000;   12.000
269.194;  -90.600; -418.000; -402.000
269.335; -319.100;-1137.000;-1074.000
269.476;  -31.300;   33.000;  -35.000
269.617;  -78.800; -347.000; -392.000
269.757; -177.300; -713.000; -646.000
269.898; -208.200; -856.000; -613.000
270.039; -110.700; -415.000; -405.000
270.180; -272.600; -952.000; -816.000
270.320;  -67.200; -190.000; -250.000
270.461;  -77.900; -277.000; -249.000
270.602;  -20.400; -186.000; -156.000
270.742; -242.700; -868.000; -943.000
270.883; -104.300; -442.000; -390.000
271.023;  -93.600; -358.000; -357.000
271.164; -145.200; -607.000; -528.000
271.305; -203.000; -666.000; -654.000
271.445; -183.400; -722.000; -683.000
271.586; -132.300; -462.000; -283.000
271.726;  -65.300; -397.000; -322.000
271.867; -156.600; -594.000; -534.000
272.008;  126.600; -473.000; -285.000
272.148;  196.000;  462.000;  468.000
272.289;  -21.300; -113.000; -181.000
272.429;   51.700;   19.000;  185.000
272.570; -183.300; -633.000; -737.000
272.710; -205.100; -825.000; -775.000
272.851;  -37.500;  113.000; -130.000
272.991; -317.400;-1173.000;-1077.000
273.131; -122.800; -419.000; -459.000
273.272; -193.600; -683.000; -723.000
273.412;  -10.700; -143.000;  -31.000
273.553; -149.100; -488.000; -507.000
273.693;  271.500;  913.000;  858.000
273.834; -250.400; -894.000; -692.000
273.974; -161.300; -664.000; -615.000
274.114; -194.700; -772.000; -560.000
274.255;  134.400;  414.000;  373.000
274.395;    6.400; -180.000; -125.000
274.535;   88.100;  199.000;  350.000
274.676;   58.400;  225.000;   94.000
274.816;   49.200;  110.000;   34.000
274.956; -207.900; -624.000; -690.000
275.097; -215.600;-1014.000; -922.000
275.237; -231.800; -913.000; -803.000
275.377; -210.200; -778.000; -689.000
275.517; -300.200; -878.000; -937.000
275.658; -139.800; -590.000; -555.000
275.798; -155.100; -606.000; -413.000
275.938;   50.100;  215.000;  323.000
276.078; -213.800; -626.000; -395.000
276.218;   16.000;   99.000;  104.000
276.359; -276.200;-1026.000;-1024.000
276.499; -155.400; -605.000; -446.000
276.639;  -70.600; -305.000; -151.000
276.779;  -76.800; -475.000; -357.000
276.919; -186.200; -783.000; -624.000
277.059;  -33.100; -261.000; -212.000
277.199;  -74.700; -357.000; -259.000
277.340;  104.100;  287.000;  175.000
277.480; -236.000; -840.000; -693.000
277.620;   73.900;  192.000;   16.000
277.760; -383.300;-1533.000;-1294.000
277.900;   52.100;  113.000;   33.000
278.040;    9.700;  137.000;  159.000
278.180;   91.900;  270.000;  170.000
278.320;    9.300;   21.000;   56.000
278.460; -123.000; -443.000; -469.000
278.600; -188.100; -708.000; -598.000
278.740;  128.500;  448.000;  224.000
278.880; -190.000; -768.000; -791.000
279.020;   -9.000; -194.000; -144.000
279.160; -149.700; -672.000; -595.000
279.300; -218.000; -926.000; -873.000
279.440; -185.800; -709.000; -622.000
279.579; -166.300;-1014.000; -929.000
279.719; -143.700; -410.000; -394.000
279.859;   99.900;   -4.000;   41.000
279.999;   15.700; -208.000;  101.000
280.139;  -73.800; -435.000; -387.000
280.279; -152.600; -708.000; -745.000
280.419;  -42.000; -229.000; -147.000
280.559;  -57.200; -259.000; -180.000
280.698; -173.700; -790.000; -639.000
280.838; -208.700; -778.000; -800.000
280.978; -188.800; -846.000; -790.000
281.118; -210.300; -811.000; -704.000
281.257;   42.100;   24.000;    6.000
281.397; -265.500;-1094.000; -960.000
281.537; -183.400; -599.000; -712.000
281.677;  -21.900; -150.000; -101.000
281.816; -158.300; -700.000; -630.000
281.956;  -75.500; -193.000; -257.000
282.096; -100.000; -539.000; -396.000
282.235; -203.500; -672.000; -638.000
282.375;  -54.700; -243.000;  -98.000
282.515; -196.900; -715.000; -707.000
282.654;   77.300;   29.000;  106.000
282.794;   74.600;  388.000;  244.000
282.934;  -94.000; -530.000; -491.000
283.073; -270.700;-1030.000; -857.000
283.213; -114.200; -460.000; -467.000
283.353; -105.200; -408.000; -349.000
283.492;  -66.400; -264.000; -296.000
283.632;  -69.900; -254.000; -168.000
283.771; -196.200; -859.000; -730.000
283.911; -121.400; -369.000; -260.000
284.050; -189.300; -794.000; -748.000
284.190; -332.300;-1229.000;-1096.000
284.329; -273.900;-1055.000; -964.000
284.469; -174.000; -516.000; -591.000
284.608; -103.400; -559.000; -598.000
284.748; -169.100; -614.000; -570.000
284.887;   -1.100;  -87.000;  -20.000
285.027; -248.400; -844.000; -892.000
285.166;  -79.400; -192.000; -249.000
285.306;  -14.700; -116.000;  -33.000
285.445;  -63.300; -229.000; -343.000
285.584; -185.000; -630.000; -494.000
285.724;  -96.700; -282.000; -322.000
285.863; -210.800; -857.000; -507.000
286.002;  -89.800; -366.000; -276.000
286.142; -218.100; -715.000; -622.000
286.281; -127.100; -525.000; -493.000
286.420; -144.500; -554.000; -417.000
286.560;  215.000;  653.000;  623.000
286.699; -273.400; -958.000; -912.000
286.838; -152.500; -590.000; -591.000
286.978; -189.100; -533.000; -537.000
287.117; -292.100;-1085.000; -950.000
287.256;  -57.200; -228.000; -211.000
287.395; -103.200; -197.000; -378.000
287.535; -104.000; -370.000; -298.000
287.674; -136.200; -509.000; -484.000
287.813;  133.100;  661.000;  533.000
287.952; -245.000;-1010.000; -871.000
288.091; -300.500;-1049.000; -915.000
288.231;   37.200;   13.000;   15.000
288.370; -329.700;-1217.000;-1200.000
288.509; -180.000; -728.000; -645.000
288.648; -169.300; -770.000; -548.000
288.787;  -63.900; -243.000;  -87.000
288.926; -120.000; -454.000; -475.000
289.065;  215.700;  859.000;  672.000
289.204; -112.300; -377.000; -217.000
289.344; -204.600; -791.000; -690.000
289.483;   55.000;  416.000;  304.000
289.622;  -10.200; -291.000; -149.000
289.761;  -36.200; -309.000; -166.000
289.900; -199.700; -785.000; -626.000
290.039;  -24.400;  -12.000;  -95.000
290.178;  -80.400; -274.000; -180.000
290.317; -145.200; -618.000; -479.000
290.456; -104.000; -463.000; -451.000
290.595; -268.000; -961.000; -833.000
290.734; -267.500; -904.000; -891.000
290.873; -146.000; -456.000; -420.000
291.011; -220.300; -833.000; -843.000
291.150; -217.400; -770.000; -682.000
291.289;  -40.000; -343.000; -110.000
291.428; -184.000; -599.000; -480.000
291.567;  -85.400; -370.000; -442.000
291.706;   -4.600;  109.000;  154.000
291.845; -159.700; -597.000; -505.000
291.984; -341.700;-1234.000;-1061.000
292.122;  167.500;  602.000;  582.000
292.261;   92.300;  620.000;  463.000
292.400;    6.300; -144.000;  211.000
292.539; -269.400; -959.000; -813.000
292.678;  -48.600; -325.000; -300.000
292.816; -338.900;-1136.000; -965.000
292.955; -183.400; -844.000; -684.000
293.094;  -59.900; -173.000; -337.000
293.233; -106.300; -556.000; -400.000
293.371;  -58.200; -225.000;  -84.000
293.510; -208.300; -866.000; -780.000
293.649; -291.300; -959.000; -924.000
293.787; -219.000;-1083.000;-1012.000
293.926;  -22.500; -113.000;  -32.000
294.065;  -75.600; -379.000; -290.000
294.203;   90.600;  298.000;  406.000
294.342;   40.300;   74.000;  156.000
294.481;11167.000;51180.000; -836.000
294.619;  -57.500; -425.000; -582.000
294.758; -313.900;-1230.000;-1137.000
294.896;   79.400; -125.000;    5.000
295.035; -291.800;-1040.000;-1006.000
295.174; -218.400;-1082.000; -954.000
295.312; -107.100; -323.000; -203.000
295.451;  -64.500; -307.000; -428.000
295.589; -141.800; -389.000; -518.000
295.728;   78.800; -292.000; -165.000
295.866;   -8.100;  -36.000;  -51.000
296.005; -165.300; -584.000; -341.000
296.143; -176.600; -558.000; -596.000
296.282; -177.300; -957.000; -881.000
296.420; -164.700; -657.000; -557.000
296.559; -178.900; -892.000; -633.000
296.697; -118.700; -847.000; -665.000
296.835; -100.300;-1141.000;-1002.000
296.974;   69.300;  -23.000;   39.000
297.112;  -60.600; -443.000; -504.000
297.251; -188.700; -815.000; -755.000
297.389;   38.100; -576.000; -438.000
297.527;    7.500; -145.000;  -83.000
297.666; -129.400; -486.000; -438.000
297.804; -112.300; -404.000; -264.000
297.942;    3.100; -136.000; -161.000
298.081;  -25.600; -183.000;   63.000
298.219;  113.200;  -17.000;  -19.000
298.357;   15.600; -144.000;  -71.000
298.495;  -90.000; -810.000; -812.000
298.634;   94.700;  245.000;  219.000
298.772;   13.000; -220.000; -338.000
298.910;  -98.700; -309.000; -182.000
299.048;   -7.400; -130.000; -153.000
299.187;  -76.500; -350.000; -250.000
299.325;   49.900;   52.000;  122.000
299.463;  -29.900; -389.000; -299.000
299.601;   76.400; -327.000; -271.000
299.739; -251.300; -908.000; -883.000
299.877; -169.700; -791.000; -703.000
300.016; -199.100;-1095.000; -935.000
300.154;  149.200;  -19.000; -161.000
300.292;  -61.700; -428.000; -348.000
300.430;   -1.700; -408.000; -291.000
300.568; -249.800; -940.000; -874.000
300.706; -105.400; -366.000; -469.000
300.844; -235.300;-1108.000; -979.000
300.982;  187.900;  246.000;  282.000
301.120; -271.300; -965.000; -866.000
301.258; -187.800; -812.000; -705.000
301.396;   41.800;  104.000;  -41.000
301.534;   30.100; -218.000; -293.000
301.672; -114.600; -664.000; -521.000
301.810;  -82.100; -613.000; -545.000
301.948;  157.400;   53.000;  149.000
302.086;  499.800; -250.000;  -32.000
302.224;  790.200; -610.000; -585.000
302.362;  -69.100; -558.000; -622.000
302.500; -142.200; -923.000; -893.000
302.638;  117.200;  128.000;  245.000
302.776;  -21.900; -352.000; -408.000
302.913;   87.300;  447.000;  236.000
303.051;  -26.800;  -86.000;  -23.000
303.189;   65.200;   90.000;  118.000
303.327;  -92.300; -341.000; -256.000
303.465; -167.700; -832.000; -588.000
303.603; -201.100; -805.000; -604.000
303.740;  154.600;  417.000;  241.000
303.878;  -90.900; -800.000; -759.000
304.016; -193.200; -915.000; -790.000
304.154; -296.600;-1123.000;-1152.000
304.291;  -74.600; -505.000; -554.000
304.429;   36.000;  102.000;   74.000
304.567; -248.100; -908.000; -893.000
304.705; -133.900; -408.000; -515.000
304.842;  -13.400; -616.000; -540.000
304.980;   58.400;  215.000;   35.000
305.118;   32.100; -367.000; -365.000
305.255; -204.600; -945.000; -927.000
305.393;   82.600;  178.000;  239.000
305.531; -256.300;-1173.000; -956.000
305.668; -150.500; -663.000; -582.000
305.806;   14.900; -358.000; -439.000
305.943;   30.800; -629.000; -637.000
306.081;   19.300; -378.000; -267.000
306.219; -211.400; -863.000; -748.000
306.356;   24.700;  158.000;   27.000
306.494;  263.000;  981.000;  761.000
306.631;   18.200;  -11.000;  -55.000
306.769;    2.800; -613.000; -485.000
306.906;  -42.300; -284.000; -258.000
307.044;  -69.800; -473.000; -488.000
307.181; -135.500; -410.000; -332.000
307.319;   41.600;  112.000;   87.000
307.456; -339.700;-1191.000;-1153.000
307.594; -219.000; -980.000; -727.000
307.731;  -31.800; -371.000; -164.000
307.868;    7.900;  -15.000;   20.000
308.006; -266.200; -961.000; -847.000
308.143; -112.700; -618.000; -330.000
308.281;  210.100;  -37.000; -254.000
308.418;  -26.700; -748.000; -640.000
308.555; -137.500; -400.000; -250.000
308.693; -134.400; -577.000; -573.000
308.830; -222.800; -712.000; -657.000
308.967;    7.800; -215.000;  -95.000
309.105;  -65.700; -507.000; -396.000
309.242;   41.400; -468.000; -367.000
309.379;  342.800; -577.000; -655.000
309.517; -139.600; -936.000; -948.000
309.654; -189.900; -910.000; -734.000
309.791; -128.600; -662.000; -580.000
309.928; -235.400; -977.000; -914.000
310.065;  283.300;  819.000;  697.000
310.203; -143.200; -825.000; -850.000
310.340;  -35.000; -465.000; -321.000
310.477; -151.800; -412.000; -516.000
310.614; -125.600; -383.000; -473.000
310.751; -111.500; -427.000; -518.000
310.889;   -6.500;    1.000;   11.000
311.026; -319.900;-1161.000; -939.000
311.163;  -53.000; -386.000; -380.000
311.300; -116.100; -512.000; -479.000
311.437; -123.600; -658.000; -619.000
311.574; -318.300;-1226.000; -985.000
311.711; -106.800; -595.000; -433.000
311.848;  -71.000; -380.000; -388.000
311.985;   55.200;  270.000;   93.000
312.122; -220.400; -932.000; -762.000
312.259; -204.500; -941.000; -994.000
312.396; -158.100; -508.000; -551.000
312.533; -152.400; -812.000; -790.000
312.670; -272.400;-1070.000; -898.000
312.807;  -28.100; -352.000; -367.000
312.944; -129.700; -513.000; -611.000
313.081;  -37.700; -150.000; -415.000
313.218; -223.900;-1111.000; -867.000
313.355;   -7.300; -531.000; -449.000
313.492;  -46.600; -455.000; -292.000
313.629;  229.300;  815.000;  735.000
313.766; -337.600;-1176.000;-1008.000
313.902;  -37.200; -186.000;   21.000
314.039; -111.000; -372.000; -289.000
314.176;   90.200;  286.000;  192.000
314.313; -140.700; -569.000; -473.000
314.450; -180.000; -788.000; -684.000
314.587; -114.800; -468.000; -480.000
314.723;   19.200;  -78.000;  130.000
314.860;   66.500;  318.000;  332.000
314.997;   56.800;  223.000;  142.000
315.134; -102.100; -385.000; -368.000
315.270; -113.000; -480.000; -496.000
315.407; -282.400;-1094.000; -967.000
315.544; -127.100; -657.000; -538.000
315.681; -164.000; -681.000; -565.000
315.817;   53.900; -133.000; -176.000
315.954;  -73.200; -613.000; -392.000
316.091; -233.400;-1045.000;-1023.000
316.227;  -36.900;  -71.000; -179.000
316.364;   29.900;   23.000;    6.000
316.500;  -57.600; -113.000; -300.000
316.637;  -41.300; -181.000; -302.000
316.774; -152.000; -625.000; -358.000
316.910; -168.300; -598.000; -629.000
317.047; -139.600; -487.000; -351.000
317.183; -119.500; -435.000; -566.000
317.320; -103.200; -367.000; -321.000
317.456; -143.700; -733.000; -805.000
317.593; -168.100; -598.000; -641.000
317.729;   35.400;  168.000;  -67.000
317.866; -417.000;-1434.000;-1285.000
318.002; -162.300; -708.000; -948.000
318.139; -230.800; -883.000; -867.000
318.275; -202.200;-1003.000; -738.000
318.412; -123.100; -517.000; -336.000
318.548; -103.500; -751.000; -720.000
318.685; -221.900; -985.000; -888.000
318.821; -158.000; -762.000; -735.000
318.957;  -53.800;   34.000;  -23.000
319.094;  116.900;  297.000;  154.000
319.230; -163.300; -756.000; -742.000
319.367;  116.200; -471.000; -520.000
319.503;  -29.500; -538.000; -436.000
319.639; -190.700; -877.000; -793.000
319.775; -176.400; -750.000; -685.000
319.912;  -98.200; -424.000; -519.000
320.048; -244.600;-1184.000;-1184.000
320.184;   97.000;   59.000;   70.000
320.321; -108.200; -497.000; -467.000
320.457;  137.400;  475.000;  662.000
320.593; -168.100; -375.000; -382.000
320.729; -202.700; -732.000; -734.000
320.866; -152.600; -577.000; -635.000
321.002; -169.500; -759.000; -809.000
321.138;  -66.700; -135.000; -211.000
321.274;   48.300; -148.000; -115.000
321.410;  -96.300; -585.000; -353.000
321.546; -150.200;-1011.000; -911.000
321.683;  110.800;  400.000;  185.000
321.819;    5.600;  -48.000; -117.000
321.955; -231.800; -743.000; -722.000
322.091;  -93.700; -585.000; -540.000
322.227;  -46.000; -382.000; -202.000
322.363;  -43.300; -320.000; -215.000
322.499; -108.700; -343.000; -331.000
322.635;  238.300;  636.000;  443.000
322.771;    9.900; -139.000;   12.000
322.907;  156.400;  129.000;  327.000
323.043;  -27.800; -115.000; -206.000
323.179;  -32.900; -394.000; -363.000
323.315;  -79.700; -401.000; -371.000
323.451;   39.900; -328.000; -236.000
323.587;   69.800;  -60.000;  -77.000
323.723;  -81.200; -682.000; -601.000
323.859;  -40.900; -258.000;  -76.000
323.995;  -63.100; -467.000; -409.000
324.131; -256.500; -967.000; -892.000
324.267;  -64.000; -254.000; -276.000
324.402; -277.700; -960.000; -983.000
324.538;  -21.000; -279.000; -104.000
324.674;   47.000;  164.000;   77.000
324.810;  200.400;  226.000;  308.000
324.946;  -37.900; -810.000; -658.000
325.082; -128.800; -568.000; -475.000
325.217;  -33.700;  -62.000;   16.000
325.353; -175.800; -764.000; -659.000
325.489; -151.100; -540.000; -506.000
325.625; -133.400; -579.000; -525.000
325.760;   96.100;  517.000;  376.000
325.896;  -83.000; -515.000; -702.000
326.032; -117.800; -403.000; -352.000
326.168;  -91.100; -462.000; -369.000
326.303; -114.000; -352.000; -461.000
326.439;  -28.200; -336.000; -276.000
326.575;  -23.400; -190.000;  -29.000
326.710;   25.200; -156.000;  -30.000
326.846;   -9.900;  146.000;  103.000
326.982; -145.800; -530.000; -548.000
327.117; -169.400; -481.000; -442.000
327.253; -169.600; -745.000; -742.000
327.388; -346.900;-1137.000;-1153.000
327.524; -126.600; -811.000; -578.000
327.659;  -25.700;  -58.000;  -22.000
327.795;    2.200;   69.000;   45.000
327.931; -198.200; -723.000; -499.000
328.066;  -75.100; -417.000; -276.000
328.202;  -81.000;   12.000; -129.000
328.337;  242.600;  957.000;  713.000
328.473;  -18.000;  -12.000;  -74.000
328.608;  -34.400; -256.000; -267.000
328.743; -205.400; -799.000; -664.000
328.879;   47.000;  214.000;  114.000
329.014;  -97.100; -102.000; -122.000
329.150; -136.700; -358.000; -483.000
329.285; -137.500; -465.000; -466.000
329.421;  -87.100; -548.000; -246.000
329.556;  -26.400;  -36.000;   85.000
329.691; -153.500; -633.000; -615.000
329.827; -152.200; -626.000; -480.000
329.962;  -80.500;  131.000; -301.000
330.097; -210.700; -673.000; -585.000
330.233;  -92.200; -410.000; -223.000
330.368; -221.400; -839.000; -628.000
330.503;    9.100;    3.000;   98.000
330.638;   -5.400;  -93.000; -125.000
330.774; -139.000; -609.000; -530.000
330.909;  -93.100; -434.000; -244.000
331.044; -187.100; -714.000; -708.000
331.179; -363.700;-1217.000;-1109.000
331.315;   31.900;   77.000;   20.000
331.450;   45.000;  157.000;  285.000
331.585; -164.100; -805.000; -706.000
331.720; -169.700; -510.000; -460.000
331.855;   -6.700;  -35.000; -102.000
331.990;  225.000;   62.000;  138.000
332.126;  122.800; -110.000;   71.000
332.261;  -84.600; -379.000; -265.000
332.396;  -10.500; -135.000; -242.000
332.531; -246.200;-1074.000;-1031.000
332.666;  -39.500; -519.000; -363.000
332.801; -195.800; -726.000; -807.000
332.936;  -21.600; -192.000; -122.000
333.071; -302.700; -870.000; -817.000
333.206;   60.900;  307.000;  379.000
333.341;   63.000;  344.000;  418.000
333.476; -153.300; -627.000; -623.000
333.611;  -75.100; -251.000; -173.000
333.746;  -83.100; -381.000; -464.000
333.881; -224.500; -973.000; -935.000
334.016; -250.800; -936.000; -917.000
334.151; -252.200; -746.000; -702.000
334.286;   45.900;  152.000;  186.000
334.421;  -21.200; -125.000; -178.000
334.556; -151.100; -611.000; -567.000
334.690; -195.700; -631.000; -577.000
334.825;  109.400;  381.000;   83.000
334.960; -117.600; -285.000; -413.000
335.095;   46.800;  135.000;  -91.000
335.230; -229.800; -722.000; -738.000
335.365; -273.800;-1084.000; -990.000
335.499; -268.900;-1108.000;-1037.000
335.634;   22.200;    9.000;  534.000
335.769; -217.400; -755.000; -720.000
335.904; -109.100; -603.000; -561.000
336.038; -158.900; -735.000; -657.000
336.173; -287.000;-1206.000;-1194.000
336.308;  -44.100; -116.000; -189.000
336.443;   17.100; -544.000; -634.000
336.577; -186.900; -936.000; -787.000
336.712;   81.800;   -4.000;  -12.000
336.847; -132.100; -724.000; -607.000
336.981;   12.400; -272.000; -208.000
337.116;  288.400;  615.000;  501.000
337.250;   40.300; -434.000; -421.000
337.385;  154.100; -297.000; -208.000
337.520;  -21.600; -632.000; -603.000
337.654;  -97.700; -215.000; -126.000
337.789; -216.500; -989.000; -933.000
337.923;  -41.000; -104.000; -205.000
338.058; -183.800; -673.000; -738.000
338.192; -118.900; -611.000; -488.000
338.327;   -7.100;  -18.000; -155.000
338.461; -110.000; -299.000; -469.000
338.596; -161.100; -780.000; -638.000
338.730; -210.100; -767.000; -803.000
338.865;   99.100;  -46.000; -140.000
338.999; -168.800; -846.000; -702.000
339.134; -121.100; -634.000; -536.000
339.268;  -99.500; -741.000; -603.000
339.403;  172.500; -740.000; -775.000
339.537;  -26.600; -894.000; -820.000
339.671; -224.200; -829.000; -813.000
339.806; -149.100; -556.000; -512.000
339.940;   -4.000; -261.000; -235.000
340.074; -212.900; -685.000; -510.000
340.209;  -63.500; -351.000; -230.000
340.343; -166.200; -517.000; -573.000
340.477;  338.100;  998.000; 1036.000
340.612; -199.500;-1033.000; -900.000
340.746;   75.100; -199.000; -243.000
340.880; -207.900; -924.000; -785.000
341.014;  -33.200;  -45.000; -154.000
341.149; -196.900; -756.000; -718.000
341.283; -199.200; -839.000; -754.000
341.417; -226.300;-1124.000; -938.000
341.551;   45.100; -768.000; -708.000
341.685; -138.300; -633.000; -611.000
341.820; -130.400; -562.000; -493.000
341.954; -102.600; -218.000; -349.000
342.088; -283.900;-1102.000;-1019.000
342.222;   74.500;  565.000;  618.000
342.356; -107.000; -395.000; -335.000
342.490; -211.600; -880.000; -841.000
342.624;  -76.800; -339.000; -242.000
342.758;  -47.700; -364.000; -312.000
342.892; -139.500; -710.000; -585.000
343.026;  -62.000;  -58.000; -116.000
343.160;  -73.900; -426.000; -376.000
343.294; -151.700; -474.000; -337.000
343.428;  -94.700; -488.000; -448.000
343.562;  -38.100; -172.000;  -23.000
343.696;  -65.800; -385.000; -314.000
343.830;  -46.500; -362.000; -356.000
343.964;    1.200; -231.000; -168.000
344.098;  929.500;  199.000;   70.000
344.232;  733.600; -266.000; -127.000
344.366;    6.600; -567.000; -453.000
344.500;    9.500; -665.000; -744.000
344.634;   -1.200; -324.000; -164.000
344.768;  -46.200; -531.000; -341.000
344.902;   40.600;  278.000;  256.000
345.035; -117.300; -556.000; -496.000
345.169; -279.800; -933.000; -656.000
345.303;  -78.900; -308.000; -482.000
345.437; -174.400; -826.000; -717.000
345.571; -170.000; -675.000; -594.000
345.704; -145.000; -309.000; -532.000
345.838;  -36.600; -331.000; -284.000
345.972; -139.300; -543.000; -495.000
346.106;  165.500; -179.000; -190.000
346.239;  366.900; -312.000; -243.000
346.373;  -20.800; -343.000; -302.000
346.507; -294.100; -950.000; -962.000
346.640;  149.600;  -30.000;   13.000
346.774; -160.100; -650.000; -797.000
346.908;   -5.600; -138.000;  -11.000
347.041; -186.000; -646.000; -593.000
347.175;   24.400;  259.000;   27.000
347.309; -162.500; -698.000; -628.000
347.442; -209.300; -883.000; -732.000
347.576;  347.100;  670.000;  668.000
347.709;  197.900; -123.000;  -52.000
347.843; -233.200; -933.000; -825.000
347.976;  106.400;  235.000;  294.000
348.110; -340.300;-1268.000;-1186.000
348.243; -169.400; -679.000; -772.000
348.377;    7.200;  -26.000;   60.000
348.510;  152.900;  403.000;  540.000
348.644;  -41.800;  -37.000; -159.000
348.777;   15.900;  180.000;  191.000
348.911;  -82.400; -142.000; -112.000
349.044;  260.800;  471.000;  448.000
349.178;  -19.200;-1069.000;-1006.000
349.311;  155.000;  141.000;  255.000
349.444; -128.900; -927.000; -813.000
349.578;  -41.600; -347.000; -200.000
349.711; -246.600; -959.000; -862.000
349.845; -103.800; -661.000; -591.000
349.978; -311.500;-1224.000;-1137.000
350.111; -164.200; -546.000; -612.000
350.244; -173.200; -596.000; -700.000
350.378;  -35.800; -392.000; -393.000
350.511; -117.800; -393.000; -426.000
350.644; -190.700; -808.000; -806.000
350.778;   20.600;  168.000;  104.000
350.911;   35.200;  134.000;  140.000
351.044; -173.900; -685.000; -615.000
351.177;  -39.700; -321.000; -281.000
351.310;  -36.700;    3.000; -131.000
351.444; -197.300; -888.000; -788.000
351.577;  148.300;  140.000;   90.000
351.710;  178.000;  593.000;  417.000
351.843;  -62.600; -165.000;  -77.000
351.976;   14.900;  149.000;  -79.000
352.109; -191.000; -621.000; -612.000
352.242;  -73.700; -464.000; -419.000
352.376; -166.200; -580.000; -636.000
352.509;   86.500; -437.000; -356.000
352.642; -125.300; -654.000; -604.000
352.775;   69.800; -141.000;  -98.000
352.908; -282.600; -933.000; -904.000
353.041; -215.500; -814.000; -824.000
353.174; -131.700; -551.000; -424.000
353.307; -190.600; -753.000; -764.000
353.440;  157.100;  541.000;  453.000
353.573; -244.400; -957.000;-1008.000
353.706; -164.700; -384.000; -558.000
353.839;  -41.500; -264.000; -220.000
353.971; -193.300; -657.000; -512.000
354.104; -221.800; -896.000; -835.000
354.237; -129.400; -627.000; -662.000
354.370; -176.500; -846.000; -879.000
354.503; -381.900;-1231.000;-1308.000
354.636;  -92.200; -529.000; -348.000
354.769; -250.200; -937.000; -860.000
354.902;  -12.500; -230.000; -139.000
355.034;  -31.100; -164.000; -220.000
355.167;  -53.800; -262.000; -162.000
355.300; -250.400;-1061.000; -880.000
355.433;  748.800;  -71.000;  -14.000
355.565; 1084.500; -402.000; -384.000
355.698;  292.900; -356.000; -296.000
355.831; -131.600; -882.000; -801.000
355.964;   32.700; -285.000; -170.000
356.096; -226.600; -856.000; -843.000
356.229;  -93.700; -523.000; -530.000
356.362;  205.700; -373.000; -266.000
356.494;  485.600; -229.000; -162.000
356.627;  441.200;  269.000;  377.000
356.760;  570.900;  120.000;   53.000
356.892;  690.200; -286.000; -601.000
357.025;  624.600;  403.000;  389.000
357.157;  507.200; -167.000; -179.000
357.290;  456.700; -856.000; -713.000
357.423;   62.200; -667.000; -556.000
357.555;   71.700; -217.000; -228.000
357.688;   43.600; -483.000; -364.000
357.820;  284.300; -870.000; -877.000
357.953; 3417.600; -563.000; -589.000
358.085;  662.500; -632.000; -612.000
358.218;  843.000;-1131.000; -932.000
358.350;  171.200;  -58.000;  312.000
358.483; -276.200;-1300.000;-1187.000
358.615; -160.200;-1182.000;-1078.000
358.747; -237.300;-1187.000;-1058.000
358.880;  -61.100; -810.000; -744.000
359.012;  -41.400; -376.000; -202.000
359.145;  -78.600; -480.000; -511.000
359.277;  -79.900; -962.000; -913.000
359.409; 3009.500;  536.000;  231.000
359.542;  653.800; -738.000; -688.000
359.674;   79.900;   46.000;   13.000
359.806; -134.100; -565.000; -438.000
359.939;  -90.700; -617.000; -516.000
360.071;  -94.400; -583.000; -579.000
360.203;  -25.600; -411.000; -364.000
360.335;   58.900;  164.000;  -16.000
360.468;  140.000; -249.000; -307.000
360.600; 2171.800; -547.000; -454.000
360.732; 2234.200; -546.000; -423.000
360.864;   87.800;-1216.000;-1044.000
360.996;  204.600; -516.000; -554.000
361.129;  -42.400; -389.000; -598.000
361.261;   24.100;  110.000; -113.000
361.393;  -57.800; -252.000; -214.000
361.525;   55.300;   94.000;  244.000
361.657; -154.800; -821.000; -703.000
361.789;  -11.000; -139.000; -155.000
361.921;   93.300; -642.000; -593.000
362.053;  342.800;  524.000;  541.000
362.185;   96.900;  288.000;   72.000
362.318; -174.000; -709.000; -705.000
362.450;  156.700;  294.000;  444.000
362.582;  -36.500; -913.000; -870.000
362.714;  -71.500; -353.000; -332.000
362.846; -164.600; -606.000; -490.000
362.978; -258.600; -941.000; -811.000
363.109;  -12.800; -161.000; -260.000
363.241;  195.100; -739.000; -749.000
363.373;  230.900; -649.000; -564.000
363.505;  524.900; -186.000;  -91.000
363.637;   40.200; -787.000; -601.000
363.769; -286.900;-1067.000;-1080.000
363.901; -148.300; -596.000; -654.000
364.033; -294.500;-1103.000;-1062.000
364.165;   -7.400; -283.000; -283.000
364.296;   42.300; -316.000; -177.000
364.428; -149.400;-1344.000;-1220.000
364.560; -144.000; -679.000; -661.000
364.692; -131.300; -738.000; -835.000
364.824;  148.900; -588.000; -456.000
364.955;  295.500; -402.000; -564.000
365.087;  526.200;-1097.000; -852.000
365.219;  -82.600; -686.000; -816.000
365.351; -137.400; -526.000; -572.000
365.482;   81.500;  300.000;  240.000
365.614; -101.400; -402.000; -314.000
365.746; -194.000; -729.000; -752.000
365.877; -195.800; -706.000; -672.000
366.009;  188.200;  -35.000;  -62.000
366.141; -279.200;-1249.000;-1134.000
366.272; -200.000; -803.000; -719.000
366.404; -257.200;-1005.000; -874.000
366.535;    0.200; -139.000;  -12.000
366.667; -201.700; -644.000; -649.000
366.799;   94.500;  353.000;  203.000
366.930; -256.400; -862.000; -996.000
367.062;   -5.000; -639.000; -613.000
367.193;  -26.300; -872.000; -842.000
367.325; -147.600; -580.000; -684.000
367.456;   15.900; -246.000;   31.000
367.588;  109.700; -371.000; -318.000
367.719;   -3.800;  -44.000;  -45.000
367.851;  -50.800; -222.000; -241.000
367.982; -177.800; -875.000; -732.000
368.113;   44.200; -475.000; -358.000
368.245; -260.600; -960.000; -841.000
368.376;  -53.000; -254.000; -302.000
368.508;  -69.900; -188.000; -263.000
368.639; -272.500;-1166.000;-1034.000
368.770; -142.400; -670.000; -589.000
368.902; -178.500; -836.000; -926.000
369.033; -237.300; -906.000; -855.000
369.164; -132.500; -720.000; -653.000
369.296; -180.100; -452.000; -601.000
369.427;  -21.500; -209.000; -144.000
369.558; -101.400; -593.000; -377.000
369.689; -155.600; -721.000; -569.000
369.821; -274.900; -951.000; -845.000
369.952;    8.400;   42.000; -108.000
370.083;  -78.700; -229.000; -108.000
370.214; -164.100; -735.000; -650.000
370.345;  -13.600;   65.000;   81.000
370.477; -190.100; -810.000; -790.000
370.608;  220.700; -328.000; -264.000
370.739; -200.800;-1233.000;-1292.000
370.870; -170.600;-1102.000; -923.000
371.001;   37.900; -378.000; -467.000
371.132; -175.500; -754.000; -735.000
371.263;    7.100;  -42.000; -148.000
371.394; -249.600; -841.000; -748.000
371.525;   91.600;  345.000;  225.000
371.657; -189.700; -808.000; -670.000
371.788;  118.300;  103.000;  199.000
371.919;   99.500; -384.000; -304.000
372.050; 3771.800;  -91.000; -156.000
372.181; 1089.900; -188.000; -294.000
372.311;  397.500;   42.000; -127.000
372.442;  -18.200; -457.000; -451.000
372.573;  -54.800; -444.000; -340.000
372.704; -249.900;-1008.000; -980.000
372.835;   27.300; -228.000; -289.000
372.966; -133.200; -646.000; -554.000
373.097; -160.900; -575.000; -711.000
373.228; -126.700; -717.000; -542.000
373.359;   64.700; -824.000; -536.000
373.490;  754.300; -881.000; -727.000
373.620;  882.700;-1001.000; -803.000
373.751; 1793.000; -332.000; -396.000
373.882;  681.700; -663.000; -733.000
374.013;    5.000; -449.000; -262.000
374.143; -107.200; -581.000; -659.000
374.274; -243.800; -987.000; -908.000
374.405;  100.600; -388.000; -276.000
374.536;  392.700; -526.000; -387.000
374.666; 1001.000; -759.000; -807.000
374.797;   87.600; -817.000; -868.000
374.928;  727.800; -710.000; -560.000
375.058;  715.700; -535.000; -500.000
375.189;   67.100;  -59.000;  -93.000
375.320; -230.100; -928.000;-1034.000
375.450; -164.000; -625.000; -616.000
375.581; -136.100; -526.000; -436.000
375.712;  -56.800; -574.000; -250.000
375.842;  158.700; -438.000; -415.000
375.973;  101.900; -554.000; -513.000
376.103; -164.500; -665.000; -648.000
376.234; -134.200; -531.000; -552.000
376.364; -193.100; -944.000; -867.000
376.495;  397.900;  925.000;  529.000
376.625;  -69.400; -472.000; -485.000
376.756;  -15.700; -709.000; -678.000
376.886; -260.400;-1178.000;-1026.000
377.017; -123.700;-1048.000;-1061.000
377.147;  158.000; -786.000; -782.000
377.278;  101.900;  174.000;  228.000
377.408; -240.600; -801.000; -815.000
377.538; -189.100; -707.000; -693.000
377.669; -166.500; -537.000; -613.000
377.799; -186.800; -645.000; -635.000
377.929; -124.200; -610.000; -428.000
378.060; -234.600; -781.000; -847.000
378.190; -150.000; -726.000; -531.000
378.320;  -92.200; -401.000; -406.000
378.451;   -7.300; -131.000;  -22.000
378.581;  -12.000;  -67.000; -110.000
378.711;  255.600; 1035.000;  866.000
378.841;  -76.700; -533.000; -675.000
378.972; -194.800; -871.000; -751.000
379.102;  -73.000; -652.000; -579.000
379.232;  -36.900; -126.000;  -73.000
379.362; -221.700;-1001.000; -885.000
379.492;  -54.900; -373.000; -424.000
379.623;  139.100;    0.000;  111.000
379.753; -225.600;-1107.000; -974.000
379.883;  225.200;   59.000;  156.000
380.013; -134.200;-1081.000;-1017.000
380.143; -272.200;-1097.000;-1056.000
380.273; -234.400; -985.000; -861.000
380.403;  -25.200; -344.000; -257.000
380.533; -147.300; -651.000; -664.000
380.663;   88.300;  173.000;  128.000
380.793; -254.400;-1027.000;-1074.000
380.923;  -35.800; -103.000;  -34.000
381.053; -176.900; -613.000; -623.000
381.183;  -36.100; -106.000; -248.000
381.313;  -12.000; -656.000; -470.000
381.443;  -16.500; -692.000; -473.000
381.573;   80.700; -402.000; -409.000
381.703;   63.300;-1249.000;-1095.000
381.833; -332.500;-1454.000;-1336.000
381.963;  141.500; -134.000;  -87.000
382.093; 1191.700; -925.000; -909.000
382.223;  263.600; -713.000; -602.000
382.353; -123.800; -801.000; -608.000
382.482;  277.900;-1091.000; -964.000
382.612;  640.200; -872.000; -644.000
382.742;  302.800; -695.000; -622.000
382.872;  161.400; -565.000; -551.000
383.002;   87.900;  347.000; -132.000
383.131;  -79.500; -226.000; -160.000
383.261; -125.700; -706.000; -768.000
383.391;  122.200; -552.000; -377.000
383.521; 2592.200;  451.000;  263.000
383.650;  406.300; -947.000; -904.000
383.780; -121.600; -783.000; -656.000
383.910;  206.500;  880.000;  802.000
384.039;  -99.800; -794.000; -656.000
384.169;    5.700;-1205.000;-1017.000
384.299; -116.300; -650.000; -662.000
384.428; -206.500; -764.000; -680.000
384.558;  -53.800; -308.000; -275.000
384.687;  -98.700; -414.000; -334.000
384.817;   38.900;   75.000;   -2.000
384.947;   -5.700; -234.000; -141.000
385.076;  385.600;  982.000;  912.000
385.206;  163.600;  369.000;  480.000
385.335;  -85.900; -549.000; -417.000
385.465; -165.100; -655.000; -663.000
385.594;  125.100;  -53.000;  -44.000
385.724;  349.600; -868.000; -838.000
385.853;  100.400; -296.000; -270.000
385.982; 1387.200; -743.000; -787.000
386.112; 2123.200;-1052.000; -871.000
386.241;   93.400; -307.000; -312.000
386.371;    3.400; -174.000;  -87.000
386.500;  -75.100; -825.000; -789.000
386.629;  -83.900; -874.000; -817.000
386.759;   44.400;  -43.000;   68.000
386.888;    8.800; -170.000; -250.000
387.017; -161.000; -648.000; -620.000
387.147; -208.300; -771.000; -798.000
387.276;  -62.600; -410.000; -397.000
387.405;    1.800; -398.000; -342.000
387.535; -114.700; -452.000; -361.000
387.664; -168.100; -692.000; -620.000
387.793;    9.400; -198.000; -113.000
387.922;  524.200;  255.000;  200.000
388.052;  -64.400; -576.000; -423.000
388.181;  -24.500; -342.000; -472.000
388.310; -130.400; -889.000; -710.000
388.439; -151.600; -749.000; -742.000
388.568;  232.400;  365.000;  244.000
388.697;  967.000; -756.000; -653.000
388.826;   94.200; -768.000; -666.000
388.956;    8.500; -285.000; -307.000
389.085;  -60.300; -347.000; -287.000
389.214; -238.700; -842.000; -872.000
389.343; -149.200; -645.000; -413.000
389.472;  366.800;  126.000;  149.000
389.601;  421.500;   91.000;    0.000
389.730;  -78.200; -568.000; -687.000
389.859;  101.600;  226.000;   46.000
389.988;  168.800; -423.000; -408.000
390.117;  122.900; -168.000; -146.000
390.246;  -38.700; -331.000; -320.000
390.375;   40.900; -673.000; -626.000
390.504; -136.200; -703.000; -621.000
390.633; -195.300; -672.000; -726.000
390.761; -157.600; -732.000; -645.000
390.890;   14.400;   -4.000; -130.000
391.019;  -57.000; -421.000; -441.000
391.148; -226.700; -826.000; -855.000
391.277; -124.500; -576.000; -493.000
391.406; -200.000; -821.000; -805.000
391.534;   57.500;  574.000; -301.000
391.663; -137.700; -583.000; -645.000
391.792; -156.000; -673.000; -701.000
391.921;   88.600;   -3.000;   15.000
392.050;  161.400; -287.000; -228.000
392.178; -177.800;-1206.000;-1061.000
392.307;   59.200; -758.000; -712.000
392.436;   -6.500; -427.000; -641.000
392.564;   30.700;  166.000;   -6.000
392.693; -215.100; -860.000; -682.000
392.822;  208.600; -529.000; -534.000
392.950;    5.800; -880.000; -714.000
393.079;  301.200; -188.000; -328.000
393.208;  -29.200; -488.000; -511.000
393.336;   -8.800; -170.000; -145.000
393.465;  -46.300; -317.000; -199.000
393.593;   32.000;   62.000;   79.000
393.722; -301.900;-1121.000; -916.000
393.850;  -12.800; -188.000;  -61.000
393.979; -284.400; -926.000; -805.000
394.107; -134.600; -517.000; -537.000
394.236;  -85.300; -570.000; -507.000
394.364;  321.100;  383.000;  206.000
394.493;  333.100; -911.000; -767.000
394.621; -125.100; -955.000; -916.000
394.750;  421.000; -873.000; -923.000
394.878; 2237.400; -247.000; -149.000
395.007; 2797.300; -721.000; -807.000
395.135;   68.900; -790.000; -721.000
395.263; -251.600;-1038.000;-1040.000
395.392;   19.800;  -25.000; -107.000
395.520; -178.800; -818.000; -679.000
395.648; -208.600; -865.000; -915.000
395.777;  -88.200; -366.000; -405.000
395.905;  -94.000; -449.000; -564.000
396.033;   47.900;  217.000;  172.000
396.162;  731.500; -399.000; -453.000
396.290;  640.600;  -17.000;   -2.000
396.418;   31.300; -555.000; -514.000
396.546; -202.200; -571.000; -466.000
396.674; -207.800; -850.000; -878.000
396.803;   -6.900;  -72.000;  -23.000
396.931;   42.600; -179.000; -199.000
397.059; -134.000;-1026.000; -989.000
397.187; -233.200;-1026.000; -975.000
397.315; -228.400; -884.000; -649.000
397.443; -166.700; -592.000; -443.000
397.572; -183.400; -578.000; -424.000
397.700; -109.400; -607.000; -614.000
397.828;   49.700;  120.000;  -90.000
397.956;  -87.000; -508.000; -478.000
398.084; -181.500; -767.000; -626.000
398.212;   68.600;  137.000;  124.000
398.340;  -11.200;  -56.000;  159.000
398.468;  -49.900; -390.000; -169.000
398.596; -262.700; -993.000; -953.000
398.724; -231.500; -762.000; -767.000
398.852; -305.200;-1024.000; -976.000
398.980; -131.000; -560.000; -560.000
399.108; -157.500; -982.000; -735.000
399.236;   54.500;   13.000;    8.000
399.363;    8.400;  222.000;  196.000
399.491; -129.500; -404.000; -398.000
399.619; -219.900; -829.000; -800.000
399.747; -175.900; -859.000; -771.000
399.875;   59.700;  220.000;  234.000
400.003;  -80.400; -359.000; -284.000
400.130; -139.500; -421.000; -341.000
400.258;  -31.000;  -83.000;   38.000
400.386;  -96.100; -352.000; -168.000
400.514; -127.300; -526.000; -587.000
400.641; -228.700; -928.000; -802.000
400.769; -245.900; -979.000; -888.000
400.897; -218.000; -838.000; -793.000
401.025;   -2.600; -166.000; -152.000
401.152;   36.300;  220.000;   38.000
401.280; -120.700; -430.000; -429.000
401.408; -196.200; -712.000; -576.000
401.535; -195.000; -735.000; -758.000
401.663; -342.200;-1134.000;-1054.000
401.790; -159.800; -514.000; -525.000
401.918;  106.700;  436.000;  405.000
402.046;   31.600;  134.000;  122.000
402.173;  -16.900;  -18.000;    7.000
402.301; -100.300; -519.000; -397.000
402.428;  125.900;  528.000;  383.000
402.556; -280.400;-1188.000; -913.000
402.683;  -44.100;  -20.000;   -1.000
402.811;   18.200;  -37.000; -206.000
402.938;    7.500;   20.000;   27.000
403.066;  123.600; -574.000; -558.000
403.193;  308.800;  299.000;  239.000
403.321;  187.700; -396.000; -574.000
403.448;  343.200;   83.000;   27.000
403.575;  116.900;  -90.000;  -46.000
403.703; -188.400; -732.000; -557.000
403.830; -119.800; -531.000; -496.000
403.957; -291.500;-1117.000;-1023.000
404.085;   -2.800;  -61.000; -172.000
404.212;  106.900;  -50.000;   63.000
404.339;  170.800; -566.000; -306.000
404.467; 4340.200; -612.000; -524.000
404.594; 2869.700; -287.000; -227.000
404.721;  531.000; -869.000; -764.000
404.848;   40.900; -113.000; -202.000
404.976; -251.600; -856.000; -783.000
405.103;   24.500;  -14.000;  -82.000
405.230;   11.400;  190.000;  226.000
405.357;   46.400;  117.000;   44.000
405.484;  172.900;  -49.000;    5.000
405.612;  -27.000; -548.000; -563.000
405.739; -119.800; -488.000; -243.000
405.866;  211.000;  669.000;  385.000
405.993; -102.100; -398.000; -102.000
406.120; -239.900; -801.000; -887.000
406.247; -115.300; -323.000; -342.000
406.374;  478.600;  540.000;  629.000
406.501;  -54.000; -632.000; -702.000
406.628; -124.100; -621.000; -589.000
406.755; -189.100; -803.000; -620.000
406.882;  -61.700; -228.000; -277.000
407.009; -209.400; -719.000; -628.000
407.136;   16.400; -480.000; -401.000
407.263;  -65.500; -939.000; -829.000
407.390; -155.900; -692.000; -614.000
407.517; -310.700;-1139.000;-1187.000
407.644;  -99.400; -332.000; -256.000
407.771; -147.600; -249.000; -287.000
407.898;   52.000;  168.000;  328.000
408.025; -142.000; -421.000; -313.000
408.151;    6.100;   82.000;  153.000
408.278; -105.500; -267.000; -216.000
408.405; -231.500; -931.000; -899.000
408.532; -173.500; -549.000; -542.000
408.659; -193.200; -677.000; -648.000
408.785; -389.200;-1298.000;-1170.000
408.912;  -70.600; -412.000; -296.000
409.039; -206.400; -610.000; -686.000
409.166; -139.000; -591.000; -555.000
409.292; -219.400; -571.000; -534.000
409.419; -190.500; -665.000; -649.000
409.546; -106.600; -431.000; -192.000
409.672; -182.000; -713.000; -545.000
409.799;  -18.600;  -36.000;   34.000
409.926;  -47.600; -180.000; -179.000
410.052; -348.900;-1127.000;-1091.000
410.179; -129.600; -368.000; -392.000
410.305; -137.800; -375.000; -493.000
410.432;  -68.200; -220.000; -333.000
410.558; -159.600; -305.000; -380.000
410.685; -174.400; -688.000; -431.000
410.812; -173.700; -409.000; -588.000
410.938; -264.800; -964.000; -808.000
411.065; -173.600; -671.000; -645.000
411.191;   -0.200; -189.000; -174.000
411.317; -232.100; -823.000; -742.000
411.444; -108.200; -317.000; -246.000
411.570; -128.600; -339.000; -294.000
411.697; -207.000; -758.000; -752.000
411.823; -322.700; -989.000; -999.000
411.949;  -19.900;  -56.000;   17.000
412.076; -194.100; -539.000; -519.000
412.202; -231.400; -758.000; -757.000
412.329; -265.500; -798.000; -752.000
412.455; -200.100; -821.000; -657.000
412.581;    2.000;  -15.000;  172.000
412.707; -139.500; -540.000; -457.000
412.834;   50.400;  156.000;  219.000
412.960; -177.100; -785.000; -784.000
413.086; -207.500; -743.000; -701.000
413.212;  217.200;  604.000;  578.000
413.339; -165.300; -685.000; -701.000
413.465;  -26.900; -364.000; -310.000
413.591; -219.600; -757.000; -474.000
413.717; -123.900; -358.000; -366.000
413.843; -242.300; -839.000; -861.000
413.969;  -93.200;  -47.000; -292.000
414.096; -249.800; -679.000; -679.000
414.222;   16.300;  -33.000;   85.000
414.348; -116.500; -652.000; -385.000
414.474;   67.600;   38.000;  -52.000
414.600;  -28.400; -126.000; -144.000
414.726;    4.800;  -96.000;  -55.000
414.852; -125.600; -365.000; -342.000
414.978;   54.600;  104.000;  -18.000
415.104;   20.900;   38.000;   80.000
415.230;  -15.700; -329.000; -330.000
415.356;  -31.700; -409.000; -514.000
415.482;  139.100;   13.000;  -35.000
415.608;  160.000; -247.000; -323.000
415.734;  800.200;   67.000;   38.000
415.860;16398.700; -875.000; -767.000
415.986;10844.700; -685.000; -607.000
416.111;  745.500; -798.000; -652.000
416.237;   98.900; -424.000; -571.000
416.363;  884.300; -765.000; -733.000
416.489; 3193.700; -324.000; -251.000
416.615;  216.900; -707.000; -742.000
416.741; -112.900; -677.000; -784.000
416.866; -201.200; -673.000; -736.000
416.992; -247.300; -801.000; -818.000
417.118;  -71.600;  -41.000;  -80.000
417.244; -165.300; -798.000; -531.000
417.369; -190.400; -801.000; -612.000
417.495;  -48.200; -325.000; -254.000
417.621; -206.300;-1015.000; -803.000
417.746;  -78.500; -579.000; -572.000
417.872;   -8.600; -254.000; -144.000
417.998;  -48.200; -515.000; -530.000
418.123;  734.400;-1073.000; -845.000
418.249; 3938.500; -512.000; -601.000
418.374;  391.200; -916.000; -824.000
418.500;   38.200; -383.000; -482.000
418.626;  101.700;   70.000;  -59.000
418.751;   26.200; -549.000; -448.000
418.877;   20.200; -637.000; -643.000
419.002; 1488.300; -688.000; -560.000
419.128; 9555.700; -930.000; -721.000
419.253; 2021.300; -967.000; -837.000
419.379;  209.700; -391.000; -338.000
419.504;  333.100;  325.000;  415.000
419.629;  335.200; -393.000; -212.000
419.755; 2871.300; -317.000; -254.000
419.880;15692.800;  -98.000;   67.000
420.006; 9191.200; -280.000; -221.000
420.131;23021.200; -662.000; -775.000
420.256; 3031.500; -315.000; -316.000
420.382;  293.300; -665.000; -687.000
420.507;  -35.600; -649.000; -778.000
420.632;  101.500; -337.000; -339.000
420.758;  224.000; -251.000; -425.000
420.883; -209.200; -876.000; -672.000
421.008; -184.800; -775.000; -619.000
421.133; -144.300; -509.000; -467.000
421.259;  -38.300; -325.000; -259.000
421.384; -239.100; -834.000; -693.000
421.509; -127.700;-1052.000; -862.000
421.634; 1128.500; -936.000; -820.000
421.759;  495.100; -359.000; -327.000
421.885; -152.000; -717.000; -656.000
422.010; -116.600; -673.000; -542.000
422.135; -239.900; -695.000; -727.000
422.260;   82.700;  340.000;  280.000
422.385;  -93.000;   12.000;  -98.000
422.510;   22.100;  151.000;  -26.000
422.635;   41.600;  -87.000;  -43.000
422.760;   16.100; -766.000; -791.000
422.885;   55.400;  -57.000;  -80.000
423.010;  -34.800; -112.000; -169.000
423.135; -170.600; -481.000; -561.000
423.260;  -13.700; -150.000; -245.000
423.385;  122.300;  476.000;  222.000
423.510;   50.600;   71.000;  -22.000
423.635;   85.700;  133.000;   45.000
423.760;  136.600;  383.000;  328.000
423.885;   75.600;  336.000;  391.000
424.010;   34.800;  -68.000;  -13.000
424.135;  -17.400;    5.000;  -33.000
424.259; -141.700; -654.000; -457.000
424.384; -139.100; -279.000; -272.000
424.509;  -42.500; -260.000; -186.000
424.634; -211.400; -761.000; -623.000
424.759;  -96.800; -688.000; -544.000
424.883; -137.500; -506.000; -527.000
425.008;   48.400; -502.000; -410.000
425.133; 1504.100; -679.000; -653.000
425.258;  648.100; -517.000; -381.000
425.382;  924.600; -867.000; -774.000
425.507; 2450.800; -487.000; -543.000
425.632;  268.400; -802.000; -663.000
425.756;  285.700; -256.000; -146.000
425.881; 5028.200; -831.000; -857.000
426.006;12646.000; -604.000; -355.000
426.130; 1768.000; -696.000; -508.000
426.255;  186.700; -611.000; -491.000
426.379;   73.100; -189.000; -577.000
426.504;  385.000;  660.000;  544.000
426.629; 3209.100; -519.000; -466.000
426.753; 2046.200;   64.000;  -46.000
426.878;  199.300; -252.000; -288.000
427.002;   -7.400; -651.000; -668.000
427.127; 1387.600;  -35.000; -158.000
427.251; 9304.200;  372.000;  401.000
427.375; 2320.600; -191.000; -173.000
427.500; 2116.800; -616.000; -610.000
427.624;  629.900; -234.000; -400.000
427.749;   57.100; -216.000; -225.000
427.873; -135.000; -499.000; -412.000
427.997;  -50.700; -222.000; -230.000
428.122;  167.300;  795.000;  703.000
428.246;  125.200;  433.000;  434.000
428.371; -261.000; -869.000; -773.000
428.495; -170.600; -624.000; -646.000
428.619;  -34.500; -186.000; -117.000
428.743;   62.500;   65.000;  132.000
428.868;  -59.200; -732.000; -643.000
428.992; 1425.200; -219.000; -326.000
429.116;  461.000; -329.000; -357.000
429.240;  353.700;  419.000;  426.000
429.365;  -43.500; -454.000; -574.000
429.489; -112.800; -638.000; -647.000
429.613;   -1.600; -236.000; -177.000
429.737;   -2.000; -563.000; -432.000
429.861;  165.300; -247.000; -133.000
429.985; 4559.400; -425.000; -305.000
430.109; 4451.300; -770.000; -908.000
430.234;  517.700;   76.000;  -50.000
430.358;  -23.400; -250.000; -160.000
430.482; -160.200; -672.000; -564.000
430.606; -166.100; -655.000; -375.000
430.730;  -50.700; -437.000; -388.000
430.854;  -48.500; -909.000; -835.000
430.978; -177.500; -795.000; -764.000
431.102; -138.600; -499.000; -422.000
431.226; -184.200; -874.000; -815.000
431.350;   92.200;  345.000;  422.000
431.474; -147.200; -661.000; -373.000
431.597; -279.300;-1060.000; -848.000
431.721;  -95.400; -276.000; -267.000
431.845; -249.400; -704.000; -472.000
431.969;  -80.400; -304.000; -349.000
432.093; -138.800; -395.000; -317.000
432.217;   30.100;   32.000;   82.000
432.341; -167.400; -523.000; -518.000
432.464;   12.200;   96.000;   40.000
432.588;  106.000; -401.000; -329.000
432.712;   78.700;  -52.000;  -52.000
432.836;   60.800;  213.000;  263.000
432.959;  -65.100; -372.000; -311.000
433.083;   55.500;   11.000;    2.000
433.207;  418.000;  285.000;  930.000
433.330; 4017.100; -391.000; -200.000
433.454; 4527.400; -654.000; -638.000
433.578; 2739.400;  583.000;  278.000
433.701;  338.700; -623.000; -675.000
433.825;   52.200; -292.000; -299.000
433.949;  159.000;   28.000;  -72.000
434.072;   -4.600; -410.000; -323.000
434.196;  -41.100; -309.000; -117.000
434.319; 7579.000;25482.000;25124.000
434.443;  532.300; -656.000; -603.000
434.566; 2052.300;  281.000;   62.000
434.690;  212.000; -637.000; -383.000
434.813;  -25.300; -251.000; -173.000
434.937; -142.800; -569.000; -696.000
435.060;  -90.900; -423.000; -332.000
435.184;  273.500; -492.000; -217.000
435.307;  149.000;  159.000;  102.000
435.431;    7.000;  -40.000;   24.000
435.554; -107.300; -399.000; -240.000
435.677; -103.000; -350.000; -258.000
435.801;  -39.700;  -25.000;   49.000
435.924;   -0.100;    1.000;  -67.000
436.048; -242.500;-1019.000; -732.000
436.171; -104.400; -240.000;  -66.000
436.294;  -65.900; -248.000; -229.000
436.417;  -98.500; -963.000; -849.000
436.541; -222.500; -814.000; -840.000
436.664;  -55.500; -242.000; -316.000
436.787;    7.000;   13.000;  113.000
436.910; -182.400; -792.000; -422.000
437.034;   43.700;  142.000;  143.000
437.157;   78.200;  -11.000;    0.000
437.280; -118.700; -392.000; -292.000
437.403; -220.100; -982.000; -869.000
437.526;  656.500; -903.000; -865.000
437.649; 2237.200; -505.000; -332.000
437.772;  219.000; -692.000; -540.000
437.896;  237.500;  700.000;  544.000
438.019; -177.900; -758.000; -503.000
438.142; -140.800; -596.000; -506.000
438.265; -129.900; -639.000; -670.000
438.388;  457.300; -520.000; -410.000
438.511;  -50.400; -597.000; -394.000
438.634;  -85.700; -247.000; -125.000
438.757; -237.800; -693.000; -619.000
438.880;   -1.200;  -34.000;  -57.000
439.003; -144.300; -417.000; -437.000
439.126;  -96.900; -287.000; -167.000
439.248;  -85.400;  -98.000; -139.000
439.371;  -12.300;    9.000;  -53.000
439.494;  124.400;  510.000;  439.000
439.617;  -19.000;   65.000;  -88.000
439.740; -312.900; -968.000; -816.000
439.863; -245.100; -755.000; -595.000
439.986; -216.200; -476.000; -431.000
440.108;  -46.100; -161.000; -112.000
440.231; -321.200; -950.000; -836.000
440.354;  -34.200;  -64.000; -150.000
440.477; -100.200; -566.000; -542.000
440.599;  -26.100; -200.000; -225.000
440.722; -196.200; -709.000; -586.000
440.845;  172.900;  751.000;  928.000
440.968; -163.900; -415.000; -311.000
441.090;  -73.900; -199.000;  -33.000
441.213; -287.700;-1021.000; -825.000
441.336;  -48.700; -159.000;   -5.000
441.458; -150.400; -549.000; -396.000
441.581; -184.300; -628.000; -629.000
441.703;  -98.700; -152.000;   13.000
441.826; -189.200; -557.000; -400.000
441.948;  -14.300;   56.000;   51.000
442.071;  122.500;  555.000;  424.000
442.193; -182.400; -531.000; -485.000
442.316;   42.100;  152.000;   97.000
442.438;   -2.900; -233.000;  -10.000
442.561;  106.600;  272.000;  262.000
442.683;  519.900; -809.000; -522.000
442.806; 1160.900;   -8.000;   74.000
442.928; -101.400; -859.000; -604.000
443.051; -127.500; -577.000; -373.000
443.173; -161.400; -341.000; -339.000
443.295; -151.000; -263.000; -371.000
443.418; -140.900; -321.000;  -29.000
443.540;   11.000; -106.000;   -4.000
443.662; -183.300; -563.000; -465.000
443.785;   41.200;  335.000;  199.000
443.907; -176.500; -362.000; -208.000
444.029; -220.500; -767.000; -494.000
444.152; -230.400; -644.000; -554.000
444.274;   -9.300;  -18.000;  -24.000
444.396; -194.100; -461.000; -221.000
444.518; -214.900; -691.000; -454.000
444.640; -179.500; -268.000; -111.000
444.763;   24.500;  388.000;  249.000
444.885; -188.300; -432.000; -392.000
445.007;  -13.300;   35.000;   86.000
445.129; -203.500; -610.000; -515.000
445.251; -116.900; -372.000; -439.000
445.373; -231.700; -537.000; -386.000
445.495;   48.900;  242.000;  350.000
445.617;  140.500;  853.000;  753.000
445.739;  -83.100; -215.000;  -97.000
445.861;  -35.400; -245.000; -112.000
445.984;  -75.300; -267.000; -101.000
446.105;  201.500; -418.000; -251.000
446.227;  617.300; -176.000;  -19.000
446.349;  -67.600; -358.000; -249.000
446.471; -182.000; -615.000; -448.000
446.593; -113.200; -316.000;   19.000
446.715;    9.100;  -67.000;   41.000
446.837;  182.700;  697.000;  832.000
446.959; -181.300; -457.000; -478.000
447.081; -212.100; -628.000; -518.000
447.203;  187.200;  862.000;  834.000
447.325; -121.700; -270.000;   42.000
447.446;   28.500;  286.000;  530.000
447.568; -278.100; -921.000; -803.000
447.690; -150.300; -236.000; -245.000
447.812; -249.900; -798.000; -519.000
447.933;  -22.500;  155.000;  127.000
448.055; -107.300; -306.000; -261.000
448.177;  176.700;   31.000;   79.000
448.299;  -38.300; -935.000; -727.000
448.420;   34.900;  -25.000;  159.000
448.542;  -41.600;   -3.000;   33.000
448.664;   22.900;  109.000;  322.000
448.785;    3.700;  265.000;   83.000
448.907; -131.000; -614.000; -353.000
449.028; -156.800; -771.000; -471.000
449.150;  165.600;  492.000;  589.000
449.272; -333.200;-1044.000; -913.000
449.393;   92.600;  612.000;  694.000
449.515; -265.800; -634.000; -581.000
449.636; -107.400; -264.000; -155.000
449.758;  185.900;  763.000;  622.000
449.879; -169.000; -498.000; -396.000
450.001; -118.500; -149.000;  -49.000
450.122;  -55.500;  -95.000;  162.000
450.244;    8.400;   37.000;  364.000
450.365; -174.300; -495.000; -301.000
450.486;  -46.700;   80.000;  268.000
450.608;   54.700;  393.000;  326.000
450.729;  100.500;  578.000;  645.000
450.850;  -88.100; -574.000; -466.000
450.972;  497.500; -552.000; -389.000
451.093; 3788.700;  190.000;  588.000
451.214; 1352.200; -516.000; -337.000
451.336;  406.900;  773.000;  579.000
451.457;   38.100;  264.000;  393.000
451.578;  -63.300; -118.000;  -74.000
451.699; -210.400; -546.000; -540.000
451.821; -113.000; -284.000;  -50.000
451.942;   18.700;  278.000;  285.000
452.063;   87.900;  228.000;  419.000
452.184;  438.700;  -54.000;  -49.000
452.305;  881.900;  103.000;  170.000
452.427;  -22.000; -549.000; -301.000
452.548;  -55.700;   23.000;   79.000
452.669; -110.600; -257.000;  -89.000
452.790;  -41.100;    3.000;  -18.000
452.911;   28.100;  195.000;  259.000
453.032; -107.100; -289.000;  -60.000
453.153;  -46.100;  -29.000;   81.000
453.274;  191.000;  737.000;  868.000
453.395;  -75.500;  -51.000;  175.000
453.516;  279.100; 1317.000; 1388.000
453.637; -156.900; -205.000; -150.000
453.758;  -80.900;   15.000;   69.000
453.879; -164.400; -462.000; -250.000
454.000;  194.900; 1086.000;  948.000
454.121; -195.500; -554.000; -326.000
454.242; -174.400; -599.000; -383.000
454.362;  -43.600;  -99.000;  114.000
454.483;  -43.000; -309.000; -229.000
454.604;   90.100;  512.000;  580.000
454.725; -223.600; -627.000; -555.000
454.846; -247.800; -474.000; -406.000
454.967;   -0.500;  230.000;  539.000
455.087;  -42.200;  179.000;  153.000
455.208;   89.300;  554.000;  856.000
455.329;  -72.400;  -22.000;   82.000
455.450;  119.400;  473.000;  633.000
455.570; -159.500; -234.000; -211.000
455.691;   -0.800;  201.000;  407.000
455.812; -169.900; -270.000;  -92.000
455.932;  -68.200;  107.000;  -97.000
456.053;  -93.500;   36.000;   24.000
456.173; -189.900; -433.000; -355.000
456.294; -232.400; -476.000; -303.000
456.415;  -77.300;  -73.000;   70.000
456.535;  -14.600;  297.000;  273.000
456.656;  -23.100;  132.000;  240.000
456.776;  -61.100;    3.000;  298.000
456.897;   41.500;  308.000;  513.000
457.017; -105.400; -153.000;   -3.000
457.138; -163.200; -402.000; -249.000
457.258;    4.600;  263.000;  224.000
457.379;   48.500;  509.000;  521.000
457.499;  -20.100;  443.000;  432.000
457.620; -183.500; -407.000; -231.000
457.740; -144.300; -132.000;  -11.000
457.860;  -49.800;   87.000;   44.000
457.981;  -80.600;  132.000;  124.000
458.101; -133.700;  -89.000;   40.000
458.221;   42.100;  336.000;  402.000
458.342;  -51.900;   -4.000;  -37.000
458.462;   51.600;  617.000;  352.000
458.582;  -82.400; -302.000; -294.000
458.703;   -6.200;  303.000;  154.000
458.823;  -29.500;   22.000;  163.000
458.943;   35.900;  341.000;  467.000
459.063;  -48.500; 1124.000;  192.000
459.183;  -22.200;  328.000;  313.000
459.304;   68.400;  315.000;  517.000
459.424; -130.700; -246.000;  -89.000
459.544;  333.800;  388.000;  764.000
459.664;  700.600;  499.000;  506.000
459.784;  394.400; 1004.000; 1175.000
459.904;  133.800;  867.000;  744.000
460.024;  210.400;  867.000;  684.000
460.144;   32.800;  449.000;  554.000
460.264;    2.800;  515.000;  327.000
460.385; -128.700; -145.000; -119.000
460.505;  143.600;  905.000;  858.000
460.625; -112.000;  -17.000;  -68.000
460.745;    9.500;  396.000;  541.000
460.864;  -85.200;  153.000;  469.000
460.984;   55.000;  499.000;  573.000
461.104;  349.200; 1656.000; 1775.000
461.224;   72.600;  657.000;  650.000
461.344;    9.600;  431.000;  360.000
461.464;   -3.000;  258.000;  513.000
461.584;   -1.600;  283.000;  466.000
461.704;  -72.600;   58.000;  108.000
461.824;  -77.600;  238.000;  259.000
461.943;  -32.800;  191.000;  130.000
462.063;  -50.900;    2.000;  324.000
462.183;  123.300;  639.000;  717.000
462.303;  265.500; 1678.000; 1230.000
462.422;  126.800;  781.000;  840.000
462.542;  -23.100;  271.000;  391.000
462.662;   56.900;  353.000;  380.000
462.782;  262.900;  833.000;  572.000
462.901;  444.100;  545.000;  717.000
463.021;  430.800; 1702.000; 1638.000
463.141;   47.300;  337.000;  770.000
463.260;   19.700;  614.000;  474.000
463.380;   75.100;  902.000;  884.000
463.499;  -22.500;  342.000;  332.000
463.619;   11.500;  581.000;  559.000
463.738;  345.600; 1644.000;  903.000
463.858;   76.900;  657.000;  811.000
463.978;  -48.500;  542.000;  396.000
464.097;  134.500;  921.000; 1114.000
464.217;  258.700; 1196.000; 1143.000
464.336;  257.900; 1068.000; 1130.000
464.455;  -42.700;  328.000;  659.000
464.575;   97.500;  597.000;  602.000
464.694;  324.400; 1204.000; 1179.000
464.814;  236.000; 1190.000; 1138.000
464.933;  155.000; 1095.000; 1027.000
465.052;  263.800; 1412.000; 1054.000
465.172;  139.500;  922.000;  799.000
465.291;  315.500; 1376.000; 1320.000
465.410;  103.400;  462.000;  735.000
465.530;  269.500; 1355.000; 1310.000
465.649;  185.200; 1209.000; 1273.000
465.768;  315.300; 1673.000; 1508.000
465.888;  120.500;  941.000; 1174.000
466.007;  229.800; 1335.000; 1440.000
466.126;   80.100;  721.000;  641.000
466.245;  140.500; 1176.000; 1187.000
466.364;   78.400;  950.000; 1060.000
466.484;  187.900; 1024.000; 1213.000
466.603;   96.300; 1101.000; 1222.000
466.722;  313.000; 1490.000; 1769.000
466.841;  215.700; 1151.000; 1401.000
466.960;  164.700; 1069.000;  972.000
467.079;  300.900; 1971.000; 1786.000
467.198;  163.100; 1238.000; 1181.000
467.317;  205.600; 1768.000; 1162.000
467.436;  241.400; 1709.000; 1261.000
467.555;  311.800; 1796.000; 1746.000
467.674;  225.500; 1227.000; 1329.000
467.793;  150.400; 1376.000; 1374.000
467.912;  212.400; 1658.000; 1539.000
468.031;  338.700; 2038.000; 1930.000
468.150;  315.300; 1842.000; 1837.000
468.269;  445.400; 2313.000; 2090.000
468.388;  446.400; 2168.000; 2339.000
468.507;  571.700; 2884.000; 2903.000
468.626;  601.100; 2555.000; 2541.000
468.744;  348.500; 2018.000; 2174.000
468.863;  440.900; 2312.000; 2523.000
468.982;  234.700; 1503.000; 1555.000
469.101;  532.500; 2788.000; 2692.000
469.220;  384.300; 2333.000; 2176.000
469.338;  557.100; 2935.000; 3051.000
469.457;  455.300; 2719.000; 2545.000
469.576;  750.500; 3953.000; 3784.000
469.695;  512.200; 2877.000; 3066.000
469.813;  916.100; 4148.000; 4192.000
469.932;  845.400; 4255.000; 4485.000
470.051;  882.800; 4075.000; 4161.000
470.169; 1270.400; 4470.000; 4338.000
470.288; 1744.800; 4700.000; 4809.000
470.406; 1269.700; 5059.000; 5194.000
470.525; 1257.500; 6101.000; 5787.000
470.644; 1340.500; 6847.000; 6794.000
470.762; 1720.200; 8397.000; 7873.000
470.881; 1834.900; 8651.000; 8464.000
470.999; 2099.400; 9685.000; 9151.000
471.118; 2290.500;11174.000;10711.000

