
Integration time [ms]: 200.000
Averaging Nr. [scans]: 10
Smoothing Nr. [pixels]: 0
Data measured with spectrometer [name]: 2101012U2
Wave   ;Sample   ;Dark     ;Reference
[nm]   ;[counts] ;[counts] ;[counts] 

197.733;  123.100;  516.000;  404.000
197.879; -141.100; -610.000; -634.000
198.025;  -69.800; -475.000; -420.000
198.171; -132.800; -602.000; -612.000
198.317;  -37.200; -401.000; -316.000
198.463; -103.300; -655.000; -404.000
198.609;   62.300;  181.000; -137.000
198.755; -161.300; -644.000; -410.000
198.901; -137.300; -505.000; -424.000
199.047; -124.400; -615.000; -488.000
199.193;  -77.000; -230.000; -468.000
199.339;  -61.200; -222.000; -369.000
199.485;   86.700;  330.000;  271.000
199.631;   62.200;  227.000;  310.000
199.777; -109.100; -466.000; -398.000
199.923; -132.000; -610.000; -424.000
200.069;   11.500; -141.000;  -58.000
200.215;  105.700;  128.000;  453.000
200.361;  123.100;  243.000;  477.000
200.507; -143.800; -600.000; -373.000
200.653;  -50.200; -371.000; -194.000
200.798;  -76.500; -215.000; -125.000
200.944;   10.300; -146.000;  -41.000
201.090;  115.300;   61.000;  222.000
201.236;    7.500; -116.000; -158.000
201.382;  308.100;  874.000;  903.000
201.528;   19.400;  -58.000;  -48.000
201.674;  -75.100; -386.000; -293.000
201.819; -123.400; -540.000; -439.000
201.965; -181.900; -699.000; -447.000
202.111;  -65.100; -273.000; -226.000
202.257;  -76.900; -250.000; -238.000
202.402;   25.400;   13.000;  -36.000
202.548;  -72.300; -169.000; -116.000
202.694;  173.800;  410.000; -183.000
202.840; -142.000; -603.000; -531.000
202.985; -137.800; -681.000; -639.000
203.131; -225.500; -832.000; -666.000
203.277;  -17.800; -199.000; -262.000
203.423; -110.200; -434.000; -520.000
203.568;  -70.800; -462.000; -237.000
203.714; -146.900; -535.000; -542.000
203.860; -162.400; -682.000; -641.000
204.005;   50.000;  112.000;  167.000
204.151;  180.200;  561.000;  556.000
204.296;  -68.500; -354.000; -221.000
204.442; -125.300; -600.000; -547.000
204.588; -127.600; -592.000; -579.000
204.733;   50.600;  178.000;  168.000
204.879; -252.400;-1018.000; -822.000
205.025;   55.400;  -99.000;  126.000
205.170;  -12.700;  -17.000;   94.000
205.316;  211.300;  438.000;  661.000
205.461; -189.700; -698.000; -554.000
205.607;  195.600;  609.000;  665.000
205.752; -171.200; -626.000; -551.000
205.898;  -83.400; -501.000; -391.000
206.043; -130.600; -578.000; -506.000
206.189;  -88.800; -243.000; -285.000
206.334;  181.900;  554.000;  606.000
206.480;  154.500;  409.000;  239.000
206.625; -149.400; -529.000; -552.000
206.771;  -81.600; -451.000; -373.000
206.916;  -67.700; -210.000; -537.000
207.062; -157.700; -545.000; -591.000
207.207; -143.800; -546.000; -443.000
207.353;  110.600;  185.000;  460.000
207.498;   55.900;  196.000;   85.000
207.643; -104.200; -501.000; -370.000
207.789; -248.400;-1069.000; -910.000
207.934; -189.400; -665.000; -713.000
208.080;  -33.100; -154.000;   66.000
208.225;   -7.100;  -22.000;  -57.000
208.370; -157.500; -727.000; -619.000
208.516; -141.200; -741.000; -487.000
208.661;   -5.500; -127.000;  -69.000
208.806;  -30.600; -165.000; -171.000
208.952; -272.300;-1044.000; -731.000
209.097;  178.600;  378.000;  349.000
209.242; -105.000; -307.000; -382.000
209.387;  138.900;  392.000;  350.000
209.533; -107.500; -321.000; -350.000
209.678;  189.600;  472.000;  543.000
209.823;  -97.800; -408.000; -310.000
209.969; -171.600; -860.000; -757.000
210.114; -235.200; -907.000; -719.000
210.259; -225.600; -939.000; -889.000
210.404;    6.600; -171.000;  103.000
210.549;   50.800;  108.000;    3.000
210.695;  -34.200;   -3.000;  -95.000
210.840;  103.300;   94.000;   67.000
210.985; -122.800; -484.000; -303.000
211.130;  172.000;  268.000;  406.000
211.275;   67.900;  207.000;  199.000
211.420;  -57.600; -300.000; -289.000
211.566; -134.900; -536.000; -489.000
211.711;   72.600;  218.000;  157.000
211.856; -141.800; -545.000; -519.000
212.001;   56.000;  151.000;   44.000
212.146;   31.900;  153.000;   49.000
212.291;  -27.800; -210.000; -186.000
212.436;  -24.200; -280.000;   -6.000
212.581; -150.500; -685.000; -653.000
212.726; -141.500; -487.000; -538.000
212.871; -111.300; -552.000; -217.000
213.016; -288.100;-1172.000;-1029.000
213.161;  172.000;  406.000;  291.000
213.306; -142.200; -435.000; -577.000
213.451; -182.700; -778.000; -689.000
213.596;  -79.000; -455.000; -347.000
213.741;  -65.100; -448.000; -538.000
213.886; -164.000; -498.000; -517.000
214.031;  -20.800; -294.000; -124.000
214.176;  -67.400; -408.000; -341.000
214.321;  -27.300; -296.000; -157.000
214.466;   -7.200; -163.000;  -43.000
214.611;  -15.500;  -61.000;  -10.000
214.756; -247.700; -948.000; -858.000
214.901;  -35.200; -388.000; -226.000
215.046; -255.000; -797.000; -825.000
215.191;   35.200;  128.000;   35.000
215.336;  -35.100; -157.000;  -19.000
215.480; -133.500; -684.000; -505.000
215.625;    0.200; -175.000;  -19.000
215.770; -157.500; -757.000; -662.000
215.915;  -10.700;   -5.000;  -97.000
216.060;   16.400; -113.000;  -21.000
216.205; -186.000; -731.000; -779.000
216.349; -127.800; -470.000; -533.000
216.494; -265.500; -939.000; -867.000
216.639; -216.700; -823.000; -888.000
216.784; -152.800; -577.000; -525.000
216.929;  142.000;  392.000;  281.000
217.073;    2.900; -244.000;  -31.000
217.218;   42.500;   78.000;  -47.000
217.363; -180.500; -656.000; -618.000
217.507; -153.400; -623.000; -588.000
217.652; -232.200; -845.000; -874.000
217.797; -183.600; -708.000; -659.000
217.942; -204.600; -856.000; -720.000
218.086;  215.500;  608.000;  539.000
218.231;  -49.300; -174.000;  -26.000
218.376;  -65.600; -337.000; -229.000
218.520;   40.500;  -41.000;   96.000
218.665;  -31.800; -338.000; -204.000
218.810;  -86.400; -275.000; -233.000
218.954;   94.900;  201.000;   35.000
219.099; -237.800; -713.000; -963.000
219.243; -135.500; -589.000; -554.000
219.388;  -17.300; -264.000; -136.000
219.532;   -0.600; -116.000; -116.000
219.677; -130.300; -564.000; -521.000
219.822;    1.000;   33.000;   89.000
219.966;   50.400;   17.000;  -99.000
220.111;  -60.200; -328.000;  -40.000
220.255; -148.000; -797.000; -750.000
220.400;  -19.600; -180.000; -146.000
220.544; -118.300; -516.000; -450.000
220.689; -112.400; -422.000; -451.000
220.833;  -34.100; -123.000;  -58.000
220.978;  -84.200; -393.000; -563.000
221.122;   49.600;  319.000;  307.000
221.267; -207.800; -906.000; -837.000
221.411; -115.100; -478.000; -394.000
221.555;   -7.100; -104.000;  -23.000
221.700;  -78.200; -329.000; -222.000
221.844;  102.800;  255.000;  272.000
221.989;  -67.400; -328.000; -311.000
222.133;  -51.300; -289.000; -307.000
222.277;    7.200;    5.000;   78.000
222.422;   55.400;  227.000;  113.000
222.566;  -45.600; -381.000; -214.000
222.711;  -97.300; -414.000; -479.000
222.855; -157.800; -643.000; -586.000
222.999; -183.600; -642.000; -717.000
223.144;  -23.800; -195.000; -194.000
223.288;  123.200;  423.000;  251.000
223.432;   44.000;  184.000;  230.000
223.576;   63.900;  152.000;  -21.000
223.721;   95.500;  364.000;  273.000
223.865;  -88.500; -472.000; -475.000
224.009;  532.700; 1673.000; 1631.000
224.153; -130.800; -660.000; -671.000
224.298; -129.200; -531.000; -489.000
224.442;  -10.400;  -74.000;  -33.000
224.586;   17.700; -169.000; -106.000
224.730; -184.400; -858.000; -670.000
224.875; -216.800; -739.000; -688.000
225.019;   75.200;  102.000;  188.000
225.163;  157.500;  208.000;  341.000
225.307;   61.000;   97.000;  -91.000
225.451;  101.400;  360.000;  481.000
225.595;  102.700;  264.000;  176.000
225.739;  -31.100; -170.000;  -94.000
225.884;   61.800;   86.000;    5.000
226.028; -167.400; -760.000; -626.000
226.172;  -41.900; -260.000; -273.000
226.316; -220.100; -941.000; -902.000
226.460; -135.900; -645.000; -493.000
226.604;  -87.600; -406.000; -400.000
226.748; -205.000; -836.000; -733.000
226.892;  -62.700; -227.000; -181.000
227.036;  -99.800; -537.000; -447.000
227.180; -108.800; -551.000; -375.000
227.324; -118.600; -561.000; -580.000
227.468; -219.100; -819.000; -717.000
227.612;   43.800;  242.000;  -28.000
227.756; -196.500; -845.000; -698.000
227.900;  153.300;  342.000;  441.000
228.044; -100.000; -509.000; -290.000
228.188;  135.200;  448.000;  568.000
228.332; -159.300; -546.000; -472.000
228.476;  -30.900; -223.000; -149.000
228.620;  -54.200; -210.000; -150.000
228.764;  154.500;  431.000;  349.000
228.908;  -45.100; -155.000;   30.000
229.052; -116.700; -615.000; -528.000
229.195;  -14.900; -172.000;   13.000
229.339;  -25.900; -235.000; -305.000
229.483;  -28.100;    5.000; -162.000
229.627;   24.800; -156.000;  139.000
229.771;  -82.700; -218.000; -294.000
229.915;   27.800;  230.000;   79.000
230.059; -186.600; -648.000; -663.000
230.202;  -43.900; -370.000; -317.000
230.346;  -34.800; -107.000;  107.000
230.490;  -92.800; -489.000; -521.000
230.634; -215.700; -736.000; -553.000
230.777;  188.500;  478.000;  509.000
230.921;  -83.300; -450.000; -359.000
231.065;  -69.300; -246.000; -286.000
231.209;   67.200;  261.000;  265.000
231.352;   77.600;   54.000;   40.000
231.496;   44.800;  568.000;  188.000
231.640; -173.800; -693.000; -621.000
231.783;  184.400;  546.000;  525.000
231.927;  -76.300; -294.000; -365.000
232.071; -215.000; -962.000; -736.000
232.214; -211.400; -980.000; -764.000
232.358; -161.200; -683.000; -599.000
232.502;   53.700;  -19.000;    7.000
232.645; -256.000;-1090.000; -927.000
232.789;  -28.000; -257.000; -218.000
232.933;  -54.800; -407.000; -224.000
233.076; -227.200;-1038.000; -897.000
233.220; -215.200; -752.000; -777.000
233.363; -129.500; -669.000; -477.000
233.507;  126.400;  371.000;  129.000
233.650; -175.700; -764.000; -834.000
233.794;  156.200;  438.000;  461.000
233.938;  -86.200; -530.000; -362.000
234.081;  -21.700;  -93.000;   31.000
234.225; -120.100; -631.000; -539.000
234.368; -217.300; -773.000; -723.000
234.512;  -33.600; -385.000; -299.000
234.655; -167.700; -582.000; -555.000
234.798; -127.300; -493.000; -466.000
234.942; -254.600; -884.000;-1002.000
235.085; -126.400; -651.000; -443.000
235.229; -145.200; -405.000; -410.000
235.372;  -59.500; -247.000; -191.000
235.516; -132.300; -397.000; -321.000
235.659;   52.600;   92.000;  121.000
235.802;   -3.000;  -38.000;  -22.000
235.946;   65.300;  335.000;  215.000
236.089;   65.700;  126.000;  250.000
236.233;  153.100;  275.000;  298.000
236.376;  -75.000; -235.000; -378.000
236.519;  -62.200; -297.000; -319.000
236.663;  -52.600; -215.000; -117.000
236.806; -271.600;-1029.000; -999.000
236.949;  146.100;  543.000;  431.000
237.092;  206.100;  412.000;  391.000
237.236; -157.200; -589.000; -502.000
237.379;  154.000;  352.000;  428.000
237.522; -225.700; -879.000; -768.000
237.666;   -6.600; -271.000;   18.000
237.809; -246.800; -851.000; -823.000
237.952;  109.100;  469.000;  271.000
238.095;  -77.600; -447.000; -442.000
238.238;  236.800;  688.000;  700.000
238.382;   28.900;  166.000;  103.000
238.525; -123.000; -598.000; -511.000
238.668; -277.100;-1060.000; -985.000
238.811; -119.300; -638.000; -643.000
238.954;  -89.100; -483.000; -334.000
239.097;  220.300;  617.000;  664.000
239.241;  102.900;  394.000;  326.000
239.384;  -34.000; -254.000; -214.000
239.527; -110.100; -424.000; -224.000
239.670; -279.600; -994.000;-1091.000
239.813; -201.700; -696.000; -658.000
239.956;  216.100;  579.000;  473.000
240.099; -211.700; -778.000; -725.000
240.242;  106.400;  428.000;  432.000
240.385;  107.000;  466.000;  450.000
240.528; -126.800; -706.000; -473.000
240.671;   72.800;  189.000;  134.000
240.814;  -58.100; -441.000; -158.000
240.957; -194.400; -767.000; -578.000
241.100; -162.900; -779.000; -755.000
241.243; -282.600;-1234.000; -893.000
241.386; -106.500; -508.000; -379.000
241.529; -186.000; -735.000; -547.000
241.672;  -79.100; -566.000; -495.000
241.815; -221.500; -832.000; -808.000
241.958;   -5.700; -125.000; -182.000
242.101; -143.700; -545.000; -390.000
242.244;  -65.700; -270.000; -325.000
242.387;  -29.800; -304.000; -246.000
242.530;  180.600;  470.000;  134.000
242.673;  -81.200; -381.000; -309.000
242.815; -208.800; -925.000; -899.000
242.958; -128.100; -482.000; -381.000
243.101;   41.900;  132.000;  187.000
243.244; -145.700; -564.000; -521.000
243.387;  -70.000; -313.000; -316.000
243.530; -148.100; -657.000; -674.000
243.672;   32.000;   43.000;  -92.000
243.815;  -84.600; -355.000; -283.000
243.958;   51.400;   98.000;  -26.000
244.101;   47.400;   59.000;  -16.000
244.243;    0.400;  -47.000;  101.000
244.386; -181.500; -761.000; -630.000
244.529;   -1.800; -132.000; -139.000
244.672; -302.100;-1154.000; -951.000
244.814; -200.000; -621.000; -794.000
244.957;  -55.800; -380.000; -304.000
245.100; -120.600; -489.000; -489.000
245.242; -104.200; -387.000; -374.000
245.385;   23.100;  -59.000;  -39.000
245.528; -218.500; -871.000; -705.000
245.670;  234.800;  612.000;  634.000
245.813; -124.700; -599.000; -547.000
245.956;  -37.100; -324.000; -275.000
246.098; -137.100; -508.000; -650.000
246.241;   47.800;  194.000;   48.000
246.383;  -15.100; -119.000;  -73.000
246.526; -137.800; -454.000; -525.000
246.669; -229.400; -889.000; -780.000
246.811;   73.200;  172.000;   -1.000
246.954; -118.200; -512.000; -426.000
247.096;  -18.800;  -84.000;   -6.000
247.239; -121.800; -482.000; -445.000
247.381; -103.900; -647.000; -488.000
247.524;  219.300;  645.000;  679.000
247.666;   -5.900;   58.000;   11.000
247.809; -213.700; -887.000; -691.000
247.951;   -2.800;  -75.000;  138.000
248.094;   84.800;  432.000;  308.000
248.236; -286.600;-1262.000;-1238.000
248.378;   36.200; -356.000;  -81.000
248.521;   -5.400; -334.000; -337.000
248.663;  -35.900; -236.000; -267.000
248.806;   -9.700; -300.000; -266.000
248.948; -165.800; -886.000; -763.000
249.090;  -83.100; -428.000; -398.000
249.233;  -83.700; -344.000; -381.000
249.375; -121.400; -474.000; -451.000
249.518;   -3.600;  -83.000; -133.000
249.660;   45.600; -103.000;    3.000
249.802; -356.600;-1303.000;-1189.000
249.945; -116.800; -612.000; -540.000
250.087; -210.200; -834.000; -768.000
250.229; -113.100; -362.000; -480.000
250.371; -108.200; -494.000; -439.000
250.514;  -87.200; -310.000; -244.000
250.656; -119.300;   69.000;  102.000
250.798; -216.200; -849.000; -800.000
250.940;  -99.200; -322.000; -322.000
251.083;  -33.200; -335.000; -111.000
251.225;  181.100;  338.000;  310.000
251.367;  -67.200; -274.000; -373.000
251.509;  -27.600; -265.000; -210.000
251.651; -175.300; -731.000; -671.000
251.794;  126.300;  538.000;  632.000
251.936; -177.000; -821.000; -747.000
252.078; -146.800; -540.000; -461.000
252.220; -100.500; -645.000; -477.000
252.362;  190.200;  344.000;  462.000
252.504;  -98.500; -677.000; -584.000
252.646; -185.900; -875.000; -722.000
252.788;   23.600;   14.000; -128.000
252.931;   -8.800; -257.000; -253.000
253.073;  -60.500; -376.000; -317.000
253.215;   48.200;  141.000;  122.000
253.357;   37.400;   82.000; -153.000
253.499;  -73.000; -374.000; -234.000
253.641; -143.300; -749.000; -594.000
253.783; -170.400; -609.000; -527.000
253.925; -131.900; -586.000; -591.000
254.067; -212.000; -744.000; -667.000
254.209;  -25.600; -391.000; -259.000
254.351; -220.700; -865.000; -883.000
254.493; -109.500; -441.000; -417.000
254.635; -222.200; -936.000; -818.000
254.777; -187.700; -752.000; -687.000
254.918; -155.700; -512.000; -430.000
255.060;  -83.300; -551.000; -395.000
255.202;  -99.900; -473.000; -261.000
255.344; -134.900; -658.000; -455.000
255.486; -102.000; -471.000; -406.000
255.628; -198.200; -780.000; -781.000
255.770; -135.000; -676.000; -536.000
255.912; -116.900; -559.000; -468.000
256.053; -162.100; -730.000; -508.000
256.195;  380.100; 1008.000;  903.000
256.337; -163.400; -861.000; -595.000
256.479;  183.700;  532.000;  416.000
256.621;  -65.300; -394.000; -212.000
256.762; -192.000; -789.000; -742.000
256.904;  138.000;  485.000;  487.000
257.046;  -43.200; -381.000; -271.000
257.188;  -42.700; -351.000; -264.000
257.329; -128.100; -525.000; -464.000
257.471; -207.800; -939.000; -807.000
257.613;  -95.000; -584.000; -498.000
257.755; -276.800;-1073.000; -982.000
257.896;  123.300;  286.000;  392.000
258.038;  -70.000; -403.000; -352.000
258.180;  -47.200; -354.000; -279.000
258.321; -128.000; -581.000; -457.000
258.463;   32.500;  -71.000;  133.000
258.605; -147.100; -562.000; -570.000
258.746; -225.400; -886.000; -772.000
258.888; -299.500;-1026.000;-1020.000
259.029;   72.600;  121.000;   -8.000
259.171; -144.500; -614.000; -550.000
259.313;   37.200;  -49.000;  -47.000
259.454; -104.100; -536.000; -414.000
259.596;  -93.900; -483.000; -390.000
259.737; -127.200; -590.000; -474.000
259.879;  115.900;  217.000;  311.000
260.020;  234.300;  901.000;  636.000
260.162;    2.600; -146.000; -253.000
260.303; -200.500; -768.000; -687.000
260.445; -141.400; -609.000; -613.000
260.586;   99.400;  392.000;  157.000
260.728;  -40.800; -360.000; -248.000
260.869; -113.300; -350.000; -343.000
261.011;  245.400;  706.000;  537.000
261.152; -104.000; -479.000; -319.000
261.293; -108.500; -576.000; -595.000
261.435;  -19.700; -219.000; -184.000
261.576; -103.400; -455.000; -325.000
261.718;  118.500;  420.000;  470.000
261.859; -224.100; -940.000; -949.000
262.000; -262.200; -951.000;-1016.000
262.142;    6.600;  -52.000;  -60.000
262.283; -209.300; -808.000; -691.000
262.424; -133.800; -666.000; -625.000
262.566; -287.900;-1161.000; -983.000
262.707; -204.700; -840.000; -830.000
262.848; -224.600; -769.000; -726.000
262.990;  -47.300; -362.000; -345.000
263.131;  197.600;  650.000;  681.000
263.272;    9.300;  -61.000;  -41.000
263.413; -186.600; -589.000; -561.000
263.555; -123.600; -669.000; -143.000
263.696; -126.600; -550.000; -641.000
263.837;  -76.000; -449.000; -551.000
263.978;   17.900;   -5.000;  -77.000
264.119;  -54.900; -283.000; -264.000
264.261; -230.000; -847.000; -630.000
264.402;   76.100;   33.000;   40.000
264.543; -126.500; -509.000; -524.000
264.684;   -0.300;   61.000;  -50.000
264.825; -130.200; -816.000; -538.000
264.966;   27.500;  -84.000;  -67.000
265.107; -214.400; -646.000; -670.000
265.248; -219.400; -825.000; -812.000
265.390;   31.600;  152.000;   -9.000
265.531;  -15.700; -238.000; -107.000
265.672; -157.300; -557.000; -630.000
265.813;  159.700;  563.000;  439.000
265.954; -255.200; -959.000; -940.000
266.095;   -5.700; -372.000; -322.000
266.236; -171.500; -686.000; -548.000
266.377;  -24.600; -243.000; -297.000
266.518; -109.700; -619.000; -547.000
266.659;  100.500;  170.000;  268.000
266.800;   83.300;   83.000;   85.000
266.941; -106.700; -487.000; -478.000
267.082;   98.700;  354.000;   99.000
267.223;  -92.400; -344.000; -273.000
267.364; -219.000; -892.000; -686.000
267.504;    3.100;    3.000;  135.000
267.645;   30.200;  160.000;   67.000
267.786;  -46.600; -147.000;  -86.000
267.927; -116.300; -473.000; -379.000
268.068;    2.900; -186.000;  -61.000
268.209;  -81.700; -175.000; -413.000
268.350;  -45.900; -388.000; -532.000
268.490; -154.900; -648.000; -521.000
268.631;   74.400;  127.000;  225.000
268.772; -193.500; -874.000; -647.000
268.913;  -62.000; -328.000; -476.000
269.054;   27.300; -117.000;   12.000
269.194;  -72.500; -418.000; -402.000
269.335; -278.400;-1137.000;-1074.000
269.476;   -5.500;   33.000;  -35.000
269.617;  -38.600; -347.000; -392.000
269.757; -161.300; -713.000; -646.000
269.898; -188.700; -856.000; -613.000
270.039;  -91.100; -415.000; -405.000
270.180; -248.000; -952.000; -816.000
270.320;  -16.600; -190.000; -250.000
270.461;  -34.700; -277.000; -249.000
270.602;   -5.700; -186.000; -156.000
270.742; -210.400; -868.000; -943.000
270.883;  -69.100; -442.000; -390.000
271.023;  -87.600; -358.000; -357.000
271.164; -107.000; -607.000; -528.000
271.305; -174.500; -666.000; -654.000
271.445; -166.100; -722.000; -683.000
271.586; -103.800; -462.000; -283.000
271.726;  -55.600; -397.000; -322.000
271.867; -118.600; -594.000; -534.000
272.008;  341.800; -473.000; -285.000
272.148;  284.100;  462.000;  468.000
272.289;   69.300; -113.000; -181.000
272.429;   72.800;   19.000;  185.000
272.570; -134.700; -633.000; -737.000
272.710; -167.700; -825.000; -775.000
272.851;    4.200;  113.000; -130.000
272.991; -315.800;-1173.000;-1077.000
273.131;  -57.800; -419.000; -459.000
273.272; -191.100; -683.000; -723.000
273.412;   34.800; -143.000;  -31.000
273.553;  -78.000; -488.000; -507.000
273.693;  327.000;  913.000;  858.000
273.834; -154.400; -894.000; -692.000
273.974; -105.300; -664.000; -615.000
274.114; -153.700; -772.000; -560.000
274.255;  206.100;  414.000;  373.000
274.395;   59.600; -180.000; -125.000
274.535;  108.400;  199.000;  350.000
274.676;   97.000;  225.000;   94.000
274.816;   41.600;  110.000;   34.000
274.956; -154.900; -624.000; -690.000
275.097; -122.100;-1014.000; -922.000
275.237; -200.500; -913.000; -803.000
275.377; -144.200; -778.000; -689.000
275.517; -290.800; -878.000; -937.000
275.658;  -81.300; -590.000; -555.000
275.798; -106.600; -606.000; -413.000
275.938;   93.700;  215.000;  323.000
276.078; -109.300; -626.000; -395.000
276.218;   43.000;   99.000;  104.000
276.359; -235.900;-1026.000;-1024.000
276.499; -122.500; -605.000; -446.000
276.639;  -28.600; -305.000; -151.000
276.779;  -55.000; -475.000; -357.000
276.919; -160.800; -783.000; -624.000
277.059;    6.200; -261.000; -212.000
277.199;  -67.500; -357.000; -259.000
277.340;  139.800;  287.000;  175.000
277.480; -186.700; -840.000; -693.000
277.620;  101.000;  192.000;   16.000
277.760; -391.900;-1533.000;-1294.000
277.900;   39.500;  113.000;   33.000
278.040;   75.900;  137.000;  159.000
278.180;  130.600;  270.000;  170.000
278.320;   35.700;   21.000;   56.000
278.460;  -87.400; -443.000; -469.000
278.600; -139.500; -708.000; -598.000
278.740;  173.900;  448.000;  224.000
278.880; -102.000; -768.000; -791.000
279.020;   63.000; -194.000; -144.000
279.160; -137.400; -672.000; -595.000
279.300; -197.300; -926.000; -873.000
279.440; -148.000; -709.000; -622.000
279.579;  -51.500;-1014.000; -929.000
279.719;  -82.800; -410.000; -394.000
279.859;  145.800;   -4.000;   41.000
279.999;   64.900; -208.000;  101.000
280.139;   -2.100; -435.000; -387.000
280.279; -100.700; -708.000; -745.000
280.419;    7.300; -229.000; -147.000
280.559;   -9.900; -259.000; -180.000
280.698; -129.400; -790.000; -639.000
280.838; -157.500; -778.000; -800.000
280.978; -159.100; -846.000; -790.000
281.118; -202.100; -811.000; -704.000
281.257;   74.800;   24.000;    6.000
281.397; -233.200;-1094.000; -960.000
281.537; -140.400; -599.000; -712.000
281.677;    3.900; -150.000; -101.000
281.816; -141.700; -700.000; -630.000
281.956;  -14.000; -193.000; -257.000
282.096;  -91.000; -539.000; -396.000
282.235; -144.900; -672.000; -638.000
282.375;  -12.200; -243.000;  -98.000
282.515; -181.400; -715.000; -707.000
282.654;   97.000;   29.000;  106.000
282.794;  135.300;  388.000;  244.000
282.934;  -68.300; -530.000; -491.000
283.073; -226.400;-1030.000; -857.000
283.213;  -78.000; -460.000; -467.000
283.353;  -41.700; -408.000; -349.000
283.492;    2.700; -264.000; -296.000
283.632;  -37.600; -254.000; -168.000
283.771; -122.400; -859.000; -730.000
283.911;  -57.800; -369.000; -260.000
284.050; -165.100; -794.000; -748.000
284.190; -289.300;-1229.000;-1096.000
284.329; -236.000;-1055.000; -964.000
284.469; -101.300; -516.000; -591.000
284.608;  -56.200; -559.000; -598.000
284.748; -119.300; -614.000; -570.000
284.887;   14.200;  -87.000;  -20.000
285.027; -208.200; -844.000; -892.000
285.166;   -6.200; -192.000; -249.000
285.306;   68.000; -116.000;  -33.000
285.445;  -22.300; -229.000; -343.000
285.584; -137.800; -630.000; -494.000
285.724;  -16.200; -282.000; -322.000
285.863; -182.100; -857.000; -507.000
286.002;  -42.000; -366.000; -276.000
286.142; -183.600; -715.000; -622.000
286.281;  -78.800; -525.000; -493.000
286.420; -116.200; -554.000; -417.000
286.560;  266.400;  653.000;  623.000
286.699; -228.000; -958.000; -912.000
286.838; -128.400; -590.000; -591.000
286.978; -150.500; -533.000; -537.000
287.117; -222.600;-1085.000; -950.000
287.256;  -26.700; -228.000; -211.000
287.395;  -28.900; -197.000; -378.000
287.535;  -69.800; -370.000; -298.000
287.674;  -97.000; -509.000; -484.000
287.813;  166.100;  661.000;  533.000
287.952; -208.800;-1010.000; -871.000
288.091; -255.800;-1049.000; -915.000
288.231;   53.400;   13.000;   15.000
288.370; -301.400;-1217.000;-1200.000
288.509; -128.200; -728.000; -645.000
288.648; -130.800; -770.000; -548.000
288.787;  -28.500; -243.000;  -87.000
288.926;  -83.400; -454.000; -475.000
289.065;  310.100;  859.000;  672.000
289.204;  -43.600; -377.000; -217.000
289.344; -146.800; -791.000; -690.000
289.483;  114.800;  416.000;  304.000
289.622;   -3.700; -291.000; -149.000
289.761;   35.200; -309.000; -166.000
289.900; -157.300; -785.000; -626.000
290.039;    3.500;  -12.000;  -95.000
290.178;  -19.100; -274.000; -180.000
290.317; -105.900; -618.000; -479.000
290.456;  -81.900; -463.000; -451.000
290.595; -238.000; -961.000; -833.000
290.734; -210.400; -904.000; -891.000
290.873;  -94.000; -456.000; -420.000
291.011; -184.100; -833.000; -843.000
291.150; -186.200; -770.000; -682.000
291.289;   32.400; -343.000; -110.000
291.428; -151.400; -599.000; -480.000
291.567;  -44.500; -370.000; -442.000
291.706;   53.400;  109.000;  154.000
291.845; -139.600; -597.000; -505.000
291.984; -281.600;-1234.000;-1061.000
292.122;  227.200;  602.000;  582.000
292.261;  137.900;  620.000;  463.000
292.400;   73.700; -144.000;  211.000
292.539; -202.300; -959.000; -813.000
292.678;  -44.000; -325.000; -300.000
292.816; -281.200;-1136.000; -965.000
292.955; -133.400; -844.000; -684.000
293.094;   -2.200; -173.000; -337.000
293.233;  -63.000; -556.000; -400.000
293.371;  -34.400; -225.000;  -84.000
293.510; -149.900; -866.000; -780.000
293.649; -230.300; -959.000; -924.000
293.787;  -95.000;-1083.000;-1012.000
293.926;   53.500; -113.000;  -32.000
294.065;  -51.400; -379.000; -290.000
294.203;  174.800;  298.000;  406.000
294.342;  115.300;   74.000;  156.000
294.481;14984.700;51180.000; -836.000
294.619;   15.800; -425.000; -582.000
294.758; -258.000;-1230.000;-1137.000
294.896;  220.100; -125.000;    5.000
295.035; -214.700;-1040.000;-1006.000
295.174; -203.100;-1082.000; -954.000
295.312;  -40.300; -323.000; -203.000
295.451;   41.200; -307.000; -428.000
295.589;  -36.500; -389.000; -518.000
295.728;   94.200; -292.000; -165.000
295.866;   38.900;  -36.000;  -51.000
296.005;  -56.600; -584.000; -341.000
296.143; -110.000; -558.000; -596.000
296.282; -145.100; -957.000; -881.000
296.420; -112.400; -657.000; -557.000
296.559; -113.400; -892.000; -633.000
296.697;   66.300; -847.000; -665.000
296.835;  138.900;-1141.000;-1002.000
296.974;  158.400;  -23.000;   39.000
297.112;   71.200; -443.000; -504.000
297.251; -104.600; -815.000; -755.000
297.389;  238.100; -576.000; -438.000
297.527;  173.700; -145.000;  -83.000
297.666;  -62.500; -486.000; -438.000
297.804;  -62.500; -404.000; -264.000
297.942;   35.300; -136.000; -161.000
298.081;   48.500; -183.000;   63.000
298.219;  176.200;  -17.000;  -19.000
298.357;  135.000; -144.000;  -71.000
298.495;  100.800; -810.000; -812.000
298.634;  198.200;  245.000;  219.000
298.772;  141.800; -220.000; -338.000
298.910;  -18.700; -309.000; -182.000
299.048;   54.200; -130.000; -153.000
299.187;   -7.800; -350.000; -250.000
299.325;   72.300;   52.000;  122.000
299.463;  133.200; -389.000; -299.000
299.601;  280.300; -327.000; -271.000
299.739; -142.000; -908.000; -883.000
299.877; -127.000; -791.000; -703.000
300.016;  -91.000;-1095.000; -935.000
300.154;  323.600;  -19.000; -161.000
300.292;  147.900; -428.000; -348.000
300.430;  128.200; -408.000; -291.000
300.568; -179.900; -940.000; -874.000
300.706;  -49.600; -366.000; -469.000
300.844; -150.200;-1108.000; -979.000
300.982;  280.300;  246.000;  282.000
301.120; -205.400; -965.000; -866.000
301.258;  -81.600; -812.000; -705.000
301.396;  134.700;  104.000;  -41.000
301.534;  218.800; -218.000; -293.000
301.672;   44.000; -664.000; -521.000
301.810;   82.300; -613.000; -545.000
301.948;  328.500;   53.000;  149.000
302.086; 1168.300; -250.000;  -32.000
302.224; 1907.600; -610.000; -585.000
302.362;  128.700; -558.000; -622.000
302.500;   11.600; -923.000; -893.000
302.638;  284.000;  128.000;  245.000
302.776;   53.500; -352.000; -408.000
302.913;  153.100;  447.000;  236.000
303.051;   26.100;  -86.000;  -23.000
303.189;  169.900;   90.000;  118.000
303.327;  -32.700; -341.000; -256.000
303.465; -132.300; -832.000; -588.000
303.603; -137.100; -805.000; -604.000
303.740;  254.800;  417.000;  241.000
303.878;   73.000; -800.000; -759.000
304.016; -143.900; -915.000; -790.000
304.154; -205.600;-1123.000;-1152.000
304.291;  -35.500; -505.000; -554.000
304.429;   73.200;  102.000;   74.000
304.567; -216.700; -908.000; -893.000
304.705;  -28.000; -408.000; -515.000
304.842;  204.100; -616.000; -540.000
304.980;  186.500;  215.000;   35.000
305.118;  149.400; -367.000; -365.000
305.255; -103.900; -945.000; -927.000
305.393;  196.100;  178.000;  239.000
305.531; -162.700;-1173.000; -956.000
305.668;  -94.900; -663.000; -582.000
305.806;  238.400; -358.000; -439.000
305.943;  215.600; -629.000; -637.000
306.081;  160.500; -378.000; -267.000
306.219; -151.700; -863.000; -748.000
306.356;   87.000;  158.000;   27.000
306.494;  295.900;  981.000;  761.000
306.631;   71.400;  -11.000;  -55.000
306.769;   48.600; -613.000; -485.000
306.906;   46.300; -284.000; -258.000
307.044;  -65.100; -473.000; -488.000
307.181;  -47.200; -410.000; -332.000
307.319;  150.200;  112.000;   87.000
307.456; -300.900;-1191.000;-1153.000
307.594; -171.600; -980.000; -727.000
307.731;   58.100; -371.000; -164.000
307.868;   83.600;  -15.000;   20.000
308.006; -216.000; -961.000; -847.000
308.143;  -49.100; -618.000; -330.000
308.281;  502.000;  -37.000; -254.000
308.418;  111.500; -748.000; -640.000
308.555;  -70.300; -400.000; -250.000
308.693; -102.700; -577.000; -573.000
308.830; -155.700; -712.000; -657.000
308.967;   43.400; -215.000;  -95.000
309.105;  -10.000; -507.000; -396.000
309.242;  201.200; -468.000; -367.000
309.379; 1003.000; -577.000; -655.000
309.517;  -21.700; -936.000; -948.000
309.654; -160.900; -910.000; -734.000
309.791; -105.900; -662.000; -580.000
309.928; -170.800; -977.000; -914.000
310.065;  433.000;  819.000;  697.000
310.203;   -0.800; -825.000; -850.000
310.340;   59.000; -465.000; -321.000
310.477;  -84.800; -412.000; -516.000
310.614;  -85.900; -383.000; -473.000
310.751;  -90.300; -427.000; -518.000
310.889;   16.200;    1.000;   11.000
311.026; -241.800;-1161.000; -939.000
311.163;  -27.700; -386.000; -380.000
311.300;  -94.400; -512.000; -479.000
311.437; -110.800; -658.000; -619.000
311.574; -253.000;-1226.000; -985.000
311.711;  -54.000; -595.000; -433.000
311.848;  -11.000; -380.000; -388.000
311.985;  115.400;  270.000;   93.000
312.122; -156.900; -932.000; -762.000
312.259; -161.600; -941.000; -994.000
312.396; -103.200; -508.000; -551.000
312.533; -111.400; -812.000; -790.000
312.670; -207.700;-1070.000; -898.000
312.807;    8.400; -352.000; -367.000
312.944; -101.300; -513.000; -611.000
313.081;   15.600; -150.000; -415.000
313.218; -152.300;-1111.000; -867.000
313.355;   99.900; -531.000; -449.000
313.492;   69.800; -455.000; -292.000
313.629;  344.800;  815.000;  735.000
313.766; -275.300;-1176.000;-1008.000
313.902;   43.300; -186.000;   21.000
314.039;  -40.500; -372.000; -289.000
314.176;  151.900;  286.000;  192.000
314.313;  -80.600; -569.000; -473.000
314.450;  -80.700; -788.000; -684.000
314.587;  -57.100; -468.000; -480.000
314.723;   92.700;  -78.000;  130.000
314.860;  163.600;  318.000;  332.000
314.997;  134.100;  223.000;  142.000
315.134;  -12.700; -385.000; -368.000
315.270;   -8.700; -480.000; -496.000
315.407; -207.000;-1094.000; -967.000
315.544;  -32.400; -657.000; -538.000
315.681;  -91.300; -681.000; -565.000
315.817;  130.700; -133.000; -176.000
315.954;   82.100; -613.000; -392.000
316.091; -168.600;-1045.000;-1023.000
316.227;   17.300;  -71.000; -179.000
316.364;  108.300;   23.000;    6.000
316.500;  -27.600; -113.000; -300.000
316.637;  -31.800; -181.000; -302.000
316.774; -114.800; -625.000; -358.000
316.910; -130.800; -598.000; -629.000
317.047;  -78.300; -487.000; -351.000
317.183;  -49.300; -435.000; -566.000
317.320;   17.100; -367.000; -321.000
317.456;  -93.900; -733.000; -805.000
317.593; -110.400; -598.000; -641.000
317.729;   85.600;  168.000;  -67.000
317.866; -353.500;-1434.000;-1285.000
318.002;  -91.700; -708.000; -948.000
318.139; -123.000; -883.000; -867.000
318.275; -155.000;-1003.000; -738.000
318.412;  -75.500; -517.000; -336.000
318.548;   -2.000; -751.000; -720.000
318.685; -125.400; -985.000; -888.000
318.821;  -96.000; -762.000; -735.000
318.957;   22.100;   34.000;  -23.000
319.094;  142.400;  297.000;  154.000
319.230;  -86.600; -756.000; -742.000
319.367;  288.700; -471.000; -520.000
319.503;  176.200; -538.000; -436.000
319.639; -149.600; -877.000; -793.000
319.775;  -98.500; -750.000; -685.000
319.912;  -40.300; -424.000; -519.000
320.048; -141.100;-1184.000;-1184.000
320.184;  232.200;   59.000;   70.000
320.321;  -62.900; -497.000; -467.000
320.457;  196.500;  475.000;  662.000
320.593;  -85.300; -375.000; -382.000
320.729; -150.800; -732.000; -734.000
320.866;  -87.200; -577.000; -635.000
321.002; -122.200; -759.000; -809.000
321.138;   30.400; -135.000; -211.000
321.274;  201.200; -148.000; -115.000
321.410;   -3.400; -585.000; -353.000
321.546;  -38.700;-1011.000; -911.000
321.683;  215.600;  400.000;  185.000
321.819;   83.000;  -48.000; -117.000
321.955; -163.900; -743.000; -722.000
322.091;  -34.500; -585.000; -540.000
322.227;   54.800; -382.000; -202.000
322.363;   24.700; -320.000; -215.000
322.499;   -3.400; -343.000; -331.000
322.635;  416.900;  636.000;  443.000
322.771;  121.800; -139.000;   12.000
322.907;  249.200;  129.000;  327.000
323.043;   17.500; -115.000; -206.000
323.179;   -0.200; -394.000; -363.000
323.315;   83.600; -401.000; -371.000
323.451;  235.700; -328.000; -236.000
323.587;  172.700;  -60.000;  -77.000
323.723;   79.400; -682.000; -601.000
323.859;    9.500; -258.000;  -76.000
323.995;   -6.400; -467.000; -409.000
324.131; -227.200; -967.000; -892.000
324.267;  -27.500; -254.000; -276.000
324.402; -202.600; -960.000; -983.000
324.538;   31.600; -279.000; -104.000
324.674;  121.000;  164.000;   77.000
324.810;  335.700;  226.000;  308.000
324.946;  101.000; -810.000; -658.000
325.082;  -72.200; -568.000; -475.000
325.217;   42.000;  -62.000;   16.000
325.353; -135.900; -764.000; -659.000
325.489;  -97.500; -540.000; -506.000
325.625; -101.000; -579.000; -525.000
325.760;  175.300;  517.000;  376.000
325.896;  -24.300; -515.000; -702.000
326.032;  -25.200; -403.000; -352.000
326.168;  -62.300; -462.000; -369.000
326.303;  -54.800; -352.000; -461.000
326.439;   28.700; -336.000; -276.000
326.575;   66.900; -190.000;  -29.000
326.710;   43.100; -156.000;  -30.000
326.846;   66.600;  146.000;  103.000
326.982; -122.400; -530.000; -548.000
327.117; -100.000; -481.000; -442.000
327.253; -124.900; -745.000; -742.000
327.388; -217.400;-1137.000;-1153.000
327.524;  -19.900; -811.000; -578.000
327.659;   20.700;  -58.000;  -22.000
327.795;   19.200;   69.000;   45.000
327.931; -121.400; -723.000; -499.000
328.066;  -12.500; -417.000; -276.000
328.202;   72.300;   12.000; -129.000
328.337;  290.200;  957.000;  713.000
328.473;   81.500;  -12.000;  -74.000
328.608;   49.700; -256.000; -267.000
328.743; -119.600; -799.000; -664.000
328.879;  123.900;  214.000;  114.000
329.014;  -27.000; -102.000; -122.000
329.150; -117.900; -358.000; -483.000
329.285;  -86.900; -465.000; -466.000
329.421;  -38.800; -548.000; -246.000
329.556;   23.000;  -36.000;   85.000
329.691; -136.800; -633.000; -615.000
329.827; -127.700; -626.000; -480.000
329.962;  -52.600;  131.000; -301.000
330.097; -120.500; -673.000; -585.000
330.233;  -24.800; -410.000; -223.000
330.368; -176.600; -839.000; -628.000
330.503;   38.800;    3.000;   98.000
330.638;   78.200;  -93.000; -125.000
330.774;  -40.900; -609.000; -530.000
330.909;    6.500; -434.000; -244.000
331.044; -103.100; -714.000; -708.000
331.179; -283.900;-1217.000;-1109.000
331.315;   96.100;   77.000;   20.000
331.450;   86.000;  157.000;  285.000
331.585; -129.100; -805.000; -706.000
331.720;  -84.200; -510.000; -460.000
331.855;   52.100;  -35.000; -102.000
331.990;  445.500;   62.000;  138.000
332.126;  281.600; -110.000;   71.000
332.261;   16.600; -379.000; -265.000
332.396;   52.700; -135.000; -242.000
332.531; -189.900;-1074.000;-1031.000
332.666;  107.600; -519.000; -363.000
332.801; -156.900; -726.000; -807.000
332.936;   19.100; -192.000; -122.000
333.071; -191.900; -870.000; -817.000
333.206;  118.200;  307.000;  379.000
333.341;  139.200;  344.000;  418.000
333.476;  -96.200; -627.000; -623.000
333.611;  -10.200; -251.000; -173.000
333.746;  -25.600; -381.000; -464.000
333.881; -150.300; -973.000; -935.000
334.016; -177.800; -936.000; -917.000
334.151; -172.200; -746.000; -702.000
334.286;  154.500;  152.000;  186.000
334.421;   60.300; -125.000; -178.000
334.556;  -95.300; -611.000; -567.000
334.690; -112.300; -631.000; -577.000
334.825;  182.600;  381.000;   83.000
334.960;  -64.200; -285.000; -413.000
335.095;  105.100;  135.000;  -91.000
335.230; -117.700; -722.000; -738.000
335.365; -200.700;-1084.000; -990.000
335.499; -224.300;-1108.000;-1037.000
335.634;  151.900;    9.000;  534.000
335.769; -125.200; -755.000; -720.000
335.904;  -23.300; -603.000; -561.000
336.038;  -38.900; -735.000; -657.000
336.173; -173.000;-1206.000;-1194.000
336.308;   64.100; -116.000; -189.000
336.443;  125.600; -544.000; -634.000
336.577;  -54.400; -936.000; -787.000
336.712;  224.500;   -4.000;  -12.000
336.847;  -38.900; -724.000; -607.000
336.981;  196.900; -272.000; -208.000
337.116;  633.000;  615.000;  501.000
337.250;  330.100; -434.000; -421.000
337.385;  483.100; -297.000; -208.000
337.520;  173.800; -632.000; -603.000
337.654;  -35.000; -215.000; -126.000
337.789; -179.600; -989.000; -933.000
337.923;   -2.500; -104.000; -205.000
338.058; -106.300; -673.000; -738.000
338.192;   -4.100; -611.000; -488.000
338.327;   61.200;  -18.000; -155.000
338.461;  -81.000; -299.000; -469.000
338.596; -115.100; -780.000; -638.000
338.730; -146.300; -767.000; -803.000
338.865;  224.300;  -46.000; -140.000
338.999;  -84.000; -846.000; -702.000
339.134;   -4.500; -634.000; -536.000
339.268;   22.800; -741.000; -603.000
339.403;  674.800; -740.000; -775.000
339.537;  231.400; -894.000; -820.000
339.671; -150.900; -829.000; -813.000
339.806;  -93.900; -556.000; -512.000
339.940;   65.400; -261.000; -235.000
340.074; -134.900; -685.000; -510.000
340.209;  -24.300; -351.000; -230.000
340.343; -118.200; -517.000; -573.000
340.477;  395.100;  998.000; 1036.000
340.612;  -83.700;-1033.000; -900.000
340.746;  313.600; -199.000; -243.000
340.880;  -74.700; -924.000; -785.000
341.014;   74.800;  -45.000; -154.000
341.149; -185.100; -756.000; -718.000
341.283; -171.000; -839.000; -754.000
341.417; -133.300;-1124.000; -938.000
341.551;  323.100; -768.000; -708.000
341.685;  -33.300; -633.000; -611.000
341.820;  -53.200; -562.000; -493.000
341.954;  -39.900; -218.000; -349.000
342.088; -260.300;-1102.000;-1019.000
342.222;  154.900;  565.000;  618.000
342.356;  -63.100; -395.000; -335.000
342.490; -113.700; -880.000; -841.000
342.624;  -20.600; -339.000; -242.000
342.758;   51.700; -364.000; -312.000
342.892;  -63.300; -710.000; -585.000
343.026;   25.200;  -58.000; -116.000
343.160;  -49.500; -426.000; -376.000
343.294;  -71.800; -474.000; -337.000
343.428;    2.500; -488.000; -448.000
343.562;   39.600; -172.000;  -23.000
343.696;  -11.500; -385.000; -314.000
343.830;   32.000; -362.000; -356.000
343.964;   78.800; -231.000; -168.000
344.098; 1787.100;  199.000;   70.000
344.232; 1554.600; -266.000; -127.000
344.366;  220.900; -567.000; -453.000
344.500;  191.100; -665.000; -744.000
344.634;   92.900; -324.000; -164.000
344.768;   37.600; -531.000; -341.000
344.902;  125.000;  278.000;  256.000
345.035;  -84.500; -556.000; -496.000
345.169; -175.900; -933.000; -656.000
345.303;    4.300; -308.000; -482.000
345.437;  -92.400; -826.000; -717.000
345.571; -103.800; -675.000; -594.000
345.704;  -67.600; -309.000; -532.000
345.838;   62.500; -331.000; -284.000
345.972;   -9.200; -543.000; -495.000
346.106;  373.100; -179.000; -190.000
346.239;  845.900; -312.000; -243.000
346.373;   82.000; -343.000; -302.000
346.507; -221.100; -950.000; -962.000
346.640;  333.400;  -30.000;   13.000
346.774;  -20.100; -650.000; -797.000
346.908;   63.700; -138.000;  -11.000
347.041; -111.600; -646.000; -593.000
347.175;   84.300;  259.000;   27.000
347.309;  -76.900; -698.000; -628.000
347.442; -127.700; -883.000; -732.000
347.576;  606.300;  670.000;  668.000
347.709;  465.800; -123.000;  -52.000
347.843; -136.900; -933.000; -825.000
347.976;  156.900;  235.000;  294.000
348.110; -316.500;-1268.000;-1186.000
348.243; -142.800; -679.000; -772.000
348.377;   56.700;  -26.000;   60.000
348.510;  177.800;  403.000;  540.000
348.644;   26.500;  -37.000; -159.000
348.777;  110.600;  180.000;  191.000
348.911;  -26.600; -142.000; -112.000
349.044;  411.800;  471.000;  448.000
349.178;  337.400;-1069.000;-1006.000
349.311;  320.900;  141.000;  255.000
349.444;   36.200; -927.000; -813.000
349.578;   57.800; -347.000; -200.000
349.711; -119.700; -959.000; -862.000
349.845;   41.500; -661.000; -591.000
349.978; -224.200;-1224.000;-1137.000
350.111;  -92.100; -546.000; -612.000
350.244; -130.200; -596.000; -700.000
350.378;   70.400; -392.000; -393.000
350.511;  -61.800; -393.000; -426.000
350.644; -138.800; -808.000; -806.000
350.778;   98.600;  168.000;  104.000
350.911;   71.700;  134.000;  140.000
351.044; -108.900; -685.000; -615.000
351.177;   11.400; -321.000; -281.000
351.310;   63.200;    3.000; -131.000
351.444;  -96.600; -888.000; -788.000
351.577;  292.900;  140.000;   90.000
351.710;  298.400;  593.000;  417.000
351.843;    1.200; -165.000;  -77.000
351.976;   67.800;  149.000;  -79.000
352.109; -101.400; -621.000; -612.000
352.242;   15.400; -464.000; -419.000
352.376;  -65.000; -580.000; -636.000
352.509;  427.700; -437.000; -356.000
352.642;   51.600; -654.000; -604.000
352.775;  173.200; -141.000;  -98.000
352.908; -184.200; -933.000; -904.000
353.041; -143.700; -814.000; -824.000
353.174;  -53.900; -551.000; -424.000
353.307; -114.300; -753.000; -764.000
353.440;  210.500;  541.000;  453.000
353.573; -168.100; -957.000;-1008.000
353.706;   20.400; -384.000; -558.000
353.839;    8.400; -264.000; -220.000
353.971; -104.100; -657.000; -512.000
354.104; -122.900; -896.000; -835.000
354.237;  -11.500; -627.000; -662.000
354.370; -115.600; -846.000; -879.000
354.503; -308.700;-1231.000;-1308.000
354.636;   11.900; -529.000; -348.000
354.769; -199.800; -937.000; -860.000
354.902;   58.400; -230.000; -139.000
355.034;   38.800; -164.000; -220.000
355.167;   35.300; -262.000; -162.000
355.300; -119.800;-1061.000; -880.000
355.433; 1743.400;  -71.000;  -14.000
355.565; 2609.600; -402.000; -384.000
355.698;  675.900; -356.000; -296.000
355.831;   52.700; -882.000; -801.000
355.964;  221.200; -285.000; -170.000
356.096; -106.500; -856.000; -843.000
356.229;   60.600; -523.000; -530.000
356.362;  594.400; -373.000; -266.000
356.494; 1119.900; -229.000; -162.000
356.627;  978.100;  269.000;  377.000
356.760; 1238.600;  120.000;   53.000
356.892; 1655.400; -286.000; -601.000
357.025; 1371.400;  403.000;  389.000
357.157; 1276.300; -167.000; -179.000
357.290; 1147.200; -856.000; -713.000
357.423;  352.600; -667.000; -556.000
357.555;  301.100; -217.000; -228.000
357.688;  288.600; -483.000; -364.000
357.820;  842.400; -870.000; -877.000
357.953; 6787.900; -563.000; -589.000
358.085; 1539.600; -632.000; -612.000
358.218; 2353.000;-1131.000; -932.000
358.350;  492.700;  -58.000;  312.000
358.483; -201.500;-1300.000;-1187.000
358.615;   53.800;-1182.000;-1078.000
358.747;  -67.300;-1187.000;-1058.000
358.880;  118.100; -810.000; -744.000
359.012;   48.400; -376.000; -202.000
359.145;   -1.600; -480.000; -511.000
359.277;  152.000; -962.000; -913.000
359.409; 5727.500;  536.000;  231.000
359.542; 1403.700; -738.000; -688.000
359.674;  203.700;   46.000;   13.000
359.806;  -93.100; -565.000; -438.000
359.939;  -52.600; -617.000; -516.000
360.071;   12.700; -583.000; -579.000
360.203;   27.100; -411.000; -364.000
360.335;  172.200;  164.000;  -16.000
360.468;  424.900; -249.000; -307.000
360.600; 4525.000; -547.000; -454.000
360.732; 4874.900; -546.000; -423.000
360.864;  646.000;-1216.000;-1044.000
360.996;  639.100; -516.000; -554.000
361.129;  147.000; -389.000; -598.000
361.261;  128.500;  110.000; -113.000
361.393;   -6.700; -252.000; -214.000
361.525;  140.900;   94.000;  244.000
361.657;  -24.600; -821.000; -703.000
361.789;   86.500; -139.000; -155.000
361.921;  553.800; -642.000; -593.000
362.053;  606.800;  524.000;  541.000
362.185;  154.700;  288.000;   72.000
362.318;  -83.400; -709.000; -705.000
362.450;  329.100;  294.000;  444.000
362.582;  290.400; -913.000; -870.000
362.714;   28.400; -353.000; -332.000
362.846; -117.800; -606.000; -490.000
362.978; -179.800; -941.000; -811.000
363.109;  174.100; -161.000; -260.000
363.241;  903.600; -739.000; -749.000
363.373;  781.700; -649.000; -564.000
363.505; 1234.700; -186.000;  -91.000
363.637;  295.200; -787.000; -601.000
363.769; -185.900;-1067.000;-1080.000
363.901;  -93.000; -596.000; -654.000
364.033; -154.300;-1103.000;-1062.000
364.165;   71.000; -283.000; -283.000
364.296;  219.000; -316.000; -177.000
364.428;  114.200;-1344.000;-1220.000
364.560; -104.300; -679.000; -661.000
364.692;  -80.900; -738.000; -835.000
364.824;  578.900; -588.000; -456.000
364.955;  877.500; -402.000; -564.000
365.087; 1484.800;-1097.000; -852.000
365.219;   69.900; -686.000; -816.000
365.351;  -72.700; -526.000; -572.000
365.482;  165.400;  300.000;  240.000
365.614;  -32.400; -402.000; -314.000
365.746; -133.200; -729.000; -752.000
365.877; -148.400; -706.000; -672.000
366.009;  510.000;  -35.000;  -62.000
366.141; -135.000;-1249.000;-1134.000
366.272; -148.400; -803.000; -719.000
366.404; -172.400;-1005.000; -874.000
366.535;   51.900; -139.000;  -12.000
366.667; -157.000; -644.000; -649.000
366.799;  168.400;  353.000;  203.000
366.930; -175.700; -862.000; -996.000
367.062;  275.000; -639.000; -613.000
367.193;  263.000; -872.000; -842.000
367.325;  -50.600; -580.000; -684.000
367.456;  185.500; -246.000;   31.000
367.588;  363.600; -371.000; -318.000
367.719;   94.900;  -44.000;  -45.000
367.851;   23.700; -222.000; -241.000
367.982;  -36.100; -875.000; -732.000
368.113;  264.500; -475.000; -358.000
368.245; -183.200; -960.000; -841.000
368.376;   48.300; -254.000; -302.000
368.508;   28.100; -188.000; -263.000
368.639; -222.800;-1166.000;-1034.000
368.770;   26.000; -670.000; -589.000
368.902;  -78.300; -836.000; -926.000
369.033; -147.600; -906.000; -855.000
369.164;  -44.100; -720.000; -653.000
369.296; -152.400; -452.000; -601.000
369.427;   73.000; -209.000; -144.000
369.558;  -20.000; -593.000; -377.000
369.689;  -65.700; -721.000; -569.000
369.821; -191.800; -951.000; -845.000
369.952;   50.500;   42.000; -108.000
370.083;  -24.000; -229.000; -108.000
370.214; -107.200; -735.000; -650.000
370.345;   65.700;   65.000;   81.000
370.477; -104.300; -810.000; -790.000
370.608;  547.500; -328.000; -264.000
370.739;  -37.300;-1233.000;-1292.000
370.870;   -1.500;-1102.000; -923.000
371.001;  249.900; -378.000; -467.000
371.132;  -78.300; -754.000; -735.000
371.263;   30.500;  -42.000; -148.000
371.394; -200.400; -841.000; -748.000
371.525;  163.500;  345.000;  225.000
371.657; -106.300; -808.000; -670.000
371.788;  219.700;  103.000;  199.000
371.919;  382.800; -384.000; -304.000
372.050; 7117.800;  -91.000; -156.000
372.181; 2039.100; -188.000; -294.000
372.311;  791.300;   42.000; -127.000
372.442;  147.100; -457.000; -451.000
372.573;   36.800; -444.000; -340.000
372.704; -162.600;-1008.000; -980.000
372.835;  228.000; -228.000; -289.000
372.966;    0.300; -646.000; -554.000
373.097;  -69.700; -575.000; -711.000
373.228;    0.800; -717.000; -542.000
373.359;  332.200; -824.000; -536.000
373.490; 1935.900; -881.000; -727.000
373.620; 2206.100;-1001.000; -803.000
373.751; 3657.600; -332.000; -396.000
373.882; 1585.500; -663.000; -733.000
374.013;  195.000; -449.000; -262.000
374.143;   17.900; -581.000; -659.000
374.274; -155.900; -987.000; -908.000
374.405;  423.500; -388.000; -276.000
374.536;  980.400; -526.000; -387.000
374.666; 2184.200; -759.000; -807.000
374.797;  479.300; -817.000; -868.000
374.928; 1757.000; -710.000; -560.000
375.058; 1776.600; -535.000; -500.000
375.189;  204.200;  -59.000;  -93.000
375.320; -124.700; -928.000;-1034.000
375.450;    5.200; -625.000; -616.000
375.581;  -43.500; -526.000; -436.000
375.712;   -7.400; -574.000; -250.000
375.842;  691.500; -438.000; -415.000
375.973;  485.600; -554.000; -513.000
376.103;   -1.800; -665.000; -648.000
376.234;  -78.000; -531.000; -552.000
376.364;   12.400; -944.000; -867.000
376.495;  682.400;  925.000;  529.000
376.625;   69.600; -472.000; -485.000
376.756;  173.100; -709.000; -678.000
376.886;  -97.900;-1178.000;-1026.000
377.017;   69.800;-1048.000;-1061.000
377.147;  569.600; -786.000; -782.000
377.278;  218.600;  174.000;  228.000
377.408; -185.500; -801.000; -815.000
377.538; -167.200; -707.000; -693.000
377.669;  -95.200; -537.000; -613.000
377.799;  -95.900; -645.000; -635.000
377.929;  -45.200; -610.000; -428.000
378.060; -169.400; -781.000; -847.000
378.190;  -49.500; -726.000; -531.000
378.320;  -30.300; -401.000; -406.000
378.451;   37.100; -131.000;  -22.000
378.581;   68.800;  -67.000; -110.000
378.711;  436.500; 1035.000;  866.000
378.841;   26.000; -533.000; -675.000
378.972;  -98.000; -871.000; -751.000
379.102;   69.200; -652.000; -579.000
379.232;   -8.400; -126.000;  -73.000
379.362; -138.500;-1001.000; -885.000
379.492;  119.200; -373.000; -424.000
379.623;  276.600;    0.000;  111.000
379.753; -111.500;-1107.000; -974.000
379.883;  521.700;   59.000;  156.000
380.013;   51.500;-1081.000;-1017.000
380.143; -152.800;-1097.000;-1056.000
380.273; -133.900; -985.000; -861.000
380.403;   65.900; -344.000; -257.000
380.533;    0.400; -651.000; -664.000
380.663;  248.100;  173.000;  128.000
380.793; -118.800;-1027.000;-1074.000
380.923;   57.300; -103.000;  -34.000
381.053; -100.000; -613.000; -623.000
381.183;   22.600; -106.000; -248.000
381.313;  176.500; -656.000; -470.000
381.443;  121.600; -692.000; -473.000
381.573;  486.600; -402.000; -409.000
381.703;  584.400;-1249.000;-1095.000
381.833; -187.400;-1454.000;-1336.000
381.963;  287.800; -134.000;  -87.000
382.093; 2725.600; -925.000; -909.000
382.223;  826.600; -713.000; -602.000
382.353;   41.800; -801.000; -608.000
382.482;  815.700;-1091.000; -964.000
382.612; 1521.000; -872.000; -644.000
382.742;  834.600; -695.000; -622.000
382.872;  579.900; -565.000; -551.000
383.002;  223.400;  347.000; -132.000
383.131;   34.400; -226.000; -160.000
383.261;  -12.100; -706.000; -768.000
383.391;  593.400; -552.000; -377.000
383.521; 5560.900;  451.000;  263.000
383.650; 1187.100; -947.000; -904.000
383.780;   30.800; -783.000; -656.000
383.910;  320.900;  880.000;  802.000
384.039;  119.300; -794.000; -656.000
384.169;  466.000;-1205.000;-1017.000
384.299;   35.100; -650.000; -662.000
384.428;  -82.800; -764.000; -680.000
384.558;    2.000; -308.000; -275.000
384.687;   15.400; -414.000; -334.000
384.817;  167.100;   75.000;   -2.000
384.947;   97.200; -234.000; -141.000
385.076;  697.900;  982.000;  912.000
385.206;  288.000;  369.000;  480.000
385.335;   13.000; -549.000; -417.000
385.465;  -67.000; -655.000; -663.000
385.594;  349.700;  -53.000;  -44.000
385.724;  908.200; -868.000; -838.000
385.853;  322.300; -296.000; -270.000
385.982; 2850.800; -743.000; -787.000
386.112; 4173.100;-1052.000; -871.000
386.241;  372.000; -307.000; -312.000
386.371;  135.800; -174.000;  -87.000
386.500;   86.600; -825.000; -789.000
386.629;  100.700; -874.000; -817.000
386.759;  215.800;  -43.000;   68.000
386.888;  130.300; -170.000; -250.000
387.017;  -49.000; -648.000; -620.000
387.147;  -97.300; -771.000; -798.000
387.276;   72.100; -410.000; -397.000
387.405;  117.100; -398.000; -342.000
387.535;   30.500; -452.000; -361.000
387.664;  -26.600; -692.000; -620.000
387.793;  202.200; -198.000; -113.000
387.922; 1125.800;  255.000;  200.000
388.052;  128.700; -576.000; -423.000
388.181;  147.100; -342.000; -472.000
388.310;  108.500; -889.000; -710.000
388.439;   14.400; -749.000; -742.000
388.568;  476.000;  365.000;  244.000
388.697; 2202.200; -756.000; -653.000
388.826;  437.100; -768.000; -666.000
388.956;  205.400; -285.000; -307.000
389.085;   -2.500; -347.000; -287.000
389.214; -163.900; -842.000; -872.000
389.343;  -39.900; -645.000; -413.000
389.472;  817.600;  126.000;  149.000
389.601; 1061.800;   91.000;    0.000
389.730;  109.400; -568.000; -687.000
389.859;  217.900;  226.000;   46.000
389.988;  492.200; -423.000; -408.000
390.117;  357.800; -168.000; -146.000
390.246;   70.400; -331.000; -320.000
390.375;  301.400; -673.000; -626.000
390.504;  -23.000; -703.000; -621.000
390.633; -124.700; -672.000; -726.000
390.761;  -67.600; -732.000; -645.000
390.890;  139.300;   -4.000; -130.000
391.019;    9.800; -421.000; -441.000
391.148; -184.700; -826.000; -855.000
391.277;  -76.400; -576.000; -493.000
391.406;  -58.300; -821.000; -805.000
391.534;   87.200;  574.000; -301.000
391.663;  -56.300; -583.000; -645.000
391.792; -110.500; -673.000; -701.000
391.921;  270.900;   -3.000;   15.000
392.050;  481.700; -287.000; -228.000
392.178;   -6.300;-1206.000;-1061.000
392.307;  365.600; -758.000; -712.000
392.436;  198.300; -427.000; -641.000
392.564;  135.200;  166.000;   -6.000
392.693;  -96.500; -860.000; -682.000
392.822;  501.500; -529.000; -534.000
392.950;  238.200; -880.000; -714.000
393.079;  716.800; -188.000; -328.000
393.208;   95.200; -488.000; -511.000
393.336;   29.500; -170.000; -145.000
393.465;  -18.500; -317.000; -199.000
393.593;  112.700;   62.000;   79.000
393.722; -231.700;-1121.000; -916.000
393.850;  -18.200; -188.000;  -61.000
393.979; -261.900; -926.000; -805.000
394.107;  -36.400; -517.000; -537.000
394.236;   29.300; -570.000; -507.000
394.364;  666.000;  383.000;  206.000
394.493; 1081.900; -911.000; -767.000
394.621;   79.700; -955.000; -916.000
394.750; 1335.100; -873.000; -923.000
394.878; 5296.900; -247.000; -149.000
395.007; 6784.600; -721.000; -807.000
395.135;  520.400; -790.000; -721.000
395.263; -116.600;-1038.000;-1040.000
395.392;   69.600;  -25.000; -107.000
395.520; -192.100; -818.000; -679.000
395.648; -133.700; -865.000; -915.000
395.777;   68.000; -366.000; -405.000
395.905;  -11.000; -449.000; -564.000
396.033;  141.100;  217.000;  172.000
396.162; 1770.000; -399.000; -453.000
396.290; 1476.100;  -17.000;   -2.000
396.418;  321.800; -555.000; -514.000
396.546;  -75.600; -571.000; -466.000
396.674; -123.600; -850.000; -878.000
396.803;  129.200;  -72.000;  -23.000
396.931;  249.200; -179.000; -199.000
397.059;  147.100;-1026.000; -989.000
397.187; -131.800;-1026.000; -975.000
397.315; -218.700; -884.000; -649.000
397.443; -107.700; -592.000; -443.000
397.572; -103.700; -578.000; -424.000
397.700;   55.100; -607.000; -614.000
397.828;   79.700;  120.000;  -90.000
397.956;  -42.400; -508.000; -478.000
398.084;  -85.700; -767.000; -626.000
398.212;  180.900;  137.000;  124.000
398.340;  146.300;  -56.000;  159.000
398.468;  125.000; -390.000; -169.000
398.596; -171.000; -993.000; -953.000
398.724; -145.400; -762.000; -767.000
398.852; -281.800;-1024.000; -976.000
398.980;  -36.500; -560.000; -560.000
399.108;  -15.500; -982.000; -735.000
399.236;  178.400;   13.000;    8.000
399.363;   89.200;  222.000;  196.000
399.491;  -46.800; -404.000; -398.000
399.619; -184.800; -829.000; -800.000
399.747; -139.300; -859.000; -771.000
399.875;  260.300;  220.000;  234.000
400.003;   -6.500; -359.000; -284.000
400.130;  -98.700; -421.000; -341.000
400.258;   49.300;  -83.000;   38.000
400.386;  -53.500; -352.000; -168.000
400.514;  -21.500; -526.000; -587.000
400.641;  -90.800; -928.000; -802.000
400.769; -219.400; -979.000; -888.000
400.897;  -99.200; -838.000; -793.000
401.025;   48.500; -166.000; -152.000
401.152;   81.300;  220.000;   38.000
401.280;  -83.800; -430.000; -429.000
401.408; -174.900; -712.000; -576.000
401.535; -121.600; -735.000; -758.000
401.663; -332.600;-1134.000;-1054.000
401.790; -107.400; -514.000; -525.000
401.918;  161.100;  436.000;  405.000
402.046;   69.700;  134.000;  122.000
402.173;   32.700;  -18.000;    7.000
402.301;  -83.000; -519.000; -397.000
402.428;  148.000;  528.000;  383.000
402.556; -218.800;-1188.000; -913.000
402.683;   33.900;  -20.000;   -1.000
402.811;   66.000;  -37.000; -206.000
402.938;   84.000;   20.000;   27.000
403.066;  427.700; -574.000; -558.000
403.193;  679.200;  299.000;  239.000
403.321;  566.500; -396.000; -574.000
403.448;  694.300;   83.000;   27.000
403.575;  321.200;  -90.000;  -46.000
403.703;  -98.500; -732.000; -557.000
403.830;  -27.800; -531.000; -496.000
403.957; -236.700;-1117.000;-1023.000
404.085;  116.500;  -61.000; -172.000
404.212;  279.400;  -50.000;   63.000
404.339;  563.400; -566.000; -306.000
404.467;10411.800; -612.000; -524.000
404.594; 6514.200; -287.000; -227.000
404.721; 1608.300; -869.000; -764.000
404.848;  235.000; -113.000; -202.000
404.976; -159.900; -856.000; -783.000
405.103;   52.200;  -14.000;  -82.000
405.230;   97.100;  190.000;  226.000
405.357;  170.600;  117.000;   44.000
405.484;  564.900;  -49.000;    5.000
405.612;  127.100; -548.000; -563.000
405.739;  -80.200; -488.000; -243.000
405.866;  275.500;  669.000;  385.000
405.993;   26.600; -398.000; -102.000
406.120; -186.800; -801.000; -887.000
406.247;   -2.400; -323.000; -342.000
406.374;  986.500;  540.000;  629.000
406.501;  232.600; -632.000; -702.000
406.628;  -75.000; -621.000; -589.000
406.755; -134.700; -803.000; -620.000
406.882;  -14.300; -228.000; -277.000
407.009; -108.600; -719.000; -628.000
407.136;  183.200; -480.000; -401.000
407.263;  345.500; -939.000; -829.000
407.390;  -53.900; -692.000; -614.000
407.517; -222.900;-1139.000;-1187.000
407.644;  -25.300; -332.000; -256.000
407.771; -237.500; -249.000; -287.000
407.898;   76.800;  168.000;  328.000
408.025;  -29.100; -421.000; -313.000
408.151;   75.200;   82.000;  153.000
408.278;  -21.900; -267.000; -216.000
408.405; -178.500; -931.000; -899.000
408.532;  -72.600; -549.000; -542.000
408.659; -158.100; -677.000; -648.000
408.785; -329.700;-1298.000;-1170.000
408.912;  -47.500; -412.000; -296.000
409.039; -162.100; -610.000; -686.000
409.166; -128.400; -591.000; -555.000
409.292; -152.800; -571.000; -534.000
409.419; -164.700; -665.000; -649.000
409.546;  -58.800; -431.000; -192.000
409.672; -147.000; -713.000; -545.000
409.799;   13.600;  -36.000;   34.000
409.926;  -23.600; -180.000; -179.000
410.052; -278.800;-1127.000;-1091.000
410.179;  -30.400; -368.000; -392.000
410.305; -105.300; -375.000; -493.000
410.432;   -4.500; -220.000; -333.000
410.558; -118.600; -305.000; -380.000
410.685; -124.600; -688.000; -431.000
410.812; -126.400; -409.000; -588.000
410.938; -177.800; -964.000; -808.000
411.065; -106.500; -671.000; -645.000
411.191;   41.300; -189.000; -174.000
411.317; -176.400; -823.000; -742.000
411.444;  -75.100; -317.000; -246.000
411.570;  -66.000; -339.000; -294.000
411.697; -169.800; -758.000; -752.000
411.823; -251.800; -989.000; -999.000
411.949;    9.000;  -56.000;   17.000
412.076; -168.700; -539.000; -519.000
412.202; -185.100; -758.000; -757.000
412.329; -177.200; -798.000; -752.000
412.455; -155.900; -821.000; -657.000
412.581;   30.300;  -15.000;  172.000
412.707;  -39.100; -540.000; -457.000
412.834;  107.200;  156.000;  219.000
412.960;  -86.700; -785.000; -784.000
413.086; -157.300; -743.000; -701.000
413.212;  427.000;  604.000;  578.000
413.339;  -67.400; -685.000; -701.000
413.465;  105.000; -364.000; -310.000
413.591; -120.300; -757.000; -474.000
413.717;  -40.500; -358.000; -366.000
413.843; -207.700; -839.000; -861.000
413.969;  -31.800;  -47.000; -292.000
414.096; -144.600; -679.000; -679.000
414.222;   83.500;  -33.000;   85.000
414.348;   -7.700; -652.000; -385.000
414.474;  256.100;   38.000;  -52.000
414.600;   93.300; -126.000; -144.000
414.726;   49.500;  -96.000;  -55.000
414.852;  -64.500; -365.000; -342.000
414.978;  149.200;  104.000;  -18.000
415.104;  171.000;   38.000;   80.000
415.230;  113.100; -329.000; -330.000
415.356;  121.000; -409.000; -514.000
415.482;  456.400;   13.000;  -35.000
415.608;  555.500; -247.000; -323.000
415.734; 1834.500;   67.000;   38.000
415.860;37586.200; -875.000; -767.000
415.986;24138.300; -685.000; -607.000
416.111; 2025.500; -798.000; -652.000
416.237;  488.200; -424.000; -571.000
416.363; 2199.100; -765.000; -733.000
416.489; 7208.400; -324.000; -251.000
416.615;  698.900; -707.000; -742.000
416.741;  -10.400; -677.000; -784.000
416.866; -155.900; -673.000; -736.000
416.992; -161.100; -801.000; -818.000
417.118;   30.900;  -41.000;  -80.000
417.244;  -38.400; -798.000; -531.000
417.369; -118.400; -801.000; -612.000
417.495;   60.300; -325.000; -254.000
417.621; -116.600;-1015.000; -803.000
417.746;   95.000; -579.000; -572.000
417.872;  153.700; -254.000; -144.000
417.998;  149.100; -515.000; -530.000
418.123; 2138.400;-1073.000; -845.000
418.249; 9393.500; -512.000; -601.000
418.374; 1192.800; -916.000; -824.000
418.500;  246.800; -383.000; -482.000
418.626;  267.400;   70.000;  -59.000
418.751;  265.900; -549.000; -448.000
418.877;  399.400; -637.000; -643.000
419.002; 3622.300; -688.000; -560.000
419.128;22216.800; -930.000; -721.000
419.253; 4795.200; -967.000; -837.000
419.379;  753.500; -391.000; -338.000
419.504;  797.800;  325.000;  415.000
419.629;  989.500; -393.000; -212.000
419.755; 6912.300; -317.000; -254.000
419.880;36242.300;  -98.000;   67.000
420.006;20609.800; -280.000; -221.000
420.131;50168.900; -662.000; -775.000
420.256; 6501.100; -315.000; -316.000
420.382;  896.200; -665.000; -687.000
420.507;  180.100; -649.000; -778.000
420.632;  349.600; -337.000; -339.000
420.758;  576.200; -251.000; -425.000
420.883; -110.800; -876.000; -672.000
421.008;  -94.100; -775.000; -619.000
421.133;  -85.700; -509.000; -467.000
421.259;  -11.500; -325.000; -259.000
421.384; -168.500; -834.000; -693.000
421.509;  -12.400;-1052.000; -862.000
421.634; 2618.800; -936.000; -820.000
421.759; 1030.000; -359.000; -327.000
421.885;  -29.700; -717.000; -656.000
422.010;  -73.300; -673.000; -542.000
422.135; -216.600; -695.000; -727.000
422.260;  156.300;  340.000;  280.000
422.385;    1.100;   12.000;  -98.000
422.510;  111.500;  151.000;  -26.000
422.635;  127.700;  -87.000;  -43.000
422.760;  233.800; -766.000; -791.000
422.885;  176.000;  -57.000;  -80.000
423.010;   10.500; -112.000; -169.000
423.135;  -92.600; -481.000; -561.000
423.260;   57.300; -150.000; -245.000
423.385;  222.300;  476.000;  222.000
423.510;  177.500;   71.000;  -22.000
423.635;  229.700;  133.000;   45.000
423.760;  244.400;  383.000;  328.000
423.885;  185.500;  336.000;  391.000
424.010;   84.800;  -68.000;  -13.000
424.135;   59.800;    5.000;  -33.000
424.259;  -83.800; -654.000; -457.000
424.384;  -26.300; -279.000; -272.000
424.509;   68.600; -260.000; -186.000
424.634; -121.700; -761.000; -623.000
424.759;    1.600; -688.000; -544.000
424.883;   19.000; -506.000; -527.000
425.008;  385.700; -502.000; -410.000
425.133; 3698.400; -679.000; -653.000
425.258; 1554.600; -517.000; -381.000
425.382; 2147.600; -867.000; -774.000
425.507; 4891.600; -487.000; -543.000
425.632;  785.100; -802.000; -663.000
425.756;  877.100; -256.000; -146.000
425.881;12417.200; -831.000; -857.000
426.006;29074.600; -604.000; -355.000
426.130; 4213.400; -696.000; -508.000
426.255;  577.200; -611.000; -491.000
426.379;  342.400; -189.000; -577.000
426.504;  771.800;  660.000;  544.000
426.629; 7735.000; -519.000; -466.000
426.753; 4701.600;   64.000;  -46.000
426.878;  630.800; -252.000; -288.000
427.002;  402.200; -651.000; -668.000
427.127; 3158.100;  -35.000; -158.000
427.251;20344.700;  372.000;  401.000
427.375; 5131.300; -191.000; -173.000
427.500; 4393.600; -616.000; -610.000
427.624; 1354.000; -234.000; -400.000
427.749;  242.900; -216.000; -225.000
427.873;  -43.400; -499.000; -412.000
427.997;   29.100; -222.000; -230.000
428.122;  268.900;  795.000;  703.000
428.246;  216.300;  433.000;  434.000
428.371; -192.300; -869.000; -773.000
428.495; -146.200; -624.000; -646.000
428.619;   35.600; -186.000; -117.000
428.743;  128.000;   65.000;  132.000
428.868;  110.300; -732.000; -643.000
428.992; 2851.100; -219.000; -326.000
429.116; 1046.000; -329.000; -357.000
429.240;  611.700;  419.000;  426.000
429.365;   61.000; -454.000; -574.000
429.489;    3.100; -638.000; -647.000
429.613;  120.200; -236.000; -177.000
429.737;  151.100; -563.000; -432.000
429.861;  553.700; -247.000; -133.000
429.985;10545.000; -425.000; -305.000
430.109;10248.100; -770.000; -908.000
430.234; 1199.400;   76.000;  -50.000
430.358;  212.900; -250.000; -160.000
430.482;  -47.700; -672.000; -564.000
430.606;  -53.200; -655.000; -375.000
430.730;  144.000; -437.000; -388.000
430.854;  351.400; -909.000; -835.000
430.978;  -83.800; -795.000; -764.000
431.102;  -54.600; -499.000; -422.000
431.226; -125.000; -874.000; -815.000
431.350;  150.500;  345.000;  422.000
431.474;  -70.600; -661.000; -373.000
431.597; -234.700;-1060.000; -848.000
431.721;  -70.600; -276.000; -267.000
431.845; -206.400; -704.000; -472.000
431.969;  -86.700; -304.000; -349.000
432.093; -108.300; -395.000; -317.000
432.217;   47.600;   32.000;   82.000
432.341; -116.300; -523.000; -518.000
432.464;  117.600;   96.000;   40.000
432.588;  458.800; -401.000; -329.000
432.712;  254.500;  -52.000;  -52.000
432.836;  143.400;  213.000;  263.000
432.959;   33.000; -372.000; -311.000
433.083;  197.900;   11.000;    2.000
433.207;  768.700;  285.000;  930.000
433.330; 9620.400; -391.000; -200.000
433.454;10511.800; -654.000; -638.000
433.578; 6205.500;  583.000;  278.000
433.701; 1085.900; -623.000; -675.000
433.825;  353.400; -292.000; -299.000
433.949;  453.700;   28.000;  -72.000
434.072;  195.300; -410.000; -323.000
434.196;   46.300; -309.000; -117.000
434.319; 7791.500;25482.000;25124.000
434.443; 1515.400; -656.000; -603.000
434.566; 4722.200;  281.000;   62.000
434.690;  701.300; -637.000; -383.000
434.813;  151.900; -251.000; -173.000
434.937;  -79.900; -569.000; -696.000
435.060;    6.200; -423.000; -332.000
435.184;  822.000; -492.000; -217.000
435.307;  410.400;  159.000;  102.000
435.431;   65.900;  -40.000;   24.000
435.554;  -94.800; -399.000; -240.000
435.677;  -96.500; -350.000; -258.000
435.801;    4.600;  -25.000;   49.000
435.924;   55.000;    1.000;  -67.000
436.048; -127.600;-1019.000; -732.000
436.171;  -74.400; -240.000;  -66.000
436.294;   17.400; -248.000; -229.000
436.417;  218.000; -963.000; -849.000
436.541; -139.200; -814.000; -840.000
436.664;  -14.700; -242.000; -316.000
436.787;   54.600;   13.000;  113.000
436.910; -158.000; -792.000; -422.000
437.034;  134.400;  142.000;  143.000
437.157;  234.000;  -11.000;    0.000
437.280;    2.500; -392.000; -292.000
437.403; -103.500; -982.000; -869.000
437.526; 1542.900; -903.000; -865.000
437.649; 4802.000; -505.000; -332.000
437.772;  660.300; -692.000; -540.000
437.896;  317.600;  700.000;  544.000
438.019; -105.100; -758.000; -503.000
438.142; -118.000; -596.000; -506.000
438.265;   62.000; -639.000; -670.000
438.388; 1244.800; -520.000; -410.000
438.511;  231.300; -597.000; -394.000
438.634;   15.500; -247.000; -125.000
438.757; -210.300; -693.000; -619.000
438.880;   24.300;  -34.000;  -57.000
439.003;  -64.000; -417.000; -437.000
439.126;  -18.500; -287.000; -167.000
439.248;  -31.600;  -98.000; -139.000
439.371;  -19.200;    9.000;  -53.000
439.494;  168.800;  510.000;  439.000
439.617;  -34.300;   65.000;  -88.000
439.740; -287.100; -968.000; -816.000
439.863; -226.700; -755.000; -595.000
439.986; -171.100; -476.000; -431.000
440.108;   -1.800; -161.000; -112.000
440.231; -246.900; -950.000; -836.000
440.354;   23.400;  -64.000; -150.000
440.477;  165.400; -566.000; -542.000
440.599;   70.400; -200.000; -225.000
440.722; -144.100; -709.000; -586.000
440.845;  229.000;  751.000;  928.000
440.968; -154.200; -415.000; -311.000
441.090;  -52.200; -199.000;  -33.000
441.213; -234.300;-1021.000; -825.000
441.336;  -11.800; -159.000;   -5.000
441.458;  -85.900; -549.000; -396.000
441.581;  -89.700; -628.000; -629.000
441.703;  -47.300; -152.000;   13.000
441.826; -140.900; -557.000; -400.000
441.948;  -42.100;   56.000;   51.000
442.071;  182.500;  555.000;  424.000
442.193; -163.300; -531.000; -485.000
442.316;  118.200;  152.000;   97.000
442.438;  165.900; -233.000;  -10.000
442.561;  237.000;  272.000;  262.000
442.683; 1307.400; -809.000; -522.000
442.806; 2471.800;   -8.000;   74.000
442.928;   83.600; -859.000; -604.000
443.051;  -40.200; -577.000; -373.000
443.173;  -86.600; -341.000; -339.000
443.295; -126.400; -263.000; -371.000
443.418;  -81.100; -321.000;  -29.000
443.540;   82.500; -106.000;   -4.000
443.662; -131.800; -563.000; -465.000
443.785;   65.000;  335.000;  199.000
443.907; -150.100; -362.000; -208.000
444.029; -197.300; -767.000; -494.000
444.152; -191.300; -644.000; -554.000
444.274;   20.300;  -18.000;  -24.000
444.396; -141.300; -461.000; -221.000
444.518; -202.300; -691.000; -454.000
444.640; -120.800; -268.000; -111.000
444.763;   63.900;  388.000;  249.000
444.885; -126.800; -432.000; -392.000
445.007;    2.600;   35.000;   86.000
445.129; -173.800; -610.000; -515.000
445.251; -123.600; -372.000; -439.000
445.373; -201.800; -537.000; -386.000
445.495;  109.200;  242.000;  350.000
445.617;  184.800;  853.000;  753.000
445.739;  -45.900; -215.000;  -97.000
445.861;   31.600; -245.000; -112.000
445.984;   19.300; -267.000; -101.000
446.105;  525.100; -418.000; -251.000
446.227; 1321.400; -176.000;  -19.000
446.349;   71.600; -358.000; -249.000
446.471; -148.000; -615.000; -448.000
446.593;  -18.800; -316.000;   19.000
446.715;   85.800;  -67.000;   41.000
446.837;  202.700;  697.000;  832.000
446.959;  -94.700; -457.000; -478.000
447.081; -194.000; -628.000; -518.000
447.203;  213.300;  862.000;  834.000
447.325;  -92.300; -270.000;   42.000
447.446;   77.500;  286.000;  530.000
447.568; -239.300; -921.000; -803.000
447.690; -114.100; -236.000; -245.000
447.812; -242.100; -798.000; -519.000
447.933;   53.500;  155.000;  127.000
448.055;  -28.400; -306.000; -261.000
448.177;  378.500;   31.000;   79.000
448.299;  228.400; -935.000; -727.000
448.420;  108.400;  -25.000;  159.000
448.542;    5.400;   -3.000;   33.000
448.664;   30.400;  109.000;  322.000
448.785;   30.200;  265.000;   83.000
448.907;  -85.300; -614.000; -353.000
449.028;    3.500; -771.000; -471.000
449.150;  230.200;  492.000;  589.000
449.272; -273.200;-1044.000; -913.000
449.393;  159.100;  612.000;  694.000
449.515; -227.300; -634.000; -581.000
449.636;  -23.200; -264.000; -155.000
449.758;  252.400;  763.000;  622.000
449.879; -123.500; -498.000; -396.000
450.001;  -88.400; -149.000;  -49.000
450.122;   11.800;  -95.000;  162.000
450.244;   41.600;   37.000;  364.000
450.365; -114.900; -495.000; -301.000
450.486;   30.600;   80.000;  268.000
450.608;  140.900;  393.000;  326.000
450.729;  197.900;  578.000;  645.000
450.850;   38.300; -574.000; -466.000
450.972; 1450.300; -552.000; -389.000
451.093; 8889.300;  190.000;  588.000
451.214; 3336.900; -516.000; -337.000
451.336;  755.500;  773.000;  579.000
451.457;  174.000;  264.000;  393.000
451.578;  -54.200; -118.000;  -74.000
451.699; -172.900; -546.000; -540.000
451.821;  -52.900; -284.000;  -50.000
451.942;   94.900;  278.000;  285.000
452.063;  160.700;  228.000;  419.000
452.184; 1105.700;  -54.000;  -49.000
452.305; 1946.300;  103.000;  170.000
452.427;  222.100; -549.000; -301.000
452.548;   74.100;   23.000;   79.000
452.669;  -19.000; -257.000;  -89.000
452.790;   14.700;    3.000;  -18.000
452.911;  110.700;  195.000;  259.000
453.032;  -60.800; -289.000;  -60.000
453.153;  -13.600;  -29.000;   81.000
453.274;  235.000;  737.000;  868.000
453.395;  -19.400;  -51.000;  175.000
453.516;  188.400; 1317.000; 1388.000
453.637;  -22.000; -205.000; -150.000
453.758;  -44.500;   15.000;   69.000
453.879; -181.400; -462.000; -250.000
454.000;  240.500; 1086.000;  948.000
454.121; -188.900; -554.000; -326.000
454.242; -151.400; -599.000; -383.000
454.362;  -24.400;  -99.000;  114.000
454.483;   29.400; -309.000; -229.000
454.604;  196.300;  512.000;  580.000
454.725; -161.900; -627.000; -555.000
454.846; -169.200; -474.000; -406.000
454.967;   50.700;  230.000;  539.000
455.087;   16.800;  179.000;  153.000
455.208;  111.500;  554.000;  856.000
455.329;  -83.300;  -22.000;   82.000
455.450;  169.500;  473.000;  633.000
455.570; -108.200; -234.000; -211.000
455.691;   -3.900;  201.000;  407.000
455.812; -163.100; -270.000;  -92.000
455.932;  -57.200;  107.000;  -97.000
456.053;  -83.800;   36.000;   24.000
456.173; -147.300; -433.000; -355.000
456.294; -173.400; -476.000; -303.000
456.415;  -48.800;  -73.000;   70.000
456.535;   16.400;  297.000;  273.000
456.656;   16.400;  132.000;  240.000
456.776;  -31.600;    3.000;  298.000
456.897;   79.300;  308.000;  513.000
457.017;  -69.900; -153.000;   -3.000
457.138; -127.200; -402.000; -249.000
457.258;   20.300;  263.000;  224.000
457.379;   87.600;  509.000;  521.000
457.499;   36.000;  443.000;  432.000
457.620; -190.500; -407.000; -231.000
457.740; -106.300; -132.000;  -11.000
457.860;  -44.600;   87.000;   44.000
457.981;   14.000;  132.000;  124.000
458.101;  -87.800;  -89.000;   40.000
458.221;   51.500;  336.000;  402.000
458.342;  -41.100;   -4.000;  -37.000
458.462;  139.200;  617.000;  352.000
458.582;  -37.500; -302.000; -294.000
458.703;   91.100;  303.000;  154.000
458.823;   14.500;   22.000;  163.000
458.943;  122.000;  341.000;  467.000
459.063;   54.900; 1124.000;  192.000
459.183;   59.300;  328.000;  313.000
459.304;  103.500;  315.000;  517.000
459.424;  -64.600; -246.000;  -89.000
459.544;  718.200;  388.000;  764.000
459.664; 1559.700;  499.000;  506.000
459.784;  590.100; 1004.000; 1175.000
459.904;  229.800;  867.000;  744.000
460.024;  215.800;  867.000;  684.000
460.144;  137.200;  449.000;  554.000
460.264;   67.700;  515.000;  327.000
460.385; -134.900; -145.000; -119.000
460.505;  162.300;  905.000;  858.000
460.625; -116.100;  -17.000;  -68.000
460.745;   56.000;  396.000;  541.000
460.864;    6.300;  153.000;  469.000
460.984;  131.200;  499.000;  573.000
461.104;  355.200; 1656.000; 1775.000
461.224;  137.900;  657.000;  650.000
461.344;   20.000;  431.000;  360.000
461.464;   20.800;  258.000;  513.000
461.584;   53.500;  283.000;  466.000
461.704;  -36.500;   58.000;  108.000
461.824;  -12.800;  238.000;  259.000
461.943;   25.600;  191.000;  130.000
462.063;  -86.700;    2.000;  324.000
462.183;  154.000;  639.000;  717.000
462.303;  311.200; 1678.000; 1230.000
462.422;  170.000;  781.000;  840.000
462.542;   -5.600;  271.000;  391.000
462.662;  160.000;  353.000;  380.000
462.782;  506.700;  833.000;  572.000
462.901;  960.600;  545.000;  717.000
463.021;  605.900; 1702.000; 1638.000
463.141;   44.800;  337.000;  770.000
463.260;   43.000;  614.000;  474.000
463.380;  142.200;  902.000;  884.000
463.499;    9.800;  342.000;  332.000
463.619;   49.600;  581.000;  559.000
463.738;  360.200; 1644.000;  903.000
463.858;  126.500;  657.000;  811.000
463.978;    4.600;  542.000;  396.000
464.097;  177.100;  921.000; 1114.000
464.217;  339.400; 1196.000; 1143.000
464.336;  310.200; 1068.000; 1130.000
464.455;   17.200;  328.000;  659.000
464.575;  179.400;  597.000;  602.000
464.694;  454.600; 1204.000; 1179.000
464.814;  325.500; 1190.000; 1138.000
464.933;  247.400; 1095.000; 1027.000
465.052;  318.200; 1412.000; 1054.000
465.172;  257.600;  922.000;  799.000
465.291;  377.300; 1376.000; 1320.000
465.410;  117.100;  462.000;  735.000
465.530;  262.900; 1355.000; 1310.000
465.649;  242.100; 1209.000; 1273.000
465.768;  406.400; 1673.000; 1508.000
465.888;  225.800;  941.000; 1174.000
466.007;  312.000; 1335.000; 1440.000
466.126;   67.600;  721.000;  641.000
466.245;  155.100; 1176.000; 1187.000
466.364;  154.000;  950.000; 1060.000
466.484;  202.400; 1024.000; 1213.000
466.603;  160.000; 1101.000; 1222.000
466.722;  352.600; 1490.000; 1769.000
466.841;  262.700; 1151.000; 1401.000
466.960;  150.100; 1069.000;  972.000
467.079;  343.500; 1971.000; 1786.000
467.198;  194.700; 1238.000; 1181.000
467.317;  279.200; 1768.000; 1162.000
467.436;  214.800; 1709.000; 1261.000
467.555;  348.600; 1796.000; 1746.000
467.674;  206.700; 1227.000; 1329.000
467.793;  215.300; 1376.000; 1374.000
467.912;  265.400; 1658.000; 1539.000
468.031;  352.700; 2038.000; 1930.000
468.150;  390.400; 1842.000; 1837.000
468.269;  498.800; 2313.000; 2090.000
468.388;  518.800; 2168.000; 2339.000
468.507;  603.500; 2884.000; 2903.000
468.626;  674.200; 2555.000; 2541.000
468.744;  364.400; 2018.000; 2174.000
468.863;  494.200; 2312.000; 2523.000
468.982;  279.200; 1503.000; 1555.000
469.101;  536.300; 2788.000; 2692.000
469.220;  403.700; 2333.000; 2176.000
469.338;  623.700; 2935.000; 3051.000
469.457;  475.500; 2719.000; 2545.000
469.576;  815.000; 3953.000; 3784.000
469.695;  564.100; 2877.000; 3066.000
469.813;  979.500; 4148.000; 4192.000
469.932;  897.700; 4255.000; 4485.000
470.051;  978.800; 4075.000; 4161.000
470.169; 1807.100; 4470.000; 4338.000
470.288; 2819.400; 4700.000; 4809.000
470.406; 1711.100; 5059.000; 5194.000
470.525; 1316.300; 6101.000; 5787.000
470.644; 1398.800; 6847.000; 6794.000
470.762; 1767.200; 8397.000; 7873.000
470.881; 1989.400; 8651.000; 8464.000
470.999; 2231.000; 9685.000; 9151.000
471.118; 2321.900;11174.000;10711.000

