
Integration time [ms]: 100.000
Averaging Nr. [scans]: 40
Smoothing Nr. [pixels]: 0
Data measured with spectrometer [name]: 2101012U2
Wave   ;Sample   ;Dark     ;Reference
[nm]   ;[counts] ;[counts] ;[counts] 

197.733;   48.525;  516.000;  404.000
197.879;  -61.225; -610.000; -634.000
198.025;  -40.975; -475.000; -420.000
198.171;  -71.700; -602.000; -612.000
198.317;  -23.250; -401.000; -316.000
198.463;  -61.450; -655.000; -404.000
198.609;   30.625;  181.000; -137.000
198.755;  -74.775; -644.000; -410.000
198.901;  -61.175; -505.000; -424.000
199.047;  -57.600; -615.000; -488.000
199.193;  -37.375; -230.000; -468.000
199.339;  -38.300; -222.000; -369.000
199.485;   45.975;  330.000;  271.000
199.631;    7.175;  227.000;  310.000
199.777;  -47.975; -466.000; -398.000
199.923;  -57.325; -610.000; -424.000
200.069;   -7.525; -141.000;  -58.000
200.215;   53.650;  128.000;  453.000
200.361;   37.825;  243.000;  477.000
200.507;  -45.375; -600.000; -373.000
200.653;  -18.925; -371.000; -194.000
200.798;  -34.975; -215.000; -125.000
200.944;  -11.550; -146.000;  -41.000
201.090;   41.275;   61.000;  222.000
201.236;    8.200; -116.000; -158.000
201.382;  128.750;  874.000;  903.000
201.528;    6.125;  -58.000;  -48.000
201.674;  -36.900; -386.000; -293.000
201.819;  -55.975; -540.000; -439.000
201.965;  -82.600; -699.000; -447.000
202.111;  -24.175; -273.000; -226.000
202.257;  -35.150; -250.000; -238.000
202.402;   -0.600;   13.000;  -36.000
202.548;  -32.650; -169.000; -116.000
202.694;   69.475;  410.000; -183.000
202.840;  -80.675; -603.000; -531.000
202.985;  -69.675; -681.000; -639.000
203.131;  -96.025; -832.000; -666.000
203.277;  -12.550; -199.000; -262.000
203.423;  -58.450; -434.000; -520.000
203.568;  -31.250; -462.000; -237.000
203.714;  -43.825; -535.000; -542.000
203.860;  -76.225; -682.000; -641.000
204.005;    3.775;  112.000;  167.000
204.151;   71.975;  561.000;  556.000
204.296;  -45.625; -354.000; -221.000
204.442;  -61.575; -600.000; -547.000
204.588;  -67.925; -592.000; -579.000
204.733;   14.550;  178.000;  168.000
204.879; -119.575;-1018.000; -822.000
205.025;    6.825;  -99.000;  126.000
205.170;    1.500;  -17.000;   94.000
205.316;   76.675;  438.000;  661.000
205.461;  -71.500; -698.000; -554.000
205.607;   69.600;  609.000;  665.000
205.752;  -66.550; -626.000; -551.000
205.898;  -44.975; -501.000; -391.000
206.043;  -56.650; -578.000; -506.000
206.189;  -30.225; -243.000; -285.000
206.334;   59.925;  554.000;  606.000
206.480;   80.725;  409.000;  239.000
206.625;  -83.100; -529.000; -552.000
206.771;  -52.025; -451.000; -373.000
206.916;  -39.900; -210.000; -537.000
207.062;  -54.725; -545.000; -591.000
207.207;  -57.450; -546.000; -443.000
207.353;   66.600;  185.000;  460.000
207.498;   14.725;  196.000;   85.000
207.643;  -34.600; -501.000; -370.000
207.789; -109.525;-1069.000; -910.000
207.934;  -82.075; -665.000; -713.000
208.080;  -31.375; -154.000;   66.000
208.225;   -5.200;  -22.000;  -57.000
208.370;  -80.925; -727.000; -619.000
208.516;  -72.650; -741.000; -487.000
208.661;  -26.900; -127.000;  -69.000
208.806;  -10.750; -165.000; -171.000
208.952; -114.250;-1044.000; -731.000
209.097;   77.125;  378.000;  349.000
209.242;  -41.825; -307.000; -382.000
209.387;   77.975;  392.000;  350.000
209.533;  -53.575; -321.000; -350.000
209.678;   74.225;  472.000;  543.000
209.823;  -51.450; -408.000; -310.000
209.969;  -90.200; -860.000; -757.000
210.114; -106.050; -907.000; -719.000
210.259; -103.075; -939.000; -889.000
210.404;   -7.900; -171.000;  103.000
210.549;    8.950;  108.000;    3.000
210.695;  -20.425;   -3.000;  -95.000
210.840;   45.350;   94.000;   67.000
210.985;  -64.000; -484.000; -303.000
211.130;   68.100;  268.000;  406.000
211.275;    2.750;  207.000;  199.000
211.420;  -48.225; -300.000; -289.000
211.566;  -69.375; -536.000; -489.000
211.711;   33.525;  218.000;  157.000
211.856;  -55.425; -545.000; -519.000
212.001;   18.625;  151.000;   44.000
212.146;    8.375;  153.000;   49.000
212.291;  -19.775; -210.000; -186.000
212.436;  -35.000; -280.000;   -6.000
212.581;  -68.125; -685.000; -653.000
212.726;  -61.025; -487.000; -538.000
212.871;  -28.950; -552.000; -217.000
213.016; -132.800;-1172.000;-1029.000
213.161;   54.875;  406.000;  291.000
213.306;  -59.550; -435.000; -577.000
213.451;  -85.725; -778.000; -689.000
213.596;  -40.025; -455.000; -347.000
213.741;  -46.050; -448.000; -538.000
213.886;  -79.525; -498.000; -517.000
214.031;  -22.600; -294.000; -124.000
214.176;  -36.075; -408.000; -341.000
214.321;  -10.725; -296.000; -157.000
214.466;  -36.825; -163.000;  -43.000
214.611;   16.175;  -61.000;  -10.000
214.756; -110.450; -948.000; -858.000
214.901;  -12.525; -388.000; -226.000
215.046; -109.875; -797.000; -825.000
215.191;   20.250;  128.000;   35.000
215.336;  -13.775; -157.000;  -19.000
215.480;  -59.100; -684.000; -505.000
215.625;  -14.650; -175.000;  -19.000
215.770;  -80.100; -757.000; -662.000
215.915;  -16.825;   -5.000;  -97.000
216.060;    2.350; -113.000;  -21.000
216.205; -100.700; -731.000; -779.000
216.349;  -62.300; -470.000; -533.000
216.494; -127.825; -939.000; -867.000
216.639; -104.275; -823.000; -888.000
216.784;  -77.575; -577.000; -525.000
216.929;   51.950;  392.000;  281.000
217.073;  -25.725; -244.000;  -31.000
217.218;    0.075;   78.000;  -47.000
217.363;  -87.800; -656.000; -618.000
217.507;  -71.350; -623.000; -588.000
217.652; -117.400; -845.000; -874.000
217.797;  -81.250; -708.000; -659.000
217.942; -100.300; -856.000; -720.000
218.086;   75.550;  608.000;  539.000
218.231;   -8.625; -174.000;  -26.000
218.376;  -23.700; -337.000; -229.000
218.520;   -8.675;  -41.000;   96.000
218.665;  -28.775; -338.000; -204.000
218.810;  -43.325; -275.000; -233.000
218.954;   11.525;  201.000;   35.000
219.099; -109.850; -713.000; -963.000
219.243;  -76.300; -589.000; -554.000
219.388;  -40.675; -264.000; -136.000
219.532;  -15.125; -116.000; -116.000
219.677;  -70.150; -564.000; -521.000
219.822;   -0.975;   33.000;   89.000
219.966;   -4.250;   17.000;  -99.000
220.111;  -23.125; -328.000;  -40.000
220.255;  -91.075; -797.000; -750.000
220.400;  -14.900; -180.000; -146.000
220.544;  -72.125; -516.000; -450.000
220.689;  -43.875; -422.000; -451.000
220.833;  -25.450; -123.000;  -58.000
220.978;  -33.950; -393.000; -563.000
221.122;   13.125;  319.000;  307.000
221.267; -109.700; -906.000; -837.000
221.411;  -65.050; -478.000; -394.000
221.555;   -6.750; -104.000;  -23.000
221.700;  -52.050; -329.000; -222.000
221.844;   30.450;  255.000;  272.000
221.989;  -48.400; -328.000; -311.000
222.133;  -21.350; -289.000; -307.000
222.277;   -8.250;    5.000;   78.000
222.422;   10.075;  227.000;  113.000
222.566;  -53.675; -381.000; -214.000
222.711;  -50.475; -414.000; -479.000
222.855;  -66.675; -643.000; -586.000
222.999;  -70.550; -642.000; -717.000
223.144;  -13.950; -195.000; -194.000
223.288;   58.975;  423.000;  251.000
223.432;   17.675;  184.000;  230.000
223.576;   21.900;  152.000;  -21.000
223.721;   26.225;  364.000;  273.000
223.865;  -52.050; -472.000; -475.000
224.009;  235.175; 1673.000; 1631.000
224.153;  -62.375; -660.000; -671.000
224.298;  -60.775; -531.000; -489.000
224.442;   -5.550;  -74.000;  -33.000
224.586;  -26.075; -169.000; -106.000
224.730;  -81.325; -858.000; -670.000
224.875;  -96.975; -739.000; -688.000
225.019;    8.400;  102.000;  188.000
225.163;   45.175;  208.000;  341.000
225.307;   13.150;   97.000;  -91.000
225.451;   45.675;  360.000;  481.000
225.595;   37.675;  264.000;  176.000
225.739;  -29.600; -170.000;  -94.000
225.884;    4.625;   86.000;    5.000
226.028;  -99.575; -760.000; -626.000
226.172;  -48.525; -260.000; -273.000
226.316; -118.150; -941.000; -902.000
226.460;  -54.700; -645.000; -493.000
226.604;  -43.850; -406.000; -400.000
226.748;  -89.350; -836.000; -733.000
226.892;  -32.675; -227.000; -181.000
227.036;  -54.475; -537.000; -447.000
227.180;  -52.700; -551.000; -375.000
227.324;  -54.050; -561.000; -580.000
227.468; -114.000; -819.000; -717.000
227.612;   20.975;  242.000;  -28.000
227.756;  -87.425; -845.000; -698.000
227.900;   67.150;  342.000;  441.000
228.044;  -63.200; -509.000; -290.000
228.188;   37.475;  448.000;  568.000
228.332;  -83.475; -546.000; -472.000
228.476;  -21.075; -223.000; -149.000
228.620;  -29.400; -210.000; -150.000
228.764;   61.600;  431.000;  349.000
228.908;  -19.925; -155.000;   30.000
229.052;  -64.300; -615.000; -528.000
229.195;  -15.575; -172.000;   13.000
229.339;  -12.475; -235.000; -305.000
229.483;  -41.850;    5.000; -162.000
229.627;    2.875; -156.000;  139.000
229.771;  -45.800; -218.000; -294.000
229.915;   19.600;  230.000;   79.000
230.059;  -79.400; -648.000; -663.000
230.202;  -27.725; -370.000; -317.000
230.346;  -21.375; -107.000;  107.000
230.490;  -60.225; -489.000; -521.000
230.634; -107.600; -736.000; -553.000
230.777;   75.425;  478.000;  509.000
230.921;  -51.650; -450.000; -359.000
231.065;  -28.100; -246.000; -286.000
231.209;   29.300;  261.000;  265.000
231.352;   18.200;   54.000;   40.000
231.496;   14.700;  568.000;  188.000
231.640;  -84.975; -693.000; -621.000
231.783;   57.100;  546.000;  525.000
231.927;  -37.675; -294.000; -365.000
232.071; -115.575; -962.000; -736.000
232.214;  -88.050; -980.000; -764.000
232.358;  -95.050; -683.000; -599.000
232.502;   17.150;  -19.000;    7.000
232.645; -132.625;-1090.000; -927.000
232.789;  -21.100; -257.000; -218.000
232.933;  -44.500; -407.000; -224.000
233.076;  -97.250;-1038.000; -897.000
233.220; -101.400; -752.000; -777.000
233.363;  -67.875; -669.000; -477.000
233.507;   50.150;  371.000;  129.000
233.650;  -78.625; -764.000; -834.000
233.794;   22.150;  438.000;  461.000
233.938;  -53.600; -530.000; -362.000
234.081;  -18.250;  -93.000;   31.000
234.225;  -62.500; -631.000; -539.000
234.368; -112.750; -773.000; -723.000
234.512;  -23.550; -385.000; -299.000
234.655;  -90.825; -582.000; -555.000
234.798;  -44.025; -493.000; -466.000
234.942; -131.725; -884.000;-1002.000
235.085;  -65.475; -651.000; -443.000
235.229;  -77.025; -405.000; -410.000
235.372;  -46.150; -247.000; -191.000
235.516;  -62.550; -397.000; -321.000
235.659;   17.575;   92.000;  121.000
235.802;  -18.900;  -38.000;  -22.000
235.946;   31.000;  335.000;  215.000
236.089;   26.075;  126.000;  250.000
236.233;   50.475;  275.000;  298.000
236.376;  -57.675; -235.000; -378.000
236.519;  -39.225; -297.000; -319.000
236.663;  -21.575; -215.000; -117.000
236.806; -121.175;-1029.000; -999.000
236.949;   43.000;  543.000;  431.000
237.092;   67.850;  412.000;  391.000
237.236;  -72.300; -589.000; -502.000
237.379;   50.600;  352.000;  428.000
237.522; -116.775; -879.000; -768.000
237.666;  -12.300; -271.000;   18.000
237.809; -114.150; -851.000; -823.000
237.952;   44.475;  469.000;  271.000
238.095;  -60.800; -447.000; -442.000
238.238;   77.200;  688.000;  700.000
238.382;   -8.375;  166.000;  103.000
238.525;  -57.525; -598.000; -511.000
238.668; -136.750;-1060.000; -985.000
238.811;  -80.650; -638.000; -643.000
238.954;  -55.975; -483.000; -334.000
239.097;   97.450;  617.000;  664.000
239.241;   11.025;  394.000;  326.000
239.384;  -30.125; -254.000; -214.000
239.527;  -60.750; -424.000; -224.000
239.670; -127.000; -994.000;-1091.000
239.813; -105.575; -696.000; -658.000
239.956;   69.600;  579.000;  473.000
240.099; -120.950; -778.000; -725.000
240.242;   63.125;  428.000;  432.000
240.385;   41.950;  466.000;  450.000
240.528;  -63.550; -706.000; -473.000
240.671;   10.300;  189.000;  134.000
240.814;  -48.400; -441.000; -158.000
240.957;  -90.525; -767.000; -578.000
241.100;  -78.500; -779.000; -755.000
241.243; -136.775;-1234.000; -893.000
241.386;  -51.150; -508.000; -379.000
241.529;  -89.975; -735.000; -547.000
241.672;  -62.725; -566.000; -495.000
241.815; -119.375; -832.000; -808.000
241.958;   -4.025; -125.000; -182.000
242.101;  -72.225; -545.000; -390.000
242.244;  -24.350; -270.000; -325.000
242.387;  -47.400; -304.000; -246.000
242.530;   56.650;  470.000;  134.000
242.673;  -55.775; -381.000; -309.000
242.815;  -98.825; -925.000; -899.000
242.958;  -86.225; -482.000; -381.000
243.101;    7.650;  132.000;  187.000
243.244;  -90.325; -564.000; -521.000
243.387;  -37.250; -313.000; -316.000
243.530;  -99.125; -657.000; -674.000
243.672;    1.700;   43.000;  -92.000
243.815;  -50.800; -355.000; -283.000
243.958;   -2.800;   98.000;  -26.000
244.101;   -7.850;   59.000;  -16.000
244.243;  -10.500;  -47.000;  101.000
244.386; -119.650; -761.000; -630.000
244.529;  -25.475; -132.000; -139.000
244.672; -155.000;-1154.000; -951.000
244.814;  -91.950; -621.000; -794.000
244.957;  -36.500; -380.000; -304.000
245.100;  -65.800; -489.000; -489.000
245.242;  -60.125; -387.000; -374.000
245.385;    1.775;  -59.000;  -39.000
245.528; -104.700; -871.000; -705.000
245.670;   88.075;  612.000;  634.000
245.813;  -86.600; -599.000; -547.000
245.956;  -26.225; -324.000; -275.000
246.098;  -74.700; -508.000; -650.000
246.241;    1.025;  194.000;   48.000
246.383;  -19.675; -119.000;  -73.000
246.526;  -78.225; -454.000; -525.000
246.669; -106.350; -889.000; -780.000
246.811;   11.425;  172.000;   -1.000
246.954;  -60.075; -512.000; -426.000
247.096;  -27.125;  -84.000;   -6.000
247.239;  -61.825; -482.000; -445.000
247.381;  -66.800; -647.000; -488.000
247.524;   61.175;  645.000;  679.000
247.666;   -1.975;   58.000;   11.000
247.809; -111.775; -887.000; -691.000
247.951;   -7.900;  -75.000;  138.000
248.094;   15.100;  432.000;  308.000
248.236; -147.450;-1262.000;-1238.000
248.378;  -41.000; -356.000;  -81.000
248.521;  -33.375; -334.000; -337.000
248.663;  -35.925; -236.000; -267.000
248.806;  -23.000; -300.000; -266.000
248.948; -103.100; -886.000; -763.000
249.090;  -52.225; -428.000; -398.000
249.233;  -59.350; -344.000; -381.000
249.375;  -60.225; -474.000; -451.000
249.518;  -31.375;  -83.000; -133.000
249.660;   -1.025; -103.000;    3.000
249.802; -170.150;-1303.000;-1189.000
249.945;  -70.250; -612.000; -540.000
250.087; -102.125; -834.000; -768.000
250.229;  -37.775; -362.000; -480.000
250.371;  -69.875; -494.000; -439.000
250.514;  -43.225; -310.000; -244.000
250.656;  -15.825;   69.000;  102.000
250.798; -109.200; -849.000; -800.000
250.940;  -68.050; -322.000; -322.000
251.083;  -37.575; -335.000; -111.000
251.225;   45.000;  338.000;  310.000
251.367;  -32.925; -274.000; -373.000
251.509;  -20.175; -265.000; -210.000
251.651;  -82.175; -731.000; -671.000
251.794;   40.250;  538.000;  632.000
251.936; -109.800; -821.000; -747.000
252.078;  -84.200; -540.000; -461.000
252.220;  -58.700; -645.000; -477.000
252.362;   40.375;  344.000;  462.000
252.504;  -68.125; -677.000; -584.000
252.646; -112.675; -875.000; -722.000
252.788;   -9.175;   14.000; -128.000
252.931;  -44.700; -257.000; -253.000
253.073;  -43.725; -376.000; -317.000
253.215;   -7.425;  141.000;  122.000
253.357;   -3.425;   82.000; -153.000
253.499;  -54.750; -374.000; -234.000
253.641;  -78.700; -749.000; -594.000
253.783;  -95.375; -609.000; -527.000
253.925;  -72.225; -586.000; -591.000
254.067; -112.500; -744.000; -667.000
254.209;  -38.050; -391.000; -259.000
254.351; -118.925; -865.000; -883.000
254.493;  -62.225; -441.000; -417.000
254.635; -126.825; -936.000; -818.000
254.777;  -80.675; -752.000; -687.000
254.918;  -76.500; -512.000; -430.000
255.060;  -52.325; -551.000; -395.000
255.202;  -52.300; -473.000; -261.000
255.344;  -74.950; -658.000; -455.000
255.486;  -73.750; -471.000; -406.000
255.628;  -92.625; -780.000; -781.000
255.770;  -84.400; -676.000; -536.000
255.912;  -48.900; -559.000; -468.000
256.053;  -86.250; -730.000; -508.000
256.195;  149.450; 1008.000;  903.000
256.337;  -86.575; -861.000; -595.000
256.479;   67.475;  532.000;  416.000
256.621;  -44.050; -394.000; -212.000
256.762;  -87.075; -789.000; -742.000
256.904;   35.975;  485.000;  487.000
257.046;  -41.875; -381.000; -271.000
257.188;  -54.675; -351.000; -264.000
257.329;  -65.325; -525.000; -464.000
257.471; -127.675; -939.000; -807.000
257.613;  -69.975; -584.000; -498.000
257.755; -148.200;-1073.000; -982.000
257.896;   23.250;  286.000;  392.000
258.038;  -68.450; -403.000; -352.000
258.180;  -48.900; -354.000; -279.000
258.321;  -87.300; -581.000; -457.000
258.463;   -7.800;  -71.000;  133.000
258.605; -100.350; -562.000; -570.000
258.746;  -96.975; -886.000; -772.000
258.888; -149.725;-1026.000;-1020.000
259.029;   21.500;  121.000;   -8.000
259.171;  -91.750; -614.000; -550.000
259.313;   -4.050;  -49.000;  -47.000
259.454;  -81.600; -536.000; -414.000
259.596;  -44.975; -483.000; -390.000
259.737;  -75.075; -590.000; -474.000
259.879;   49.550;  217.000;  311.000
260.020;   70.675;  901.000;  636.000
260.162;  -34.575; -146.000; -253.000
260.303; -101.925; -768.000; -687.000
260.445;  -89.850; -609.000; -613.000
260.586;   12.475;  392.000;  157.000
260.728;  -38.950; -360.000; -248.000
260.869;  -78.200; -350.000; -343.000
261.011;   74.275;  706.000;  537.000
261.152;  -59.050; -479.000; -319.000
261.293;  -72.900; -576.000; -595.000
261.435;  -37.725; -219.000; -184.000
261.576;  -55.100; -455.000; -325.000
261.718;   49.175;  420.000;  470.000
261.859; -108.725; -940.000; -949.000
262.000; -126.900; -951.000;-1016.000
262.142;  -21.750;  -52.000;  -60.000
262.283; -110.800; -808.000; -691.000
262.424;  -72.125; -666.000; -625.000
262.566; -141.725;-1161.000; -983.000
262.707; -113.025; -840.000; -830.000
262.848; -113.200; -769.000; -726.000
262.990;  -34.250; -362.000; -345.000
263.131;   63.775;  650.000;  681.000
263.272;   -7.650;  -61.000;  -41.000
263.413;  -98.100; -589.000; -561.000
263.555;  -55.075; -669.000; -143.000
263.696;  -85.125; -550.000; -641.000
263.837;  -55.425; -449.000; -551.000
263.978;   -5.475;   -5.000;  -77.000
264.119;  -39.600; -283.000; -264.000
264.261; -122.375; -847.000; -630.000
264.402;    1.000;   33.000;   40.000
264.543;  -69.925; -509.000; -524.000
264.684;  -11.050;   61.000;  -50.000
264.825;  -64.800; -816.000; -538.000
264.966;  -13.700;  -84.000;  -67.000
265.107; -102.325; -646.000; -670.000
265.248;  -94.225; -825.000; -812.000
265.390;   -8.600;  152.000;   -9.000
265.531;  -17.925; -238.000; -107.000
265.672;  -70.200; -557.000; -630.000
265.813;   57.475;  563.000;  439.000
265.954; -143.300; -959.000; -940.000
266.095;   -2.775; -372.000; -322.000
266.236;  -91.125; -686.000; -548.000
266.377;  -44.600; -243.000; -297.000
266.518;  -71.975; -619.000; -547.000
266.659;   25.400;  170.000;  268.000
266.800;   -8.400;   83.000;   85.000
266.941;  -60.575; -487.000; -478.000
267.082;    6.175;  354.000;   99.000
267.223;  -39.125; -344.000; -273.000
267.364; -106.025; -892.000; -686.000
267.504;   -5.775;    3.000;  135.000
267.645;  -11.300;  160.000;   67.000
267.786;  -33.225; -147.000;  -86.000
267.927;  -68.575; -473.000; -379.000
268.068;  -19.525; -186.000;  -61.000
268.209;  -43.500; -175.000; -413.000
268.350;  -51.875; -388.000; -532.000
268.490;  -79.775; -648.000; -521.000
268.631;   35.450;  127.000;  225.000
268.772; -101.350; -874.000; -647.000
268.913;  -44.325; -328.000; -476.000
269.054;  -22.350; -117.000;   12.000
269.194;  -42.425; -418.000; -402.000
269.335; -142.725;-1137.000;-1074.000
269.476;  -15.500;   33.000;  -35.000
269.617;  -58.175; -347.000; -392.000
269.757;  -90.725; -713.000; -646.000
269.898; -110.025; -856.000; -613.000
270.039;  -57.000; -415.000; -405.000
270.180; -129.250; -952.000; -816.000
270.320;  -29.675; -190.000; -250.000
270.461;  -37.525; -277.000; -249.000
270.602;  -11.500; -186.000; -156.000
270.742; -116.150; -868.000; -943.000
270.883;  -52.900; -442.000; -390.000
271.023;  -68.325; -358.000; -357.000
271.164;  -59.525; -607.000; -528.000
271.305;  -92.100; -666.000; -654.000
271.445;  -83.850; -722.000; -683.000
271.586;  -58.625; -462.000; -283.000
271.726;  -45.250; -397.000; -322.000
271.867;  -80.900; -594.000; -534.000
272.008;   28.250; -473.000; -285.000
272.148;   48.725;  462.000;  468.000
272.289;    1.975; -113.000; -181.000
272.429;  -17.275;   19.000;  185.000
272.570;  -82.100; -633.000; -737.000
272.710; -105.075; -825.000; -775.000
272.851;  -16.000;  113.000; -130.000
272.991; -152.450;-1173.000;-1077.000
273.131;  -71.125; -419.000; -459.000
273.272;  -80.300; -683.000; -723.000
273.412;    7.450; -143.000;  -31.000
273.553;  -69.050; -488.000; -507.000
273.693;  101.700;  913.000;  858.000
273.834; -114.200; -894.000; -692.000
273.974;  -71.675; -664.000; -615.000
274.114; -101.800; -772.000; -560.000
274.255;   59.975;  414.000;  373.000
274.395;  -35.625; -180.000; -125.000
274.535;   26.975;  199.000;  350.000
274.676;   17.125;  225.000;   94.000
274.816;   17.000;  110.000;   34.000
274.956;  -81.775; -624.000; -690.000
275.097; -103.375;-1014.000; -922.000
275.237; -126.500; -913.000; -803.000
275.377;  -99.775; -778.000; -689.000
275.517; -130.800; -878.000; -937.000
275.658;  -64.775; -590.000; -555.000
275.798;  -83.275; -606.000; -413.000
275.938;   17.925;  215.000;  323.000
276.078;  -86.375; -626.000; -395.000
276.218;   -1.200;   99.000;  104.000
276.359; -132.325;-1026.000;-1024.000
276.499;  -68.150; -605.000; -446.000
276.639;  -35.050; -305.000; -151.000
276.779;  -50.350; -475.000; -357.000
276.919;  -92.275; -783.000; -624.000
277.059;  -22.475; -261.000; -212.000
277.199;  -44.475; -357.000; -259.000
277.340;   41.925;  287.000;  175.000
277.480;  -96.075; -840.000; -693.000
277.620;   28.775;  192.000;   16.000
277.760; -180.225;-1533.000;-1294.000
277.900;   14.475;  113.000;   33.000
278.040;    2.125;  137.000;  159.000
278.180;   32.500;  270.000;  170.000
278.320;   -7.125;   21.000;   56.000
278.460;  -56.250; -443.000; -469.000
278.600;  -91.600; -708.000; -598.000
278.740;   59.625;  448.000;  224.000
278.880; -107.125; -768.000; -791.000
279.020;  -19.525; -194.000; -144.000
279.160; -103.075; -672.000; -595.000
279.300; -103.975; -926.000; -873.000
279.440;  -81.725; -709.000; -622.000
279.579;  -85.825;-1014.000; -929.000
279.719;  -61.375; -410.000; -394.000
279.859;   31.875;   -4.000;   41.000
279.999;  -13.150; -208.000;  101.000
280.139;  -36.425; -435.000; -387.000
280.279;  -93.350; -708.000; -745.000
280.419;  -22.000; -229.000; -147.000
280.559;  -30.475; -259.000; -180.000
280.698;  -80.750; -790.000; -639.000
280.838;  -99.375; -778.000; -800.000
280.978;  -87.100; -846.000; -790.000
281.118; -105.475; -811.000; -704.000
281.257;   18.175;   24.000;    6.000
281.397; -141.475;-1094.000; -960.000
281.537;  -76.125; -599.000; -712.000
281.677;  -15.525; -150.000; -101.000
281.816;  -79.700; -700.000; -630.000
281.956;  -14.350; -193.000; -257.000
282.096;  -33.525; -539.000; -396.000
282.235;  -83.325; -672.000; -638.000
282.375;    7.250; -243.000;  -98.000
282.515;  -74.375; -715.000; -707.000
282.654;   37.850;   29.000;  106.000
282.794;   65.375;  388.000;  244.000
282.934;  -28.700; -530.000; -491.000
283.073;  -93.500;-1030.000; -857.000
283.213;  -36.250; -460.000; -467.000
283.353;  -45.550; -408.000; -349.000
283.492;  -16.950; -264.000; -296.000
283.632;  -35.775; -254.000; -168.000
283.771;  -72.650; -859.000; -730.000
283.911;  -51.650; -369.000; -260.000
284.050;  -90.725; -794.000; -748.000
284.190; -148.650;-1229.000;-1096.000
284.329; -117.100;-1055.000; -964.000
284.469;  -83.600; -516.000; -591.000
284.608;  -49.750; -559.000; -598.000
284.748;  -70.425; -614.000; -570.000
284.887;   14.575;  -87.000;  -20.000
285.027; -110.000; -844.000; -892.000
285.166;  -22.550; -192.000; -249.000
285.306;  -20.000; -116.000;  -33.000
285.445;  -22.750; -229.000; -343.000
285.584;  -88.225; -630.000; -494.000
285.724;  -12.125; -282.000; -322.000
285.863; -102.600; -857.000; -507.000
286.002;  -37.675; -366.000; -276.000
286.142;  -89.175; -715.000; -622.000
286.281;  -65.775; -525.000; -493.000
286.420;  -68.475; -554.000; -417.000
286.560;   99.700;  653.000;  623.000
286.699; -114.650; -958.000; -912.000
286.838;  -74.000; -590.000; -591.000
286.978;  -77.725; -533.000; -537.000
287.117; -117.250;-1085.000; -950.000
287.256;  -39.975; -228.000; -211.000
287.395;  -39.600; -197.000; -378.000
287.535;  -45.500; -370.000; -298.000
287.674;  -61.550; -509.000; -484.000
287.813;   54.450;  661.000;  533.000
287.952; -113.975;-1010.000; -871.000
288.091; -133.175;-1049.000; -915.000
288.231;   22.725;   13.000;   15.000
288.370; -145.850;-1217.000;-1200.000
288.509;  -78.400; -728.000; -645.000
288.648;  -71.900; -770.000; -548.000
288.787;  -19.925; -243.000;  -87.000
288.926;  -69.075; -454.000; -475.000
289.065;  109.850;  859.000;  672.000
289.204;  -45.375; -377.000; -217.000
289.344;  -80.275; -791.000; -690.000
289.483;   14.575;  416.000;  304.000
289.622;  -20.325; -291.000; -149.000
289.761;   -8.150; -309.000; -166.000
289.900;  -88.125; -785.000; -626.000
290.039;  -15.400;  -12.000;  -95.000
290.178;  -32.150; -274.000; -180.000
290.317;  -89.900; -618.000; -479.000
290.456;  -48.325; -463.000; -451.000
290.595; -112.825; -961.000; -833.000
290.734; -114.975; -904.000; -891.000
290.873;  -78.825; -456.000; -420.000
291.011;  -96.425; -833.000; -843.000
291.150;  -99.600; -770.000; -682.000
291.289;  -14.475; -343.000; -110.000
291.428;  -74.450; -599.000; -480.000
291.567;  -41.075; -370.000; -442.000
291.706;   -7.650;  109.000;  154.000
291.845;  -74.675; -597.000; -505.000
291.984; -151.850;-1234.000;-1061.000
292.122;   71.350;  602.000;  582.000
292.261;   50.275;  620.000;  463.000
292.400;    3.950; -144.000;  211.000
292.539; -107.350; -959.000; -813.000
292.678;  -24.200; -325.000; -300.000
292.816; -134.200;-1136.000; -965.000
292.955;  -86.100; -844.000; -684.000
293.094;  -24.050; -173.000; -337.000
293.233;  -38.150; -556.000; -400.000
293.371;  -28.250; -225.000;  -84.000
293.510;  -89.875; -866.000; -780.000
293.649; -118.750; -959.000; -924.000
293.787;  -96.775;-1083.000;-1012.000
293.926;  -20.125; -113.000;  -32.000
294.065;  -38.300; -379.000; -290.000
294.203;   39.200;  298.000;  406.000
294.342;   61.650;   74.000;  156.000
294.481; 5112.800;51180.000; -836.000
294.619;  -20.425; -425.000; -582.000
294.758; -139.700;-1230.000;-1137.000
294.896;   12.625; -125.000;    5.000
295.035; -116.500;-1040.000;-1006.000
295.174; -116.250;-1082.000; -954.000
295.312;  -44.475; -323.000; -203.000
295.451;  -22.550; -307.000; -428.000
295.589;  -75.775; -389.000; -518.000
295.728;   12.675; -292.000; -165.000
295.866;   -1.325;  -36.000;  -51.000
296.005;  -61.350; -584.000; -341.000
296.143;  -55.875; -558.000; -596.000
296.282;  -79.350; -957.000; -881.000
296.420;  -61.975; -657.000; -557.000
296.559;  -46.425; -892.000; -633.000
296.697;  -22.575; -847.000; -665.000
296.835;  -24.625;-1141.000;-1002.000
296.974;   62.225;  -23.000;   39.000
297.112;    7.150; -443.000; -504.000
297.251;  -41.850; -815.000; -755.000
297.389;   14.375; -576.000; -438.000
297.527;   38.925; -145.000;  -83.000
297.666;  -21.675; -486.000; -438.000
297.804;  -47.725; -404.000; -264.000
297.942;    1.225; -136.000; -161.000
298.081;   -5.200; -183.000;   63.000
298.219;   15.100;  -17.000;  -19.000
298.357;  -11.375; -144.000;  -71.000
298.495;  -54.000; -810.000; -812.000
298.634;   17.600;  245.000;  219.000
298.772;  -11.600; -220.000; -338.000
298.910;  -54.200; -309.000; -182.000
299.048;   -9.075; -130.000; -153.000
299.187;  -40.975; -350.000; -250.000
299.325;    5.725;   52.000;  122.000
299.463;  -27.550; -389.000; -299.000
299.601;    2.950; -327.000; -271.000
299.739; -126.850; -908.000; -883.000
299.877;  -76.650; -791.000; -703.000
300.016; -120.975;-1095.000; -935.000
300.154;   29.075;  -19.000; -161.000
300.292;  -37.250; -428.000; -348.000
300.430;  -20.750; -408.000; -291.000
300.568; -118.200; -940.000; -874.000
300.706;  -55.475; -366.000; -469.000
300.844; -124.875;-1108.000; -979.000
300.982;   74.150;  246.000;  282.000
301.120; -123.200; -965.000; -866.000
301.258;  -79.575; -812.000; -705.000
301.396;    6.975;  104.000;  -41.000
301.534;   -6.950; -218.000; -293.000
301.672;  -69.875; -664.000; -521.000
301.810;  -59.725; -613.000; -545.000
301.948;   37.475;   53.000;  149.000
302.086;  151.225; -250.000;  -32.000
302.224;  128.450; -610.000; -585.000
302.362;  -56.375; -558.000; -622.000
302.500;  -89.950; -923.000; -893.000
302.638;   31.775;  128.000;  245.000
302.776;  -43.450; -352.000; -408.000
302.913;   38.050;  447.000;  236.000
303.051;  -41.450;  -86.000;  -23.000
303.189;   22.025;   90.000;  118.000
303.327;  -40.125; -341.000; -256.000
303.465;  -66.325; -832.000; -588.000
303.603; -100.850; -805.000; -604.000
303.740;   53.675;  417.000;  241.000
303.878;  -74.650; -800.000; -759.000
304.016;  -87.100; -915.000; -790.000
304.154; -139.800;-1123.000;-1152.000
304.291;  -56.250; -505.000; -554.000
304.429;    4.950;  102.000;   74.000
304.567; -121.100; -908.000; -893.000
304.705;  -67.175; -408.000; -515.000
304.842;  -37.600; -616.000; -540.000
304.980;   13.300;  215.000;   35.000
305.118;  -22.750; -367.000; -365.000
305.255; -104.800; -945.000; -927.000
305.393;   49.900;  178.000;  239.000
305.531; -131.450;-1173.000; -956.000
305.668;  -70.175; -663.000; -582.000
305.806;  -17.700; -358.000; -439.000
305.943;  -19.850; -629.000; -637.000
306.081;  -12.550; -378.000; -267.000
306.219;  -88.125; -863.000; -748.000
306.356;   34.950;  158.000;   27.000
306.494;  187.025;  981.000;  761.000
306.631;   38.450;  -11.000;  -55.000
306.769;   43.350; -613.000; -485.000
306.906;   37.200; -284.000; -258.000
307.044;   -5.650; -473.000; -488.000
307.181;  -18.500; -410.000; -332.000
307.319;   41.050;  112.000;   87.000
307.456; -140.825;-1191.000;-1153.000
307.594;  -78.250; -980.000; -727.000
307.731;  -22.800; -371.000; -164.000
307.868;   19.150;  -15.000;   20.000
308.006; -106.325; -961.000; -847.000
308.143;  -44.375; -618.000; -330.000
308.281;   43.325;  -37.000; -254.000
308.418;  -35.650; -748.000; -640.000
308.555;  -43.725; -400.000; -250.000
308.693;  -17.675; -577.000; -573.000
308.830;  -63.425; -712.000; -657.000
308.967;   17.000; -215.000;  -95.000
309.105;   37.350; -507.000; -396.000
309.242;   43.825; -468.000; -367.000
309.379;   36.675; -577.000; -655.000
309.517;  -58.925; -936.000; -948.000
309.654;  -35.250; -910.000; -734.000
309.791;  -11.000; -662.000; -580.000
309.928;  -61.400; -977.000; -914.000
310.065;  170.750;  819.000;  697.000
310.203;  -41.175; -825.000; -850.000
310.340;   25.450; -465.000; -321.000
310.477;  -52.250; -412.000; -516.000
310.614;   -7.150; -383.000; -473.000
310.751;  -16.175; -427.000; -518.000
310.889;   28.675;    1.000;   11.000
311.026; -106.000;-1161.000; -939.000
311.163;   -9.275; -386.000; -380.000
311.300;  -22.250; -512.000; -479.000
311.437;  -26.575; -658.000; -619.000
311.574; -107.425;-1226.000; -985.000
311.711;  -37.650; -595.000; -433.000
311.848;   26.850; -380.000; -388.000
311.985;   74.525;  270.000;   93.000
312.122;  -64.300; -932.000; -762.000
312.259;  -40.900; -941.000; -994.000
312.396;   15.600; -508.000; -551.000
312.533;   15.525; -812.000; -790.000
312.670;  -70.250;-1070.000; -898.000
312.807;   57.075; -352.000; -367.000
312.944;   -1.400; -513.000; -611.000
313.081;   56.000; -150.000; -415.000
313.218;  -37.000;-1111.000; -867.000
313.355;   17.100; -531.000; -449.000
313.492;   31.075; -455.000; -292.000
313.629;  149.125;  815.000;  735.000
313.766; -103.400;-1176.000;-1008.000
313.902;   18.425; -186.000;   21.000
314.039;  -20.825; -372.000; -289.000
314.176;   55.350;  286.000;  192.000
314.313;  -42.250; -569.000; -473.000
314.450;  -38.075; -788.000; -684.000
314.587;  -32.525; -468.000; -480.000
314.723;   51.100;  -78.000;  130.000
314.860;   77.450;  318.000;  332.000
314.997;   63.300;  223.000;  142.000
315.134;   10.475; -385.000; -368.000
315.270;    3.650; -480.000; -496.000
315.407;  -87.600;-1094.000; -967.000
315.544;  -20.575; -657.000; -538.000
315.681;  -42.175; -681.000; -565.000
315.817;   60.925; -133.000; -176.000
315.954;   39.550; -613.000; -392.000
316.091;  -93.100;-1045.000;-1023.000
316.227;    1.950;  -71.000; -179.000
316.364;   18.300;   23.000;    6.000
316.500;  -17.450; -113.000; -300.000
316.637;  -13.875; -181.000; -302.000
316.774;  -74.875; -625.000; -358.000
316.910;  -52.350; -598.000; -629.000
317.047;  -49.125; -487.000; -351.000
317.183;  -46.500; -435.000; -566.000
317.320;   47.350; -367.000; -321.000
317.456;   -6.350; -733.000; -805.000
317.593;  -56.300; -598.000; -641.000
317.729;   19.250;  168.000;  -67.000
317.866; -172.050;-1434.000;-1285.000
318.002;  -76.575; -708.000; -948.000
318.139;  -89.900; -883.000; -867.000
318.275;  -88.250;-1003.000; -738.000
318.412;  -64.175; -517.000; -336.000
318.548;  -56.250; -751.000; -720.000
318.685;  -75.500; -985.000; -888.000
318.821;  -77.775; -762.000; -735.000
318.957;  -13.950;   34.000;  -23.000
319.094;   39.875;  297.000;  154.000
319.230;  -85.050; -756.000; -742.000
319.367;   -0.050; -471.000; -520.000
319.503;  -34.925; -538.000; -436.000
319.639;  -67.975; -877.000; -793.000
319.775;  -91.650; -750.000; -685.000
319.912;  -47.000; -424.000; -519.000
320.048;  -80.925;-1184.000;-1184.000
320.184;  107.575;   59.000;   70.000
320.321;  -52.775; -497.000; -467.000
320.457;   84.325;  475.000;  662.000
320.593;  -59.525; -375.000; -382.000
320.729;  -77.150; -732.000; -734.000
320.866;  -53.475; -577.000; -635.000
321.002;  -73.875; -759.000; -809.000
321.138;  -37.325; -135.000; -211.000
321.274;    3.100; -148.000; -115.000
321.410;  -54.225; -585.000; -353.000
321.546;  -82.150;-1011.000; -911.000
321.683;   30.025;  400.000;  185.000
321.819;  -11.450;  -48.000; -117.000
321.955;  -98.475; -743.000; -722.000
322.091;  -53.425; -585.000; -540.000
322.227;  -32.450; -382.000; -202.000
322.363;  -33.750; -320.000; -215.000
322.499;  -43.175; -343.000; -331.000
322.635;   98.425;  636.000;  443.000
322.771;  -19.475; -139.000;   12.000
322.907;   43.525;  129.000;  327.000
323.043;  -37.625; -115.000; -206.000
323.179;  -43.075; -394.000; -363.000
323.315;  -40.950; -401.000; -371.000
323.451;   29.050; -328.000; -236.000
323.587;   56.375;  -60.000;  -77.000
323.723;  -47.275; -682.000; -601.000
323.859;  -12.875; -258.000;  -76.000
323.995;  -44.900; -467.000; -409.000
324.131; -122.950; -967.000; -892.000
324.267;  -23.075; -254.000; -276.000
324.402; -113.625; -960.000; -983.000
324.538;  -29.675; -279.000; -104.000
324.674;   13.550;  164.000;   77.000
324.810;   45.525;  226.000;  308.000
324.946;  -39.500; -810.000; -658.000
325.082;  -59.050; -568.000; -475.000
325.217;  -22.175;  -62.000;   16.000
325.353;  -96.175; -764.000; -659.000
325.489;  -84.575; -540.000; -506.000
325.625;  -57.125; -579.000; -525.000
325.760;   94.450;  517.000;  376.000
325.896;   39.200; -515.000; -702.000
326.032;  -42.475; -403.000; -352.000
326.168;  -54.100; -462.000; -369.000
326.303;  -56.800; -352.000; -461.000
326.439;   11.225; -336.000; -276.000
326.575;  -12.075; -190.000;  -29.000
326.710;    2.325; -156.000;  -30.000
326.846;   -3.700;  146.000;  103.000
326.982;  -76.475; -530.000; -548.000
327.117;  -64.350; -481.000; -442.000
327.253;  -72.550; -745.000; -742.000
327.388; -125.250;-1137.000;-1153.000
327.524;  -58.225; -811.000; -578.000
327.659;  -13.450;  -58.000;  -22.000
327.795;    4.600;   69.000;   45.000
327.931;  -58.650; -723.000; -499.000
328.066;  -25.400; -417.000; -276.000
328.202;  -26.225;   12.000; -129.000
328.337;   99.875;  957.000;  713.000
328.473;   48.200;  -12.000;  -74.000
328.608;    2.050; -256.000; -267.000
328.743;  -94.750; -799.000; -664.000
328.879;   29.325;  214.000;  114.000
329.014;   -2.175; -102.000; -122.000
329.150;  -74.000; -358.000; -483.000
329.285;  -65.325; -465.000; -466.000
329.421;  -11.700; -548.000; -246.000
329.556;   11.050;  -36.000;   85.000
329.691;  -61.875; -633.000; -615.000
329.827;  -53.950; -626.000; -480.000
329.962;   -7.400;  131.000; -301.000
330.097;  -45.400; -673.000; -585.000
330.233;  -16.700; -410.000; -223.000
330.368; -103.150; -839.000; -628.000
330.503;   -0.425;    3.000;   98.000
330.638;   -5.975;  -93.000; -125.000
330.774;  -65.050; -609.000; -530.000
330.909;  -40.550; -434.000; -244.000
331.044;  -71.350; -714.000; -708.000
331.179; -151.600;-1217.000;-1109.000
331.315;    6.275;   77.000;   20.000
331.450;   21.525;  157.000;  285.000
331.585;  -75.025; -805.000; -706.000
331.720;  -54.300; -510.000; -460.000
331.855;   14.175;  -35.000; -102.000
331.990;  425.100;   62.000;  138.000
332.126;  227.100; -110.000;   71.000
332.261;   21.825; -379.000; -265.000
332.396;   30.025; -135.000; -242.000
332.531;  -48.075;-1074.000;-1031.000
332.666;  105.050; -519.000; -363.000
332.801;  -80.975; -726.000; -807.000
332.936;  -18.550; -192.000; -122.000
333.071; -115.650; -870.000; -817.000
333.206;   29.700;  307.000;  379.000
333.341;   32.625;  344.000;  418.000
333.476;  -75.475; -627.000; -623.000
333.611;  -43.950; -251.000; -173.000
333.746;  -38.000; -381.000; -464.000
333.881; -119.100; -973.000; -935.000
334.016; -115.475; -936.000; -917.000
334.151; -113.175; -746.000; -702.000
334.286;   14.625;  152.000;  186.000
334.421;  -11.300; -125.000; -178.000
334.556;  -68.325; -611.000; -567.000
334.690;  -95.250; -631.000; -577.000
334.825;   58.150;  381.000;   83.000
334.960;  -51.400; -285.000; -413.000
335.095;    5.000;  135.000;  -91.000
335.230;  -81.925; -722.000; -738.000
335.365; -111.925;-1084.000; -990.000
335.499; -130.750;-1108.000;-1037.000
335.634;   16.275;    9.000;  534.000
335.769;  -84.775; -755.000; -720.000
335.904;  -43.825; -603.000; -561.000
336.038;  -31.075; -735.000; -657.000
336.173;  -97.725;-1206.000;-1194.000
336.308;   18.700; -116.000; -189.000
336.443;   53.775; -544.000; -634.000
336.577;  -42.075; -936.000; -787.000
336.712;   81.325;   -4.000;  -12.000
336.847;  -23.900; -724.000; -607.000
336.981;   44.775; -272.000; -208.000
337.116;  255.050;  615.000;  501.000
337.250;  108.825; -434.000; -421.000
337.385;  467.600; -297.000; -208.000
337.520;  255.800; -632.000; -603.000
337.654;  -24.650; -215.000; -126.000
337.789; -104.000; -989.000; -933.000
337.923;  -29.100; -104.000; -205.000
338.058;  -90.050; -673.000; -738.000
338.192;  -45.850; -611.000; -488.000
338.327;    2.225;  -18.000; -155.000
338.461;  -55.775; -299.000; -469.000
338.596;  -77.950; -780.000; -638.000
338.730;  -74.675; -767.000; -803.000
338.865;  196.625;  -46.000; -140.000
338.999;   15.625; -846.000; -702.000
339.134;   29.600; -634.000; -536.000
339.268;   43.200; -741.000; -603.000
339.403;  605.900; -740.000; -775.000
339.537;  300.475; -894.000; -820.000
339.671;  -79.075; -829.000; -813.000
339.806;   -4.500; -556.000; -512.000
339.940;   52.150; -261.000; -235.000
340.074;  -86.550; -685.000; -510.000
340.209;  -42.125; -351.000; -230.000
340.343;  -68.200; -517.000; -573.000
340.477;  140.800;  998.000; 1036.000
340.612;   17.100;-1033.000; -900.000
340.746;  253.150; -199.000; -243.000
340.880;  -92.225; -924.000; -785.000
341.014;  -13.800;  -45.000; -154.000
341.149;  -91.025; -756.000; -718.000
341.283;  -88.825; -839.000; -754.000
341.417; -120.150;-1124.000; -938.000
341.551;  -31.850; -768.000; -708.000
341.685;  -76.025; -633.000; -611.000
341.820;  -37.450; -562.000; -493.000
341.954;  -47.550; -218.000; -349.000
342.088; -129.875;-1102.000;-1019.000
342.222;   46.150;  565.000;  618.000
342.356;  -59.975; -395.000; -335.000
342.490; -103.750; -880.000; -841.000
342.624;  -43.675; -339.000; -242.000
342.758;  -61.225; -364.000; -312.000
342.892;  -93.475; -710.000; -585.000
343.026;  -34.900;  -58.000; -116.000
343.160;  -43.775; -426.000; -376.000
343.294;  -76.975; -474.000; -337.000
343.428;  -60.800; -488.000; -448.000
343.562;  -31.450; -172.000;  -23.000
343.696;  -29.250; -385.000; -314.000
343.830;  -51.200; -362.000; -356.000
343.964;  -16.300; -231.000; -168.000
344.098;  210.350;  199.000;   70.000
344.232;  169.200; -266.000; -127.000
344.366;   72.225; -567.000; -453.000
344.500;  -48.125; -665.000; -744.000
344.634;  -28.675; -324.000; -164.000
344.768;  -51.000; -531.000; -341.000
344.902;   10.825;  278.000;  256.000
345.035;  -63.750; -556.000; -496.000
345.169; -131.275; -933.000; -656.000
345.303;  -33.075; -308.000; -482.000
345.437;  -91.800; -826.000; -717.000
345.571;  -48.075; -675.000; -594.000
345.704;  -62.525; -309.000; -532.000
345.838;  -14.775; -331.000; -284.000
345.972;  -69.400; -543.000; -495.000
346.106;  257.600; -179.000; -190.000
346.239;  484.025; -312.000; -243.000
346.373;    9.550; -343.000; -302.000
346.507; -126.650; -950.000; -962.000
346.640;   26.725;  -30.000;   13.000
346.774;  -86.375; -650.000; -797.000
346.908;   -1.400; -138.000;  -11.000
347.041;  -97.575; -646.000; -593.000
347.175;   11.400;  259.000;   27.000
347.309;  -91.300; -698.000; -628.000
347.442;  -98.325; -883.000; -732.000
347.576;  122.200;  670.000;  668.000
347.709;   54.475; -123.000;  -52.000
347.843; -104.675; -933.000; -825.000
347.976;   44.075;  235.000;  294.000
348.110; -149.250;-1268.000;-1186.000
348.243;  -77.100; -679.000; -772.000
348.377;   34.175;  -26.000;   60.000
348.510;   82.850;  403.000;  540.000
348.644;  -29.575;  -37.000; -159.000
348.777;    4.725;  180.000;  191.000
348.911;  -35.550; -142.000; -112.000
349.044;   90.825;  471.000;  448.000
349.178;  -49.725;-1069.000;-1006.000
349.311;  122.400;  141.000;  255.000
349.444;   47.025; -927.000; -813.000
349.578;   -2.400; -347.000; -200.000
349.711; -103.350; -959.000; -862.000
349.845;  -64.950; -661.000; -591.000
349.978; -140.325;-1224.000;-1137.000
350.111;  -78.275; -546.000; -612.000
350.244;  -87.825; -596.000; -700.000
350.378;  -48.650; -392.000; -393.000
350.511;  -68.275; -393.000; -426.000
350.644;  -70.325; -808.000; -806.000
350.778;   31.575;  168.000;  104.000
350.911;    4.975;  134.000;  140.000
351.044;  -84.200; -685.000; -615.000
351.177;  -32.375; -321.000; -281.000
351.310;  -15.125;    3.000; -131.000
351.444;  -75.900; -888.000; -788.000
351.577;   36.300;  140.000;   90.000
351.710;   86.700;  593.000;  417.000
351.843;  -36.575; -165.000;  -77.000
351.976;  -11.000;  149.000;  -79.000
352.109;  -87.975; -621.000; -612.000
352.242;  -38.100; -464.000; -419.000
352.376;  -80.725; -580.000; -636.000
352.509;    3.725; -437.000; -356.000
352.642;  -97.575; -654.000; -604.000
352.775;   -3.725; -141.000;  -98.000
352.908; -118.800; -933.000; -904.000
353.041;  -99.625; -814.000; -824.000
353.174;  -56.850; -551.000; -424.000
353.307;  -82.675; -753.000; -764.000
353.440;   68.525;  541.000;  453.000
353.573;  -90.800; -957.000;-1008.000
353.706;  -50.450; -384.000; -558.000
353.839;  -15.050; -264.000; -220.000
353.971;  -98.900; -657.000; -512.000
354.104;  -94.550; -896.000; -835.000
354.237;  -80.475; -627.000; -662.000
354.370;  -98.300; -846.000; -879.000
354.503; -166.000;-1231.000;-1308.000
354.636;  -19.525; -529.000; -348.000
354.769;  -94.350; -937.000; -860.000
354.902;  -13.350; -230.000; -139.000
355.034;   -9.200; -164.000; -220.000
355.167;   11.175; -262.000; -162.000
355.300;  -62.400;-1061.000; -880.000
355.433; 1521.350;  -71.000;  -14.000
355.565; 2376.400; -402.000; -384.000
355.698;  643.850; -356.000; -296.000
355.831;   -4.700; -882.000; -801.000
355.964;   29.250; -285.000; -170.000
356.096;  -49.450; -856.000; -843.000
356.229;   28.525; -523.000; -530.000
356.362;  554.625; -373.000; -266.000
356.494;  964.750; -229.000; -162.000
356.627;  325.350;  269.000;  377.000
356.760;  928.675;  120.000;   53.000
356.892; 1549.975; -286.000; -601.000
357.025;  331.150;  403.000;  389.000
357.157;  226.800; -167.000; -179.000
357.290; 1220.750; -856.000; -713.000
357.423;  393.875; -667.000; -556.000
357.555;  101.000; -217.000; -228.000
357.688;  104.925; -483.000; -364.000
357.820;   98.550; -870.000; -877.000
357.953;  915.250; -563.000; -589.000
358.085;  143.175; -632.000; -612.000
358.218;   75.375;-1131.000; -932.000
358.350;   70.450;  -58.000;  312.000
358.483; -140.600;-1300.000;-1187.000
358.615; -112.100;-1182.000;-1078.000
358.747; -132.275;-1187.000;-1058.000
358.880;  -36.450; -810.000; -744.000
359.012;  -27.425; -376.000; -202.000
359.145;  -41.625; -480.000; -511.000
359.277;  -84.050; -962.000; -913.000
359.409;  800.600;  536.000;  231.000
359.542;  124.000; -738.000; -688.000
359.674;   19.700;   46.000;   13.000
359.806;  -53.650; -565.000; -438.000
359.939;  -25.600; -617.000; -516.000
360.071;   58.700; -583.000; -579.000
360.203;   -3.775; -411.000; -364.000
360.335;   34.350;  164.000;  -16.000
360.468;   76.400; -249.000; -307.000
360.600; 1020.050; -547.000; -454.000
360.732; 4272.475; -546.000; -423.000
360.864;  694.825;-1216.000;-1044.000
360.996;   77.600; -516.000; -554.000
361.129;  -39.050; -389.000; -598.000
361.261;    3.800;  110.000; -113.000
361.393;  -35.650; -252.000; -214.000
361.525;   -4.375;   94.000;  244.000
361.657; -101.350; -821.000; -703.000
361.789;  -17.600; -139.000; -155.000
361.921;  -37.200; -642.000; -593.000
362.053;   90.750;  524.000;  541.000
362.185;   18.075;  288.000;   72.000
362.318;  -84.375; -709.000; -705.000
362.450;   39.600;  294.000;  444.000
362.582;  -90.050; -913.000; -870.000
362.714;  -62.175; -353.000; -332.000
362.846;  -66.800; -606.000; -490.000
362.978; -117.175; -941.000; -811.000
363.109;  -10.275; -161.000; -260.000
363.241;  144.775; -739.000; -749.000
363.373;  667.000; -649.000; -564.000
363.505; 1082.500; -186.000;  -91.000
363.637;  274.075; -787.000; -601.000
363.769; -117.050;-1067.000;-1080.000
363.901;  -66.800; -596.000; -654.000
364.033; -152.150;-1103.000;-1062.000
364.165;  -15.975; -283.000; -283.000
364.296;  109.275; -316.000; -177.000
364.428;  238.275;-1344.000;-1220.000
364.560;  -47.475; -679.000; -661.000
364.692;  -50.450; -738.000; -835.000
364.824;   -6.250; -588.000; -456.000
364.955;  508.550; -402.000; -564.000
365.087; 1775.900;-1097.000; -852.000
365.219;  146.075; -686.000; -816.000
365.351;  -57.825; -526.000; -572.000
365.482;   26.075;  300.000;  240.000
365.614;  -53.825; -402.000; -314.000
365.746;  -99.850; -729.000; -752.000
365.877;  -81.300; -706.000; -672.000
366.009;  440.000;  -35.000;  -62.000
366.141;   -0.750;-1249.000;-1134.000
366.272;  -75.075; -803.000; -719.000
366.404;  -93.150;-1005.000; -874.000
366.535;   -0.800; -139.000;  -12.000
366.667;  -92.975; -644.000; -649.000
366.799;   39.750;  353.000;  203.000
366.930; -114.800; -862.000; -996.000
367.062;  231.425; -639.000; -613.000
367.193;  382.200; -872.000; -842.000
367.325;  -26.925; -580.000; -684.000
367.456;   11.325; -246.000;   31.000
367.588;  292.625; -371.000; -318.000
367.719;   55.300;  -44.000;  -45.000
367.851;  -32.925; -222.000; -241.000
367.982;  -94.675; -875.000; -732.000
368.113;  -17.075; -475.000; -358.000
368.245; -127.550; -960.000; -841.000
368.376;  -22.575; -254.000; -302.000
368.508;  -42.825; -188.000; -263.000
368.639; -125.725;-1166.000;-1034.000
368.770;  -81.550; -670.000; -589.000
368.902;  -83.925; -836.000; -926.000
369.033; -115.025; -906.000; -855.000
369.164;    0.225; -720.000; -653.000
369.296;  -84.575; -452.000; -601.000
369.427;   -9.950; -209.000; -144.000
369.558;  -46.975; -593.000; -377.000
369.689;  -57.250; -721.000; -569.000
369.821; -123.425; -951.000; -845.000
369.952;   -3.550;   42.000; -108.000
370.083;  -36.575; -229.000; -108.000
370.214;  -77.375; -735.000; -650.000
370.345;   -5.875;   65.000;   81.000
370.477;  -89.625; -810.000; -790.000
370.608;   10.850; -328.000; -264.000
370.739; -109.850;-1233.000;-1292.000
370.870;  -96.075;-1102.000; -923.000
371.001;  -15.475; -378.000; -467.000
371.132;  -85.650; -754.000; -735.000
371.263;  -24.750;  -42.000; -148.000
371.394; -121.275; -841.000; -748.000
371.525;   34.025;  345.000;  225.000
371.657; -116.150; -808.000; -670.000
371.788;   32.600;  103.000;  199.000
371.919;   23.025; -384.000; -304.000
372.050;  841.525;  -91.000; -156.000
372.181;  248.725; -188.000; -294.000
372.311;   58.475;   42.000; -127.000
372.442;  -52.775; -457.000; -451.000
372.573;  -35.475; -444.000; -340.000
372.704; -128.250;-1008.000; -980.000
372.835;  -27.175; -228.000; -289.000
372.966;  -63.500; -646.000; -554.000
373.097;  -82.300; -575.000; -711.000
373.228;  -87.050; -717.000; -542.000
373.359;  -47.400; -824.000; -536.000
373.490;   90.650; -881.000; -727.000
373.620;  135.375;-1001.000; -803.000
373.751;  334.575; -332.000; -396.000
373.882;  152.475; -663.000; -733.000
374.013;  -27.725; -449.000; -262.000
374.143;  -77.625; -581.000; -659.000
374.274; -117.775; -987.000; -908.000
374.405;   55.575; -388.000; -276.000
374.536;   61.275; -526.000; -387.000
374.666;  164.925; -759.000; -807.000
374.797;  -42.675; -817.000; -868.000
374.928;   91.075; -710.000; -560.000
375.058;  108.150; -535.000; -500.000
375.189;    6.050;  -59.000;  -93.000
375.320; -117.875; -928.000;-1034.000
375.450;  -53.250; -625.000; -616.000
375.581;  -37.400; -526.000; -436.000
375.712;  -51.350; -574.000; -250.000
375.842;  -19.250; -438.000; -415.000
375.973;  -25.150; -554.000; -513.000
376.103;  -99.150; -665.000; -648.000
376.234;  -69.800; -531.000; -552.000
376.364; -112.475; -944.000; -867.000
376.495;  155.225;  925.000;  529.000
376.625;  -47.600; -472.000; -485.000
376.756;  -43.125; -709.000; -678.000
376.886; -127.275;-1178.000;-1026.000
377.017;  174.750;-1048.000;-1061.000
377.147;  709.325; -786.000; -782.000
377.278;  123.150;  174.000;  228.000
377.408;  -97.375; -801.000; -815.000
377.538;  -75.150; -707.000; -693.000
377.669;  -69.875; -537.000; -613.000
377.799;  -79.850; -645.000; -635.000
377.929;  -80.350; -610.000; -428.000
378.060;  -98.975; -781.000; -847.000
378.190;   -8.025; -726.000; -531.000
378.320;  -13.850; -401.000; -406.000
378.451;   -4.775; -131.000;  -22.000
378.581;    6.925;  -67.000; -110.000
378.711;  122.225; 1035.000;  866.000
378.841;  -58.250; -533.000; -675.000
378.972; -110.875; -871.000; -751.000
379.102;  -46.250; -652.000; -579.000
379.232;  -22.600; -126.000;  -73.000
379.362; -105.475;-1001.000; -885.000
379.492;  -38.575; -373.000; -424.000
379.623;   51.250;    0.000;  111.000
379.753; -102.475;-1107.000; -974.000
379.883;   69.900;   59.000;  156.000
380.013;  -92.975;-1081.000;-1017.000
380.143; -106.625;-1097.000;-1056.000
380.273;  -94.850; -985.000; -861.000
380.403;   26.175; -344.000; -257.000
380.533;  -43.400; -651.000; -664.000
380.663;   42.925;  173.000;  128.000
380.793; -118.575;-1027.000;-1074.000
380.923;    2.100; -103.000;  -34.000
381.053;  -67.650; -613.000; -623.000
381.183;   -6.300; -106.000; -248.000
381.313;  -35.975; -656.000; -470.000
381.443;  -21.800; -692.000; -473.000
381.573;  -16.750; -402.000; -409.000
381.703;  -62.075;-1249.000;-1095.000
381.833; -151.325;-1454.000;-1336.000
381.963;   42.375; -134.000;  -87.000
382.093;  244.775; -925.000; -909.000
382.223;   69.550; -713.000; -602.000
382.353;  -69.150; -801.000; -608.000
382.482;  -11.000;-1091.000; -964.000
382.612;  117.575; -872.000; -644.000
382.742;   57.175; -695.000; -622.000
382.872;  -24.250; -565.000; -551.000
383.002;   33.800;  347.000; -132.000
383.131;   -9.125; -226.000; -160.000
383.261;  -15.450; -706.000; -768.000
383.391;  336.450; -552.000; -377.000
383.521; 5132.275;  451.000;  263.000
383.650; 1625.475; -947.000; -904.000
383.780;   74.950; -783.000; -656.000
383.910;  120.400;  880.000;  802.000
384.039;  -73.725; -794.000; -656.000
384.169;  -90.400;-1205.000;-1017.000
384.299;  -66.800; -650.000; -662.000
384.428;  -96.275; -764.000; -680.000
384.558;  -43.300; -308.000; -275.000
384.687;  -35.250; -414.000; -334.000
384.817;   10.575;   75.000;   -2.000
384.947;   -4.275; -234.000; -141.000
385.076;  178.175;  982.000;  912.000
385.206;   66.300;  369.000;  480.000
385.335;  -37.975; -549.000; -417.000
385.465;  -81.000; -655.000; -663.000
385.594;   30.375;  -53.000;  -44.000
385.724;   -1.825; -868.000; -838.000
385.853;   18.375; -296.000; -270.000
385.982;  195.225; -743.000; -787.000
386.112;  416.600;-1052.000; -871.000
386.241;    5.625; -307.000; -312.000
386.371;   -3.850; -174.000;  -87.000
386.500;  -59.200; -825.000; -789.000
386.629;    9.250; -874.000; -817.000
386.759;   88.100;  -43.000;   68.000
386.888;    8.050; -170.000; -250.000
387.017;  -72.625; -648.000; -620.000
387.147;  -73.750; -771.000; -798.000
387.276;  -24.425; -410.000; -397.000
387.405;  -26.000; -398.000; -342.000
387.535;  -66.025; -452.000; -361.000
387.664;  -44.600; -692.000; -620.000
387.793;  -16.900; -198.000; -113.000
387.922;  154.275;  255.000;  200.000
388.052;  -30.650; -576.000; -423.000
388.181;  -37.000; -342.000; -472.000
388.310;  -68.450; -889.000; -710.000
388.439;  -74.375; -749.000; -742.000
388.568;   47.775;  365.000;  244.000
388.697;  142.675; -756.000; -653.000
388.826;  -21.275; -768.000; -666.000
388.956;   -2.475; -285.000; -307.000
389.085;  -36.875; -347.000; -287.000
389.214;  -74.575; -842.000; -872.000
389.343;  -53.125; -645.000; -413.000
389.472;  592.675;  126.000;  149.000
389.601;  675.925;   91.000;    0.000
389.730;   26.100; -568.000; -687.000
389.859;   48.900;  226.000;   46.000
389.988;   49.900; -423.000; -408.000
390.117;   39.400; -168.000; -146.000
390.246;  -12.725; -331.000; -320.000
390.375;  -37.900; -673.000; -626.000
390.504;  -54.475; -703.000; -621.000
390.633;  -79.425; -672.000; -726.000
390.761;  -66.700; -732.000; -645.000
390.890;   22.925;   -4.000; -130.000
391.019;  -14.550; -421.000; -441.000
391.148;  -84.800; -826.000; -855.000
391.277;  -48.175; -576.000; -493.000
391.406;  -82.200; -821.000; -805.000
391.534;   33.125;  574.000; -301.000
391.663;  -51.775; -583.000; -645.000
391.792;  -63.250; -673.000; -701.000
391.921;    2.475;   -3.000;   15.000
392.050;   18.050; -287.000; -228.000
392.178; -119.275;-1206.000;-1061.000
392.307;  -28.150; -758.000; -712.000
392.436;  -37.075; -427.000; -641.000
392.564;   27.475;  166.000;   -6.000
392.693;  -68.750; -860.000; -682.000
392.822;   14.425; -529.000; -534.000
392.950;  -28.475; -880.000; -714.000
393.079;   45.275; -188.000; -328.000
393.208;  -35.475; -488.000; -511.000
393.336;    6.975; -170.000; -145.000
393.465;  -15.175; -317.000; -199.000
393.593;   33.250;   62.000;   79.000
393.722; -123.725;-1121.000; -916.000
393.850;    3.575; -188.000;  -61.000
393.979; -117.325; -926.000; -805.000
394.107;  -27.300; -517.000; -537.000
394.236;  -15.675; -570.000; -507.000
394.364;  118.625;  383.000;  206.000
394.493;   44.725; -911.000; -767.000
394.621;   50.150; -955.000; -916.000
394.750; 1250.825; -873.000; -923.000
394.878; 4666.075; -247.000; -149.000
395.007; 6976.950; -721.000; -807.000
395.135;  680.825; -790.000; -721.000
395.263;  -21.450;-1038.000;-1040.000
395.392;   42.850;  -25.000; -107.000
395.520; -117.775; -818.000; -679.000
395.648;  -96.850; -865.000; -915.000
395.777;  -62.575; -366.000; -405.000
395.905;  -62.425; -449.000; -564.000
396.033;    4.725;  217.000;  172.000
396.162;   26.050; -399.000; -453.000
396.290;   47.075;  -17.000;   -2.000
396.418;  -35.075; -555.000; -514.000
396.546;  -76.925; -571.000; -466.000
396.674; -107.950; -850.000; -878.000
396.803;  -13.300;  -72.000;  -23.000
396.931;  -10.825; -179.000; -199.000
397.059; -128.225;-1026.000; -989.000
397.187; -138.200;-1026.000; -975.000
397.315; -106.300; -884.000; -649.000
397.443;  -88.325; -592.000; -443.000
397.572;  -82.525; -578.000; -424.000
397.700;  -74.050; -607.000; -614.000
397.828;  -48.075;  120.000;  -90.000
397.956;  -18.750; -508.000; -478.000
398.084;  -11.050; -767.000; -626.000
398.212;   10.150;  137.000;  124.000
398.340;  -23.025;  -56.000;  159.000
398.468;  -44.300; -390.000; -169.000
398.596; -131.700; -993.000; -953.000
398.724; -109.950; -762.000; -767.000
398.852; -154.400;-1024.000; -976.000
398.980;  -84.175; -560.000; -560.000
399.108;  -96.275; -982.000; -735.000
399.236;   -7.500;   13.000;    8.000
399.363;   -7.300;  222.000;  196.000
399.491;  -42.725; -404.000; -398.000
399.619; -102.900; -829.000; -800.000
399.747; -103.900; -859.000; -771.000
399.875;   22.200;  220.000;  234.000
400.003;  -68.650; -359.000; -284.000
400.130;  -94.700; -421.000; -341.000
400.258;  -33.100;  -83.000;   38.000
400.386;  -45.400; -352.000; -168.000
400.514;  -82.000; -526.000; -587.000
400.641; -130.975; -928.000; -802.000
400.769; -131.475; -979.000; -888.000
400.897; -111.325; -838.000; -793.000
401.025;  -20.275; -166.000; -152.000
401.152;    9.800;  220.000;   38.000
401.280;  -69.400; -430.000; -429.000
401.408; -103.575; -712.000; -576.000
401.535;  -88.425; -735.000; -758.000
401.663; -179.025;-1134.000;-1054.000
401.790;  -75.925; -514.000; -525.000
401.918;   46.250;  436.000;  405.000
402.046;   -7.000;  134.000;  122.000
402.173;  -17.650;  -18.000;    7.000
402.301;  -38.300; -519.000; -397.000
402.428;   50.225;  528.000;  383.000
402.556; -126.750;-1188.000; -913.000
402.683;  -18.550;  -20.000;   -1.000
402.811;   10.100;  -37.000; -206.000
402.938;    4.725;   20.000;   27.000
403.066;    1.900; -574.000; -558.000
403.193;   86.425;  299.000;  239.000
403.321;   56.000; -396.000; -574.000
403.448;  117.500;   83.000;   27.000
403.575;   77.025;  -90.000;  -46.000
403.703;  -51.600; -732.000; -557.000
403.830;  -16.450; -531.000; -496.000
403.957;  -81.200;-1117.000;-1023.000
404.085;   65.625;  -61.000; -172.000
404.212;  160.975;  -50.000;   63.000
404.339;  520.675; -566.000; -306.000
404.467; 9437.800; -612.000; -524.000
404.594; 5913.000; -287.000; -227.000
404.721; 1046.900; -869.000; -764.000
404.848;  157.075; -113.000; -202.000
404.976;  -67.550; -856.000; -783.000
405.103;   24.350;  -14.000;  -82.000
405.230;   39.600;  190.000;  226.000
405.357;   97.000;  117.000;   44.000
405.484;  463.275;  -49.000;    5.000
405.612;  160.975; -548.000; -563.000
405.739;  -21.850; -488.000; -243.000
405.866;   94.100;  669.000;  385.000
405.993;  -44.500; -398.000; -102.000
406.120; -113.275; -801.000; -887.000
406.247;  -59.525; -323.000; -342.000
406.374;  130.400;  540.000;  629.000
406.501;  -70.525; -632.000; -702.000
406.628;  -70.100; -621.000; -589.000
406.755;  -98.250; -803.000; -620.000
406.882;  -30.625; -228.000; -277.000
407.009;  -95.600; -719.000; -628.000
407.136;  -15.825; -480.000; -401.000
407.263;    1.100; -939.000; -829.000
407.390;  -59.475; -692.000; -614.000
407.517; -153.500;-1139.000;-1187.000
407.644;  -50.775; -332.000; -256.000
407.771;  -58.525; -249.000; -287.000
407.898;   19.900;  168.000;  328.000
408.025;  -48.750; -421.000; -313.000
408.151;   22.850;   82.000;  153.000
408.278;  -44.950; -267.000; -216.000
408.405; -109.475; -931.000; -899.000
408.532;  -69.225; -549.000; -542.000
408.659;  -97.125; -677.000; -648.000
408.785; -164.500;-1298.000;-1170.000
408.912;  -33.675; -412.000; -296.000
409.039;  -94.600; -610.000; -686.000
409.166;  -80.100; -591.000; -555.000
409.292;  -84.775; -571.000; -534.000
409.419;  -93.125; -665.000; -649.000
409.546;  -88.025; -431.000; -192.000
409.672;  -89.500; -713.000; -545.000
409.799;  -26.125;  -36.000;   34.000
409.926;  -23.575; -180.000; -179.000
410.052; -164.300;-1127.000;-1091.000
410.179;  -59.425; -368.000; -392.000
410.305;  -69.500; -375.000; -493.000
410.432;    1.825; -220.000; -333.000
410.558;  -72.975; -305.000; -380.000
410.685;  -75.750; -688.000; -431.000
410.812;  -78.350; -409.000; -588.000
410.938; -118.575; -964.000; -808.000
411.065;  -95.925; -671.000; -645.000
411.191;  -22.525; -189.000; -174.000
411.317; -113.800; -823.000; -742.000
411.444;  -37.625; -317.000; -246.000
411.570;  -68.500; -339.000; -294.000
411.697; -104.300; -758.000; -752.000
411.823; -158.550; -989.000; -999.000
411.949;  -35.400;  -56.000;   17.000
412.076;  -99.325; -539.000; -519.000
412.202; -107.975; -758.000; -757.000
412.329; -106.900; -798.000; -752.000
412.455; -104.475; -821.000; -657.000
412.581;  -27.825;  -15.000;  172.000
412.707;  -86.000; -540.000; -457.000
412.834;    1.275;  156.000;  219.000
412.960; -101.250; -785.000; -784.000
413.086; -103.450; -743.000; -701.000
413.212;  139.475;  604.000;  578.000
413.339;  -72.825; -685.000; -701.000
413.465;  -43.300; -364.000; -310.000
413.591;  -93.150; -757.000; -474.000
413.717;  -47.650; -358.000; -366.000
413.843; -134.750; -839.000; -861.000
413.969;  -52.625;  -47.000; -292.000
414.096;  -91.850; -679.000; -679.000
414.222;    9.550;  -33.000;   85.000
414.348;  -77.850; -652.000; -385.000
414.474;   11.150;   38.000;  -52.000
414.600;   -9.650; -126.000; -144.000
414.726;   26.700;  -96.000;  -55.000
414.852;  -26.100; -365.000; -342.000
414.978;   41.075;  104.000;  -18.000
415.104;   79.675;   38.000;   80.000
415.230;   70.950; -329.000; -330.000
415.356;   90.825; -409.000; -514.000
415.482;  244.950;   13.000;  -35.000
415.608;  453.975; -247.000; -323.000
415.734; 1431.225;   67.000;   38.000
415.860;28908.775; -875.000; -767.000
415.986;24538.250; -685.000; -607.000
416.111; 2334.150; -798.000; -652.000
416.237;  552.500; -424.000; -571.000
416.363; 1746.750; -765.000; -733.000
416.489; 7168.625; -324.000; -251.000
416.615; 1047.275; -707.000; -742.000
416.741;  105.925; -677.000; -784.000
416.866;  -22.925; -673.000; -736.000
416.992;  -59.600; -801.000; -818.000
417.118;   14.350;  -41.000;  -80.000
417.244;  -26.800; -798.000; -531.000
417.369;  -38.075; -801.000; -612.000
417.495;   32.150; -325.000; -254.000
417.621;  -50.025;-1015.000; -803.000
417.746;   46.225; -579.000; -572.000
417.872;  110.400; -254.000; -144.000
417.998;  177.100; -515.000; -530.000
418.123; 1624.025;-1073.000; -845.000
418.249; 9076.625; -512.000; -601.000
418.374; 1649.050; -916.000; -824.000
418.500;  288.850; -383.000; -482.000
418.626;  218.900;   70.000;  -59.000
418.751;  210.725; -549.000; -448.000
418.877;  364.250; -637.000; -643.000
419.002; 2715.325; -688.000; -560.000
419.128;20525.525; -930.000; -721.000
419.253; 6065.025; -967.000; -837.000
419.379;  877.850; -391.000; -338.000
419.504;  648.225;  325.000;  415.000
419.629;  904.525; -393.000; -212.000
419.755; 5477.725; -317.000; -254.000
419.880;36244.400;  -98.000;   67.000
420.006;18428.275; -280.000; -221.000
420.131;45775.150; -662.000; -775.000
420.256; 7682.100; -315.000; -316.000
420.382; 1056.600; -665.000; -687.000
420.507;  221.050; -649.000; -778.000
420.632;   81.725; -337.000; -339.000
420.758;   59.225; -251.000; -425.000
420.883;  -71.175; -876.000; -672.000
421.008;  -80.125; -775.000; -619.000
421.133;  -68.075; -509.000; -467.000
421.259;  -12.975; -325.000; -259.000
421.384;  -88.900; -834.000; -693.000
421.509;  -92.525;-1052.000; -862.000
421.634;  108.275; -936.000; -820.000
421.759;   71.525; -359.000; -327.000
421.885;  -68.525; -717.000; -656.000
422.010;  -71.325; -673.000; -542.000
422.135; -128.300; -695.000; -727.000
422.260;   30.600;  340.000;  280.000
422.385;  -23.525;   12.000;  -98.000
422.510;   22.125;  151.000;  -26.000
422.635;  -14.700;  -87.000;  -43.000
422.760;  -12.900; -766.000; -791.000
422.885;   41.600;  -57.000;  -80.000
423.010;   -6.900; -112.000; -169.000
423.135;  -61.600; -481.000; -561.000
423.260;  -16.650; -150.000; -245.000
423.385;   40.800;  476.000;  222.000
423.510;   27.325;   71.000;  -22.000
423.635;   11.250;  133.000;   45.000
423.760;   83.700;  383.000;  328.000
423.885;   31.475;  336.000;  391.000
424.010;   13.250;  -68.000;  -13.000
424.135;  -13.000;    5.000;  -33.000
424.259;  -65.800; -654.000; -457.000
424.384;  -37.175; -279.000; -272.000
424.509;    3.025; -260.000; -186.000
424.634;  -80.325; -761.000; -623.000
424.759;  -24.600; -688.000; -544.000
424.883;   18.100; -506.000; -527.000
425.008;  232.375; -502.000; -410.000
425.133; 2994.025; -679.000; -653.000
425.258; 1690.875; -517.000; -381.000
425.382;  402.425; -867.000; -774.000
425.507;  814.875; -487.000; -543.000
425.632;  368.150; -802.000; -663.000
425.756;  733.800; -256.000; -146.000
425.881;10226.275; -831.000; -857.000
426.006;32309.300; -604.000; -355.000
426.130; 5508.325; -696.000; -508.000
426.255;  759.625; -611.000; -491.000
426.379;  319.575; -189.000; -577.000
426.504;  555.050;  660.000;  544.000
426.629; 5989.775; -519.000; -466.000
426.753; 4850.600;   64.000;  -46.000
426.878;  625.325; -252.000; -288.000
427.002;  360.825; -651.000; -668.000
427.127; 2136.850;  -35.000; -158.000
427.251;18047.175;  372.000;  401.000
427.375; 6077.750; -191.000; -173.000
427.500; 1125.875; -616.000; -610.000
427.624;  322.950; -234.000; -400.000
427.749;  135.800; -216.000; -225.000
427.873;   21.150; -499.000; -412.000
427.997;   -7.725; -222.000; -230.000
428.122;   76.075;  795.000;  703.000
428.246;   48.150;  433.000;  434.000
428.371; -118.200; -869.000; -773.000
428.495;  -82.275; -624.000; -646.000
428.619;  -15.625; -186.000; -117.000
428.743;   27.700;   65.000;  132.000
428.868;  -81.850; -732.000; -643.000
428.992;  305.400; -219.000; -326.000
429.116;  117.200; -329.000; -357.000
429.240;  111.275;  419.000;  426.000
429.365;  -25.425; -454.000; -574.000
429.489;  -25.975; -638.000; -647.000
429.613;   71.050; -236.000; -177.000
429.737;  139.900; -563.000; -432.000
429.861;  433.025; -247.000; -133.000
429.985; 8236.650; -425.000; -305.000
430.109;10845.100; -770.000; -908.000
430.234; 1367.425;   76.000;  -50.000
430.358;  205.250; -250.000; -160.000
430.482;   15.150; -672.000; -564.000
430.606;  -33.350; -655.000; -375.000
430.730;   -3.925; -437.000; -388.000
430.854;  -38.650; -909.000; -835.000
430.978;  -25.100; -795.000; -764.000
431.102;  -33.250; -499.000; -422.000
431.226;  -67.150; -874.000; -815.000
431.350;   59.050;  345.000;  422.000
431.474;  -49.300; -661.000; -373.000
431.597; -126.300;-1060.000; -848.000
431.721;  -41.175; -276.000; -267.000
431.845; -104.125; -704.000; -472.000
431.969;  -54.925; -304.000; -349.000
432.093;  -75.600; -395.000; -317.000
432.217;    2.375;   32.000;   82.000
432.341;  -44.900; -523.000; -518.000
432.464;   13.075;   96.000;   40.000
432.588;    0.325; -401.000; -329.000
432.712;   33.050;  -52.000;  -52.000
432.836;   89.075;  213.000;  263.000
432.959;   70.900; -372.000; -311.000
433.083;  195.025;   11.000;    2.000
433.207;  626.450;  285.000;  930.000
433.330; 7938.700; -391.000; -200.000
433.454;11296.675; -654.000; -638.000
433.578; 6229.925;  583.000;  278.000
433.701; 1402.250; -623.000; -675.000
433.825;  187.150; -292.000; -299.000
433.949;   70.600;   28.000;  -72.000
434.072;   13.675; -410.000; -323.000
434.196;    8.550; -309.000; -117.000
434.319; 3438.975;25482.000;25124.000
434.443;  920.175; -656.000; -603.000
434.566; 4342.750;  281.000;   62.000
434.690; 1010.725; -637.000; -383.000
434.813;  225.350; -251.000; -173.000
434.937;   16.000; -569.000; -696.000
435.060;  -44.950; -423.000; -332.000
435.184;   -3.525; -492.000; -217.000
435.307;   28.425;  159.000;  102.000
435.431;   -5.550;  -40.000;   24.000
435.554;  -53.175; -399.000; -240.000
435.677;  -60.775; -350.000; -258.000
435.801;  -15.500;  -25.000;   49.000
435.924;  -23.875;    1.000;  -67.000
436.048; -133.275;-1019.000; -732.000
436.171;  -56.150; -240.000;  -66.000
436.294;   -2.750; -248.000; -229.000
436.417;  259.300; -963.000; -849.000
436.541;    1.900; -814.000; -840.000
436.664;  -26.025; -242.000; -316.000
436.787;  -16.850;   13.000;  113.000
436.910;  -94.650; -792.000; -422.000
437.034;   12.850;  142.000;  143.000
437.157;   56.700;  -11.000;    0.000
437.280;  -52.325; -392.000; -292.000
437.403; -114.250; -982.000; -869.000
437.526;  -36.450; -903.000; -865.000
437.649;  339.050; -505.000; -332.000
437.772;   -5.950; -692.000; -540.000
437.896;   71.625;  700.000;  544.000
438.019;  -70.950; -758.000; -503.000
438.142;  -74.100; -596.000; -506.000
438.265;  -93.375; -639.000; -670.000
438.388;   17.850; -520.000; -410.000
438.511;  -57.975; -597.000; -394.000
438.634;  -43.750; -247.000; -125.000
438.757; -124.125; -693.000; -619.000
438.880;  -36.300;  -34.000;  -57.000
439.003;  -87.350; -417.000; -437.000
439.126;  -47.725; -287.000; -167.000
439.248;  -49.725;  -98.000; -139.000
439.371;  -24.025;    9.000;  -53.000
439.494;   17.575;  510.000;  439.000
439.617;  -34.900;   65.000;  -88.000
439.740; -162.900; -968.000; -816.000
439.863; -111.550; -755.000; -595.000
439.986;  -97.450; -476.000; -431.000
440.108;   -6.850; -161.000; -112.000
440.231; -138.925; -950.000; -836.000
440.354;  -40.175;  -64.000; -150.000
440.477;  -94.175; -566.000; -542.000
440.599;  -60.525; -200.000; -225.000
440.722; -107.725; -709.000; -586.000
440.845;   73.650;  751.000;  928.000
440.968;  -99.925; -415.000; -311.000
441.090;  -52.150; -199.000;  -33.000
441.213; -170.350;-1021.000; -825.000
441.336;  -31.225; -159.000;   -5.000
441.458;  -86.600; -549.000; -396.000
441.581; -108.925; -628.000; -629.000
441.703;  -73.825; -152.000;   13.000
441.826; -108.100; -557.000; -400.000
441.948;  -46.200;   56.000;   51.000
442.071;   25.525;  555.000;  424.000
442.193; -114.125; -531.000; -485.000
442.316;    8.425;  152.000;   97.000
442.438;   86.700; -233.000;  -10.000
442.561;   95.425;  272.000;  262.000
442.683;   36.325; -809.000; -522.000
442.806;  186.250;   -8.000;   74.000
442.928; -110.350; -859.000; -604.000
443.051;  -70.625; -577.000; -373.000
443.173;  -82.650; -341.000; -339.000
443.295;  -85.350; -263.000; -371.000
443.418;  -75.675; -321.000;  -29.000
443.540;  -33.875; -106.000;   -4.000
443.662; -133.275; -563.000; -465.000
443.785;  -23.525;  335.000;  199.000
443.907; -101.075; -362.000; -208.000
444.029; -114.550; -767.000; -494.000
444.152; -119.575; -644.000; -554.000
444.274;  -31.575;  -18.000;  -24.000
444.396; -109.375; -461.000; -221.000
444.518; -114.600; -691.000; -454.000
444.640;  -89.650; -268.000; -111.000
444.763;   -7.800;  388.000;  249.000
444.885; -101.900; -432.000; -392.000
445.007;  -22.425;   35.000;   86.000
445.129; -120.150; -610.000; -515.000
445.251; -105.100; -372.000; -439.000
445.373; -140.225; -537.000; -386.000
445.495;    7.650;  242.000;  350.000
445.617;   28.950;  853.000;  753.000
445.739;  -67.500; -215.000;  -97.000
445.861;  -70.875; -245.000; -112.000
445.984;  -46.500; -267.000; -101.000
446.105;  -31.425; -418.000; -251.000
446.227;   71.575; -176.000;  -19.000
446.349;  -86.900; -358.000; -249.000
446.471; -111.850; -615.000; -448.000
446.593;  -86.325; -316.000;   19.000
446.715;  -36.725;  -67.000;   41.000
446.837;   40.875;  697.000;  832.000
446.959; -101.200; -457.000; -478.000
447.081; -119.100; -628.000; -518.000
447.203;   57.225;  862.000;  834.000
447.325;  -86.750; -270.000;   42.000
447.446;   15.375;  286.000;  530.000
447.568; -140.975; -921.000; -803.000
447.690;  -84.725; -236.000; -245.000
447.812; -128.125; -798.000; -519.000
447.933;   -9.750;  155.000;  127.000
448.055;  -55.775; -306.000; -261.000
448.177;   43.100;   31.000;   79.000
448.299;  -99.825; -935.000; -727.000
448.420;    5.775;  -25.000;  159.000
448.542;  -37.900;   -3.000;   33.000
448.664;   -6.850;  109.000;  322.000
448.785;  -19.200;  265.000;   83.000
448.907;  -77.550; -614.000; -353.000
449.028;  -85.275; -771.000; -471.000
449.150;   65.125;  492.000;  589.000
449.272; -148.725;-1044.000; -913.000
449.393;   43.225;  612.000;  694.000
449.515; -105.300; -634.000; -581.000
449.636;  -47.325; -264.000; -155.000
449.758;   72.800;  763.000;  622.000
449.879;  -66.600; -498.000; -396.000
450.001;  -55.675; -149.000;  -49.000
450.122;   -6.625;  -95.000;  162.000
450.244;   18.725;   37.000;  364.000
450.365;  -47.125; -495.000; -301.000
450.486;   28.225;   80.000;  268.000
450.608;   74.125;  393.000;  326.000
450.729;  138.925;  578.000;  645.000
450.850;  149.625; -574.000; -466.000
450.972; 1270.500; -552.000; -389.000
451.093; 8328.650;  190.000;  588.000
451.214; 4450.775; -516.000; -337.000
451.336;  783.375;  773.000;  579.000
451.457;  150.800;  264.000;  393.000
451.578;    2.450; -118.000;  -74.000
451.699;  -77.350; -546.000; -540.000
451.821;  -38.675; -284.000;  -50.000
451.942;    9.050;  278.000;  285.000
452.063;   80.800;  228.000;  419.000
452.184;  869.350;  -54.000;  -49.000
452.305; 1856.050;  103.000;  170.000
452.427;  394.800; -549.000; -301.000
452.548;   34.150;   23.000;   79.000
452.669;  -39.575; -257.000;  -89.000
452.790;  -34.375;    3.000;  -18.000
452.911;   -2.200;  195.000;  259.000
453.032;  -57.050; -289.000;  -60.000
453.153;  -24.925;  -29.000;   81.000
453.274;   63.500;  737.000;  868.000
453.395;  -30.075;  -51.000;  175.000
453.516;   97.700; 1317.000; 1388.000
453.637;  -74.900; -205.000; -150.000
453.758;  -40.475;   15.000;   69.000
453.879;  -99.875; -462.000; -250.000
454.000;   88.725; 1086.000;  948.000
454.121;  -97.475; -554.000; -326.000
454.242;  -94.125; -599.000; -383.000
454.362;  -23.750;  -99.000;  114.000
454.483;   44.925; -309.000; -229.000
454.604;  107.575;  512.000;  580.000
454.725; -112.850; -627.000; -555.000
454.846; -110.100; -474.000; -406.000
454.967;   -8.650;  230.000;  539.000
455.087;  -29.275;  179.000;  153.000
455.208;   40.150;  554.000;  856.000
455.329;  -32.750;  -22.000;   82.000
455.450;   84.975;  473.000;  633.000
455.570;  -51.125; -234.000; -211.000
455.691;  -16.325;  201.000;  407.000
455.812;  -72.925; -270.000;  -92.000
455.932;  -39.850;  107.000;  -97.000
456.053;  -62.300;   36.000;   24.000
456.173;  -94.875; -433.000; -355.000
456.294; -106.625; -476.000; -303.000
456.415;  -35.650;  -73.000;   70.000
456.535;  -25.100;  297.000;  273.000
456.656;  -24.375;  132.000;  240.000
456.776;  -51.575;    3.000;  298.000
456.897;    4.000;  308.000;  513.000
457.017;  -48.100; -153.000;   -3.000
457.138;  -81.100; -402.000; -249.000
457.258;  -18.425;  263.000;  224.000
457.379;   -6.900;  509.000;  521.000
457.499;   -0.950;  443.000;  432.000
457.620; -100.225; -407.000; -231.000
457.740;  -72.050; -132.000;  -11.000
457.860;  -26.750;   87.000;   44.000
457.981;  -10.325;  132.000;  124.000
458.101;  -54.300;  -89.000;   40.000
458.221;  -12.650;  336.000;  402.000
458.342;  -31.975;   -4.000;  -37.000
458.462;   54.625;  617.000;  352.000
458.582;   29.525; -302.000; -294.000
458.703;   73.150;  303.000;  154.000
458.823;   37.150;   22.000;  163.000
458.943;   75.900;  341.000;  467.000
459.063;   47.800; 1124.000;  192.000
459.183;  -22.150;  328.000;  313.000
459.304;   24.850;  315.000;  517.000
459.424;  -39.550; -246.000;  -89.000
459.544;  498.050;  388.000;  764.000
459.664; 1386.250;  499.000;  506.000
459.784;  575.825; 1004.000; 1175.000
459.904;   99.350;  867.000;  744.000
460.024;   67.600;  867.000;  684.000
460.144;   -1.225;  449.000;  554.000
460.264;   18.050;  515.000;  327.000
460.385;  -77.725; -145.000; -119.000
460.505;   39.500;  905.000;  858.000
460.625;  -77.475;  -17.000;  -68.000
460.745;   -8.100;  396.000;  541.000
460.864;  -37.425;  153.000;  469.000
460.984;   80.650;  499.000;  573.000
461.104;  165.200; 1656.000; 1775.000
461.224;   44.425;  657.000;  650.000
461.344;  -30.400;  431.000;  360.000
461.464;  -22.825;  258.000;  513.000
461.584;  -30.550;  283.000;  466.000
461.704;  -52.900;   58.000;  108.000
461.824;  -55.475;  238.000;  259.000
461.943;  -37.550;  191.000;  130.000
462.063;  -73.325;    2.000;  324.000
462.183;   24.650;  639.000;  717.000
462.303;   71.625; 1678.000; 1230.000
462.422;   30.525;  781.000;  840.000
462.542;  -36.825;  271.000;  391.000
462.662;   46.550;  353.000;  380.000
462.782;  355.475;  833.000;  572.000
462.901;  817.150;  545.000;  717.000
463.021;  391.550; 1702.000; 1638.000
463.141;   22.025;  337.000;  770.000
463.260;  -22.250;  614.000;  474.000
463.380;   29.475;  902.000;  884.000
463.499;  -17.450;  342.000;  332.000
463.619;  -23.225;  581.000;  559.000
463.738;   95.675; 1644.000;  903.000
463.858;   23.600;  657.000;  811.000
463.978;  -32.775;  542.000;  396.000
464.097;   46.775;  921.000; 1114.000
464.217;  160.800; 1196.000; 1143.000
464.336;  165.350; 1068.000; 1130.000
464.455;  -11.225;  328.000;  659.000
464.575;   20.450;  597.000;  602.000
464.694;  130.050; 1204.000; 1179.000
464.814;  165.175; 1190.000; 1138.000
464.933;   82.300; 1095.000; 1027.000
465.052;   99.500; 1412.000; 1054.000
465.172;   63.150;  922.000;  799.000
465.291;  120.275; 1376.000; 1320.000
465.410;   -1.275;  462.000;  735.000
465.530;   89.825; 1355.000; 1310.000
465.649;   47.275; 1209.000; 1273.000
465.768;  156.950; 1673.000; 1508.000
465.888;   84.375;  941.000; 1174.000
466.007;  111.775; 1335.000; 1440.000
466.126;   23.150;  721.000;  641.000
466.245;   62.425; 1176.000; 1187.000
466.364;   28.725;  950.000; 1060.000
466.484;   75.050; 1024.000; 1213.000
466.603;   53.875; 1101.000; 1222.000
466.722;  113.250; 1490.000; 1769.000
466.841;   64.925; 1151.000; 1401.000
466.960;   39.925; 1069.000;  972.000
467.079;  150.825; 1971.000; 1786.000
467.198;   42.950; 1238.000; 1181.000
467.317;   88.675; 1768.000; 1162.000
467.436;   94.100; 1709.000; 1261.000
467.555;  136.375; 1796.000; 1746.000
467.674;   67.650; 1227.000; 1329.000
467.793;   45.250; 1376.000; 1374.000
467.912;  111.375; 1658.000; 1539.000
468.031;  147.850; 2038.000; 1930.000
468.150;  145.575; 1842.000; 1837.000
468.269;  187.275; 2313.000; 2090.000
468.388;  196.675; 2168.000; 2339.000
468.507;  247.525; 2884.000; 2903.000
468.626;  244.250; 2555.000; 2541.000
468.744;  153.425; 2018.000; 2174.000
468.863;  220.350; 2312.000; 2523.000
468.982;  114.375; 1503.000; 1555.000
469.101;  246.450; 2788.000; 2692.000
469.220;  165.675; 2333.000; 2176.000
469.338;  267.675; 2935.000; 3051.000
469.457;  185.400; 2719.000; 2545.000
469.576;  375.400; 3953.000; 3784.000
469.695;  266.800; 2877.000; 3066.000
469.813;  422.275; 4148.000; 4192.000
469.932;  399.125; 4255.000; 4485.000
470.051;  439.325; 4075.000; 4161.000
470.169; 1071.350; 4470.000; 4338.000
470.288; 2111.975; 4700.000; 4809.000
470.406; 1240.875; 5059.000; 5194.000
470.525;  682.300; 6101.000; 5787.000
470.644;  639.125; 6847.000; 6794.000
470.762;  821.425; 8397.000; 7873.000
470.881;  917.225; 8651.000; 8464.000
470.999; 1086.925; 9685.000; 9151.000
471.118; 1112.325;11174.000;10711.000

