
Integration time [ms]: 100.000
Averaging Nr. [scans]: 40
Smoothing Nr. [pixels]: 0
Data measured with spectrometer [name]: 2101012U2
Wave   ;Sample   ;Dark     ;Reference
[nm]   ;[counts] ;[counts] ;[counts] 

197.733;   60.100;  516.000;  404.000
197.879;  -84.600; -610.000; -634.000
198.025;  -43.375; -475.000; -420.000
198.171;  -70.825; -602.000; -612.000
198.317;  -40.775; -401.000; -316.000
198.463;  -66.450; -655.000; -404.000
198.609;   16.200;  181.000; -137.000
198.755;  -78.650; -644.000; -410.000
198.901;  -59.000; -505.000; -424.000
199.047;  -63.400; -615.000; -488.000
199.193;  -35.575; -230.000; -468.000
199.339;  -36.550; -222.000; -369.000
199.485;   27.025;  330.000;  271.000
199.631;   14.025;  227.000;  310.000
199.777;  -49.500; -466.000; -398.000
199.923;  -70.225; -610.000; -424.000
200.069;   -3.750; -141.000;  -58.000
200.215;   53.275;  128.000;  453.000
200.361;   33.675;  243.000;  477.000
200.507;  -61.975; -600.000; -373.000
200.653;  -17.425; -371.000; -194.000
200.798;  -28.925; -215.000; -125.000
200.944;    4.425; -146.000;  -41.000
201.090;   25.250;   61.000;  222.000
201.236;   -3.275; -116.000; -158.000
201.382;  113.475;  874.000;  903.000
201.528;   -0.250;  -58.000;  -48.000
201.674;  -55.425; -386.000; -293.000
201.819;  -59.350; -540.000; -439.000
201.965;  -74.075; -699.000; -447.000
202.111;  -27.325; -273.000; -226.000
202.257;  -26.150; -250.000; -238.000
202.402;   -9.900;   13.000;  -36.000
202.548;  -29.000; -169.000; -116.000
202.694;   76.100;  410.000; -183.000
202.840;  -76.350; -603.000; -531.000
202.985;  -76.425; -681.000; -639.000
203.131; -108.150; -832.000; -666.000
203.277;  -24.650; -199.000; -262.000
203.423;  -54.175; -434.000; -520.000
203.568;  -39.425; -462.000; -237.000
203.714;  -46.775; -535.000; -542.000
203.860;  -70.375; -682.000; -641.000
204.005;   10.500;  112.000;  167.000
204.151;   60.725;  561.000;  556.000
204.296;  -46.325; -354.000; -221.000
204.442;  -75.875; -600.000; -547.000
204.588;  -63.550; -592.000; -579.000
204.733;   15.575;  178.000;  168.000
204.879; -115.300;-1018.000; -822.000
205.025;   19.500;  -99.000;  126.000
205.170;    3.875;  -17.000;   94.000
205.316;   79.575;  438.000;  661.000
205.461;  -81.250; -698.000; -554.000
205.607;   77.150;  609.000;  665.000
205.752;  -64.875; -626.000; -551.000
205.898;  -50.025; -501.000; -391.000
206.043;  -62.450; -578.000; -506.000
206.189;  -46.400; -243.000; -285.000
206.334;   63.600;  554.000;  606.000
206.480;   79.525;  409.000;  239.000
206.625;  -78.000; -529.000; -552.000
206.771;  -39.150; -451.000; -373.000
206.916;  -27.475; -210.000; -537.000
207.062;  -82.375; -545.000; -591.000
207.207;  -61.075; -546.000; -443.000
207.353;   54.125;  185.000;  460.000
207.498;   19.600;  196.000;   85.000
207.643;  -44.200; -501.000; -370.000
207.789; -109.225;-1069.000; -910.000
207.934;  -95.875; -665.000; -713.000
208.080;  -16.075; -154.000;   66.000
208.225;  -27.575;  -22.000;  -57.000
208.370;  -70.500; -727.000; -619.000
208.516;  -79.850; -741.000; -487.000
208.661;  -29.450; -127.000;  -69.000
208.806;  -30.100; -165.000; -171.000
208.952; -106.650;-1044.000; -731.000
209.097;   59.300;  378.000;  349.000
209.242;  -45.700; -307.000; -382.000
209.387;   65.350;  392.000;  350.000
209.533;  -53.225; -321.000; -350.000
209.678;   88.250;  472.000;  543.000
209.823;  -45.900; -408.000; -310.000
209.969; -104.175; -860.000; -757.000
210.114; -100.950; -907.000; -719.000
210.259; -106.250; -939.000; -889.000
210.404;   -6.575; -171.000;  103.000
210.549;   12.875;  108.000;    3.000
210.695;  -23.975;   -3.000;  -95.000
210.840;   37.250;   94.000;   67.000
210.985;  -59.050; -484.000; -303.000
211.130;   71.000;  268.000;  406.000
211.275;   28.375;  207.000;  199.000
211.420;  -52.375; -300.000; -289.000
211.566;  -66.675; -536.000; -489.000
211.711;   22.200;  218.000;  157.000
211.856;  -74.225; -545.000; -519.000
212.001;   -5.975;  151.000;   44.000
212.146;   26.150;  153.000;   49.000
212.291;  -24.725; -210.000; -186.000
212.436;  -19.100; -280.000;   -6.000
212.581;  -79.075; -685.000; -653.000
212.726;  -72.225; -487.000; -538.000
212.871;  -42.375; -552.000; -217.000
213.016; -146.300;-1172.000;-1029.000
213.161;   54.475;  406.000;  291.000
213.306;  -63.650; -435.000; -577.000
213.451;  -90.125; -778.000; -689.000
213.596;  -44.850; -455.000; -347.000
213.741;  -57.450; -448.000; -538.000
213.886;  -68.075; -498.000; -517.000
214.031;  -24.900; -294.000; -124.000
214.176;  -49.375; -408.000; -341.000
214.321;  -18.700; -296.000; -157.000
214.466;  -24.575; -163.000;  -43.000
214.611;   -2.050;  -61.000;  -10.000
214.756; -118.075; -948.000; -858.000
214.901;  -21.500; -388.000; -226.000
215.046; -119.550; -797.000; -825.000
215.191;   18.325;  128.000;   35.000
215.336;  -22.150; -157.000;  -19.000
215.480;  -60.625; -684.000; -505.000
215.625;   -9.975; -175.000;  -19.000
215.770;  -76.550; -757.000; -662.000
215.915;  -12.250;   -5.000;  -97.000
216.060;   -9.750; -113.000;  -21.000
216.205; -116.075; -731.000; -779.000
216.349;  -70.775; -470.000; -533.000
216.494; -117.375; -939.000; -867.000
216.639; -107.450; -823.000; -888.000
216.784;  -82.225; -577.000; -525.000
216.929;   40.975;  392.000;  281.000
217.073;  -25.700; -244.000;  -31.000
217.218;    4.725;   78.000;  -47.000
217.363;  -90.825; -656.000; -618.000
217.507;  -71.450; -623.000; -588.000
217.652; -116.925; -845.000; -874.000
217.797;  -80.700; -708.000; -659.000
217.942; -109.875; -856.000; -720.000
218.086;   70.900;  608.000;  539.000
218.231;  -17.950; -174.000;  -26.000
218.376;  -32.125; -337.000; -229.000
218.520;    3.600;  -41.000;   96.000
218.665;  -30.750; -338.000; -204.000
218.810;  -48.050; -275.000; -233.000
218.954;   13.925;  201.000;   35.000
219.099; -108.875; -713.000; -963.000
219.243;  -69.700; -589.000; -554.000
219.388;  -24.175; -264.000; -136.000
219.532;   -3.450; -116.000; -116.000
219.677;  -75.925; -564.000; -521.000
219.822;    4.300;   33.000;   89.000
219.966;    3.600;   17.000;  -99.000
220.111;  -33.725; -328.000;  -40.000
220.255;  -95.050; -797.000; -750.000
220.400;  -18.375; -180.000; -146.000
220.544;  -73.650; -516.000; -450.000
220.689;  -53.325; -422.000; -451.000
220.833;   -7.150; -123.000;  -58.000
220.978;  -39.400; -393.000; -563.000
221.122;    6.025;  319.000;  307.000
221.267;  -98.350; -906.000; -837.000
221.411;  -53.350; -478.000; -394.000
221.555;  -27.075; -104.000;  -23.000
221.700;  -46.650; -329.000; -222.000
221.844;   26.825;  255.000;  272.000
221.989;  -46.125; -328.000; -311.000
222.133;  -36.550; -289.000; -307.000
222.277;   -3.275;    5.000;   78.000
222.422;   25.375;  227.000;  113.000
222.566;  -31.900; -381.000; -214.000
222.711;  -45.350; -414.000; -479.000
222.855;  -77.875; -643.000; -586.000
222.999;  -83.650; -642.000; -717.000
223.144;  -34.500; -195.000; -194.000
223.288;   36.375;  423.000;  251.000
223.432;   25.450;  184.000;  230.000
223.576;   18.650;  152.000;  -21.000
223.721;   37.225;  364.000;  273.000
223.865;  -63.450; -472.000; -475.000
224.009;  223.775; 1673.000; 1631.000
224.153;  -83.025; -660.000; -671.000
224.298;  -73.200; -531.000; -489.000
224.442;   -8.825;  -74.000;  -33.000
224.586;   -9.050; -169.000; -106.000
224.730;  -91.725; -858.000; -670.000
224.875;  -95.850; -739.000; -688.000
225.019;    9.150;  102.000;  188.000
225.163;   49.500;  208.000;  341.000
225.307;   17.175;   97.000;  -91.000
225.451;   30.450;  360.000;  481.000
225.595;   19.525;  264.000;  176.000
225.739;  -29.250; -170.000;  -94.000
225.884;    4.300;   86.000;    5.000
226.028; -103.150; -760.000; -626.000
226.172;  -34.525; -260.000; -273.000
226.316; -110.200; -941.000; -902.000
226.460;  -69.525; -645.000; -493.000
226.604;  -59.100; -406.000; -400.000
226.748;  -97.025; -836.000; -733.000
226.892;  -36.750; -227.000; -181.000
227.036;  -54.525; -537.000; -447.000
227.180;  -58.675; -551.000; -375.000
227.324;  -60.825; -561.000; -580.000
227.468; -114.400; -819.000; -717.000
227.612;   18.925;  242.000;  -28.000
227.756;  -93.175; -845.000; -698.000
227.900;   40.500;  342.000;  441.000
228.044;  -54.075; -509.000; -290.000
228.188;   50.625;  448.000;  568.000
228.332;  -74.525; -546.000; -472.000
228.476;  -16.500; -223.000; -149.000
228.620;  -27.650; -210.000; -150.000
228.764;   59.800;  431.000;  349.000
228.908;  -20.325; -155.000;   30.000
229.052;  -55.475; -615.000; -528.000
229.195;  -16.125; -172.000;   13.000
229.339;  -33.900; -235.000; -305.000
229.483;  -19.250;    5.000; -162.000
229.627;  -10.200; -156.000;  139.000
229.771;  -44.225; -218.000; -294.000
229.915;   16.650;  230.000;   79.000
230.059;  -86.725; -648.000; -663.000
230.202;  -40.150; -370.000; -317.000
230.346;   -9.100; -107.000;  107.000
230.490;  -64.450; -489.000; -521.000
230.634; -104.975; -736.000; -553.000
230.777;   64.325;  478.000;  509.000
230.921;  -63.400; -450.000; -359.000
231.065;  -50.975; -246.000; -286.000
231.209;   23.450;  261.000;  265.000
231.352;   -2.425;   54.000;   40.000
231.496;   16.725;  568.000;  188.000
231.640;  -90.700; -693.000; -621.000
231.783;   48.725;  546.000;  525.000
231.927;  -52.000; -294.000; -365.000
232.071; -121.975; -962.000; -736.000
232.214;  -98.950; -980.000; -764.000
232.358;  -99.425; -683.000; -599.000
232.502;   -4.800;  -19.000;    7.000
232.645; -126.075;-1090.000; -927.000
232.789;  -26.950; -257.000; -218.000
232.933;  -39.025; -407.000; -224.000
233.076; -120.775;-1038.000; -897.000
233.220;  -98.225; -752.000; -777.000
233.363;  -71.800; -669.000; -477.000
233.507;   50.200;  371.000;  129.000
233.650;  -93.200; -764.000; -834.000
233.794;   48.125;  438.000;  461.000
233.938;  -62.650; -530.000; -362.000
234.081;  -10.450;  -93.000;   31.000
234.225;  -64.925; -631.000; -539.000
234.368; -101.825; -773.000; -723.000
234.512;  -33.950; -385.000; -299.000
234.655;  -85.550; -582.000; -555.000
234.798;  -70.475; -493.000; -466.000
234.942; -117.100; -884.000;-1002.000
235.085;  -80.250; -651.000; -443.000
235.229;  -65.175; -405.000; -410.000
235.372;  -44.150; -247.000; -191.000
235.516;  -61.225; -397.000; -321.000
235.659;   21.800;   92.000;  121.000
235.802;  -26.625;  -38.000;  -22.000
235.946;   29.950;  335.000;  215.000
236.089;   37.525;  126.000;  250.000
236.233;   50.975;  275.000;  298.000
236.376;  -35.725; -235.000; -378.000
236.519;  -54.950; -297.000; -319.000
236.663;  -26.325; -215.000; -117.000
236.806; -131.200;-1029.000; -999.000
236.949;   43.725;  543.000;  431.000
237.092;   47.375;  412.000;  391.000
237.236;  -87.450; -589.000; -502.000
237.379;   48.325;  352.000;  428.000
237.522; -108.225; -879.000; -768.000
237.666;   -9.425; -271.000;   18.000
237.809; -114.525; -851.000; -823.000
237.952;   39.025;  469.000;  271.000
238.095;  -59.450; -447.000; -442.000
238.238;   87.325;  688.000;  700.000
238.382;    5.000;  166.000;  103.000
238.525;  -61.575; -598.000; -511.000
238.668; -124.675;-1060.000; -985.000
238.811;  -71.050; -638.000; -643.000
238.954;  -51.775; -483.000; -334.000
239.097;   94.350;  617.000;  664.000
239.241;    2.775;  394.000;  326.000
239.384;  -39.475; -254.000; -214.000
239.527;  -54.725; -424.000; -224.000
239.670; -144.900; -994.000;-1091.000
239.813;  -88.750; -696.000; -658.000
239.956;   61.600;  579.000;  473.000
240.099; -107.975; -778.000; -725.000
240.242;   62.225;  428.000;  432.000
240.385;   28.800;  466.000;  450.000
240.528;  -65.225; -706.000; -473.000
240.671;   13.900;  189.000;  134.000
240.814;  -33.900; -441.000; -158.000
240.957;  -85.850; -767.000; -578.000
241.100;  -86.275; -779.000; -755.000
241.243; -123.325;-1234.000; -893.000
241.386;  -63.025; -508.000; -379.000
241.529;  -84.575; -735.000; -547.000
241.672;  -49.350; -566.000; -495.000
241.815; -110.100; -832.000; -808.000
241.958;  -32.475; -125.000; -182.000
242.101;  -79.800; -545.000; -390.000
242.244;  -45.100; -270.000; -325.000
242.387;  -39.675; -304.000; -246.000
242.530;   50.675;  470.000;  134.000
242.673;  -44.725; -381.000; -309.000
242.815; -117.750; -925.000; -899.000
242.958;  -54.775; -482.000; -381.000
243.101;    6.800;  132.000;  187.000
243.244;  -73.625; -564.000; -521.000
243.387;  -48.000; -313.000; -316.000
243.530;  -93.050; -657.000; -674.000
243.672;  -12.925;   43.000;  -92.000
243.815;  -51.075; -355.000; -283.000
243.958;    0.525;   98.000;  -26.000
244.101;   -6.275;   59.000;  -16.000
244.243;  -15.150;  -47.000;  101.000
244.386; -110.225; -761.000; -630.000
244.529;  -35.300; -132.000; -139.000
244.672; -140.850;-1154.000; -951.000
244.814;  -99.650; -621.000; -794.000
244.957;  -61.175; -380.000; -304.000
245.100;  -73.275; -489.000; -489.000
245.242;  -60.700; -387.000; -374.000
245.385;    0.825;  -59.000;  -39.000
245.528; -113.850; -871.000; -705.000
245.670;   83.800;  612.000;  634.000
245.813;  -77.775; -599.000; -547.000
245.956;  -36.450; -324.000; -275.000
246.098;  -82.850; -508.000; -650.000
246.241;  -10.900;  194.000;   48.000
246.383;  -18.825; -119.000;  -73.000
246.526;  -80.000; -454.000; -525.000
246.669; -109.300; -889.000; -780.000
246.811;    9.125;  172.000;   -1.000
246.954;  -60.525; -512.000; -426.000
247.096;  -10.000;  -84.000;   -6.000
247.239;  -67.850; -482.000; -445.000
247.381;  -75.900; -647.000; -488.000
247.524;   70.300;  645.000;  679.000
247.666;   -7.750;   58.000;   11.000
247.809; -110.150; -887.000; -691.000
247.951;  -10.300;  -75.000;  138.000
248.094;   17.225;  432.000;  308.000
248.236; -155.900;-1262.000;-1238.000
248.378;  -19.150; -356.000;  -81.000
248.521;  -42.725; -334.000; -337.000
248.663;  -36.025; -236.000; -267.000
248.806;  -24.825; -300.000; -266.000
248.948; -112.600; -886.000; -763.000
249.090;  -52.475; -428.000; -398.000
249.233;  -70.650; -344.000; -381.000
249.375;  -65.750; -474.000; -451.000
249.518;  -18.075;  -83.000; -133.000
249.660;   -2.075; -103.000;    3.000
249.802; -167.050;-1303.000;-1189.000
249.945;  -75.275; -612.000; -540.000
250.087; -115.325; -834.000; -768.000
250.229;  -63.325; -362.000; -480.000
250.371;  -69.075; -494.000; -439.000
250.514;  -56.250; -310.000; -244.000
250.656;  -69.200;   69.000;  102.000
250.798; -108.625; -849.000; -800.000
250.940;  -66.600; -322.000; -322.000
251.083;  -41.925; -335.000; -111.000
251.225;   38.225;  338.000;  310.000
251.367;  -35.525; -274.000; -373.000
251.509;  -37.950; -265.000; -210.000
251.651;  -87.325; -731.000; -671.000
251.794;   59.875;  538.000;  632.000
251.936; -118.350; -821.000; -747.000
252.078;  -85.675; -540.000; -461.000
252.220;  -75.675; -645.000; -477.000
252.362;   38.025;  344.000;  462.000
252.504;  -67.175; -677.000; -584.000
252.646;  -99.800; -875.000; -722.000
252.788;  -20.000;   14.000; -128.000
252.931;  -39.550; -257.000; -253.000
253.073;  -54.725; -376.000; -317.000
253.215;   -3.850;  141.000;  122.000
253.357;  -19.850;   82.000; -153.000
253.499;  -49.800; -374.000; -234.000
253.641;  -92.250; -749.000; -594.000
253.783;  -93.925; -609.000; -527.000
253.925;  -85.625; -586.000; -591.000
254.067; -106.750; -744.000; -667.000
254.209;  -38.500; -391.000; -259.000
254.351; -130.300; -865.000; -883.000
254.493;  -53.850; -441.000; -417.000
254.635; -133.175; -936.000; -818.000
254.777;  -84.175; -752.000; -687.000
254.918;  -64.050; -512.000; -430.000
255.060;  -54.475; -551.000; -395.000
255.202;  -61.150; -473.000; -261.000
255.344;  -76.275; -658.000; -455.000
255.486;  -69.025; -471.000; -406.000
255.628;  -99.375; -780.000; -781.000
255.770;  -87.225; -676.000; -536.000
255.912;  -59.650; -559.000; -468.000
256.053;  -80.625; -730.000; -508.000
256.195;  139.150; 1008.000;  903.000
256.337;  -90.050; -861.000; -595.000
256.479;   58.075;  532.000;  416.000
256.621;  -40.125; -394.000; -212.000
256.762;  -99.075; -789.000; -742.000
256.904;   23.675;  485.000;  487.000
257.046;  -40.200; -381.000; -271.000
257.188;  -44.750; -351.000; -264.000
257.329;  -85.000; -525.000; -464.000
257.471; -110.875; -939.000; -807.000
257.613;  -63.825; -584.000; -498.000
257.755; -143.275;-1073.000; -982.000
257.896;   12.700;  286.000;  392.000
258.038;  -62.050; -403.000; -352.000
258.180;  -37.525; -354.000; -279.000
258.321;  -76.775; -581.000; -457.000
258.463;   -9.650;  -71.000;  133.000
258.605;  -82.050; -562.000; -570.000
258.746;  -99.450; -886.000; -772.000
258.888; -138.650;-1026.000;-1020.000
259.029;   19.550;  121.000;   -8.000
259.171;  -88.350; -614.000; -550.000
259.313;   -2.250;  -49.000;  -47.000
259.454;  -71.850; -536.000; -414.000
259.596;  -58.675; -483.000; -390.000
259.737;  -53.725; -590.000; -474.000
259.879;   38.750;  217.000;  311.000
260.020;   73.300;  901.000;  636.000
260.162;  -32.700; -146.000; -253.000
260.303; -104.575; -768.000; -687.000
260.445;  -83.100; -609.000; -613.000
260.586;   23.025;  392.000;  157.000
260.728;  -52.250; -360.000; -248.000
260.869;  -68.225; -350.000; -343.000
261.011;   55.750;  706.000;  537.000
261.152;  -53.775; -479.000; -319.000
261.293;  -76.925; -576.000; -595.000
261.435;  -32.975; -219.000; -184.000
261.576;  -47.275; -455.000; -325.000
261.718;   47.775;  420.000;  470.000
261.859; -117.200; -940.000; -949.000
262.000; -135.700; -951.000;-1016.000
262.142;  -18.425;  -52.000;  -60.000
262.283; -116.850; -808.000; -691.000
262.424;  -94.225; -666.000; -625.000
262.566; -140.600;-1161.000; -983.000
262.707; -116.900; -840.000; -830.000
262.848; -120.025; -769.000; -726.000
262.990;  -48.275; -362.000; -345.000
263.131;   70.075;  650.000;  681.000
263.272;  -11.100;  -61.000;  -41.000
263.413;  -83.325; -589.000; -561.000
263.555;  -63.575; -669.000; -143.000
263.696;  -83.575; -550.000; -641.000
263.837;  -53.250; -449.000; -551.000
263.978;  -11.125;   -5.000;  -77.000
264.119;  -36.400; -283.000; -264.000
264.261; -111.775; -847.000; -630.000
264.402;    4.925;   33.000;   40.000
264.543;  -80.075; -509.000; -524.000
264.684;  -25.075;   61.000;  -50.000
264.825;  -94.350; -816.000; -538.000
264.966;   -4.650;  -84.000;  -67.000
265.107; -106.425; -646.000; -670.000
265.248; -117.375; -825.000; -812.000
265.390;  -10.250;  152.000;   -9.000
265.531;  -20.450; -238.000; -107.000
265.672;  -86.225; -557.000; -630.000
265.813;   51.225;  563.000;  439.000
265.954; -151.600; -959.000; -940.000
266.095;  -15.600; -372.000; -322.000
266.236;  -96.475; -686.000; -548.000
266.377;  -53.350; -243.000; -297.000
266.518;  -60.550; -619.000; -547.000
266.659;   24.775;  170.000;  268.000
266.800;    0.325;   83.000;   85.000
266.941;  -71.500; -487.000; -478.000
267.082;    7.700;  354.000;   99.000
267.223;  -49.300; -344.000; -273.000
267.364; -107.825; -892.000; -686.000
267.504;  -12.275;    3.000;  135.000
267.645;  -15.075;  160.000;   67.000
267.786;  -54.525; -147.000;  -86.000
267.927;  -69.675; -473.000; -379.000
268.068;  -21.850; -186.000;  -61.000
268.209;  -51.450; -175.000; -413.000
268.350;  -68.950; -388.000; -532.000
268.490;  -82.550; -648.000; -521.000
268.631;   19.550;  127.000;  225.000
268.772; -122.600; -874.000; -647.000
268.913;  -53.300; -328.000; -476.000
269.054;  -21.400; -117.000;   12.000
269.194;  -46.150; -418.000; -402.000
269.335; -148.850;-1137.000;-1074.000
269.476;  -10.425;   33.000;  -35.000
269.617;  -53.600; -347.000; -392.000
269.757;  -90.975; -713.000; -646.000
269.898;  -98.275; -856.000; -613.000
270.039;  -53.525; -415.000; -405.000
270.180; -132.075; -952.000; -816.000
270.320;  -48.600; -190.000; -250.000
270.461;  -51.225; -277.000; -249.000
270.602;  -18.450; -186.000; -156.000
270.742; -120.275; -868.000; -943.000
270.883;  -55.325; -442.000; -390.000
271.023;  -63.800; -358.000; -357.000
271.164;  -80.200; -607.000; -528.000
271.305; -100.325; -666.000; -654.000
271.445;  -84.000; -722.000; -683.000
271.586;  -67.850; -462.000; -283.000
271.726;  -48.175; -397.000; -322.000
271.867;  -64.700; -594.000; -534.000
272.008;   33.225; -473.000; -285.000
272.148;   63.050;  462.000;  468.000
272.289;  -14.925; -113.000; -181.000
272.429;   -4.800;   19.000;  185.000
272.570;  -93.000; -633.000; -737.000
272.710; -110.850; -825.000; -775.000
272.851;  -26.300;  113.000; -130.000
272.991; -151.300;-1173.000;-1077.000
273.131;  -65.150; -419.000; -459.000
273.272;  -97.450; -683.000; -723.000
273.412;  -28.150; -143.000;  -31.000
273.553;  -74.400; -488.000; -507.000
273.693;  105.500;  913.000;  858.000
273.834; -117.225; -894.000; -692.000
273.974;  -81.325; -664.000; -615.000
274.114;  -89.700; -772.000; -560.000
274.255;   40.950;  414.000;  373.000
274.395;  -30.750; -180.000; -125.000
274.535;   19.725;  199.000;  350.000
274.676;   20.200;  225.000;   94.000
274.816;   -2.825;  110.000;   34.000
274.956; -102.900; -624.000; -690.000
275.097; -103.000;-1014.000; -922.000
275.237; -117.025; -913.000; -803.000
275.377; -103.250; -778.000; -689.000
275.517; -149.425; -878.000; -937.000
275.658;  -75.575; -590.000; -555.000
275.798;  -70.975; -606.000; -413.000
275.938;    8.875;  215.000;  323.000
276.078;  -74.000; -626.000; -395.000
276.218;    1.225;   99.000;  104.000
276.359; -128.800;-1026.000;-1024.000
276.499;  -78.075; -605.000; -446.000
276.639;  -40.700; -305.000; -151.000
276.779;  -42.275; -475.000; -357.000
276.919; -107.025; -783.000; -624.000
277.059;  -31.450; -261.000; -212.000
277.199;  -62.300; -357.000; -259.000
277.340;   23.850;  287.000;  175.000
277.480; -120.475; -840.000; -693.000
277.620;   12.650;  192.000;   16.000
277.760; -190.950;-1533.000;-1294.000
277.900;   -0.600;  113.000;   33.000
278.040;   -1.175;  137.000;  159.000
278.180;   27.625;  270.000;  170.000
278.320;   -4.150;   21.000;   56.000
278.460;  -66.775; -443.000; -469.000
278.600;  -81.375; -708.000; -598.000
278.740;   38.325;  448.000;  224.000
278.880; -117.375; -768.000; -791.000
279.020;  -25.875; -194.000; -144.000
279.160; -106.075; -672.000; -595.000
279.300; -111.625; -926.000; -873.000
279.440;  -82.775; -709.000; -622.000
279.579;  -91.550;-1014.000; -929.000
279.719;  -62.725; -410.000; -394.000
279.859;   21.300;   -4.000;   41.000
279.999;   -9.400; -208.000;  101.000
280.139;  -55.325; -435.000; -387.000
280.279;  -93.925; -708.000; -745.000
280.419;  -17.300; -229.000; -147.000
280.559;  -47.625; -259.000; -180.000
280.698;  -93.375; -790.000; -639.000
280.838;  -90.150; -778.000; -800.000
280.978; -100.750; -846.000; -790.000
281.118; -106.025; -811.000; -704.000
281.257;   -4.500;   24.000;    6.000
281.397; -146.850;-1094.000; -960.000
281.537; -108.175; -599.000; -712.000
281.677;  -21.750; -150.000; -101.000
281.816;  -75.600; -700.000; -630.000
281.956;  -41.600; -193.000; -257.000
282.096;  -66.625; -539.000; -396.000
282.235; -102.600; -672.000; -638.000
282.375;  -23.825; -243.000;  -98.000
282.515;  -84.600; -715.000; -707.000
282.654;   11.050;   29.000;  106.000
282.794;   27.450;  388.000;  244.000
282.934;  -66.400; -530.000; -491.000
283.073; -122.650;-1030.000; -857.000
283.213;  -62.425; -460.000; -467.000
283.353;  -63.575; -408.000; -349.000
283.492;  -23.575; -264.000; -296.000
283.632;  -39.900; -254.000; -168.000
283.771; -101.775; -859.000; -730.000
283.911;  -60.800; -369.000; -260.000
284.050; -102.450; -794.000; -748.000
284.190; -148.600;-1229.000;-1096.000
284.329; -139.875;-1055.000; -964.000
284.469;  -97.200; -516.000; -591.000
284.608;  -73.775; -559.000; -598.000
284.748;  -95.600; -614.000; -570.000
284.887;   -5.325;  -87.000;  -20.000
285.027; -122.275; -844.000; -892.000
285.166;  -45.550; -192.000; -249.000
285.306;  -10.650; -116.000;  -33.000
285.445;  -37.400; -229.000; -343.000
285.584;  -96.475; -630.000; -494.000
285.724;  -41.825; -282.000; -322.000
285.863; -107.275; -857.000; -507.000
286.002;  -46.175; -366.000; -276.000
286.142; -109.950; -715.000; -622.000
286.281;  -69.150; -525.000; -493.000
286.420;  -86.425; -554.000; -417.000
286.560;   82.700;  653.000;  623.000
286.699; -116.225; -958.000; -912.000
286.838;  -73.625; -590.000; -591.000
286.978;  -86.975; -533.000; -537.000
287.117; -128.575;-1085.000; -950.000
287.256;  -39.725; -228.000; -211.000
287.395;  -61.250; -197.000; -378.000
287.535;  -66.750; -370.000; -298.000
287.674;  -76.000; -509.000; -484.000
287.813;   26.075;  661.000;  533.000
287.952; -123.050;-1010.000; -871.000
288.091; -145.300;-1049.000; -915.000
288.231;   -2.625;   13.000;   15.000
288.370; -163.175;-1217.000;-1200.000
288.509;  -83.050; -728.000; -645.000
288.648;  -89.825; -770.000; -548.000
288.787;  -47.150; -243.000;  -87.000
288.926;  -65.275; -454.000; -475.000
289.065;   97.775;  859.000;  672.000
289.204;  -51.825; -377.000; -217.000
289.344;  -98.100; -791.000; -690.000
289.483;   10.450;  416.000;  304.000
289.622;  -43.075; -291.000; -149.000
289.761;  -29.975; -309.000; -166.000
289.900; -105.825; -785.000; -626.000
290.039;  -22.675;  -12.000;  -95.000
290.178;  -49.575; -274.000; -180.000
290.317;  -80.800; -618.000; -479.000
290.456;  -72.750; -463.000; -451.000
290.595; -121.775; -961.000; -833.000
290.734; -130.550; -904.000; -891.000
290.873;  -72.975; -456.000; -420.000
291.011; -112.975; -833.000; -843.000
291.150; -116.650; -770.000; -682.000
291.289;  -24.975; -343.000; -110.000
291.428;  -90.675; -599.000; -480.000
291.567;  -56.575; -370.000; -442.000
291.706;   -2.500;  109.000;  154.000
291.845;  -90.600; -597.000; -505.000
291.984; -155.075;-1234.000;-1061.000
292.122;   58.275;  602.000;  582.000
292.261;   34.375;  620.000;  463.000
292.400;   -9.550; -144.000;  211.000
292.539; -127.025; -959.000; -813.000
292.678;  -40.825; -325.000; -300.000
292.816; -147.075;-1136.000; -965.000
292.955; -105.600; -844.000; -684.000
293.094;  -39.600; -173.000; -337.000
293.233;  -53.525; -556.000; -400.000
293.371;  -39.575; -225.000;  -84.000
293.510; -123.150; -866.000; -780.000
293.649; -123.000; -959.000; -924.000
293.787; -128.575;-1083.000;-1012.000
293.926;  -29.425; -113.000;  -32.000
294.065;  -44.025; -379.000; -290.000
294.203;   30.700;  298.000;  406.000
294.342;    8.775;   74.000;  156.000
294.481; 5482.950;51180.000; -836.000
294.619;  -43.650; -425.000; -582.000
294.758; -145.775;-1230.000;-1137.000
294.896;   -3.500; -125.000;    5.000
295.035; -140.100;-1040.000;-1006.000
295.174; -111.250;-1082.000; -954.000
295.312;  -49.375; -323.000; -203.000
295.451;  -39.100; -307.000; -428.000
295.589;  -68.400; -389.000; -518.000
295.728;   -5.125; -292.000; -165.000
295.866;  -21.925;  -36.000;  -51.000
296.005;  -65.450; -584.000; -341.000
296.143;  -81.875; -558.000; -596.000
296.282; -102.575; -957.000; -881.000
296.420;  -83.825; -657.000; -557.000
296.559;  -84.075; -892.000; -633.000
296.697;  -63.825; -847.000; -665.000
296.835;  -88.075;-1141.000;-1002.000
296.974;   26.825;  -23.000;   39.000
297.112;  -36.550; -443.000; -504.000
297.251;  -78.125; -815.000; -755.000
297.389;  -23.725; -576.000; -438.000
297.527;  -10.975; -145.000;  -83.000
297.666;  -55.625; -486.000; -438.000
297.804;  -48.600; -404.000; -264.000
297.942;  -11.125; -136.000; -161.000
298.081;    3.800; -183.000;   63.000
298.219;   13.400;  -17.000;  -19.000
298.357;  -17.925; -144.000;  -71.000
298.495;  -72.825; -810.000; -812.000
298.634;    9.300;  245.000;  219.000
298.772;  -25.925; -220.000; -338.000
298.910;  -54.225; -309.000; -182.000
299.048;  -18.875; -130.000; -153.000
299.187;  -40.000; -350.000; -250.000
299.325;   -7.325;   52.000;  122.000
299.463;  -26.075; -389.000; -299.000
299.601;  -12.625; -327.000; -271.000
299.739; -123.500; -908.000; -883.000
299.877;  -93.425; -791.000; -703.000
300.016; -110.250;-1095.000; -935.000
300.154;   17.850;  -19.000; -161.000
300.292;  -45.800; -428.000; -348.000
300.430;  -33.975; -408.000; -291.000
300.568; -136.275; -940.000; -874.000
300.706;  -69.775; -366.000; -469.000
300.844; -127.975;-1108.000; -979.000
300.982;   50.375;  246.000;  282.000
301.120; -126.825; -965.000; -866.000
301.258;  -86.275; -812.000; -705.000
301.396;   -3.250;  104.000;  -41.000
301.534;  -28.700; -218.000; -293.000
301.672;  -74.700; -664.000; -521.000
301.810;  -68.475; -613.000; -545.000
301.948;   38.050;   53.000;  149.000
302.086;  153.250; -250.000;  -32.000
302.224;  172.025; -610.000; -585.000
302.362;  -53.525; -558.000; -622.000
302.500;  -97.000; -923.000; -893.000
302.638;   23.350;  128.000;  245.000
302.776;  -39.225; -352.000; -408.000
302.913;   34.825;  447.000;  236.000
303.051;  -29.225;  -86.000;  -23.000
303.189;   13.525;   90.000;  118.000
303.327;  -50.625; -341.000; -256.000
303.465;  -86.700; -832.000; -588.000
303.603;  -98.125; -805.000; -604.000
303.740;   44.150;  417.000;  241.000
303.878;  -78.800; -800.000; -759.000
304.016; -102.675; -915.000; -790.000
304.154; -151.400;-1123.000;-1152.000
304.291;  -56.375; -505.000; -554.000
304.429;   11.975;  102.000;   74.000
304.567; -137.250; -908.000; -893.000
304.705;  -65.225; -408.000; -515.000
304.842;  -58.400; -616.000; -540.000
304.980;   -3.150;  215.000;   35.000
305.118;  -29.175; -367.000; -365.000
305.255; -111.250; -945.000; -927.000
305.393;   26.800;  178.000;  239.000
305.531; -124.800;-1173.000; -956.000
305.668;  -86.800; -663.000; -582.000
305.806;   -4.500; -358.000; -439.000
305.943;  -25.750; -629.000; -637.000
306.081;  -18.425; -378.000; -267.000
306.219; -109.375; -863.000; -748.000
306.356;    1.150;  158.000;   27.000
306.494;  118.100;  981.000;  761.000
306.631;   14.600;  -11.000;  -55.000
306.769;   15.500; -613.000; -485.000
306.906;  -11.450; -284.000; -258.000
307.044;  -49.525; -473.000; -488.000
307.181;  -53.250; -410.000; -332.000
307.319;    0.150;  112.000;   87.000
307.456; -170.400;-1191.000;-1153.000
307.594; -110.475; -980.000; -727.000
307.731;  -30.450; -371.000; -164.000
307.868;   -1.100;  -15.000;   20.000
308.006; -118.200; -961.000; -847.000
308.143;  -60.675; -618.000; -330.000
308.281;   34.850;  -37.000; -254.000
308.418;  -57.375; -748.000; -640.000
308.555;  -63.625; -400.000; -250.000
308.693;  -58.175; -577.000; -573.000
308.830;  -94.450; -712.000; -657.000
308.967;   -0.025; -215.000;  -95.000
309.105;  -36.325; -507.000; -396.000
309.242;   -6.000; -468.000; -367.000
309.379;   15.000; -577.000; -655.000
309.517;  -93.100; -936.000; -948.000
309.654;  -81.725; -910.000; -734.000
309.791;  -62.725; -662.000; -580.000
309.928;  -93.650; -977.000; -914.000
310.065;  121.350;  819.000;  697.000
310.203;  -77.950; -825.000; -850.000
310.340;  -32.375; -465.000; -321.000
310.477;  -72.725; -412.000; -516.000
310.614;  -57.000; -383.000; -473.000
310.751;  -65.600; -427.000; -518.000
310.889;  -15.175;    1.000;   11.000
311.026; -138.875;-1161.000; -939.000
311.163;  -46.200; -386.000; -380.000
311.300;  -72.200; -512.000; -479.000
311.437;  -67.500; -658.000; -619.000
311.574; -141.800;-1226.000; -985.000
311.711;  -52.600; -595.000; -433.000
311.848;  -30.425; -380.000; -388.000
311.985;    7.275;  270.000;   93.000
312.122; -111.100; -932.000; -762.000
312.259;  -97.375; -941.000; -994.000
312.396;  -54.675; -508.000; -551.000
312.533;  -54.300; -812.000; -790.000
312.670; -120.375;-1070.000; -898.000
312.807;   -8.150; -352.000; -367.000
312.944;  -52.900; -513.000; -611.000
313.081;   -8.450; -150.000; -415.000
313.218;  -80.575;-1111.000; -867.000
313.355;  -19.050; -531.000; -449.000
313.492;  -18.325; -455.000; -292.000
313.629;  115.825;  815.000;  735.000
313.766; -134.675;-1176.000;-1008.000
313.902;   -1.575; -186.000;   21.000
314.039;  -47.575; -372.000; -289.000
314.176;   39.775;  286.000;  192.000
314.313;  -64.125; -569.000; -473.000
314.450;  -78.300; -788.000; -684.000
314.587;  -54.750; -468.000; -480.000
314.723;    2.775;  -78.000;  130.000
314.860;   54.575;  318.000;  332.000
314.997;   38.700;  223.000;  142.000
315.134;  -37.550; -385.000; -368.000
315.270;  -25.625; -480.000; -496.000
315.407; -112.750;-1094.000; -967.000
315.544;  -44.575; -657.000; -538.000
315.681;  -58.300; -681.000; -565.000
315.817;   24.700; -133.000; -176.000
315.954;   22.750; -613.000; -392.000
316.091; -115.650;-1045.000;-1023.000
316.227;  -18.875;  -71.000; -179.000
316.364;    8.025;   23.000;    6.000
316.500;  -49.825; -113.000; -300.000
316.637;  -31.675; -181.000; -302.000
316.774;  -70.025; -625.000; -358.000
316.910; -100.825; -598.000; -629.000
317.047;  -58.500; -487.000; -351.000
317.183;  -65.475; -435.000; -566.000
317.320;   40.600; -367.000; -321.000
317.456;  -29.700; -733.000; -805.000
317.593;  -77.575; -598.000; -641.000
317.729;   -4.625;  168.000;  -67.000
317.866; -187.075;-1434.000;-1285.000
318.002;  -98.375; -708.000; -948.000
318.139; -111.125; -883.000; -867.000
318.275; -123.575;-1003.000; -738.000
318.412;  -74.450; -517.000; -336.000
318.548;  -87.850; -751.000; -720.000
318.685;  -85.725; -985.000; -888.000
318.821;  -89.725; -762.000; -735.000
318.957;  -29.325;   34.000;  -23.000
319.094;   24.925;  297.000;  154.000
319.230;  -94.725; -756.000; -742.000
319.367;  -14.450; -471.000; -520.000
319.503;  -28.875; -538.000; -436.000
319.639;  -99.325; -877.000; -793.000
319.775;  -98.100; -750.000; -685.000
319.912;  -56.125; -424.000; -519.000
320.048;  -99.075;-1184.000;-1184.000
320.184;   93.225;   59.000;   70.000
320.321;  -57.575; -497.000; -467.000
320.457;   68.575;  475.000;  662.000
320.593;  -69.600; -375.000; -382.000
320.729; -101.550; -732.000; -734.000
320.866;  -75.575; -577.000; -635.000
321.002;  -96.125; -759.000; -809.000
321.138;  -42.800; -135.000; -211.000
321.274;    8.675; -148.000; -115.000
321.410;  -62.525; -585.000; -353.000
321.546; -109.750;-1011.000; -911.000
321.683;   21.700;  400.000;  185.000
321.819;  -17.050;  -48.000; -117.000
321.955; -119.575; -743.000; -722.000
322.091;  -57.575; -585.000; -540.000
322.227;  -59.350; -382.000; -202.000
322.363;  -40.550; -320.000; -215.000
322.499;  -68.950; -343.000; -331.000
322.635;   90.075;  636.000;  443.000
322.771;  -20.050; -139.000;   12.000
322.907;   42.525;  129.000;  327.000
323.043;  -37.500; -115.000; -206.000
323.179;  -63.750; -394.000; -363.000
323.315;  -59.200; -401.000; -371.000
323.451;   28.525; -328.000; -236.000
323.587;   49.975;  -60.000;  -77.000
323.723;  -70.150; -682.000; -601.000
323.859;  -28.050; -258.000;  -76.000
323.995;  -49.950; -467.000; -409.000
324.131; -131.100; -967.000; -892.000
324.267;  -35.475; -254.000; -276.000
324.402; -130.550; -960.000; -983.000
324.538;  -41.075; -279.000; -104.000
324.674;   -3.775;  164.000;   77.000
324.810;   37.750;  226.000;  308.000
324.946;  -37.975; -810.000; -658.000
325.082;  -72.800; -568.000; -475.000
325.217;  -13.150;  -62.000;   16.000
325.353;  -98.700; -764.000; -659.000
325.489; -108.825; -540.000; -506.000
325.625;  -84.900; -579.000; -525.000
325.760;   79.100;  517.000;  376.000
325.896;   13.050; -515.000; -702.000
326.032;  -36.925; -403.000; -352.000
326.168;  -71.175; -462.000; -369.000
326.303;  -49.125; -352.000; -461.000
326.439;  -27.600; -336.000; -276.000
326.575;   -1.925; -190.000;  -29.000
326.710;  -12.325; -156.000;  -30.000
326.846;  -23.025;  146.000;  103.000
326.982;  -93.450; -530.000; -548.000
327.117;  -69.400; -481.000; -442.000
327.253;  -62.550; -745.000; -742.000
327.388; -137.750;-1137.000;-1153.000
327.524;  -67.600; -811.000; -578.000
327.659;  -28.700;  -58.000;  -22.000
327.795;   -5.625;   69.000;   45.000
327.931;  -72.850; -723.000; -499.000
328.066;  -30.950; -417.000; -276.000
328.202;  -43.900;   12.000; -129.000
328.337;   83.550;  957.000;  713.000
328.473;   27.325;  -12.000;  -74.000
328.608;  -20.425; -256.000; -267.000
328.743; -125.750; -799.000; -664.000
328.879;   12.450;  214.000;  114.000
329.014;  -14.775; -102.000; -122.000
329.150;  -93.050; -358.000; -483.000
329.285;  -77.875; -465.000; -466.000
329.421;  -47.650; -548.000; -246.000
329.556;  -17.950;  -36.000;   85.000
329.691;  -79.325; -633.000; -615.000
329.827;  -70.625; -626.000; -480.000
329.962;  -24.200;  131.000; -301.000
330.097;  -75.475; -673.000; -585.000
330.233;  -54.950; -410.000; -223.000
330.368; -115.650; -839.000; -628.000
330.503;  -20.275;    3.000;   98.000
330.638;   -7.750;  -93.000; -125.000
330.774;  -83.500; -609.000; -530.000
330.909;  -49.400; -434.000; -244.000
331.044; -104.825; -714.000; -708.000
331.179; -174.675;-1217.000;-1109.000
331.315;   -6.075;   77.000;   20.000
331.450;    5.075;  157.000;  285.000
331.585;  -86.850; -805.000; -706.000
331.720;  -81.100; -510.000; -460.000
331.855;   -2.500;  -35.000; -102.000
331.990;  427.750;   62.000;  138.000
332.126;  215.725; -110.000;   71.000
332.261;    5.575; -379.000; -265.000
332.396;   11.700; -135.000; -242.000
332.531;  -44.200;-1074.000;-1031.000
332.666;  109.275; -519.000; -363.000
332.801;  -91.975; -726.000; -807.000
332.936;  -20.475; -192.000; -122.000
333.071; -146.050; -870.000; -817.000
333.206;    3.350;  307.000;  379.000
333.341;   13.150;  344.000;  418.000
333.476;  -88.925; -627.000; -623.000
333.611;  -44.350; -251.000; -173.000
333.746;  -71.375; -381.000; -464.000
333.881; -129.525; -973.000; -935.000
334.016; -129.650; -936.000; -917.000
334.151; -111.175; -746.000; -702.000
334.286;   -5.650;  152.000;  186.000
334.421;  -15.100; -125.000; -178.000
334.556;  -84.050; -611.000; -567.000
334.690;  -86.375; -631.000; -577.000
334.825;   50.400;  381.000;   83.000
334.960;  -59.050; -285.000; -413.000
335.095;  -12.050;  135.000;  -91.000
335.230;  -94.175; -722.000; -738.000
335.365; -149.675;-1084.000; -990.000
335.499; -137.825;-1108.000;-1037.000
335.634;    2.525;    9.000;  534.000
335.769; -101.275; -755.000; -720.000
335.904;  -71.550; -603.000; -561.000
336.038;  -53.425; -735.000; -657.000
336.173; -110.650;-1206.000;-1194.000
336.308;    7.425; -116.000; -189.000
336.443;   63.250; -544.000; -634.000
336.577;  -55.650; -936.000; -787.000
336.712;   48.500;   -4.000;  -12.000
336.847;  -40.100; -724.000; -607.000
336.981;   35.975; -272.000; -208.000
337.116;  251.500;  615.000;  501.000
337.250;   91.350; -434.000; -421.000
337.385;  495.700; -297.000; -208.000
337.520;  243.500; -632.000; -603.000
337.654;  -30.825; -215.000; -126.000
337.789; -131.025; -989.000; -933.000
337.923;  -32.650; -104.000; -205.000
338.058; -108.550; -673.000; -738.000
338.192;  -52.825; -611.000; -488.000
338.327;  -14.100;  -18.000; -155.000
338.461;  -75.275; -299.000; -469.000
338.596;  -99.625; -780.000; -638.000
338.730;  -81.250; -767.000; -803.000
338.865;  165.350;  -46.000; -140.000
338.999;   13.850; -846.000; -702.000
339.134;   11.950; -634.000; -536.000
339.268;   34.175; -741.000; -603.000
339.403;  586.550; -740.000; -775.000
339.537;  295.750; -894.000; -820.000
339.671;  -86.950; -829.000; -813.000
339.806;  -17.750; -556.000; -512.000
339.940;   34.350; -261.000; -235.000
340.074;  -92.550; -685.000; -510.000
340.209;  -52.375; -351.000; -230.000
340.343; -108.875; -517.000; -573.000
340.477;  136.375;  998.000; 1036.000
340.612;   19.225;-1033.000; -900.000
340.746;  233.100; -199.000; -243.000
340.880;  -95.100; -924.000; -785.000
341.014;  -27.850;  -45.000; -154.000
341.149; -101.400; -756.000; -718.000
341.283; -104.025; -839.000; -754.000
341.417; -135.425;-1124.000; -938.000
341.551;  -41.325; -768.000; -708.000
341.685;  -59.050; -633.000; -611.000
341.820;  -51.700; -562.000; -493.000
341.954;  -47.625; -218.000; -349.000
342.088; -146.975;-1102.000;-1019.000
342.222;   40.425;  565.000;  618.000
342.356;  -82.075; -395.000; -335.000
342.490; -113.600; -880.000; -841.000
342.624;  -66.800; -339.000; -242.000
342.758;  -49.000; -364.000; -312.000
342.892;  -93.025; -710.000; -585.000
343.026;  -46.550;  -58.000; -116.000
343.160;  -72.450; -426.000; -376.000
343.294;  -82.625; -474.000; -337.000
343.428;  -71.000; -488.000; -448.000
343.562;  -36.400; -172.000;  -23.000
343.696;  -51.550; -385.000; -314.000
343.830;  -51.975; -362.000; -356.000
343.964;  -20.450; -231.000; -168.000
344.098;  250.050;  199.000;   70.000
344.232;  205.150; -266.000; -127.000
344.366;   65.825; -567.000; -453.000
344.500;  -52.600; -665.000; -744.000
344.634;  -40.425; -324.000; -164.000
344.768;  -79.500; -531.000; -341.000
344.902;   -2.050;  278.000;  256.000
345.035;  -66.800; -556.000; -496.000
345.169; -133.525; -933.000; -656.000
345.303;  -59.825; -308.000; -482.000
345.437; -101.025; -826.000; -717.000
345.571;  -68.250; -675.000; -594.000
345.704;  -68.925; -309.000; -532.000
345.838;  -30.700; -331.000; -284.000
345.972;  -56.750; -543.000; -495.000
346.106;  264.525; -179.000; -190.000
346.239;  494.750; -312.000; -243.000
346.373;  -11.075; -343.000; -302.000
346.507; -136.700; -950.000; -962.000
346.640;   14.850;  -30.000;   13.000
346.774; -104.025; -650.000; -797.000
346.908;  -38.925; -138.000;  -11.000
347.041;  -97.150; -646.000; -593.000
347.175;   -5.450;  259.000;   27.000
347.309;  -90.075; -698.000; -628.000
347.442; -121.775; -883.000; -732.000
347.576;  101.375;  670.000;  668.000
347.709;   30.850; -123.000;  -52.000
347.843; -120.950; -933.000; -825.000
347.976;    9.500;  235.000;  294.000
348.110; -176.375;-1268.000;-1186.000
348.243;  -96.500; -679.000; -772.000
348.377;   15.425;  -26.000;   60.000
348.510;   41.100;  403.000;  540.000
348.644;  -48.350;  -37.000; -159.000
348.777;  -11.650;  180.000;  191.000
348.911;  -56.250; -142.000; -112.000
349.044;   74.675;  471.000;  448.000
349.178;  -51.750;-1069.000;-1006.000
349.311;  109.350;  141.000;  255.000
349.444;   41.875; -927.000; -813.000
349.578;  -30.025; -347.000; -200.000
349.711; -113.850; -959.000; -862.000
349.845;  -88.450; -661.000; -591.000
349.978; -156.900;-1224.000;-1137.000
350.111;  -94.200; -546.000; -612.000
350.244; -107.350; -596.000; -700.000
350.378;  -62.100; -392.000; -393.000
350.511;  -63.425; -393.000; -426.000
350.644; -109.350; -808.000; -806.000
350.778;   13.575;  168.000;  104.000
350.911;  -10.850;  134.000;  140.000
351.044; -103.425; -685.000; -615.000
351.177;  -53.525; -321.000; -281.000
351.310;  -29.825;    3.000; -131.000
351.444; -111.400; -888.000; -788.000
351.577;   36.000;  140.000;   90.000
351.710;   64.300;  593.000;  417.000
351.843;  -42.000; -165.000;  -77.000
351.976;  -16.600;  149.000;  -79.000
352.109; -104.300; -621.000; -612.000
352.242;  -60.775; -464.000; -419.000
352.376;  -83.750; -580.000; -636.000
352.509;   -6.500; -437.000; -356.000
352.642;  -94.250; -654.000; -604.000
352.775;  -12.300; -141.000;  -98.000
352.908; -120.125; -933.000; -904.000
353.041; -118.325; -814.000; -824.000
353.174;  -59.650; -551.000; -424.000
353.307;  -92.375; -753.000; -764.000
353.440;   35.925;  541.000;  453.000
353.573; -105.575; -957.000;-1008.000
353.706;  -52.775; -384.000; -558.000
353.839;  -39.600; -264.000; -220.000
353.971; -100.375; -657.000; -512.000
354.104; -105.325; -896.000; -835.000
354.237;  -92.375; -627.000; -662.000
354.370; -108.000; -846.000; -879.000
354.503; -175.475;-1231.000;-1308.000
354.636;  -21.450; -529.000; -348.000
354.769; -121.750; -937.000; -860.000
354.902;  -36.325; -230.000; -139.000
355.034;  -29.600; -164.000; -220.000
355.167;  -16.800; -262.000; -162.000
355.300;  -71.600;-1061.000; -880.000
355.433; 1466.425;  -71.000;  -14.000
355.565; 2305.275; -402.000; -384.000
355.698;  597.275; -356.000; -296.000
355.831;  -16.225; -882.000; -801.000
355.964;    8.000; -285.000; -170.000
356.096;  -71.650; -856.000; -843.000
356.229;    0.125; -523.000; -530.000
356.362;  549.750; -373.000; -266.000
356.494;  936.550; -229.000; -162.000
356.627;  318.650;  269.000;  377.000
356.760;  917.950;  120.000;   53.000
356.892; 1550.650; -286.000; -601.000
357.025;  322.475;  403.000;  389.000
357.157;  197.525; -167.000; -179.000
357.290; 1225.950; -856.000; -713.000
357.423;  374.800; -667.000; -556.000
357.555;   69.900; -217.000; -228.000
357.688;  100.550; -483.000; -364.000
357.820;  123.325; -870.000; -877.000
357.953; 1173.850; -563.000; -589.000
358.085;  185.525; -632.000; -612.000
358.218;   66.525;-1131.000; -932.000
358.350;   36.600;  -58.000;  312.000
358.483; -153.275;-1300.000;-1187.000
358.615; -144.750;-1182.000;-1078.000
358.747; -144.200;-1187.000;-1058.000
358.880;  -55.100; -810.000; -744.000
359.012;  -30.675; -376.000; -202.000
359.145;  -70.275; -480.000; -511.000
359.277;  -76.050; -962.000; -913.000
359.409; 1010.375;  536.000;  231.000
359.542;  206.575; -738.000; -688.000
359.674;   12.175;   46.000;   13.000
359.806;  -65.350; -565.000; -438.000
359.939;  -37.050; -617.000; -516.000
360.071;   32.175; -583.000; -579.000
360.203;  -23.125; -411.000; -364.000
360.335;   19.025;  164.000;  -16.000
360.468;   85.850; -249.000; -307.000
360.600; 1158.650; -547.000; -454.000
360.732; 4294.950; -546.000; -423.000
360.864;  681.950;-1216.000;-1044.000
360.996;   49.500; -516.000; -554.000
361.129;  -53.500; -389.000; -598.000
361.261;   -6.325;  110.000; -113.000
361.393;  -46.050; -252.000; -214.000
361.525;   -5.750;   94.000;  244.000
361.657; -114.850; -821.000; -703.000
361.789;  -29.300; -139.000; -155.000
361.921;  -55.075; -642.000; -593.000
362.053;   88.900;  524.000;  541.000
362.185;   -7.750;  288.000;   72.000
362.318; -105.325; -709.000; -705.000
362.450;   18.300;  294.000;  444.000
362.582;  -94.700; -913.000; -870.000
362.714;  -66.825; -353.000; -332.000
362.846;  -88.500; -606.000; -490.000
362.978; -136.900; -941.000; -811.000
363.109;  -33.400; -161.000; -260.000
363.241;  118.725; -739.000; -749.000
363.373;  639.450; -649.000; -564.000
363.505; 1079.975; -186.000;  -91.000
363.637;  242.250; -787.000; -601.000
363.769; -134.200;-1067.000;-1080.000
363.901;  -80.725; -596.000; -654.000
364.033; -154.750;-1103.000;-1062.000
364.165;  -42.500; -283.000; -283.000
364.296;   90.900; -316.000; -177.000
364.428;  205.175;-1344.000;-1220.000
364.560;  -60.325; -679.000; -661.000
364.692;  -84.175; -738.000; -835.000
364.824;   -9.475; -588.000; -456.000
364.955;  527.875; -402.000; -564.000
365.087; 1770.700;-1097.000; -852.000
365.219;  115.125; -686.000; -816.000
365.351;  -60.750; -526.000; -572.000
365.482;   12.475;  300.000;  240.000
365.614;  -57.850; -402.000; -314.000
365.746;  -94.375; -729.000; -752.000
365.877;  -81.950; -706.000; -672.000
366.009;  437.350;  -35.000;  -62.000
366.141;   -9.575;-1249.000;-1134.000
366.272; -116.125; -803.000; -719.000
366.404; -116.625;-1005.000; -874.000
366.535;  -16.700; -139.000;  -12.000
366.667; -108.600; -644.000; -649.000
366.799;   24.775;  353.000;  203.000
366.930; -138.650; -862.000; -996.000
367.062;  194.025; -639.000; -613.000
367.193;  378.825; -872.000; -842.000
367.325;  -50.600; -580.000; -684.000
367.456;  -16.075; -246.000;   31.000
367.588;  276.150; -371.000; -318.000
367.719;   56.350;  -44.000;  -45.000
367.851;  -39.425; -222.000; -241.000
367.982; -117.625; -875.000; -732.000
368.113;  -32.625; -475.000; -358.000
368.245; -139.075; -960.000; -841.000
368.376;  -41.100; -254.000; -302.000
368.508;  -62.675; -188.000; -263.000
368.639; -162.350;-1166.000;-1034.000
368.770; -100.075; -670.000; -589.000
368.902; -112.575; -836.000; -926.000
369.033; -114.050; -906.000; -855.000
369.164;  -37.450; -720.000; -653.000
369.296;  -86.325; -452.000; -601.000
369.427;  -22.550; -209.000; -144.000
369.558;  -82.375; -593.000; -377.000
369.689;  -81.375; -721.000; -569.000
369.821; -146.700; -951.000; -845.000
369.952;  -18.400;   42.000; -108.000
370.083;  -67.450; -229.000; -108.000
370.214;  -99.025; -735.000; -650.000
370.345;  -25.000;   65.000;   81.000
370.477; -107.050; -810.000; -790.000
370.608;   10.750; -328.000; -264.000
370.739; -136.075;-1233.000;-1292.000
370.870; -121.325;-1102.000; -923.000
371.001;  -41.700; -378.000; -467.000
371.132;  -89.250; -754.000; -735.000
371.263;  -34.700;  -42.000; -148.000
371.394; -138.650; -841.000; -748.000
371.525;    9.700;  345.000;  225.000
371.657; -115.475; -808.000; -670.000
371.788;   20.125;  103.000;  199.000
371.919;    5.150; -384.000; -304.000
372.050;  996.950;  -91.000; -156.000
372.181;  301.950; -188.000; -294.000
372.311;   76.275;   42.000; -127.000
372.442;  -75.725; -457.000; -451.000
372.573;  -44.575; -444.000; -340.000
372.704; -150.200;-1008.000; -980.000
372.835;  -29.250; -228.000; -289.000
372.966;  -92.575; -646.000; -554.000
373.097;  -89.300; -575.000; -711.000
373.228;  -85.250; -717.000; -542.000
373.359;  -60.325; -824.000; -536.000
373.490;  115.375; -881.000; -727.000
373.620;  184.800;-1001.000; -803.000
373.751;  406.425; -332.000; -396.000
373.882;  159.225; -663.000; -733.000
374.013;  -33.025; -449.000; -262.000
374.143;  -87.550; -581.000; -659.000
374.274; -137.400; -987.000; -908.000
374.405;   53.275; -388.000; -276.000
374.536;   78.475; -526.000; -387.000
374.666;  176.200; -759.000; -807.000
374.797;  -32.700; -817.000; -868.000
374.928;  114.000; -710.000; -560.000
375.058;  135.725; -535.000; -500.000
375.189;   -3.850;  -59.000;  -93.000
375.320; -120.925; -928.000;-1034.000
375.450;  -71.650; -625.000; -616.000
375.581;  -55.775; -526.000; -436.000
375.712;  -56.800; -574.000; -250.000
375.842;  -23.800; -438.000; -415.000
375.973;  -34.875; -554.000; -513.000
376.103;  -93.050; -665.000; -648.000
376.234; -105.775; -531.000; -552.000
376.364; -135.275; -944.000; -867.000
376.495;  120.775;  925.000;  529.000
376.625;  -70.200; -472.000; -485.000
376.756;  -72.575; -709.000; -678.000
376.886; -144.225;-1178.000;-1026.000
377.017;  151.450;-1048.000;-1061.000
377.147;  667.075; -786.000; -782.000
377.278;   92.025;  174.000;  228.000
377.408; -126.175; -801.000; -815.000
377.538; -108.725; -707.000; -693.000
377.669;  -84.525; -537.000; -613.000
377.799; -110.450; -645.000; -635.000
377.929; -102.075; -610.000; -428.000
378.060; -125.025; -781.000; -847.000
378.190;  -13.925; -726.000; -531.000
378.320;  -39.550; -401.000; -406.000
378.451;  -34.325; -131.000;  -22.000
378.581;  -18.900;  -67.000; -110.000
378.711;   94.850; 1035.000;  866.000
378.841;  -82.525; -533.000; -675.000
378.972; -104.300; -871.000; -751.000
379.102;  -71.950; -652.000; -579.000
379.232;  -42.050; -126.000;  -73.000
379.362; -138.300;-1001.000; -885.000
379.492;  -66.125; -373.000; -424.000
379.623;   21.225;    0.000;  111.000
379.753; -131.050;-1107.000; -974.000
379.883;   56.825;   59.000;  156.000
380.013; -103.650;-1081.000;-1017.000
380.143; -123.925;-1097.000;-1056.000
380.273; -123.225; -985.000; -861.000
380.403;   -4.775; -344.000; -257.000
380.533;  -57.000; -651.000; -664.000
380.663;   11.800;  173.000;  128.000
380.793; -154.900;-1027.000;-1074.000
380.923;  -29.775; -103.000;  -34.000
381.053; -100.325; -613.000; -623.000
381.183;  -38.950; -106.000; -248.000
381.313;  -81.200; -656.000; -470.000
381.443;  -54.050; -692.000; -473.000
381.573;  -34.350; -402.000; -409.000
381.703; -102.575;-1249.000;-1095.000
381.833; -186.350;-1454.000;-1336.000
381.963;   19.275; -134.000;  -87.000
382.093;  304.475; -925.000; -909.000
382.223;   68.025; -713.000; -602.000
382.353;  -93.725; -801.000; -608.000
382.482;  -27.350;-1091.000; -964.000
382.612;  126.400; -872.000; -644.000
382.742;   39.525; -695.000; -622.000
382.872;  -17.325; -565.000; -551.000
383.002;   26.300;  347.000; -132.000
383.131;  -29.350; -226.000; -160.000
383.261;  -28.000; -706.000; -768.000
383.391;  337.025; -552.000; -377.000
383.521; 5165.200;  451.000;  263.000
383.650; 1588.625; -947.000; -904.000
383.780;   46.500; -783.000; -656.000
383.910;  103.225;  880.000;  802.000
384.039;  -81.425; -794.000; -656.000
384.169; -101.725;-1205.000;-1017.000
384.299;  -92.450; -650.000; -662.000
384.428; -116.550; -764.000; -680.000
384.558;  -69.850; -308.000; -275.000
384.687;  -69.750; -414.000; -334.000
384.817;  -25.400;   75.000;   -2.000
384.947;  -50.050; -234.000; -141.000
385.076;  149.950;  982.000;  912.000
385.206;   57.350;  369.000;  480.000
385.335;  -69.350; -549.000; -417.000
385.465; -115.925; -655.000; -663.000
385.594;   14.525;  -53.000;  -44.000
385.724;   -1.975; -868.000; -838.000
385.853;  -11.025; -296.000; -270.000
385.982;  241.225; -743.000; -787.000
386.112;  497.600;-1052.000; -871.000
386.241;   -7.475; -307.000; -312.000
386.371;  -26.975; -174.000;  -87.000
386.500;  -52.075; -825.000; -789.000
386.629;  -20.300; -874.000; -817.000
386.759;   72.825;  -43.000;   68.000
386.888;  -22.475; -170.000; -250.000
387.017;  -94.075; -648.000; -620.000
387.147; -110.400; -771.000; -798.000
387.276;  -66.375; -410.000; -397.000
387.405;  -42.750; -398.000; -342.000
387.535;  -73.900; -452.000; -361.000
387.664;  -61.175; -692.000; -620.000
387.793;  -29.450; -198.000; -113.000
387.922;  102.675;  255.000;  200.000
388.052;  -64.600; -576.000; -423.000
388.181;  -52.775; -342.000; -472.000
388.310; -105.575; -889.000; -710.000
388.439; -109.300; -749.000; -742.000
388.568;   51.325;  365.000;  244.000
388.697;  181.175; -756.000; -653.000
388.826;  -27.200; -768.000; -666.000
388.956;  -46.300; -285.000; -307.000
389.085;  -55.900; -347.000; -287.000
389.214; -118.925; -842.000; -872.000
389.343;  -78.075; -645.000; -413.000
389.472;  548.600;  126.000;  149.000
389.601;  640.000;   91.000;    0.000
389.730;  -31.175; -568.000; -687.000
389.859;   23.375;  226.000;   46.000
389.988;   19.700; -423.000; -408.000
390.117;   27.150; -168.000; -146.000
390.246;  -53.250; -331.000; -320.000
390.375;  -71.350; -673.000; -626.000
390.504;  -97.975; -703.000; -621.000
390.633; -127.950; -672.000; -726.000
390.761;  -86.100; -732.000; -645.000
390.890;  -18.775;   -4.000; -130.000
391.019;  -78.900; -421.000; -441.000
391.148; -124.300; -826.000; -855.000
391.277; -100.075; -576.000; -493.000
391.406; -118.300; -821.000; -805.000
391.534;    4.575;  574.000; -301.000
391.663;  -93.150; -583.000; -645.000
391.792; -104.900; -673.000; -701.000
391.921;  -16.275;   -3.000;   15.000
392.050;   -5.750; -287.000; -228.000
392.178; -139.675;-1206.000;-1061.000
392.307;  -52.625; -758.000; -712.000
392.436;  -65.275; -427.000; -641.000
392.564;    3.925;  166.000;   -6.000
392.693; -109.825; -860.000; -682.000
392.822;  -12.775; -529.000; -534.000
392.950;  -65.225; -880.000; -714.000
393.079;   36.100; -188.000; -328.000
393.208;  -53.200; -488.000; -511.000
393.336;  -17.050; -170.000; -145.000
393.465;  -44.500; -317.000; -199.000
393.593;  -20.275;   62.000;   79.000
393.722; -133.050;-1121.000; -916.000
393.850;  -31.025; -188.000;  -61.000
393.979; -123.600; -926.000; -805.000
394.107;  -67.825; -517.000; -537.000
394.236;  -53.800; -570.000; -507.000
394.364;   81.500;  383.000;  206.000
394.493;   35.325; -911.000; -767.000
394.621;  -11.075; -955.000; -916.000
394.750; 1178.800; -873.000; -923.000
394.878; 4537.575; -247.000; -149.000
395.007; 6713.125; -721.000; -807.000
395.135;  609.925; -790.000; -721.000
395.263;  -44.925;-1038.000;-1040.000
395.392;    3.025;  -25.000; -107.000
395.520; -131.400; -818.000; -679.000
395.648; -115.325; -865.000; -915.000
395.777;  -76.800; -366.000; -405.000
395.905;  -75.800; -449.000; -564.000
396.033;    7.625;  217.000;  172.000
396.162;   72.800; -399.000; -453.000
396.290;   74.050;  -17.000;   -2.000
396.418;  -47.750; -555.000; -514.000
396.546;  -90.650; -571.000; -466.000
396.674; -133.200; -850.000; -878.000
396.803;  -32.925;  -72.000;  -23.000
396.931;  -38.400; -179.000; -199.000
397.059; -139.075;-1026.000; -989.000
397.187; -139.525;-1026.000; -975.000
397.315; -128.250; -884.000; -649.000
397.443; -104.650; -592.000; -443.000
397.572;  -97.800; -578.000; -424.000
397.700;  -79.725; -607.000; -614.000
397.828;  -43.350;  120.000;  -90.000
397.956;  -32.550; -508.000; -478.000
398.084;  -23.250; -767.000; -626.000
398.212;   -7.825;  137.000;  124.000
398.340;  -29.225;  -56.000;  159.000
398.468;  -68.725; -390.000; -169.000
398.596; -157.875; -993.000; -953.000
398.724; -135.475; -762.000; -767.000
398.852; -171.200;-1024.000; -976.000
398.980; -100.175; -560.000; -560.000
399.108; -111.400; -982.000; -735.000
399.236;  -24.550;   13.000;    8.000
399.363;   -1.350;  222.000;  196.000
399.491;  -81.525; -404.000; -398.000
399.619; -132.325; -829.000; -800.000
399.747; -119.025; -859.000; -771.000
399.875;   24.175;  220.000;  234.000
400.003;  -78.675; -359.000; -284.000
400.130;  -96.600; -421.000; -341.000
400.258;  -44.100;  -83.000;   38.000
400.386;  -70.975; -352.000; -168.000
400.514;  -94.050; -526.000; -587.000
400.641; -139.300; -928.000; -802.000
400.769; -144.625; -979.000; -888.000
400.897; -127.275; -838.000; -793.000
401.025;  -43.400; -166.000; -152.000
401.152;  -14.875;  220.000;   38.000
401.280;  -88.850; -430.000; -429.000
401.408; -117.300; -712.000; -576.000
401.535; -123.175; -735.000; -758.000
401.663; -190.125;-1134.000;-1054.000
401.790;  -99.825; -514.000; -525.000
401.918;    9.075;  436.000;  405.000
402.046;  -29.075;  134.000;  122.000
402.173;  -45.175;  -18.000;    7.000
402.301;  -72.050; -519.000; -397.000
402.428;   41.225;  528.000;  383.000
402.556; -148.350;-1188.000; -913.000
402.683;  -38.900;  -20.000;   -1.000
402.811;  -21.525;  -37.000; -206.000
402.938;  -29.975;   20.000;   27.000
403.066;  -31.400; -574.000; -558.000
403.193;   80.850;  299.000;  239.000
403.321;   25.425; -396.000; -574.000
403.448;  107.000;   83.000;   27.000
403.575;   30.425;  -90.000;  -46.000
403.703;  -93.075; -732.000; -557.000
403.830;  -55.325; -531.000; -496.000
403.957; -121.350;-1117.000;-1023.000
404.085;   16.350;  -61.000; -172.000
404.212;  100.750;  -50.000;   63.000
404.339;  433.625; -566.000; -306.000
404.467; 9171.675; -612.000; -524.000
404.594; 5681.150; -287.000; -227.000
404.721;  974.050; -869.000; -764.000
404.848;  110.425; -113.000; -202.000
404.976;  -96.100; -856.000; -783.000
405.103;   -0.200;  -14.000;  -82.000
405.230;    5.600;  190.000;  226.000
405.357;   32.550;  117.000;   44.000
405.484;  439.000;  -49.000;    5.000
405.612;  133.775; -548.000; -563.000
405.739;  -51.375; -488.000; -243.000
405.866;   56.575;  669.000;  385.000
405.993;  -66.925; -398.000; -102.000
406.120; -140.725; -801.000; -887.000
406.247;  -98.000; -323.000; -342.000
406.374;  106.600;  540.000;  629.000
406.501;  -77.500; -632.000; -702.000
406.628;  -87.450; -621.000; -589.000
406.755; -116.125; -803.000; -620.000
406.882;  -70.350; -228.000; -277.000
407.009; -113.075; -719.000; -628.000
407.136;  -53.750; -480.000; -401.000
407.263;  -58.375; -939.000; -829.000
407.390; -100.775; -692.000; -614.000
407.517; -165.425;-1139.000;-1187.000
407.644;  -61.575; -332.000; -256.000
407.771;  -77.950; -249.000; -287.000
407.898;   -6.025;  168.000;  328.000
408.025;  -70.925; -421.000; -313.000
408.151;   -9.075;   82.000;  153.000
408.278;  -80.000; -267.000; -216.000
408.405; -130.900; -931.000; -899.000
408.532;  -89.375; -549.000; -542.000
408.659; -126.050; -677.000; -648.000
408.785; -175.950;-1298.000;-1170.000
408.912;  -75.775; -412.000; -296.000
409.039; -110.725; -610.000; -686.000
409.166; -109.150; -591.000; -555.000
409.292; -102.275; -571.000; -534.000
409.419; -126.675; -665.000; -649.000
409.546;  -78.125; -431.000; -192.000
409.672; -119.025; -713.000; -545.000
409.799;  -51.525;  -36.000;   34.000
409.926;  -48.750; -180.000; -179.000
410.052; -179.775;-1127.000;-1091.000
410.179;  -75.875; -368.000; -392.000
410.305;  -94.775; -375.000; -493.000
410.432;  -41.675; -220.000; -333.000
410.558;  -98.925; -305.000; -380.000
410.685; -110.775; -688.000; -431.000
410.812; -124.600; -409.000; -588.000
410.938; -148.550; -964.000; -808.000
411.065; -110.375; -671.000; -645.000
411.191;  -49.200; -189.000; -174.000
411.317; -140.000; -823.000; -742.000
411.444;  -71.575; -317.000; -246.000
411.570;  -73.900; -339.000; -294.000
411.697; -119.025; -758.000; -752.000
411.823; -172.325; -989.000; -999.000
411.949;  -56.825;  -56.000;   17.000
412.076; -112.100; -539.000; -519.000
412.202; -138.675; -758.000; -757.000
412.329; -132.275; -798.000; -752.000
412.455; -117.575; -821.000; -657.000
412.581;  -27.150;  -15.000;  172.000
412.707; -100.850; -540.000; -457.000
412.834;   -3.900;  156.000;  219.000
412.960; -105.475; -785.000; -784.000
413.086; -112.625; -743.000; -701.000
413.212;  110.725;  604.000;  578.000
413.339;  -99.450; -685.000; -701.000
413.465;  -63.475; -364.000; -310.000
413.591; -117.975; -757.000; -474.000
413.717;  -69.050; -358.000; -366.000
413.843; -132.050; -839.000; -861.000
413.969;  -58.375;  -47.000; -292.000
414.096;  -99.550; -679.000; -679.000
414.222;  -22.725;  -33.000;   85.000
414.348;  -82.450; -652.000; -385.000
414.474;    0.900;   38.000;  -52.000
414.600;  -31.550; -126.000; -144.000
414.726;  -24.150;  -96.000;  -55.000
414.852;  -45.525; -365.000; -342.000
414.978;   22.375;  104.000;  -18.000
415.104;   42.500;   38.000;   80.000
415.230;   45.750; -329.000; -330.000
415.356;   58.425; -409.000; -514.000
415.482;  223.350;   13.000;  -35.000
415.608;  401.025; -247.000; -323.000
415.734; 1321.100;   67.000;   38.000
415.860;27721.325; -875.000; -767.000
415.986;23303.800; -685.000; -607.000
416.111; 2197.375; -798.000; -652.000
416.237;  485.375; -424.000; -571.000
416.363; 1678.200; -765.000; -733.000
416.489; 6953.475; -324.000; -251.000
416.615;  980.475; -707.000; -742.000
416.741;   64.575; -677.000; -784.000
416.866;  -62.150; -673.000; -736.000
416.992; -103.500; -801.000; -818.000
417.118;  -16.775;  -41.000;  -80.000
417.244;  -62.125; -798.000; -531.000
417.369;  -80.625; -801.000; -612.000
417.495;  -10.375; -325.000; -254.000
417.621;  -82.775;-1015.000; -803.000
417.746;    4.900; -579.000; -572.000
417.872;   58.500; -254.000; -144.000
417.998;  128.100; -515.000; -530.000
418.123; 1554.700;-1073.000; -845.000
418.249; 8721.325; -512.000; -601.000
418.374; 1540.775; -916.000; -824.000
418.500;  249.650; -383.000; -482.000
418.626;  183.125;   70.000;  -59.000
418.751;  170.000; -549.000; -448.000
418.877;  314.775; -637.000; -643.000
419.002; 2577.975; -688.000; -560.000
419.128;19838.800; -930.000; -721.000
419.253; 5793.075; -967.000; -837.000
419.379;  798.650; -391.000; -338.000
419.504;  599.750;  325.000;  415.000
419.629;  858.175; -393.000; -212.000
419.755; 5369.150; -317.000; -254.000
419.880;35512.900;  -98.000;   67.000
420.006;17871.900; -280.000; -221.000
420.131;44477.675; -662.000; -775.000
420.256; 7349.125; -315.000; -316.000
420.382;  996.650; -665.000; -687.000
420.507;  174.200; -649.000; -778.000
420.632;   54.575; -337.000; -339.000
420.758;   38.000; -251.000; -425.000
420.883;  -88.750; -876.000; -672.000
421.008; -101.950; -775.000; -619.000
421.133;  -94.525; -509.000; -467.000
421.259;  -57.525; -325.000; -259.000
421.384; -138.150; -834.000; -693.000
421.509; -121.400;-1052.000; -862.000
421.634;   97.975; -936.000; -820.000
421.759;   48.625; -359.000; -327.000
421.885; -100.600; -717.000; -656.000
422.010;  -95.875; -673.000; -542.000
422.135; -143.775; -695.000; -727.000
422.260;   18.025;  340.000;  280.000
422.385;  -39.000;   12.000;  -98.000
422.510;  -16.175;  151.000;  -26.000
422.635;  -17.850;  -87.000;  -43.000
422.760;  -19.500; -766.000; -791.000
422.885;   25.725;  -57.000;  -80.000
423.010;  -34.550; -112.000; -169.000
423.135;  -88.800; -481.000; -561.000
423.260;  -36.950; -150.000; -245.000
423.385;   14.600;  476.000;  222.000
423.510;   15.275;   71.000;  -22.000
423.635;   -6.150;  133.000;   45.000
423.760;   46.200;  383.000;  328.000
423.885;   24.675;  336.000;  391.000
424.010;  -20.450;  -68.000;  -13.000
424.135;  -29.250;    5.000;  -33.000
424.259;  -80.800; -654.000; -457.000
424.384;  -45.100; -279.000; -272.000
424.509;  -35.300; -260.000; -186.000
424.634; -100.500; -761.000; -623.000
424.759;  -21.075; -688.000; -544.000
424.883;    3.600; -506.000; -527.000
425.008;  202.250; -502.000; -410.000
425.133; 2900.125; -679.000; -653.000
425.258; 1647.225; -517.000; -381.000
425.382;  433.775; -867.000; -774.000
425.507;  963.475; -487.000; -543.000
425.632;  378.400; -802.000; -663.000
425.756;  707.425; -256.000; -146.000
425.881;10174.500; -831.000; -857.000
426.006;31963.500; -604.000; -355.000
426.130; 5421.600; -696.000; -508.000
426.255;  736.800; -611.000; -491.000
426.379;  285.850; -189.000; -577.000
426.504;  505.125;  660.000;  544.000
426.629; 5715.100; -519.000; -466.000
426.753; 4595.675;   64.000;  -46.000
426.878;  582.500; -252.000; -288.000
427.002;  324.000; -651.000; -668.000
427.127; 2071.600;  -35.000; -158.000
427.251;17612.375;  372.000;  401.000
427.375; 5888.250; -191.000; -173.000
427.500; 1202.000; -616.000; -610.000
427.624;  361.700; -234.000; -400.000
427.749;   72.675; -216.000; -225.000
427.873;  -30.950; -499.000; -412.000
427.997;  -35.350; -222.000; -230.000
428.122;   59.425;  795.000;  703.000
428.246;   37.625;  433.000;  434.000
428.371; -127.225; -869.000; -773.000
428.495; -114.925; -624.000; -646.000
428.619;  -49.075; -186.000; -117.000
428.743;   -4.725;   65.000;  132.000
428.868;  -85.525; -732.000; -643.000
428.992;  372.925; -219.000; -326.000
429.116;  138.600; -329.000; -357.000
429.240;   96.000;  419.000;  426.000
429.365;  -31.600; -454.000; -574.000
429.489;  -60.550; -638.000; -647.000
429.613;   30.875; -236.000; -177.000
429.737;   95.375; -563.000; -432.000
429.861;  390.475; -247.000; -133.000
429.985; 7986.000; -425.000; -305.000
430.109;10375.450; -770.000; -908.000
430.234; 1300.425;   76.000;  -50.000
430.358;  166.175; -250.000; -160.000
430.482;  -33.150; -672.000; -564.000
430.606;  -62.600; -655.000; -375.000
430.730;  -49.375; -437.000; -388.000
430.854;  -80.900; -909.000; -835.000
430.978;  -91.600; -795.000; -764.000
431.102;  -88.175; -499.000; -422.000
431.226; -120.425; -874.000; -815.000
431.350;   20.550;  345.000;  422.000
431.474; -101.675; -661.000; -373.000
431.597; -164.400;-1060.000; -848.000
431.721;  -74.325; -276.000; -267.000
431.845; -119.125; -704.000; -472.000
431.969;  -81.450; -304.000; -349.000
432.093;  -91.575; -395.000; -317.000
432.217;  -23.675;   32.000;   82.000
432.341;  -82.875; -523.000; -518.000
432.464;   -2.850;   96.000;   40.000
432.588;  -33.425; -401.000; -329.000
432.712;   14.600;  -52.000;  -52.000
432.836;   75.875;  213.000;  263.000
432.959;   32.025; -372.000; -311.000
433.083;  160.325;   11.000;    2.000
433.207;  580.975;  285.000;  930.000
433.330; 7710.425; -391.000; -200.000
433.454;10864.825; -654.000; -638.000
433.578; 5945.450;  583.000;  278.000
433.701; 1311.275; -623.000; -675.000
433.825;  163.300; -292.000; -299.000
433.949;   53.000;   28.000;  -72.000
434.072;  -27.000; -410.000; -323.000
434.196;   -2.575; -309.000; -117.000
434.319; 3406.325;25482.000;25124.000
434.443;  867.650; -656.000; -603.000
434.566; 4210.250;  281.000;   62.000
434.690;  918.975; -637.000; -383.000
434.813;  171.400; -251.000; -173.000
434.937;  -34.575; -569.000; -696.000
435.060;  -80.775; -423.000; -332.000
435.184;  -25.150; -492.000; -217.000
435.307;   -4.100;  159.000;  102.000
435.431;  -35.100;  -40.000;   24.000
435.554;  -64.425; -399.000; -240.000
435.677;  -82.975; -350.000; -258.000
435.801;  -50.275;  -25.000;   49.000
435.924;  -46.475;    1.000;  -67.000
436.048; -160.150;-1019.000; -732.000
436.171;  -67.375; -240.000;  -66.000
436.294;  -14.325; -248.000; -229.000
436.417;  234.975; -963.000; -849.000
436.541;  -25.075; -814.000; -840.000
436.664;  -46.225; -242.000; -316.000
436.787;  -32.275;   13.000;  113.000
436.910; -117.900; -792.000; -422.000
437.034;   -0.675;  142.000;  143.000
437.157;   -5.025;  -11.000;    0.000
437.280;  -81.075; -392.000; -292.000
437.403; -140.525; -982.000; -869.000
437.526;  -38.950; -903.000; -865.000
437.649;  320.950; -505.000; -332.000
437.772;  -32.050; -692.000; -540.000
437.896;   41.975;  700.000;  544.000
438.019; -107.725; -758.000; -503.000
438.142; -104.400; -596.000; -506.000
438.265; -117.225; -639.000; -670.000
438.388;   -3.300; -520.000; -410.000
438.511;  -65.475; -597.000; -394.000
438.634;  -78.825; -247.000; -125.000
438.757; -140.425; -693.000; -619.000
438.880;  -52.575;  -34.000;  -57.000
439.003;  -95.750; -417.000; -437.000
439.126;  -75.950; -287.000; -167.000
439.248;  -69.400;  -98.000; -139.000
439.371;  -46.625;    9.000;  -53.000
439.494;   13.100;  510.000;  439.000
439.617;  -54.800;   65.000;  -88.000
439.740; -189.200; -968.000; -816.000
439.863; -136.725; -755.000; -595.000
439.986; -119.375; -476.000; -431.000
440.108;  -35.925; -161.000; -112.000
440.231; -169.075; -950.000; -836.000
440.354;  -49.050;  -64.000; -150.000
440.477; -103.025; -566.000; -542.000
440.599;  -95.000; -200.000; -225.000
440.722; -128.925; -709.000; -586.000
440.845;   63.775;  751.000;  928.000
440.968; -113.300; -415.000; -311.000
441.090;  -86.450; -199.000;  -33.000
441.213; -166.175;-1021.000; -825.000
441.336;  -61.925; -159.000;   -5.000
441.458;  -88.575; -549.000; -396.000
441.581; -139.525; -628.000; -629.000
441.703;  -86.225; -152.000;   13.000
441.826; -120.650; -557.000; -400.000
441.948;  -58.325;   56.000;   51.000
442.071;   23.300;  555.000;  424.000
442.193; -123.350; -531.000; -485.000
442.316;   -9.975;  152.000;   97.000
442.438;   73.725; -233.000;  -10.000
442.561;   63.050;  272.000;  262.000
442.683;   21.675; -809.000; -522.000
442.806;  182.700;   -8.000;   74.000
442.928; -117.900; -859.000; -604.000
443.051;  -95.000; -577.000; -373.000
443.173; -102.200; -341.000; -339.000
443.295; -103.000; -263.000; -371.000
443.418;  -78.875; -321.000;  -29.000
443.540;  -42.625; -106.000;   -4.000
443.662; -142.700; -563.000; -465.000
443.785;  -28.450;  335.000;  199.000
443.907; -104.000; -362.000; -208.000
444.029; -133.600; -767.000; -494.000
444.152; -132.525; -644.000; -554.000
444.274;  -41.075;  -18.000;  -24.000
444.396; -114.900; -461.000; -221.000
444.518; -126.100; -691.000; -454.000
444.640;  -95.750; -268.000; -111.000
444.763;  -15.200;  388.000;  249.000
444.885; -128.150; -432.000; -392.000
445.007;  -32.175;   35.000;   86.000
445.129; -128.625; -610.000; -515.000
445.251; -108.525; -372.000; -439.000
445.373; -153.850; -537.000; -386.000
445.495;  -13.900;  242.000;  350.000
445.617;   22.000;  853.000;  753.000
445.739;  -82.250; -215.000;  -97.000
445.861;  -72.250; -245.000; -112.000
445.984;  -76.675; -267.000; -101.000
446.105;  -47.475; -418.000; -251.000
446.227;   72.400; -176.000;  -19.000
446.349;  -89.050; -358.000; -249.000
446.471; -124.000; -615.000; -448.000
446.593;  -89.775; -316.000;   19.000
446.715;  -59.975;  -67.000;   41.000
446.837;   28.925;  697.000;  832.000
446.959; -121.400; -457.000; -478.000
447.081; -129.550; -628.000; -518.000
447.203;   33.750;  862.000;  834.000
447.325;  -84.025; -270.000;   42.000
447.446;  -11.775;  286.000;  530.000
447.568; -157.800; -921.000; -803.000
447.690;  -98.900; -236.000; -245.000
447.812; -143.525; -798.000; -519.000
447.933;  -35.150;  155.000;  127.000
448.055;  -81.525; -306.000; -261.000
448.177;   20.800;   31.000;   79.000
448.299; -121.125; -935.000; -727.000
448.420;  -14.675;  -25.000;  159.000
448.542;  -66.600;   -3.000;   33.000
448.664;  -14.950;  109.000;  322.000
448.785;  -45.025;  265.000;   83.000
448.907;  -94.475; -614.000; -353.000
449.028; -122.275; -771.000; -471.000
449.150;   33.650;  492.000;  589.000
449.272; -170.975;-1044.000; -913.000
449.393;   19.450;  612.000;  694.000
449.515; -129.275; -634.000; -581.000
449.636;  -86.400; -264.000; -155.000
449.758;   43.075;  763.000;  622.000
449.879;  -86.250; -498.000; -396.000
450.001;  -57.075; -149.000;  -49.000
450.122;  -33.800;  -95.000;  162.000
450.244;  -14.850;   37.000;  364.000
450.365;  -62.100; -495.000; -301.000
450.486;   -5.400;   80.000;  268.000
450.608;   42.575;  393.000;  326.000
450.729;  103.825;  578.000;  645.000
450.850;  102.200; -574.000; -466.000
450.972; 1249.875; -552.000; -389.000
451.093; 8103.675;  190.000;  588.000
451.214; 4272.350; -516.000; -337.000
451.336;  720.850;  773.000;  579.000
451.457;  104.650;  264.000;  393.000
451.578;  -14.250; -118.000;  -74.000
451.699; -115.175; -546.000; -540.000
451.821;  -57.200; -284.000;  -50.000
451.942;    7.850;  278.000;  285.000
452.063;   53.750;  228.000;  419.000
452.184;  823.725;  -54.000;  -49.000
452.305; 1791.900;  103.000;  170.000
452.427;  350.125; -549.000; -301.000
452.548;   14.800;   23.000;   79.000
452.669;  -54.875; -257.000;  -89.000
452.790;  -49.400;    3.000;  -18.000
452.911;  -16.700;  195.000;  259.000
453.032;  -77.550; -289.000;  -60.000
453.153;  -58.000;  -29.000;   81.000
453.274;   43.150;  737.000;  868.000
453.395;  -70.425;  -51.000;  175.000
453.516;  104.425; 1317.000; 1388.000
453.637;  -99.400; -205.000; -150.000
453.758;  -61.075;   15.000;   69.000
453.879; -131.100; -462.000; -250.000
454.000;   58.250; 1086.000;  948.000
454.121; -125.325; -554.000; -326.000
454.242; -102.325; -599.000; -383.000
454.362;  -54.725;  -99.000;  114.000
454.483;  -23.125; -309.000; -229.000
454.604;   64.250;  512.000;  580.000
454.725; -129.400; -627.000; -555.000
454.846; -121.025; -474.000; -406.000
454.967;  -31.175;  230.000;  539.000
455.087;  -38.675;  179.000;  153.000
455.208;   11.250;  554.000;  856.000
455.329;  -54.775;  -22.000;   82.000
455.450;   70.550;  473.000;  633.000
455.570;  -64.100; -234.000; -211.000
455.691;  -31.550;  201.000;  407.000
455.812; -102.200; -270.000;  -92.000
455.932;  -57.275;  107.000;  -97.000
456.053;  -79.975;   36.000;   24.000
456.173; -116.200; -433.000; -355.000
456.294; -125.100; -476.000; -303.000
456.415;  -63.775;  -73.000;   70.000
456.535;  -47.125;  297.000;  273.000
456.656;  -53.225;  132.000;  240.000
456.776;  -69.550;    3.000;  298.000
456.897;  -20.150;  308.000;  513.000
457.017;  -74.125; -153.000;   -3.000
457.138; -112.675; -402.000; -249.000
457.258;  -32.825;  263.000;  224.000
457.379;  -15.850;  509.000;  521.000
457.499;  -21.550;  443.000;  432.000
457.620; -114.150; -407.000; -231.000
457.740;  -90.825; -132.000;  -11.000
457.860;  -57.700;   87.000;   44.000
457.981;  -49.200;  132.000;  124.000
458.101;  -74.600;  -89.000;   40.000
458.221;  -15.600;  336.000;  402.000
458.342;  -55.400;   -4.000;  -37.000
458.462;   49.950;  617.000;  352.000
458.582;   37.300; -302.000; -294.000
458.703;   76.275;  303.000;  154.000
458.823;   13.925;   22.000;  163.000
458.943;   57.125;  341.000;  467.000
459.063;   12.575; 1124.000;  192.000
459.183;  -25.925;  328.000;  313.000
459.304;    8.900;  315.000;  517.000
459.424;  -49.125; -246.000;  -89.000
459.544;  479.600;  388.000;  764.000
459.664; 1353.900;  499.000;  506.000
459.784;  532.250; 1004.000; 1175.000
459.904;   78.325;  867.000;  744.000
460.024;   66.450;  867.000;  684.000
460.144;   -7.875;  449.000;  554.000
460.264;   -5.850;  515.000;  327.000
460.385;  -76.325; -145.000; -119.000
460.505;   14.125;  905.000;  858.000
460.625; -100.950;  -17.000;  -68.000
460.745;  -30.700;  396.000;  541.000
460.864;  -39.850;  153.000;  469.000
460.984;   26.175;  499.000;  573.000
461.104;  153.600; 1656.000; 1775.000
461.224;    7.425;  657.000;  650.000
461.344;  -19.975;  431.000;  360.000
461.464;  -44.550;  258.000;  513.000
461.584;  -36.125;  283.000;  466.000
461.704;  -69.125;   58.000;  108.000
461.824;  -60.750;  238.000;  259.000
461.943;  -56.750;  191.000;  130.000
462.063;  -70.700;    2.000;  324.000
462.183;   31.550;  639.000;  717.000
462.303;   86.600; 1678.000; 1230.000
462.422;   15.250;  781.000;  840.000
462.542;  -44.725;  271.000;  391.000
462.662;   41.475;  353.000;  380.000
462.782;  343.925;  833.000;  572.000
462.901;  747.150;  545.000;  717.000
463.021;  375.975; 1702.000; 1638.000
463.141;   13.025;  337.000;  770.000
463.260;  -13.250;  614.000;  474.000
463.380;    8.700;  902.000;  884.000
463.499;  -25.125;  342.000;  332.000
463.619;  -37.300;  581.000;  559.000
463.738;  103.250; 1644.000;  903.000
463.858;    8.250;  657.000;  811.000
463.978;  -41.650;  542.000;  396.000
464.097;   61.025;  921.000; 1114.000
464.217;  163.500; 1196.000; 1143.000
464.336;  155.225; 1068.000; 1130.000
464.455;  -30.450;  328.000;  659.000
464.575;   10.050;  597.000;  602.000
464.694;  129.375; 1204.000; 1179.000
464.814;  165.325; 1190.000; 1138.000
464.933;   86.600; 1095.000; 1027.000
465.052;   69.375; 1412.000; 1054.000
465.172;   78.025;  922.000;  799.000
465.291;  107.250; 1376.000; 1320.000
465.410;   -0.275;  462.000;  735.000
465.530;   68.750; 1355.000; 1310.000
465.649;   47.600; 1209.000; 1273.000
465.768;  130.875; 1673.000; 1508.000
465.888;   66.300;  941.000; 1174.000
466.007;   93.350; 1335.000; 1440.000
466.126;   16.150;  721.000;  641.000
466.245;   34.725; 1176.000; 1187.000
466.364;   11.800;  950.000; 1060.000
466.484;   37.600; 1024.000; 1213.000
466.603;   29.550; 1101.000; 1222.000
466.722;   90.850; 1490.000; 1769.000
466.841;   60.900; 1151.000; 1401.000
466.960;   40.150; 1069.000;  972.000
467.079;  113.675; 1971.000; 1786.000
467.198;   40.125; 1238.000; 1181.000
467.317;   87.450; 1768.000; 1162.000
467.436;   64.000; 1709.000; 1261.000
467.555;  127.450; 1796.000; 1746.000
467.674;   71.175; 1227.000; 1329.000
467.793;   56.800; 1376.000; 1374.000
467.912;   91.925; 1658.000; 1539.000
468.031;  133.250; 2038.000; 1930.000
468.150;  126.250; 1842.000; 1837.000
468.269;  173.500; 2313.000; 2090.000
468.388;  181.175; 2168.000; 2339.000
468.507;  245.200; 2884.000; 2903.000
468.626;  237.025; 2555.000; 2541.000
468.744;  144.525; 2018.000; 2174.000
468.863;  199.200; 2312.000; 2523.000
468.982;  102.650; 1503.000; 1555.000
469.101;  222.575; 2788.000; 2692.000
469.220;  162.175; 2333.000; 2176.000
469.338;  251.025; 2935.000; 3051.000
469.457;  199.300; 2719.000; 2545.000
469.576;  335.575; 3953.000; 3784.000
469.695;  226.475; 2877.000; 3066.000
469.813;  417.400; 4148.000; 4192.000
469.932;  386.600; 4255.000; 4485.000
470.051;  431.250; 4075.000; 4161.000
470.169; 1042.825; 4470.000; 4338.000
470.288; 2059.900; 4700.000; 4809.000
470.406; 1188.750; 5059.000; 5194.000
470.525;  698.100; 6101.000; 5787.000
470.644;  658.425; 6847.000; 6794.000
470.762;  797.825; 8397.000; 7873.000
470.881;  894.975; 8651.000; 8464.000
470.999; 1081.950; 9685.000; 9151.000
471.118; 1098.250;11174.000;10711.000

