
Integration time [ms]: 100.000
Averaging Nr. [scans]: 40
Smoothing Nr. [pixels]: 0
Data measured with spectrometer [name]: 2101012U2
Wave   ;Sample   ;Dark     ;Reference
[nm]   ;[counts] ;[counts] ;[counts] 

197.733;   51.950;  516.000;  404.000
197.879;  -80.225; -610.000; -634.000
198.025;  -63.175; -475.000; -420.000
198.171;  -82.000; -602.000; -612.000
198.317;  -34.800; -401.000; -316.000
198.463;  -60.100; -655.000; -404.000
198.609;   27.900;  181.000; -137.000
198.755;  -78.000; -644.000; -410.000
198.901;  -72.550; -505.000; -424.000
199.047;  -66.000; -615.000; -488.000
199.193;  -43.750; -230.000; -468.000
199.339;  -37.850; -222.000; -369.000
199.485;   34.050;  330.000;  271.000
199.631;   21.600;  227.000;  310.000
199.777;  -48.025; -466.000; -398.000
199.923;  -67.925; -610.000; -424.000
200.069;  -18.325; -141.000;  -58.000
200.215;   55.875;  128.000;  453.000
200.361;   45.775;  243.000;  477.000
200.507;  -53.550; -600.000; -373.000
200.653;  -30.375; -371.000; -194.000
200.798;  -39.700; -215.000; -125.000
200.944;   -2.950; -146.000;  -41.000
201.090;   41.600;   61.000;  222.000
201.236;   -4.425; -116.000; -158.000
201.382;  133.075;  874.000;  903.000
201.528;   -0.550;  -58.000;  -48.000
201.674;  -49.300; -386.000; -293.000
201.819;  -69.125; -540.000; -439.000
201.965;  -81.775; -699.000; -447.000
202.111;  -25.875; -273.000; -226.000
202.257;  -37.175; -250.000; -238.000
202.402;   12.625;   13.000;  -36.000
202.548;  -15.425; -169.000; -116.000
202.694;   77.975;  410.000; -183.000
202.840;  -66.275; -603.000; -531.000
202.985;  -86.400; -681.000; -639.000
203.131; -100.700; -832.000; -666.000
203.277;  -40.650; -199.000; -262.000
203.423;  -42.775; -434.000; -520.000
203.568;  -57.025; -462.000; -237.000
203.714;  -50.800; -535.000; -542.000
203.860;  -84.525; -682.000; -641.000
204.005;   23.550;  112.000;  167.000
204.151;   86.675;  561.000;  556.000
204.296;  -39.750; -354.000; -221.000
204.442;  -61.100; -600.000; -547.000
204.588;  -60.250; -592.000; -579.000
204.733;   14.475;  178.000;  168.000
204.879; -125.500;-1018.000; -822.000
205.025;   10.425;  -99.000;  126.000
205.170;   -8.250;  -17.000;   94.000
205.316;   84.050;  438.000;  661.000
205.461;  -78.025; -698.000; -554.000
205.607;   84.425;  609.000;  665.000
205.752;  -82.675; -626.000; -551.000
205.898;  -55.825; -501.000; -391.000
206.043;  -60.275; -578.000; -506.000
206.189;  -31.400; -243.000; -285.000
206.334;   84.000;  554.000;  606.000
206.480;   70.300;  409.000;  239.000
206.625;  -75.650; -529.000; -552.000
206.771;  -48.100; -451.000; -373.000
206.916;  -27.175; -210.000; -537.000
207.062;  -69.825; -545.000; -591.000
207.207;  -59.500; -546.000; -443.000
207.353;   45.750;  185.000;  460.000
207.498;   22.550;  196.000;   85.000
207.643;  -52.925; -501.000; -370.000
207.789; -131.550;-1069.000; -910.000
207.934;  -99.100; -665.000; -713.000
208.080;  -23.175; -154.000;   66.000
208.225;   -2.800;  -22.000;  -57.000
208.370;  -85.650; -727.000; -619.000
208.516;  -78.575; -741.000; -487.000
208.661;  -26.475; -127.000;  -69.000
208.806;  -16.750; -165.000; -171.000
208.952; -131.400;-1044.000; -731.000
209.097;   68.625;  378.000;  349.000
209.242;  -31.925; -307.000; -382.000
209.387;   52.450;  392.000;  350.000
209.533;  -52.250; -321.000; -350.000
209.678;   68.600;  472.000;  543.000
209.823;  -51.975; -408.000; -310.000
209.969; -102.275; -860.000; -757.000
210.114; -106.450; -907.000; -719.000
210.259; -108.150; -939.000; -889.000
210.404;  -15.275; -171.000;  103.000
210.549;   -1.350;  108.000;    3.000
210.695;    1.600;   -3.000;  -95.000
210.840;   27.500;   94.000;   67.000
210.985;  -79.425; -484.000; -303.000
211.130;   66.725;  268.000;  406.000
211.275;   18.125;  207.000;  199.000
211.420;  -63.575; -300.000; -289.000
211.566;  -56.825; -536.000; -489.000
211.711;   11.675;  218.000;  157.000
211.856;  -71.600; -545.000; -519.000
212.001;   14.225;  151.000;   44.000
212.146;   17.600;  153.000;   49.000
212.291;  -15.525; -210.000; -186.000
212.436;  -22.600; -280.000;   -6.000
212.581;  -74.975; -685.000; -653.000
212.726;  -90.450; -487.000; -538.000
212.871;  -51.850; -552.000; -217.000
213.016; -162.200;-1172.000;-1029.000
213.161;   60.950;  406.000;  291.000
213.306;  -84.525; -435.000; -577.000
213.451; -102.000; -778.000; -689.000
213.596;  -46.725; -455.000; -347.000
213.741;  -57.525; -448.000; -538.000
213.886;  -83.175; -498.000; -517.000
214.031;  -31.650; -294.000; -124.000
214.176;  -38.800; -408.000; -341.000
214.321;  -23.000; -296.000; -157.000
214.466;  -22.200; -163.000;  -43.000
214.611;   -6.425;  -61.000;  -10.000
214.756; -116.375; -948.000; -858.000
214.901;  -26.825; -388.000; -226.000
215.046; -121.300; -797.000; -825.000
215.191;    1.775;  128.000;   35.000
215.336;  -18.500; -157.000;  -19.000
215.480;  -72.150; -684.000; -505.000
215.625;  -10.950; -175.000;  -19.000
215.770;  -87.100; -757.000; -662.000
215.915;   -5.150;   -5.000;  -97.000
216.060;    6.025; -113.000;  -21.000
216.205; -108.150; -731.000; -779.000
216.349;  -69.875; -470.000; -533.000
216.494; -129.000; -939.000; -867.000
216.639; -117.825; -823.000; -888.000
216.784;  -86.000; -577.000; -525.000
216.929;   45.475;  392.000;  281.000
217.073;  -17.200; -244.000;  -31.000
217.218;    5.150;   78.000;  -47.000
217.363; -102.550; -656.000; -618.000
217.507;  -87.150; -623.000; -588.000
217.652; -121.275; -845.000; -874.000
217.797;  -85.500; -708.000; -659.000
217.942; -116.750; -856.000; -720.000
218.086;   75.650;  608.000;  539.000
218.231;  -37.000; -174.000;  -26.000
218.376;  -24.225; -337.000; -229.000
218.520;   -2.850;  -41.000;   96.000
218.665;  -33.875; -338.000; -204.000
218.810;  -47.600; -275.000; -233.000
218.954;   18.675;  201.000;   35.000
219.099; -120.675; -713.000; -963.000
219.243;  -76.550; -589.000; -554.000
219.388;  -22.625; -264.000; -136.000
219.532;  -10.750; -116.000; -116.000
219.677;  -75.350; -564.000; -521.000
219.822;   12.900;   33.000;   89.000
219.966;    6.300;   17.000;  -99.000
220.111;  -39.250; -328.000;  -40.000
220.255; -105.950; -797.000; -750.000
220.400;  -18.475; -180.000; -146.000
220.544;  -66.550; -516.000; -450.000
220.689;  -60.825; -422.000; -451.000
220.833;  -13.350; -123.000;  -58.000
220.978;  -49.725; -393.000; -563.000
221.122;   34.325;  319.000;  307.000
221.267; -117.400; -906.000; -837.000
221.411;  -67.675; -478.000; -394.000
221.555;   -5.450; -104.000;  -23.000
221.700;  -56.375; -329.000; -222.000
221.844;   27.000;  255.000;  272.000
221.989;  -47.800; -328.000; -311.000
222.133;  -33.200; -289.000; -307.000
222.277;    1.475;    5.000;   78.000
222.422;   15.825;  227.000;  113.000
222.566;  -42.525; -381.000; -214.000
222.711;  -59.850; -414.000; -479.000
222.855;  -79.775; -643.000; -586.000
222.999;  -91.750; -642.000; -717.000
223.144;  -19.975; -195.000; -194.000
223.288;   49.775;  423.000;  251.000
223.432;   38.375;  184.000;  230.000
223.576;   23.050;  152.000;  -21.000
223.721;   43.675;  364.000;  273.000
223.865;  -56.700; -472.000; -475.000
224.009;  279.600; 1673.000; 1631.000
224.153;  -82.300; -660.000; -671.000
224.298;  -68.225; -531.000; -489.000
224.442;  -23.125;  -74.000;  -33.000
224.586;   -4.825; -169.000; -106.000
224.730;  -94.350; -858.000; -670.000
224.875; -110.750; -739.000; -688.000
225.019;    7.600;  102.000;  188.000
225.163;   64.925;  208.000;  341.000
225.307;    6.000;   97.000;  -91.000
225.451;   42.200;  360.000;  481.000
225.595;   24.350;  264.000;  176.000
225.739;   -6.550; -170.000;  -94.000
225.884;   -0.300;   86.000;    5.000
226.028; -106.475; -760.000; -626.000
226.172;  -34.350; -260.000; -273.000
226.316; -117.100; -941.000; -902.000
226.460;  -71.475; -645.000; -493.000
226.604;  -61.650; -406.000; -400.000
226.748;  -92.350; -836.000; -733.000
226.892;  -31.725; -227.000; -181.000
227.036;  -55.750; -537.000; -447.000
227.180;  -53.125; -551.000; -375.000
227.324;  -69.700; -561.000; -580.000
227.468; -109.850; -819.000; -717.000
227.612;    1.200;  242.000;  -28.000
227.756;  -99.450; -845.000; -698.000
227.900;   51.100;  342.000;  441.000
228.044;  -43.650; -509.000; -290.000
228.188;   57.950;  448.000;  568.000
228.332;  -82.250; -546.000; -472.000
228.476;  -41.525; -223.000; -149.000
228.620;  -30.125; -210.000; -150.000
228.764;   61.750;  431.000;  349.000
228.908;  -13.275; -155.000;   30.000
229.052;  -73.675; -615.000; -528.000
229.195;  -19.750; -172.000;   13.000
229.339;  -33.075; -235.000; -305.000
229.483;  -32.325;    5.000; -162.000
229.627;   -3.625; -156.000;  139.000
229.771;  -43.175; -218.000; -294.000
229.915;   -1.175;  230.000;   79.000
230.059;  -96.025; -648.000; -663.000
230.202;  -43.925; -370.000; -317.000
230.346;   -3.700; -107.000;  107.000
230.490;  -68.750; -489.000; -521.000
230.634; -107.025; -736.000; -553.000
230.777;   74.100;  478.000;  509.000
230.921;  -61.975; -450.000; -359.000
231.065;  -33.725; -246.000; -286.000
231.209;   26.375;  261.000;  265.000
231.352;   27.575;   54.000;   40.000
231.496;   29.625;  568.000;  188.000
231.640;  -97.650; -693.000; -621.000
231.783;   53.050;  546.000;  525.000
231.927;  -45.525; -294.000; -365.000
232.071; -120.525; -962.000; -736.000
232.214; -122.025; -980.000; -764.000
232.358; -103.625; -683.000; -599.000
232.502;   13.425;  -19.000;    7.000
232.645; -147.975;-1090.000; -927.000
232.789;  -38.550; -257.000; -218.000
232.933;  -36.175; -407.000; -224.000
233.076; -125.675;-1038.000; -897.000
233.220; -113.875; -752.000; -777.000
233.363;  -74.725; -669.000; -477.000
233.507;   65.800;  371.000;  129.000
233.650;  -98.500; -764.000; -834.000
233.794;   50.175;  438.000;  461.000
233.938;  -56.725; -530.000; -362.000
234.081;  -14.100;  -93.000;   31.000
234.225;  -71.175; -631.000; -539.000
234.368; -111.400; -773.000; -723.000
234.512;  -31.025; -385.000; -299.000
234.655;  -89.475; -582.000; -555.000
234.798;  -60.850; -493.000; -466.000
234.942; -129.800; -884.000;-1002.000
235.085;  -80.175; -651.000; -443.000
235.229;  -72.750; -405.000; -410.000
235.372;  -49.300; -247.000; -191.000
235.516;  -49.575; -397.000; -321.000
235.659;    9.775;   92.000;  121.000
235.802;  -17.075;  -38.000;  -22.000
235.946;   21.000;  335.000;  215.000
236.089;   21.125;  126.000;  250.000
236.233;   46.675;  275.000;  298.000
236.376;  -48.650; -235.000; -378.000
236.519;  -53.925; -297.000; -319.000
236.663;  -18.800; -215.000; -117.000
236.806; -129.850;-1029.000; -999.000
236.949;   60.475;  543.000;  431.000
237.092;   45.900;  412.000;  391.000
237.236;  -93.525; -589.000; -502.000
237.379;   56.525;  352.000;  428.000
237.522; -127.600; -879.000; -768.000
237.666;  -22.750; -271.000;   18.000
237.809; -121.825; -851.000; -823.000
237.952;   16.075;  469.000;  271.000
238.095;  -68.950; -447.000; -442.000
238.238;   86.125;  688.000;  700.000
238.382;   -0.325;  166.000;  103.000
238.525;  -77.075; -598.000; -511.000
238.668; -150.325;-1060.000; -985.000
238.811;  -90.050; -638.000; -643.000
238.954;  -56.050; -483.000; -334.000
239.097;   93.950;  617.000;  664.000
239.241;   23.975;  394.000;  326.000
239.384;  -34.475; -254.000; -214.000
239.527;  -52.875; -424.000; -224.000
239.670; -155.225; -994.000;-1091.000
239.813; -115.250; -696.000; -658.000
239.956;   79.625;  579.000;  473.000
240.099; -123.975; -778.000; -725.000
240.242;   55.975;  428.000;  432.000
240.385;   46.900;  466.000;  450.000
240.528;  -81.725; -706.000; -473.000
240.671;   12.475;  189.000;  134.000
240.814;  -52.600; -441.000; -158.000
240.957; -103.825; -767.000; -578.000
241.100; -112.200; -779.000; -755.000
241.243; -142.275;-1234.000; -893.000
241.386;  -67.625; -508.000; -379.000
241.529;  -86.075; -735.000; -547.000
241.672;  -79.600; -566.000; -495.000
241.815; -115.625; -832.000; -808.000
241.958;  -35.550; -125.000; -182.000
242.101;  -68.600; -545.000; -390.000
242.244;  -53.100; -270.000; -325.000
242.387;  -37.600; -304.000; -246.000
242.530;   44.000;  470.000;  134.000
242.673;  -31.100; -381.000; -309.000
242.815; -134.925; -925.000; -899.000
242.958;  -73.150; -482.000; -381.000
243.101;    4.025;  132.000;  187.000
243.244;  -94.125; -564.000; -521.000
243.387;  -58.850; -313.000; -316.000
243.530; -100.950; -657.000; -674.000
243.672;    2.275;   43.000;  -92.000
243.815;  -62.175; -355.000; -283.000
243.958;   -0.625;   98.000;  -26.000
244.101;    6.225;   59.000;  -16.000
244.243;  -18.600;  -47.000;  101.000
244.386; -117.000; -761.000; -630.000
244.529;  -25.275; -132.000; -139.000
244.672; -157.950;-1154.000; -951.000
244.814;  -98.800; -621.000; -794.000
244.957;  -58.575; -380.000; -304.000
245.100;  -79.600; -489.000; -489.000
245.242;  -61.025; -387.000; -374.000
245.385;  -16.350;  -59.000;  -39.000
245.528; -116.025; -871.000; -705.000
245.670;   79.525;  612.000;  634.000
245.813;  -88.475; -599.000; -547.000
245.956;  -25.750; -324.000; -275.000
246.098;  -72.925; -508.000; -650.000
246.241;    2.050;  194.000;   48.000
246.383;  -12.625; -119.000;  -73.000
246.526;  -90.125; -454.000; -525.000
246.669; -118.450; -889.000; -780.000
246.811;    4.675;  172.000;   -1.000
246.954;  -61.400; -512.000; -426.000
247.096;  -36.150;  -84.000;   -6.000
247.239;  -83.375; -482.000; -445.000
247.381;  -73.550; -647.000; -488.000
247.524;   74.150;  645.000;  679.000
247.666;  -18.125;   58.000;   11.000
247.809; -117.725; -887.000; -691.000
247.951;  -16.925;  -75.000;  138.000
248.094;   30.975;  432.000;  308.000
248.236; -164.275;-1262.000;-1238.000
248.378;    5.100; -356.000;  -81.000
248.521;  -30.150; -334.000; -337.000
248.663;  -24.150; -236.000; -267.000
248.806;  -27.925; -300.000; -266.000
248.948; -101.700; -886.000; -763.000
249.090;  -53.350; -428.000; -398.000
249.233;  -49.175; -344.000; -381.000
249.375;  -72.550; -474.000; -451.000
249.518;  -13.800;  -83.000; -133.000
249.660;    0.175; -103.000;    3.000
249.802; -171.675;-1303.000;-1189.000
249.945;  -74.975; -612.000; -540.000
250.087; -109.850; -834.000; -768.000
250.229;  -37.725; -362.000; -480.000
250.371;  -79.125; -494.000; -439.000
250.514;  -65.575; -310.000; -244.000
250.656;   -7.575;   69.000;  102.000
250.798; -128.225; -849.000; -800.000
250.940;  -58.400; -322.000; -322.000
251.083;  -31.100; -335.000; -111.000
251.225;   46.725;  338.000;  310.000
251.367;  -41.375; -274.000; -373.000
251.509;  -38.400; -265.000; -210.000
251.651; -107.900; -731.000; -671.000
251.794;   60.600;  538.000;  632.000
251.936; -116.700; -821.000; -747.000
252.078;  -71.025; -540.000; -461.000
252.220;  -73.875; -645.000; -477.000
252.362;   73.825;  344.000;  462.000
252.504;  -60.425; -677.000; -584.000
252.646; -104.725; -875.000; -722.000
252.788;   -3.425;   14.000; -128.000
252.931;  -45.050; -257.000; -253.000
253.073;  -55.300; -376.000; -317.000
253.215;    8.050;  141.000;  122.000
253.357;  -22.225;   82.000; -153.000
253.499;  -57.475; -374.000; -234.000
253.641;  -87.750; -749.000; -594.000
253.783;  -96.875; -609.000; -527.000
253.925;  -98.675; -586.000; -591.000
254.067;  -97.350; -744.000; -667.000
254.209;  -37.550; -391.000; -259.000
254.351; -144.375; -865.000; -883.000
254.493;  -60.550; -441.000; -417.000
254.635; -137.175; -936.000; -818.000
254.777;  -87.850; -752.000; -687.000
254.918;  -78.000; -512.000; -430.000
255.060;  -58.675; -551.000; -395.000
255.202;  -65.300; -473.000; -261.000
255.344;  -83.650; -658.000; -455.000
255.486;  -77.800; -471.000; -406.000
255.628; -104.775; -780.000; -781.000
255.770;  -87.325; -676.000; -536.000
255.912;  -64.875; -559.000; -468.000
256.053;  -85.400; -730.000; -508.000
256.195;  153.750; 1008.000;  903.000
256.337;  -93.400; -861.000; -595.000
256.479;   59.400;  532.000;  416.000
256.621;  -53.000; -394.000; -212.000
256.762; -104.825; -789.000; -742.000
256.904;   55.725;  485.000;  487.000
257.046;  -54.675; -381.000; -271.000
257.188;  -46.075; -351.000; -264.000
257.329;  -68.250; -525.000; -464.000
257.471; -112.175; -939.000; -807.000
257.613;  -77.825; -584.000; -498.000
257.755; -149.600;-1073.000; -982.000
257.896;   27.200;  286.000;  392.000
258.038;  -71.375; -403.000; -352.000
258.180;  -54.325; -354.000; -279.000
258.321;  -90.125; -581.000; -457.000
258.463;   -9.575;  -71.000;  133.000
258.605;  -92.250; -562.000; -570.000
258.746; -107.250; -886.000; -772.000
258.888; -147.500;-1026.000;-1020.000
259.029;    9.500;  121.000;   -8.000
259.171; -103.450; -614.000; -550.000
259.313;  -11.200;  -49.000;  -47.000
259.454;  -76.700; -536.000; -414.000
259.596;  -59.725; -483.000; -390.000
259.737;  -67.125; -590.000; -474.000
259.879;   29.650;  217.000;  311.000
260.020;   83.650;  901.000;  636.000
260.162;  -33.150; -146.000; -253.000
260.303; -107.975; -768.000; -687.000
260.445;  -84.200; -609.000; -613.000
260.586;   25.575;  392.000;  157.000
260.728;  -37.925; -360.000; -248.000
260.869;  -72.275; -350.000; -343.000
261.011;   78.200;  706.000;  537.000
261.152;  -69.075; -479.000; -319.000
261.293;  -86.050; -576.000; -595.000
261.435;  -35.650; -219.000; -184.000
261.576;  -54.525; -455.000; -325.000
261.718;   55.600;  420.000;  470.000
261.859; -132.900; -940.000; -949.000
262.000; -145.450; -951.000;-1016.000
262.142;  -26.225;  -52.000;  -60.000
262.283; -108.425; -808.000; -691.000
262.424;  -90.425; -666.000; -625.000
262.566; -155.675;-1161.000; -983.000
262.707; -125.950; -840.000; -830.000
262.848; -118.150; -769.000; -726.000
262.990;  -46.725; -362.000; -345.000
263.131;   79.400;  650.000;  681.000
263.272;   -7.900;  -61.000;  -41.000
263.413;  -86.800; -589.000; -561.000
263.555;  -77.225; -669.000; -143.000
263.696;  -94.750; -550.000; -641.000
263.837;  -60.025; -449.000; -551.000
263.978;  -10.650;   -5.000;  -77.000
264.119;  -48.950; -283.000; -264.000
264.261; -115.725; -847.000; -630.000
264.402;  -16.800;   33.000;   40.000
264.543;  -77.425; -509.000; -524.000
264.684;  -17.775;   61.000;  -50.000
264.825;  -73.325; -816.000; -538.000
264.966;   -3.225;  -84.000;  -67.000
265.107; -120.550; -646.000; -670.000
265.248; -129.550; -825.000; -812.000
265.390;  -17.250;  152.000;   -9.000
265.531;  -22.300; -238.000; -107.000
265.672;  -97.225; -557.000; -630.000
265.813;   65.650;  563.000;  439.000
265.954; -145.400; -959.000; -940.000
266.095;  -19.575; -372.000; -322.000
266.236;  -99.475; -686.000; -548.000
266.377;  -55.725; -243.000; -297.000
266.518;  -89.150; -619.000; -547.000
266.659;   19.500;  170.000;  268.000
266.800;   -0.475;   83.000;   85.000
266.941;  -79.050; -487.000; -478.000
267.082;   22.200;  354.000;   99.000
267.223;  -57.675; -344.000; -273.000
267.364; -111.625; -892.000; -686.000
267.504;  -21.825;    3.000;  135.000
267.645;    2.750;  160.000;   67.000
267.786;  -30.725; -147.000;  -86.000
267.927;  -80.650; -473.000; -379.000
268.068;  -21.175; -186.000;  -61.000
268.209;  -42.750; -175.000; -413.000
268.350;  -67.400; -388.000; -532.000
268.490;  -81.550; -648.000; -521.000
268.631;   25.275;  127.000;  225.000
268.772; -115.450; -874.000; -647.000
268.913;  -64.225; -328.000; -476.000
269.054;  -15.425; -117.000;   12.000
269.194;  -60.625; -418.000; -402.000
269.335; -155.800;-1137.000;-1074.000
269.476;  -16.950;   33.000;  -35.000
269.617;  -46.500; -347.000; -392.000
269.757;  -91.100; -713.000; -646.000
269.898; -115.975; -856.000; -613.000
270.039;  -77.925; -415.000; -405.000
270.180; -135.725; -952.000; -816.000
270.320;  -30.875; -190.000; -250.000
270.461;  -58.200; -277.000; -249.000
270.602;  -27.400; -186.000; -156.000
270.742; -126.300; -868.000; -943.000
270.883;  -49.775; -442.000; -390.000
271.023;  -62.600; -358.000; -357.000
271.164;  -84.450; -607.000; -528.000
271.305; -102.700; -666.000; -654.000
271.445;  -89.825; -722.000; -683.000
271.586;  -67.800; -462.000; -283.000
271.726;  -36.400; -397.000; -322.000
271.867;  -60.675; -594.000; -534.000
272.008;  162.400; -473.000; -285.000
272.148;  129.425;  462.000;  468.000
272.289;   13.600; -113.000; -181.000
272.429;   20.150;   19.000;  185.000
272.570;  -93.450; -633.000; -737.000
272.710; -115.600; -825.000; -775.000
272.851;  -24.475;  113.000; -130.000
272.991; -174.400;-1173.000;-1077.000
273.131;  -61.450; -419.000; -459.000
273.272; -100.850; -683.000; -723.000
273.412;    6.725; -143.000;  -31.000
273.553;  -64.350; -488.000; -507.000
273.693;  131.150;  913.000;  858.000
273.834;  -88.050; -894.000; -692.000
273.974;  -83.050; -664.000; -615.000
274.114; -107.425; -772.000; -560.000
274.255;   89.425;  414.000;  373.000
274.395;    0.150; -180.000; -125.000
274.535;   38.800;  199.000;  350.000
274.676;   27.275;  225.000;   94.000
274.816;   -5.425;  110.000;   34.000
274.956;  -87.525; -624.000; -690.000
275.097;  -84.825;-1014.000; -922.000
275.237; -117.050; -913.000; -803.000
275.377; -107.150; -778.000; -689.000
275.517; -146.675; -878.000; -937.000
275.658;  -65.250; -590.000; -555.000
275.798;  -69.125; -606.000; -413.000
275.938;   20.250;  215.000;  323.000
276.078; -106.775; -626.000; -395.000
276.218;   -2.075;   99.000;  104.000
276.359; -135.100;-1026.000;-1024.000
276.499;  -70.550; -605.000; -446.000
276.639;  -33.025; -305.000; -151.000
276.779;  -44.025; -475.000; -357.000
276.919; -100.250; -783.000; -624.000
277.059;  -20.375; -261.000; -212.000
277.199;  -48.450; -357.000; -259.000
277.340;   25.350;  287.000;  175.000
277.480; -118.825; -840.000; -693.000
277.620;   28.500;  192.000;   16.000
277.760; -207.825;-1533.000;-1294.000
277.900;    1.800;  113.000;   33.000
278.040;   28.450;  137.000;  159.000
278.180;   31.575;  270.000;  170.000
278.320;   -2.950;   21.000;   56.000
278.460;  -75.250; -443.000; -469.000
278.600;  -80.125; -708.000; -598.000
278.740;   47.425;  448.000;  224.000
278.880;  -62.350; -768.000; -791.000
279.020;   -9.100; -194.000; -144.000
279.160;  -94.600; -672.000; -595.000
279.300; -128.375; -926.000; -873.000
279.440;  -82.825; -709.000; -622.000
279.579;  -28.900;-1014.000; -929.000
279.719;  -61.875; -410.000; -394.000
279.859;   78.250;   -4.000;   41.000
279.999;   27.625; -208.000;  101.000
280.139;  -27.825; -435.000; -387.000
280.279;  -75.000; -708.000; -745.000
280.419;  -27.275; -229.000; -147.000
280.559;  -28.175; -259.000; -180.000
280.698;  -88.475; -790.000; -639.000
280.838;  -93.850; -778.000; -800.000
280.978;  -98.300; -846.000; -790.000
281.118; -112.825; -811.000; -704.000
281.257;   -1.725;   24.000;    6.000
281.397; -125.325;-1094.000; -960.000
281.537;  -93.875; -599.000; -712.000
281.677;  -21.175; -150.000; -101.000
281.816;  -86.850; -700.000; -630.000
281.956;  -30.125; -193.000; -257.000
282.096;  -62.700; -539.000; -396.000
282.235; -112.200; -672.000; -638.000
282.375;  -45.800; -243.000;  -98.000
282.515; -105.850; -715.000; -707.000
282.654;   17.925;   29.000;  106.000
282.794;   26.525;  388.000;  244.000
282.934;  -68.250; -530.000; -491.000
283.073; -129.850;-1030.000; -857.000
283.213;  -58.375; -460.000; -467.000
283.353;  -50.425; -408.000; -349.000
283.492;  -32.325; -264.000; -296.000
283.632;  -42.875; -254.000; -168.000
283.771;  -92.800; -859.000; -730.000
283.911;  -57.600; -369.000; -260.000
284.050; -115.300; -794.000; -748.000
284.190; -155.325;-1229.000;-1096.000
284.329; -153.450;-1055.000; -964.000
284.469;  -60.350; -516.000; -591.000
284.608;  -48.825; -559.000; -598.000
284.748;  -81.575; -614.000; -570.000
284.887;   -5.950;  -87.000;  -20.000
285.027; -130.275; -844.000; -892.000
285.166;  -23.450; -192.000; -249.000
285.306;    6.225; -116.000;  -33.000
285.445;  -46.050; -229.000; -343.000
285.584;  -98.475; -630.000; -494.000
285.724;  -44.200; -282.000; -322.000
285.863; -120.200; -857.000; -507.000
286.002;  -53.575; -366.000; -276.000
286.142; -116.950; -715.000; -622.000
286.281;  -75.875; -525.000; -493.000
286.420;  -79.600; -554.000; -417.000
286.560;   91.050;  653.000;  623.000
286.699; -138.925; -958.000; -912.000
286.838;  -82.900; -590.000; -591.000
286.978;  -89.700; -533.000; -537.000
287.117; -134.300;-1085.000; -950.000
287.256;  -35.150; -228.000; -211.000
287.395;  -64.275; -197.000; -378.000
287.535;  -54.325; -370.000; -298.000
287.674;  -86.275; -509.000; -484.000
287.813;   63.950;  661.000;  533.000
287.952; -125.325;-1010.000; -871.000
288.091; -150.875;-1049.000; -915.000
288.231;   13.300;   13.000;   15.000
288.370; -177.650;-1217.000;-1200.000
288.509;  -98.450; -728.000; -645.000
288.648;  -98.200; -770.000; -548.000
288.787;  -21.600; -243.000;  -87.000
288.926;  -63.025; -454.000; -475.000
289.065;  117.725;  859.000;  672.000
289.204;  -68.275; -377.000; -217.000
289.344; -107.300; -791.000; -690.000
289.483;   26.200;  416.000;  304.000
289.622;  -35.625; -291.000; -149.000
289.761;  -36.575; -309.000; -166.000
289.900; -111.625; -785.000; -626.000
290.039;  -28.175;  -12.000;  -95.000
290.178;  -42.800; -274.000; -180.000
290.317;  -83.175; -618.000; -479.000
290.456;  -69.100; -463.000; -451.000
290.595; -123.850; -961.000; -833.000
290.734; -147.400; -904.000; -891.000
290.873;  -72.150; -456.000; -420.000
291.011; -123.125; -833.000; -843.000
291.150; -118.075; -770.000; -682.000
291.289;  -20.775; -343.000; -110.000
291.428;  -91.100; -599.000; -480.000
291.567;  -51.850; -370.000; -442.000
291.706;   -3.275;  109.000;  154.000
291.845;  -92.375; -597.000; -505.000
291.984; -172.900;-1234.000;-1061.000
292.122;   80.050;  602.000;  582.000
292.261;   45.100;  620.000;  463.000
292.400;    7.000; -144.000;  211.000
292.539; -125.800; -959.000; -813.000
292.678;  -42.075; -325.000; -300.000
292.816; -161.800;-1136.000; -965.000
292.955;  -94.950; -844.000; -684.000
293.094;  -21.125; -173.000; -337.000
293.233;  -63.250; -556.000; -400.000
293.371;  -38.975; -225.000;  -84.000
293.510; -121.350; -866.000; -780.000
293.649; -128.175; -959.000; -924.000
293.787;  -65.050;-1083.000;-1012.000
293.926;   -3.775; -113.000;  -32.000
294.065;  -44.750; -379.000; -290.000
294.203;   47.750;  298.000;  406.000
294.342;   21.450;   74.000;  156.000
294.481; 5422.100;51180.000; -836.000
294.619;  -39.850; -425.000; -582.000
294.758; -159.575;-1230.000;-1137.000
294.896;   47.800; -125.000;    5.000
295.035; -133.125;-1040.000;-1006.000
295.174; -121.050;-1082.000; -954.000
295.312;  -43.300; -323.000; -203.000
295.451;  -15.025; -307.000; -428.000
295.589;  -44.775; -389.000; -518.000
295.728;   11.000; -292.000; -165.000
295.866;   21.825;  -36.000;  -51.000
296.005;  -65.875; -584.000; -341.000
296.143;  -80.475; -558.000; -596.000
296.282; -124.125; -957.000; -881.000
296.420;  -88.550; -657.000; -557.000
296.559;  -82.550; -892.000; -633.000
296.697;   10.900; -847.000; -665.000
296.835;   36.300;-1141.000;-1002.000
296.974;   35.300;  -23.000;   39.000
297.112;   -7.100; -443.000; -504.000
297.251;  -88.725; -815.000; -755.000
297.389;   78.100; -576.000; -438.000
297.527;   39.025; -145.000;  -83.000
297.666;  -50.475; -486.000; -438.000
297.804;  -40.350; -404.000; -264.000
297.942;  -17.575; -136.000; -161.000
298.081;   -1.450; -183.000;   63.000
298.219;   61.100;  -17.000;  -19.000
298.357;   42.675; -144.000;  -71.000
298.495;   31.825; -810.000; -812.000
298.634;   91.350;  245.000;  219.000
298.772;   50.275; -220.000; -338.000
298.910;  -41.375; -309.000; -182.000
299.048;   -9.875; -130.000; -153.000
299.187;  -27.350; -350.000; -250.000
299.325;    7.625;   52.000;  122.000
299.463;   48.500; -389.000; -299.000
299.601;   95.850; -327.000; -271.000
299.739; -106.350; -908.000; -883.000
299.877;  -77.825; -791.000; -703.000
300.016;  -45.275;-1095.000; -935.000
300.154;  159.875;  -19.000; -161.000
300.292;   45.050; -428.000; -348.000
300.430;   36.475; -408.000; -291.000
300.568; -114.050; -940.000; -874.000
300.706;  -53.625; -366.000; -469.000
300.844;  -71.575;-1108.000; -979.000
300.982;  109.475;  246.000;  282.000
301.120; -113.700; -965.000; -866.000
301.258;  -78.425; -812.000; -705.000
301.396;   39.375;  104.000;  -41.000
301.534;   63.950; -218.000; -293.000
301.672;   -7.825; -664.000; -521.000
301.810;   23.975; -613.000; -545.000
301.948;  104.625;   53.000;  149.000
302.086;  587.100; -250.000;  -32.000
302.224;  910.350; -610.000; -585.000
302.362;   16.325; -558.000; -622.000
302.500;  -28.400; -923.000; -893.000
302.638;  103.375;  128.000;  245.000
302.776;   -9.800; -352.000; -408.000
302.913;   41.800;  447.000;  236.000
303.051;   -4.400;  -86.000;  -23.000
303.189;   42.350;   90.000;  118.000
303.327;  -42.700; -341.000; -256.000
303.465;  -82.275; -832.000; -588.000
303.603; -102.100; -805.000; -604.000
303.740;   86.150;  417.000;  241.000
303.878;    3.325; -800.000; -759.000
304.016;  -96.250; -915.000; -790.000
304.154; -125.300;-1123.000;-1152.000
304.291;  -45.975; -505.000; -554.000
304.429;   13.075;  102.000;   74.000
304.567; -135.025; -908.000; -893.000
304.705;  -60.725; -408.000; -515.000
304.842;   78.075; -616.000; -540.000
304.980;   48.600;  215.000;   35.000
305.118;   20.450; -367.000; -365.000
305.255;  -68.850; -945.000; -927.000
305.393;   61.475;  178.000;  239.000
305.531; -103.475;-1173.000; -956.000
305.668;  -84.000; -663.000; -582.000
305.806;   83.800; -358.000; -439.000
305.943;   95.425; -629.000; -637.000
306.081;   45.750; -378.000; -267.000
306.219; -106.625; -863.000; -748.000
306.356;   12.825;  158.000;   27.000
306.494;  114.100;  981.000;  761.000
306.631;    1.925;  -11.000;  -55.000
306.769;    3.125; -613.000; -485.000
306.906;  -19.525; -284.000; -258.000
307.044;  -76.725; -473.000; -488.000
307.181;  -66.925; -410.000; -332.000
307.319;    5.575;  112.000;   87.000
307.456; -155.150;-1191.000;-1153.000
307.594; -102.550; -980.000; -727.000
307.731;   -5.725; -371.000; -164.000
307.868;    6.775;  -15.000;   20.000
308.006; -135.350; -961.000; -847.000
308.143;  -84.100; -618.000; -330.000
308.281;  136.850;  -37.000; -254.000
308.418;  -15.450; -748.000; -640.000
308.555;  -76.700; -400.000; -250.000
308.693;  -80.625; -577.000; -573.000
308.830; -124.500; -712.000; -657.000
308.967;  -17.525; -215.000;  -95.000
309.105;  -39.375; -507.000; -396.000
309.242;   21.100; -468.000; -367.000
309.379;  229.925; -577.000; -655.000
309.517;  -73.725; -936.000; -948.000
309.654; -119.925; -910.000; -734.000
309.791;  -78.275; -662.000; -580.000
309.928; -119.900; -977.000; -914.000
310.065;  158.175;  819.000;  697.000
310.203;  -13.125; -825.000; -850.000
310.340;  -18.025; -465.000; -321.000
310.477;  -89.850; -412.000; -516.000
310.614;  -71.150; -383.000; -473.000
310.751;  -76.525; -427.000; -518.000
310.889;  -25.950;    1.000;   11.000
311.026; -157.175;-1161.000; -939.000
311.163;  -47.900; -386.000; -380.000
311.300;  -91.050; -512.000; -479.000
311.437;  -80.525; -658.000; -619.000
311.574; -160.625;-1226.000; -985.000
311.711;  -67.150; -595.000; -433.000
311.848;  -46.175; -380.000; -388.000
311.985;   -6.600;  270.000;   93.000
312.122; -107.325; -932.000; -762.000
312.259; -117.425; -941.000; -994.000
312.396;  -73.475; -508.000; -551.000
312.533; -108.775; -812.000; -790.000
312.670; -128.400;-1070.000; -898.000
312.807;  -41.175; -352.000; -367.000
312.944;  -86.050; -513.000; -611.000
313.081;  -47.875; -150.000; -415.000
313.218; -118.325;-1111.000; -867.000
313.355;  -14.050; -531.000; -449.000
313.492;   -4.650; -455.000; -292.000
313.629;  124.900;  815.000;  735.000
313.766; -160.875;-1176.000;-1008.000
313.902;  -15.625; -186.000;   21.000
314.039;  -52.700; -372.000; -289.000
314.176;   29.950;  286.000;  192.000
314.313;  -82.925; -569.000; -473.000
314.450;  -82.125; -788.000; -684.000
314.587;  -62.750; -468.000; -480.000
314.723;   -1.025;  -78.000;  130.000
314.860;   26.625;  318.000;  332.000
314.997;   23.550;  223.000;  142.000
315.134;  -48.000; -385.000; -368.000
315.270;  -34.425; -480.000; -496.000
315.407; -126.350;-1094.000; -967.000
315.544;  -46.325; -657.000; -538.000
315.681;  -65.100; -681.000; -565.000
315.817;   15.225; -133.000; -176.000
315.954;    9.350; -613.000; -392.000
316.091; -131.050;-1045.000;-1023.000
316.227;  -21.925;  -71.000; -179.000
316.364;    1.175;   23.000;    6.000
316.500;  -29.150; -113.000; -300.000
316.637;  -52.300; -181.000; -302.000
316.774;  -92.100; -625.000; -358.000
316.910; -106.650; -598.000; -629.000
317.047;  -69.325; -487.000; -351.000
317.183;  -43.000; -435.000; -566.000
317.320;   -7.025; -367.000; -321.000
317.456;  -76.850; -733.000; -805.000
317.593;  -86.325; -598.000; -641.000
317.729;   -3.725;  168.000;  -67.000
317.866; -201.975;-1434.000;-1285.000
318.002;  -84.925; -708.000; -948.000
318.139;  -92.400; -883.000; -867.000
318.275; -112.075;-1003.000; -738.000
318.412;  -67.375; -517.000; -336.000
318.548;  -26.000; -751.000; -720.000
318.685;  -97.550; -985.000; -888.000
318.821; -103.550; -762.000; -735.000
318.957;  -29.100;   34.000;  -23.000
319.094;   33.675;  297.000;  154.000
319.230;  -64.725; -756.000; -742.000
319.367;  131.200; -471.000; -520.000
319.503;   52.975; -538.000; -436.000
319.639; -105.400; -877.000; -793.000
319.775;  -79.200; -750.000; -685.000
319.912;  -59.775; -424.000; -519.000
320.048; -106.850;-1184.000;-1184.000
320.184;   81.725;   59.000;   70.000
320.321;  -80.600; -497.000; -467.000
320.457;   56.850;  475.000;  662.000
320.593;  -71.550; -375.000; -382.000
320.729; -110.125; -732.000; -734.000
320.866;  -82.850; -577.000; -635.000
321.002;  -83.875; -759.000; -809.000
321.138;  -23.350; -135.000; -211.000
321.274;   64.175; -148.000; -115.000
321.410;  -27.475; -585.000; -353.000
321.546;  -43.125;-1011.000; -911.000
321.683;   55.050;  400.000;  185.000
321.819;   -3.650;  -48.000; -117.000
321.955; -109.075; -743.000; -722.000
322.091;  -46.550; -585.000; -540.000
322.227;  -16.850; -382.000; -202.000
322.363;  -15.625; -320.000; -215.000
322.499;  -48.325; -343.000; -331.000
322.635;  165.400;  636.000;  443.000
322.771;   30.675; -139.000;   12.000
322.907;   74.325;  129.000;  327.000
323.043;  -14.075; -115.000; -206.000
323.179;  -40.500; -394.000; -363.000
323.315;    5.050; -401.000; -371.000
323.451;   80.175; -328.000; -236.000
323.587;   58.850;  -60.000;  -77.000
323.723;   11.200; -682.000; -601.000
323.859;  -17.075; -258.000;  -76.000
323.995;  -24.700; -467.000; -409.000
324.131; -118.200; -967.000; -892.000
324.267;  -48.200; -254.000; -276.000
324.402; -131.675; -960.000; -983.000
324.538;  -24.500; -279.000; -104.000
324.674;   22.200;  164.000;   77.000
324.810;  111.750;  226.000;  308.000
324.946;    0.925; -810.000; -658.000
325.082;  -80.975; -568.000; -475.000
325.217;   -6.775;  -62.000;   16.000
325.353; -114.725; -764.000; -659.000
325.489;  -87.600; -540.000; -506.000
325.625;  -79.525; -579.000; -525.000
325.760;   63.325;  517.000;  376.000
325.896;  -47.925; -515.000; -702.000
326.032;  -50.150; -403.000; -352.000
326.168;  -68.900; -462.000; -369.000
326.303;  -67.400; -352.000; -461.000
326.439;  -16.225; -336.000; -276.000
326.575;   14.825; -190.000;  -29.000
326.710;   -3.875; -156.000;  -30.000
326.846;  -13.625;  146.000;  103.000
326.982;  -95.275; -530.000; -548.000
327.117;  -92.775; -481.000; -442.000
327.253;  -93.900; -745.000; -742.000
327.388; -156.050;-1137.000;-1153.000
327.524;  -63.975; -811.000; -578.000
327.659;  -33.425;  -58.000;  -22.000
327.795;  -25.400;   69.000;   45.000
327.931;  -84.000; -723.000; -499.000
328.066;  -34.600; -417.000; -276.000
328.202;  -20.300;   12.000; -129.000
328.337;  100.225;  957.000;  713.000
328.473;   44.850;  -12.000;  -74.000
328.608;  -30.625; -256.000; -267.000
328.743;  -92.475; -799.000; -664.000
328.879;    5.600;  214.000;  114.000
329.014;  -33.350; -102.000; -122.000
329.150;  -99.650; -358.000; -483.000
329.285;  -76.550; -465.000; -466.000
329.421;  -48.800; -548.000; -246.000
329.556;  -27.050;  -36.000;   85.000
329.691; -107.050; -633.000; -615.000
329.827;  -87.725; -626.000; -480.000
329.962;  -41.125;  131.000; -301.000
330.097;  -86.325; -673.000; -585.000
330.233;  -58.050; -410.000; -223.000
330.368; -127.400; -839.000; -628.000
330.503;  -18.875;    3.000;   98.000
330.638;    0.100;  -93.000; -125.000
330.774;  -67.675; -609.000; -530.000
330.909;  -47.450; -434.000; -244.000
331.044;  -94.650; -714.000; -708.000
331.179; -176.575;-1217.000;-1109.000
331.315;    7.100;   77.000;   20.000
331.450;    3.775;  157.000;  285.000
331.585;  -93.850; -805.000; -706.000
331.720;  -78.825; -510.000; -460.000
331.855;  -12.725;  -35.000; -102.000
331.990;  244.150;   62.000;  138.000
332.126;  113.100; -110.000;   71.000
332.261;  -32.525; -379.000; -265.000
332.396;   -3.975; -135.000; -242.000
332.531; -102.175;-1074.000;-1031.000
332.666;   30.475; -519.000; -363.000
332.801; -103.650; -726.000; -807.000
332.936;  -22.000; -192.000; -122.000
333.071; -127.650; -870.000; -817.000
333.206;    6.850;  307.000;  379.000
333.341;   35.950;  344.000;  418.000
333.476;  -83.025; -627.000; -623.000
333.611;  -41.325; -251.000; -173.000
333.746;  -40.600; -381.000; -464.000
333.881; -120.450; -973.000; -935.000
334.016; -138.775; -936.000; -917.000
334.151; -127.525; -746.000; -702.000
334.286;   22.375;  152.000;  186.000
334.421;  -16.050; -125.000; -178.000
334.556;  -76.850; -611.000; -567.000
334.690;  -84.700; -631.000; -577.000
334.825;   51.525;  381.000;   83.000
334.960;  -65.475; -285.000; -413.000
335.095;    8.950;  135.000;  -91.000
335.230; -112.875; -722.000; -738.000
335.365; -133.850;-1084.000; -990.000
335.499; -133.250;-1108.000;-1037.000
335.634;   23.175;    9.000;  534.000
335.769;  -94.850; -755.000; -720.000
335.904;  -65.000; -603.000; -561.000
336.038;  -55.050; -735.000; -657.000
336.173; -121.275;-1206.000;-1194.000
336.308;    1.575; -116.000; -189.000
336.443;    6.300; -544.000; -634.000
336.577;  -73.550; -936.000; -787.000
336.712;   69.325;   -4.000;  -12.000
336.847;  -34.250; -724.000; -607.000
336.981;   43.775; -272.000; -208.000
337.116;  298.700;  615.000;  501.000
337.250;  143.000; -434.000; -421.000
337.385;  243.500; -297.000; -208.000
337.520;   69.050; -632.000; -603.000
337.654;  -47.750; -215.000; -126.000
337.789; -139.000; -989.000; -933.000
337.923;  -37.350; -104.000; -205.000
338.058; -102.075; -673.000; -738.000
338.192;  -37.875; -611.000; -488.000
338.327;  -13.250;  -18.000; -155.000
338.461;  -72.775; -299.000; -469.000
338.596; -106.375; -780.000; -638.000
338.730;  -93.175; -767.000; -803.000
338.865;   77.825;  -46.000; -140.000
338.999;  -55.250; -846.000; -702.000
339.134;  -38.400; -634.000; -536.000
339.268;    7.850; -741.000; -603.000
339.403;  341.625; -740.000; -775.000
339.537;  101.200; -894.000; -820.000
339.671; -123.975; -829.000; -813.000
339.806;  -68.525; -556.000; -512.000
339.940;   20.900; -261.000; -235.000
340.074;  -98.450; -685.000; -510.000
340.209;  -61.125; -351.000; -230.000
340.343;  -86.950; -517.000; -573.000
340.477;  149.575;  998.000; 1036.000
340.612;  -64.125;-1033.000; -900.000
340.746;  120.975; -199.000; -243.000
340.880;  -74.375; -924.000; -785.000
341.014;  -26.800;  -45.000; -154.000
341.149; -118.550; -756.000; -718.000
341.283; -112.875; -839.000; -754.000
341.417;  -93.725;-1124.000; -938.000
341.551;  119.675; -768.000; -708.000
341.685;  -42.950; -633.000; -611.000
341.820;  -57.425; -562.000; -493.000
341.954;  -68.050; -218.000; -349.000
342.088; -151.900;-1102.000;-1019.000
342.222;   47.500;  565.000;  618.000
342.356;  -62.600; -395.000; -335.000
342.490; -107.775; -880.000; -841.000
342.624;  -54.400; -339.000; -242.000
342.758;   -8.425; -364.000; -312.000
342.892;  -69.425; -710.000; -585.000
343.026;  -51.100;  -58.000; -116.000
343.160;  -58.375; -426.000; -376.000
343.294;  -71.325; -474.000; -337.000
343.428;  -37.250; -488.000; -448.000
343.562;  -14.325; -172.000;  -23.000
343.696;  -26.850; -385.000; -314.000
343.830;  -14.075; -362.000; -356.000
343.964;    3.300; -231.000; -168.000
344.098;  880.650;  199.000;   70.000
344.232;  744.025; -266.000; -127.000
344.366;   77.150; -567.000; -453.000
344.500;   50.850; -665.000; -744.000
344.634;   27.450; -324.000; -164.000
344.768;  -32.175; -531.000; -341.000
344.902;   21.850;  278.000;  256.000
345.035;  -81.125; -556.000; -496.000
345.169; -135.150; -933.000; -656.000
345.303;  -59.925; -308.000; -482.000
345.437;  -64.000; -826.000; -717.000
345.571;  -77.025; -675.000; -594.000
345.704;  -68.750; -309.000; -532.000
345.838;  -20.525; -331.000; -284.000
345.972;  -50.175; -543.000; -495.000
346.106;  157.875; -179.000; -190.000
346.239;  406.175; -312.000; -243.000
346.373;    3.675; -343.000; -302.000
346.507; -141.325; -950.000; -962.000
346.640;  123.100;  -30.000;   13.000
346.774;  -55.650; -650.000; -797.000
346.908;  -21.100; -138.000;  -11.000
347.041; -101.375; -646.000; -593.000
347.175;   -2.575;  259.000;   27.000
347.309;  -65.625; -698.000; -628.000
347.442; -105.425; -883.000; -732.000
347.576;  264.950;  670.000;  668.000
347.709;  180.400; -123.000;  -52.000
347.843; -100.975; -933.000; -825.000
347.976;   22.000;  235.000;  294.000
348.110; -179.550;-1268.000;-1186.000
348.243; -111.300; -679.000; -772.000
348.377;   10.850;  -26.000;   60.000
348.510;   46.050;  403.000;  540.000
348.644;  -34.000;  -37.000; -159.000
348.777;  -14.050;  180.000;  191.000
348.911;  -49.575; -142.000; -112.000
349.044;  163.500;  471.000;  448.000
349.178;  146.375;-1069.000;-1006.000
349.311;  102.825;  141.000;  255.000
349.444;  -14.525; -927.000; -813.000
349.578;  -20.050; -347.000; -200.000
349.711; -109.200; -959.000; -862.000
349.845;    2.350; -661.000; -591.000
349.978; -151.450;-1224.000;-1137.000
350.111;  -85.650; -546.000; -612.000
350.244;  -89.950; -596.000; -700.000
350.378;    4.025; -392.000; -393.000
350.511;  -62.250; -393.000; -426.000
350.644; -115.700; -808.000; -806.000
350.778;   10.325;  168.000;  104.000
350.911;   -4.425;  134.000;  140.000
351.044;  -96.375; -685.000; -615.000
351.177;  -40.600; -321.000; -281.000
351.310;  -24.925;    3.000; -131.000
351.444;  -81.675; -888.000; -788.000
351.577;  107.925;  140.000;   90.000
351.710;   84.325;  593.000;  417.000
351.843;  -40.500; -165.000;  -77.000
351.976;   -0.125;  149.000;  -79.000
352.109;  -78.450; -621.000; -612.000
352.242;  -43.825; -464.000; -419.000
352.376;  -82.400; -580.000; -636.000
352.509;  154.800; -437.000; -356.000
352.642;   17.850; -654.000; -604.000
352.775;   58.300; -141.000;  -98.000
352.908; -109.175; -933.000; -904.000
353.041; -106.175; -814.000; -824.000
353.174;  -54.775; -551.000; -424.000
353.307;  -88.550; -753.000; -764.000
353.440;   77.325;  541.000;  453.000
353.573; -124.275; -957.000;-1008.000
353.706;  -45.575; -384.000; -558.000
353.839;  -33.450; -264.000; -220.000
353.971;  -85.100; -657.000; -512.000
354.104;  -89.900; -896.000; -835.000
354.237;  -42.275; -627.000; -662.000
354.370;  -87.575; -846.000; -879.000
354.503; -189.600;-1231.000;-1308.000
354.636;  -40.625; -529.000; -348.000
354.769; -129.650; -937.000; -860.000
354.902;   -3.925; -230.000; -139.000
355.034;  -26.400; -164.000; -220.000
355.167;  -22.250; -262.000; -162.000
355.300;  -85.800;-1061.000; -880.000
355.433;  961.375;  -71.000;  -14.000
355.565; 1492.600; -402.000; -384.000
355.698;  369.625; -356.000; -296.000
355.831;   -4.900; -882.000; -801.000
355.964;   76.600; -285.000; -170.000
356.096;  -84.450; -856.000; -843.000
356.229;   10.600; -523.000; -530.000
356.362;  312.475; -373.000; -266.000
356.494;  589.775; -229.000; -162.000
356.627;  474.250;  269.000;  377.000
356.760;  653.950;  120.000;   53.000
356.892;  922.800; -286.000; -601.000
357.025;  649.350;  403.000;  389.000
357.157;  577.950; -167.000; -179.000
357.290;  640.900; -856.000; -713.000
357.423;  185.875; -667.000; -556.000
357.555;   98.275; -217.000; -228.000
357.688;  117.150; -483.000; -364.000
357.820;  436.300; -870.000; -877.000
357.953; 3582.800; -563.000; -589.000
358.085;  773.325; -632.000; -612.000
358.218; 1108.050;-1131.000; -932.000
358.350;  191.650;  -58.000;  312.000
358.483; -112.875;-1300.000;-1187.000
358.615;  -31.000;-1182.000;-1078.000
358.747;  -68.250;-1187.000;-1058.000
358.880;   13.125; -810.000; -744.000
359.012;   -4.000; -376.000; -202.000
359.145;  -39.725; -480.000; -511.000
359.277;   53.350; -962.000; -913.000
359.409; 3004.300;  536.000;  231.000
359.542;  786.575; -738.000; -688.000
359.674;   63.150;   46.000;   13.000
359.806;  -64.450; -565.000; -438.000
359.939;  -63.925; -617.000; -516.000
360.071;   -4.275; -583.000; -579.000
360.203;  -33.075; -411.000; -364.000
360.335;   41.800;  164.000;  -16.000
360.468;  176.550; -249.000; -307.000
360.600; 2417.575; -547.000; -454.000
360.732; 2786.200; -546.000; -423.000
360.864;  349.650;-1216.000;-1044.000
360.996;  250.100; -516.000; -554.000
361.129;   24.075; -389.000; -598.000
361.261;   10.075;  110.000; -113.000
361.393;  -28.025; -252.000; -214.000
361.525;   31.475;   94.000;  244.000
361.657;  -52.725; -821.000; -703.000
361.789;   13.925; -139.000; -155.000
361.921;  222.975; -642.000; -593.000
362.053;  234.300;  524.000;  541.000
362.185;   42.650;  288.000;   72.000
362.318;  -95.375; -709.000; -705.000
362.450;  113.825;  294.000;  444.000
362.582;   95.175; -913.000; -870.000
362.714;  -41.425; -353.000; -332.000
362.846;  -87.325; -606.000; -490.000
362.978; -155.550; -941.000; -811.000
363.109;   38.550; -161.000; -260.000
363.241;  424.000; -739.000; -749.000
363.373;  400.500; -649.000; -564.000
363.505;  653.675; -186.000;  -91.000
363.637;  146.075; -787.000; -601.000
363.769; -135.525;-1067.000;-1080.000
363.901;  -71.850; -596.000; -654.000
364.033; -132.350;-1103.000;-1062.000
364.165;    3.400; -283.000; -283.000
364.296;   71.650; -316.000; -177.000
364.428;   60.225;-1344.000;-1220.000
364.560;  -69.175; -679.000; -661.000
364.692;  -68.225; -738.000; -835.000
364.824;  249.375; -588.000; -456.000
364.955;  411.400; -402.000; -564.000
365.087;  911.100;-1097.000; -852.000
365.219;   18.875; -686.000; -816.000
365.351;  -73.450; -526.000; -572.000
365.482;   45.750;  300.000;  240.000
365.614;  -53.475; -402.000; -314.000
365.746;  -97.675; -729.000; -752.000
365.877; -115.550; -706.000; -672.000
366.009;  260.250;  -35.000;  -62.000
366.141;  -95.000;-1249.000;-1134.000
366.272; -110.725; -803.000; -719.000
366.404; -119.750;-1005.000; -874.000
366.535;  -13.550; -139.000;  -12.000
366.667; -109.900; -644.000; -649.000
366.799;   29.100;  353.000;  203.000
366.930; -136.850; -862.000; -996.000
367.062;  117.150; -639.000; -613.000
367.193;  146.125; -872.000; -842.000
367.325;  -59.050; -580.000; -684.000
367.456;   46.950; -246.000;   31.000
367.588;  145.650; -371.000; -318.000
367.719;   19.075;  -44.000;  -45.000
367.851;  -31.800; -222.000; -241.000
367.982;  -61.900; -875.000; -732.000
368.113;   77.925; -475.000; -358.000
368.245; -126.875; -960.000; -841.000
368.376;  -20.875; -254.000; -302.000
368.508;  -43.275; -188.000; -263.000
368.639; -147.500;-1166.000;-1034.000
368.770;  -23.125; -670.000; -589.000
368.902;  -72.100; -836.000; -926.000
369.033; -110.350; -906.000; -855.000
369.164;  -60.650; -720.000; -653.000
369.296; -103.825; -452.000; -601.000
369.427;   -3.875; -209.000; -144.000
369.558;  -48.700; -593.000; -377.000
369.689;  -81.125; -721.000; -569.000
369.821; -136.425; -951.000; -845.000
369.952;  -23.725;   42.000; -108.000
370.083;  -69.600; -229.000; -108.000
370.214; -101.925; -735.000; -650.000
370.345;  -16.375;   65.000;   81.000
370.477;  -94.600; -810.000; -790.000
370.608;  228.550; -328.000; -264.000
370.739;  -57.925;-1233.000;-1292.000
370.870;  -50.325;-1102.000; -923.000
371.001;   83.275; -378.000; -467.000
371.132;  -71.950; -754.000; -735.000
371.263;  -23.750;  -42.000; -148.000
371.394; -141.725; -841.000; -748.000
371.525;   36.500;  345.000;  225.000
371.657;  -93.425; -808.000; -670.000
371.788;   61.400;  103.000;  199.000
371.919;  144.475; -384.000; -304.000
372.050; 3540.300;  -91.000; -156.000
372.181; 1043.100; -188.000; -294.000
372.311;  364.100;   42.000; -127.000
372.442;   26.275; -457.000; -451.000
372.573;  -33.525; -444.000; -340.000
372.704; -125.475;-1008.000; -980.000
372.835;   81.950; -228.000; -289.000
372.966;  -63.050; -646.000; -554.000
373.097;  -71.225; -575.000; -711.000
373.228;  -46.825; -717.000; -542.000
373.359;  116.025; -824.000; -536.000
373.490;  893.350; -881.000; -727.000
373.620; 1123.075;-1001.000; -803.000
373.751; 1717.550; -332.000; -396.000
373.882;  767.550; -663.000; -733.000
374.013;   64.300; -449.000; -262.000
374.143;  -40.300; -581.000; -659.000
374.274; -108.925; -987.000; -908.000
374.405;  165.725; -388.000; -276.000
374.536;  442.050; -526.000; -387.000
374.666; 1084.500; -759.000; -807.000
374.797;  198.850; -817.000; -868.000
374.928;  834.950; -710.000; -560.000
375.058;  858.075; -535.000; -500.000
375.189;   71.700;  -59.000;  -93.000
375.320; -108.550; -928.000;-1034.000
375.450;  -54.700; -625.000; -616.000
375.581;  -56.450; -526.000; -436.000
375.712;  -38.250; -574.000; -250.000
375.842;  309.450; -438.000; -415.000
375.973;  191.875; -554.000; -513.000
376.103;  -42.850; -665.000; -648.000
376.234;  -79.500; -531.000; -552.000
376.364;  -51.650; -944.000; -867.000
376.495;  310.325;  925.000;  529.000
376.625;  -11.350; -472.000; -485.000
376.756;   40.875; -709.000; -678.000
376.886;  -76.400;-1178.000;-1026.000
377.017;   45.175;-1048.000;-1061.000
377.147;  345.100; -786.000; -782.000
377.278;   52.700;  174.000;  228.000
377.408; -124.975; -801.000; -815.000
377.538; -111.450; -707.000; -693.000
377.669;  -79.550; -537.000; -613.000
377.799;  -98.675; -645.000; -635.000
377.929;  -67.550; -610.000; -428.000
378.060; -133.325; -781.000; -847.000
378.190;  -66.875; -726.000; -531.000
378.320;  -68.600; -401.000; -406.000
378.451;  -28.725; -131.000;  -22.000
378.581;  -21.825;  -67.000; -110.000
378.711;  159.675; 1035.000;  866.000
378.841;  -34.300; -533.000; -675.000
378.972;  -75.625; -871.000; -751.000
379.102;  -10.775; -652.000; -579.000
379.232;  -27.300; -126.000;  -73.000
379.362; -109.150;-1001.000; -885.000
379.492;    5.525; -373.000; -424.000
379.623;   98.350;    0.000;  111.000
379.753;  -87.700;-1107.000; -974.000
379.883;  188.500;   59.000;  156.000
380.013;   -7.050;-1081.000;-1017.000
380.143; -103.875;-1097.000;-1056.000
380.273; -101.675; -985.000; -861.000
380.403;    4.125; -344.000; -257.000
380.533;  -35.075; -651.000; -664.000
380.663;   61.375;  173.000;  128.000
380.793;  -98.525;-1027.000;-1074.000
380.923;  -15.900; -103.000;  -34.000
381.053;  -90.275; -613.000; -623.000
381.183;  -41.825; -106.000; -248.000
381.313;   36.475; -656.000; -470.000
381.443;   37.825; -692.000; -473.000
381.573;  194.100; -402.000; -409.000
381.703;  245.100;-1249.000;-1095.000
381.833; -131.825;-1454.000;-1336.000
381.963;   93.925; -134.000;  -87.000
382.093; 1371.675; -925.000; -909.000
382.223;  397.600; -713.000; -602.000
382.353;  -10.375; -801.000; -608.000
382.482;  349.625;-1091.000; -964.000
382.612;  731.475; -872.000; -644.000
382.742;  399.500; -695.000; -622.000
382.872;  248.275; -565.000; -551.000
383.002;   49.650;  347.000; -132.000
383.131;    8.800; -226.000; -160.000
383.261;  -39.800; -706.000; -768.000
383.391;  295.525; -552.000; -377.000
383.521; 3136.975;  451.000;  263.000
383.650;  722.225; -947.000; -904.000
383.780;  -30.100; -783.000; -656.000
383.910;  102.925;  880.000;  802.000
384.039;   -4.875; -794.000; -656.000
384.169;  195.250;-1205.000;-1017.000
384.299;  -32.575; -650.000; -662.000
384.428;  -93.900; -764.000; -680.000
384.558;  -46.600; -308.000; -275.000
384.687;  -46.025; -414.000; -334.000
384.817;    7.800;   75.000;   -2.000
384.947;   14.050; -234.000; -141.000
385.076;  271.550;  982.000;  912.000
385.206;  107.175;  369.000;  480.000
385.335;  -40.575; -549.000; -417.000
385.465;  -78.400; -655.000; -663.000
385.594;  138.300;  -53.000;  -44.000
385.724;  420.225; -868.000; -838.000
385.853;  105.100; -296.000; -270.000
385.982; 1329.225; -743.000; -787.000
386.112; 2075.500;-1052.000; -871.000
386.241;  126.450; -307.000; -312.000
386.371;    8.900; -174.000;  -87.000
386.500;  -12.550; -825.000; -789.000
386.629;   20.500; -874.000; -817.000
386.759;   56.875;  -43.000;   68.000
386.888;  -14.325; -170.000; -250.000
387.017;  -67.525; -648.000; -620.000
387.147;  -88.925; -771.000; -798.000
387.276;   -6.750; -410.000; -397.000
387.405;    5.775; -398.000; -342.000
387.535;  -41.875; -452.000; -361.000
387.664;  -60.575; -692.000; -620.000
387.793;   42.075; -198.000; -113.000
387.922;  479.300;  255.000;  200.000
388.052;   21.450; -576.000; -423.000
388.181;   -6.300; -342.000; -472.000
388.310;    2.425; -889.000; -710.000
388.439;  -47.950; -749.000; -742.000
388.568;  178.575;  365.000;  244.000
388.697; 1030.925; -756.000; -653.000
388.826;  211.200; -768.000; -666.000
388.956;   52.350; -285.000; -307.000
389.085;  -41.525; -347.000; -287.000
389.214; -105.700; -842.000; -872.000
389.343;  -67.925; -645.000; -413.000
389.472;  379.625;  126.000;  149.000
389.601;  502.400;   91.000;    0.000
389.730;   15.150; -568.000; -687.000
389.859;   63.450;  226.000;   46.000
389.988;  167.375; -423.000; -408.000
390.117;  138.900; -168.000; -146.000
390.246;  -22.425; -331.000; -320.000
390.375;   93.425; -673.000; -626.000
390.504;  -70.450; -703.000; -621.000
390.633; -104.725; -672.000; -726.000
390.761;  -74.250; -732.000; -645.000
390.890;   24.550;   -4.000; -130.000
391.019;  -41.050; -421.000; -441.000
391.148; -145.600; -826.000; -855.000
391.277;  -69.375; -576.000; -493.000
391.406; -100.450; -821.000; -805.000
391.534;   18.225;  574.000; -301.000
391.663;  -76.525; -583.000; -645.000
391.792;  -87.900; -673.000; -701.000
391.921;   84.875;   -3.000;   15.000
392.050;  160.825; -287.000; -228.000
392.178;  -65.000;-1206.000;-1061.000
392.307;  144.175; -758.000; -712.000
392.436;   68.725; -427.000; -641.000
392.564;    7.950;  166.000;   -6.000
392.693;  -90.900; -860.000; -682.000
392.822;  194.250; -529.000; -534.000
392.950;   71.625; -880.000; -714.000
393.079;  309.250; -188.000; -328.000
393.208;   29.525; -488.000; -511.000
393.336;  -10.225; -170.000; -145.000
393.465;  -50.025; -317.000; -199.000
393.593;   -5.750;   62.000;   79.000
393.722; -153.125;-1121.000; -916.000
393.850;  -36.850; -188.000;  -61.000
393.979; -147.275; -926.000; -805.000
394.107;  -76.150; -517.000; -537.000
394.236;  -32.525; -570.000; -507.000
394.364;  181.400;  383.000;  206.000
394.493;  280.875; -911.000; -767.000
394.621;  -29.425; -955.000; -916.000
394.750;  693.275; -873.000; -923.000
394.878; 2894.575; -247.000; -149.000
395.007; 3931.425; -721.000; -807.000
395.135;  283.025; -790.000; -721.000
395.263;  -81.075;-1038.000;-1040.000
395.392;  -16.075;  -25.000; -107.000
395.520; -134.350; -818.000; -679.000
395.648;  -88.450; -865.000; -915.000
395.777;  -18.150; -366.000; -405.000
395.905;  -55.425; -449.000; -564.000
396.033;    2.450;  217.000;  172.000
396.162;  454.075; -399.000; -453.000
396.290;  391.150;  -17.000;   -2.000
396.418;   83.900; -555.000; -514.000
396.546;  -88.125; -571.000; -466.000
396.674; -101.500; -850.000; -878.000
396.803;   12.000;  -72.000;  -23.000
396.931;   80.300; -179.000; -199.000
397.059;   26.600;-1026.000; -989.000
397.187; -109.300;-1026.000; -975.000
397.315; -137.600; -884.000; -649.000
397.443;  -96.175; -592.000; -443.000
397.572;  -88.150; -578.000; -424.000
397.700;  -21.925; -607.000; -614.000
397.828;   24.825;  120.000;  -90.000
397.956;  -51.125; -508.000; -478.000
398.084;  -71.175; -767.000; -626.000
398.212;   27.575;  137.000;  124.000
398.340;    2.100;  -56.000;  159.000
398.468;   12.400; -390.000; -169.000
398.596; -141.450; -993.000; -953.000
398.724; -136.350; -762.000; -767.000
398.852; -167.375;-1024.000; -976.000
398.980;  -74.000; -560.000; -560.000
399.108;  -39.650; -982.000; -735.000
399.236;   33.125;   13.000;    8.000
399.363;   19.225;  222.000;  196.000
399.491;  -75.225; -404.000; -398.000
399.619; -122.425; -829.000; -800.000
399.747; -104.350; -859.000; -771.000
399.875;   75.375;  220.000;  234.000
400.003;  -54.625; -359.000; -284.000
400.130; -102.625; -421.000; -341.000
400.258;  -34.050;  -83.000;   38.000
400.386;  -56.825; -352.000; -168.000
400.514;  -59.350; -526.000; -587.000
400.641;  -89.625; -928.000; -802.000
400.769; -145.500; -979.000; -888.000
400.897; -117.075; -838.000; -793.000
401.025;  -20.725; -166.000; -152.000
401.152;  -10.500;  220.000;   38.000
401.280;  -85.300; -430.000; -429.000
401.408; -117.850; -712.000; -576.000
401.535; -112.775; -735.000; -758.000
401.663; -188.750;-1134.000;-1054.000
401.790;  -95.875; -514.000; -525.000
401.918;   42.375;  436.000;  405.000
402.046;  -22.325;  134.000;  122.000
402.173;  -31.400;  -18.000;    7.000
402.301;  -84.150; -519.000; -397.000
402.428;   34.375;  528.000;  383.000
402.556; -145.000;-1188.000; -913.000
402.683;  -34.625;  -20.000;   -1.000
402.811;  -29.425;  -37.000; -206.000
402.938;  -21.100;   20.000;   27.000
403.066;  180.800; -574.000; -558.000
403.193;  324.975;  299.000;  239.000
403.321;  261.750; -396.000; -574.000
403.448;  309.050;   83.000;   27.000
403.575;  129.250;  -90.000;  -46.000
403.703; -103.150; -732.000; -557.000
403.830;  -64.475; -531.000; -496.000
403.957; -130.375;-1117.000;-1023.000
404.085;    4.400;  -61.000; -172.000
404.212;   94.850;  -50.000;   63.000
404.339;  259.700; -566.000; -306.000
404.467; 5722.725; -612.000; -524.000
404.594; 3776.050; -287.000; -227.000
404.721;  865.125; -869.000; -764.000
404.848;   77.600; -113.000; -202.000
404.976; -106.300; -856.000; -783.000
405.103;  -18.450;  -14.000;  -82.000
405.230;  -13.775;  190.000;  226.000
405.357;   15.325;  117.000;   44.000
405.484;  269.300;  -49.000;    5.000
405.612;   19.525; -548.000; -563.000
405.739;  -61.725; -488.000; -243.000
405.866;   73.500;  669.000;  385.000
405.993;  -47.975; -398.000; -102.000
406.120; -149.875; -801.000; -887.000
406.247;  -65.525; -323.000; -342.000
406.374;  410.400;  540.000;  629.000
406.501;   88.525; -632.000; -702.000
406.628;  -81.650; -621.000; -589.000
406.755; -100.550; -803.000; -620.000
406.882;  -39.925; -228.000; -277.000
407.009; -108.850; -719.000; -628.000
407.136;   46.700; -480.000; -401.000
407.263;  113.850; -939.000; -829.000
407.390;  -90.575; -692.000; -614.000
407.517; -168.300;-1139.000;-1187.000
407.644;  -63.650; -332.000; -256.000
407.771;  -73.225; -249.000; -287.000
407.898;   -8.950;  168.000;  328.000
408.025;  -70.700; -421.000; -313.000
408.151;  -18.950;   82.000;  153.000
408.278;  -73.475; -267.000; -216.000
408.405; -118.225; -931.000; -899.000
408.532;  -86.975; -549.000; -542.000
408.659; -125.875; -677.000; -648.000
408.785; -187.725;-1298.000;-1170.000
408.912;  -76.775; -412.000; -296.000
409.039; -110.500; -610.000; -686.000
409.166; -115.300; -591.000; -555.000
409.292; -111.725; -571.000; -534.000
409.419; -122.050; -665.000; -649.000
409.546;  -86.425; -431.000; -192.000
409.672; -123.325; -713.000; -545.000
409.799;  -24.025;  -36.000;   34.000
409.926;  -46.025; -180.000; -179.000
410.052; -165.050;-1127.000;-1091.000
410.179;  -73.200; -368.000; -392.000
410.305;  -82.475; -375.000; -493.000
410.432;  -57.675; -220.000; -333.000
410.558;  -85.375; -305.000; -380.000
410.685; -117.675; -688.000; -431.000
410.812;  -91.625; -409.000; -588.000
410.938; -143.200; -964.000; -808.000
411.065;  -88.450; -671.000; -645.000
411.191;  -31.500; -189.000; -174.000
411.317; -130.900; -823.000; -742.000
411.444;  -69.575; -317.000; -246.000
411.570;  -72.525; -339.000; -294.000
411.697; -141.525; -758.000; -752.000
411.823; -178.900; -989.000; -999.000
411.949;  -38.700;  -56.000;   17.000
412.076; -123.775; -539.000; -519.000
412.202; -121.575; -758.000; -757.000
412.329; -118.100; -798.000; -752.000
412.455; -128.725; -821.000; -657.000
412.581;  -19.750;  -15.000;  172.000
412.707;  -57.575; -540.000; -457.000
412.834;   17.800;  156.000;  219.000
412.960;  -91.800; -785.000; -784.000
413.086; -108.725; -743.000; -701.000
413.212;  140.250;  604.000;  578.000
413.339;  -69.850; -685.000; -701.000
413.465;    2.575; -364.000; -310.000
413.591;  -93.975; -757.000; -474.000
413.717;  -72.400; -358.000; -366.000
413.843; -145.700; -839.000; -861.000
413.969;  -59.650;  -47.000; -292.000
414.096; -103.525; -679.000; -679.000
414.222;  -22.550;  -33.000;   85.000
414.348;  -32.350; -652.000; -385.000
414.474;   80.750;   38.000;  -52.000
414.600;  -20.200; -126.000; -144.000
414.726;  -29.950;  -96.000;  -55.000
414.852;  -76.425; -365.000; -342.000
414.978;   12.600;  104.000;  -18.000
415.104;   34.475;   38.000;   80.000
415.230;   15.175; -329.000; -330.000
415.356;   29.100; -409.000; -514.000
415.482;  196.250;   13.000;  -35.000
415.608;  253.850; -247.000; -323.000
415.734;  940.725;   67.000;   38.000
415.860;19966.475; -875.000; -767.000
415.986;14292.625; -685.000; -607.000
416.111; 1203.825; -798.000; -652.000
416.237;  245.825; -424.000; -571.000
416.363; 1112.950; -765.000; -733.000
416.489; 4147.825; -324.000; -251.000
416.615;  429.750; -707.000; -742.000
416.741;  -31.650; -677.000; -784.000
416.866;  -97.850; -673.000; -736.000
416.992; -125.275; -801.000; -818.000
417.118;  -27.025;  -41.000;  -80.000
417.244;  -67.450; -798.000; -531.000
417.369; -102.275; -801.000; -612.000
417.495;  -13.625; -325.000; -254.000
417.621;  -90.300;-1015.000; -803.000
417.746;    2.175; -579.000; -572.000
417.872;   37.250; -254.000; -144.000
417.998;   49.225; -515.000; -530.000
418.123; 1047.825;-1073.000; -845.000
418.249; 5337.900; -512.000; -601.000
418.374;  724.200; -916.000; -824.000
418.500;  105.850; -383.000; -482.000
418.626;  109.450;   70.000;  -59.000
418.751;  128.550; -549.000; -448.000
418.877;  181.875; -637.000; -643.000
419.002; 1770.325; -688.000; -560.000
419.128;12501.500; -930.000; -721.000
419.253; 3043.375; -967.000; -837.000
419.379;  388.450; -391.000; -338.000
419.504;  379.925;  325.000;  415.000
419.629;  510.450; -393.000; -212.000
419.755; 3562.550; -317.000; -254.000
419.880;20979.000;  -98.000;   67.000
420.006;11375.775; -280.000; -221.000
420.131;29177.175; -662.000; -775.000
420.256; 4152.475; -315.000; -316.000
420.382;  536.675; -665.000; -687.000
420.507;   71.875; -649.000; -778.000
420.632;  131.750; -337.000; -339.000
420.758;  227.950; -251.000; -425.000
420.883;  -85.475; -876.000; -672.000
421.008; -107.275; -775.000; -619.000
421.133;  -89.250; -509.000; -467.000
421.259;  -61.800; -325.000; -259.000
421.384; -117.025; -834.000; -693.000
421.509;  -57.675;-1052.000; -862.000
421.634; 1143.650; -936.000; -820.000
421.759;  473.300; -359.000; -327.000
421.885;  -53.375; -717.000; -656.000
422.010;  -85.425; -673.000; -542.000
422.135; -144.700; -695.000; -727.000
422.260;   29.600;  340.000;  280.000
422.385;  -48.000;   12.000;  -98.000
422.510;    6.175;  151.000;  -26.000
422.635;   11.150;  -87.000;  -43.000
422.760;   79.250; -766.000; -791.000
422.885;   51.950;  -57.000;  -80.000
423.010;  -45.600; -112.000; -169.000
423.135;  -89.975; -481.000; -561.000
423.260;  -28.125; -150.000; -245.000
423.385;   70.050;  476.000;  222.000
423.510;   24.400;   71.000;  -22.000
423.635;   76.325;  133.000;   45.000
423.760;   52.250;  383.000;  328.000
423.885;   54.375;  336.000;  391.000
424.010;   10.500;  -68.000;  -13.000
424.135;  -16.575;    5.000;  -33.000
424.259;  -94.200; -654.000; -457.000
424.384;  -57.125; -279.000; -272.000
424.509;  -37.250; -260.000; -186.000
424.634; -103.375; -761.000; -623.000
424.759;  -36.650; -688.000; -544.000
424.883;  -39.575; -506.000; -527.000
425.008;  135.750; -502.000; -410.000
425.133; 1986.950; -679.000; -653.000
425.258;  920.000; -517.000; -381.000
425.382; 1008.775; -867.000; -774.000
425.507; 2531.875; -487.000; -543.000
425.632;  410.400; -802.000; -663.000
425.756;  447.575; -256.000; -146.000
425.881; 6538.750; -831.000; -857.000
426.006;17534.050; -604.000; -355.000
426.130; 2679.275; -696.000; -508.000
426.255;  336.750; -611.000; -491.000
426.379;  154.275; -189.000; -577.000
426.504;  366.725;  660.000;  544.000
426.629; 4019.650; -519.000; -466.000
426.753; 2715.750;   64.000;  -46.000
426.878;  305.350; -252.000; -288.000
427.002;  121.200; -651.000; -668.000
427.127; 1592.150;  -35.000; -158.000
427.251;11317.000;  372.000;  401.000
427.375; 3193.500; -191.000; -173.000
427.500; 2243.600; -616.000; -610.000
427.624;  736.350; -234.000; -400.000
427.749;   91.900; -216.000; -225.000
427.873;  -46.975; -499.000; -412.000
427.997;  -43.150; -222.000; -230.000
428.122;   70.950;  795.000;  703.000
428.246;   68.300;  433.000;  434.000
428.371; -121.475; -869.000; -773.000
428.495; -104.675; -624.000; -646.000
428.619;  -46.750; -186.000; -117.000
428.743;   21.225;   65.000;  132.000
428.868;    4.225; -732.000; -643.000
428.992; 1368.425; -219.000; -326.000
429.116;  552.650; -329.000; -357.000
429.240;  262.925;  419.000;  426.000
429.365;  -23.625; -454.000; -574.000
429.489;  -44.850; -638.000; -647.000
429.613;   10.450; -236.000; -177.000
429.737;   32.775; -563.000; -432.000
429.861;  250.775; -247.000; -133.000
429.985; 5553.125; -425.000; -305.000
430.109; 6019.225; -770.000; -908.000
430.234;  690.525;   76.000;  -50.000
430.358;   59.975; -250.000; -160.000
430.482;  -76.025; -672.000; -564.000
430.606;  -74.950; -655.000; -375.000
430.730;    3.175; -437.000; -388.000
430.854;  116.975; -909.000; -835.000
430.978;  -78.900; -795.000; -764.000
431.102;  -85.600; -499.000; -422.000
431.226; -128.750; -874.000; -815.000
431.350;   22.875;  345.000;  422.000
431.474;  -88.325; -661.000; -373.000
431.597; -146.725;-1060.000; -848.000
431.721;  -90.300; -276.000; -267.000
431.845; -132.200; -704.000; -472.000
431.969;  -93.375; -304.000; -349.000
432.093;  -90.625; -395.000; -317.000
432.217;  -34.475;   32.000;   82.000
432.341; -100.600; -523.000; -518.000
432.464;    2.825;   96.000;   40.000
432.588;  187.700; -401.000; -329.000
432.712;   75.950;  -52.000;  -52.000
432.836;   42.275;  213.000;  263.000
432.959;  -21.225; -372.000; -311.000
433.083;   76.325;   11.000;    2.000
433.207;  368.525;  285.000;  930.000
433.330; 5082.950; -391.000; -200.000
433.454; 6202.725; -654.000; -638.000
433.578; 3528.275;  583.000;  278.000
433.701;  637.875; -623.000; -675.000
433.825;  141.700; -292.000; -299.000
433.949;  150.950;   28.000;  -72.000
434.072;   50.350; -410.000; -323.000
434.196;  -16.850; -309.000; -117.000
434.319; 3799.650;25482.000;25124.000
434.443;  722.050; -656.000; -603.000
434.566; 2630.950;  281.000;   62.000
434.690;  435.175; -637.000; -383.000
434.813;   48.250; -251.000; -173.000
434.937;  -88.850; -569.000; -696.000
435.060;  -44.050; -423.000; -332.000
435.184;  290.525; -492.000; -217.000
435.307;  142.100;  159.000;  102.000
435.431;  -29.775;  -40.000;   24.000
435.554;  -81.925; -399.000; -240.000
435.677;  -93.050; -350.000; -258.000
435.801;  -58.950;  -25.000;   49.000
435.924;  -23.725;    1.000;  -67.000
436.048; -128.550;-1019.000; -732.000
436.171;  -75.575; -240.000;  -66.000
436.294;  -23.275; -248.000; -229.000
436.417;   65.600; -963.000; -849.000
436.541;  -92.650; -814.000; -840.000
436.664;  -57.400; -242.000; -316.000
436.787;  -39.950;   13.000;  113.000
436.910; -123.675; -792.000; -422.000
437.034;  -10.225;  142.000;  143.000
437.157;   41.625;  -11.000;    0.000
437.280;  -49.225; -392.000; -292.000
437.403;  -87.050; -982.000; -869.000
437.526;  590.825; -903.000; -865.000
437.649; 2165.925; -505.000; -332.000
437.772;  311.400; -692.000; -540.000
437.896;  102.800;  700.000;  544.000
438.019; -102.425; -758.000; -503.000
438.142;  -91.350; -596.000; -506.000
438.265;  -28.675; -639.000; -670.000
438.388;  525.025; -520.000; -410.000
438.511;   86.100; -597.000; -394.000
438.634;  -55.775; -247.000; -125.000
438.757; -151.775; -693.000; -619.000
438.880;  -19.750;  -34.000;  -57.000
439.003;  -77.925; -417.000; -437.000
439.126;  -76.375; -287.000; -167.000
439.248;  -63.600;  -98.000; -139.000
439.371;  -51.200;    9.000;  -53.000
439.494;    7.625;  510.000;  439.000
439.617;  -60.000;   65.000;  -88.000
439.740; -184.750; -968.000; -816.000
439.863; -140.450; -755.000; -595.000
439.986; -119.425; -476.000; -431.000
440.108;  -63.550; -161.000; -112.000
440.231; -165.875; -950.000; -836.000
440.354;  -44.175;  -64.000; -150.000
440.477;    9.875; -566.000; -542.000
440.599;  -17.700; -200.000; -225.000
440.722; -112.725; -709.000; -586.000
440.845;   68.375;  751.000;  928.000
440.968; -114.450; -415.000; -311.000
441.090;  -62.125; -199.000;  -33.000
441.213; -171.525;-1021.000; -825.000
441.336;  -46.725; -159.000;   -5.000
441.458;  -78.875; -549.000; -396.000
441.581;  -98.075; -628.000; -629.000
441.703;  -72.975; -152.000;   13.000
441.826; -129.925; -557.000; -400.000
441.948;  -58.675;   56.000;   51.000
442.071;   15.350;  555.000;  424.000
442.193; -113.675; -531.000; -485.000
442.316;    6.925;  152.000;   97.000
442.438;   25.475; -233.000;  -10.000
442.561;   49.400;  272.000;  262.000
442.683;  506.900; -809.000; -522.000
442.806; 1101.125;   -8.000;   74.000
442.928;    7.800; -859.000; -604.000
443.051;  -81.125; -577.000; -373.000
443.173;  -83.500; -341.000; -339.000
443.295; -101.700; -263.000; -371.000
443.418;  -77.075; -321.000;  -29.000
443.540;  -30.625; -106.000;   -4.000
443.662; -115.575; -563.000; -465.000
443.785;  -22.525;  335.000;  199.000
443.907;  -96.175; -362.000; -208.000
444.029; -134.500; -767.000; -494.000
444.152; -141.325; -644.000; -554.000
444.274;  -37.925;  -18.000;  -24.000
444.396; -118.475; -461.000; -221.000
444.518; -143.875; -691.000; -454.000
444.640; -102.475; -268.000; -111.000
444.763;  -33.900;  388.000;  249.000
444.885; -119.725; -432.000; -392.000
445.007;  -42.125;   35.000;   86.000
445.129; -124.100; -610.000; -515.000
445.251; -122.050; -372.000; -439.000
445.373; -138.100; -537.000; -386.000
445.495;  -14.175;  242.000;  350.000
445.617;   57.225;  853.000;  753.000
445.739;  -83.850; -215.000;  -97.000
445.861;  -29.650; -245.000; -112.000
445.984;  -58.075; -267.000; -101.000
446.105;  178.625; -418.000; -251.000
446.227;  573.000; -176.000;  -19.000
446.349;  -16.500; -358.000; -249.000
446.471; -106.275; -615.000; -448.000
446.593;  -76.725; -316.000;   19.000
446.715;   -2.800;  -67.000;   41.000
446.837;   61.775;  697.000;  832.000
446.959; -103.975; -457.000; -478.000
447.081; -147.500; -628.000; -518.000
447.203;   50.925;  862.000;  834.000
447.325;  -83.425; -270.000;   42.000
447.446;   -5.500;  286.000;  530.000
447.568; -163.125; -921.000; -803.000
447.690;  -84.775; -236.000; -245.000
447.812; -147.475; -798.000; -519.000
447.933;  -52.200;  155.000;  127.000
448.055;  -70.550; -306.000; -261.000
448.177;  142.500;   31.000;   79.000
448.299;   80.400; -935.000; -727.000
448.420;   11.475;  -25.000;  159.000
448.542;  -57.450;   -3.000;   33.000
448.664;  -34.125;  109.000;  322.000
448.785;  -40.450;  265.000;   83.000
448.907;  -95.025; -614.000; -353.000
449.028;  -40.500; -771.000; -471.000
449.150;   52.475;  492.000;  589.000
449.272; -184.350;-1044.000; -913.000
449.393;   18.025;  612.000;  694.000
449.515; -150.175; -634.000; -581.000
449.636;  -71.025; -264.000; -155.000
449.758;   69.975;  763.000;  622.000
449.879;  -92.025; -498.000; -396.000
450.001;  -81.275; -149.000;  -49.000
450.122;  -44.125;  -95.000;  162.000
450.244;  -30.925;   37.000;  364.000
450.365; -106.625; -495.000; -301.000
450.486;  -37.950;   80.000;  268.000
450.608;    8.850;  393.000;  326.000
450.729;   59.650;  578.000;  645.000
450.850;   -1.150; -574.000; -466.000
450.972;  726.025; -552.000; -389.000
451.093; 4905.100;  190.000;  588.000
451.214; 2096.225; -516.000; -337.000
451.336;  381.850;  773.000;  579.000
451.457;   54.550;  264.000;  393.000
451.578;  -38.900; -118.000;  -74.000
451.699; -129.500; -546.000; -540.000
451.821;  -62.700; -284.000;  -50.000
451.942;    4.350;  278.000;  285.000
452.063;   32.600;  228.000;  419.000
452.184;  548.325;  -54.000;  -49.000
452.305; 1064.250;  103.000;  170.000
452.427;  116.025; -549.000; -301.000
452.548;  -22.975;   23.000;   79.000
452.669;  -68.075; -257.000;  -89.000
452.790;  -49.225;    3.000;  -18.000
452.911;  -19.625;  195.000;  259.000
453.032;  -75.175; -289.000;  -60.000
453.153;  -35.800;  -29.000;   81.000
453.274;   36.100;  737.000;  868.000
453.395;  -62.200;  -51.000;  175.000
453.516;  129.725; 1317.000; 1388.000
453.637;  -81.450; -205.000; -150.000
453.758;  -77.025;   15.000;   69.000
453.879; -125.350; -462.000; -250.000
454.000;   70.150; 1086.000;  948.000
454.121; -116.725; -554.000; -326.000
454.242; -122.150; -599.000; -383.000
454.362;  -67.525;  -99.000;  114.000
454.483;  -38.675; -309.000; -229.000
454.604;   60.375;  512.000;  580.000
454.725; -139.475; -627.000; -555.000
454.846; -138.400; -474.000; -406.000
454.967;  -28.925;  230.000;  539.000
455.087;  -47.500;  179.000;  153.000
455.208;   14.825;  554.000;  856.000
455.329;  -54.400;  -22.000;   82.000
455.450;   33.825;  473.000;  633.000
455.570; -100.375; -234.000; -211.000
455.691;  -62.025;  201.000;  407.000
455.812; -113.350; -270.000;  -92.000
455.932;  -66.450;  107.000;  -97.000
456.053;  -84.500;   36.000;   24.000
456.173; -125.050; -433.000; -355.000
456.294; -135.525; -476.000; -303.000
456.415;  -58.850;  -73.000;   70.000
456.535;  -39.150;  297.000;  273.000
456.656;  -47.775;  132.000;  240.000
456.776;  -60.225;    3.000;  298.000
456.897;  -19.825;  308.000;  513.000
457.017;  -89.200; -153.000;   -3.000
457.138; -105.525; -402.000; -249.000
457.258;  -24.800;  263.000;  224.000
457.379;  -23.375;  509.000;  521.000
457.499;  -29.050;  443.000;  432.000
457.620; -124.425; -407.000; -231.000
457.740;  -96.150; -132.000;  -11.000
457.860;  -70.550;   87.000;   44.000
457.981;  -34.900;  132.000;  124.000
458.101;  -78.300;  -89.000;   40.000
458.221;  -12.775;  336.000;  402.000
458.342;  -77.450;   -4.000;  -37.000
458.462;   16.550;  617.000;  352.000
458.582;  -34.050; -302.000; -294.000
458.703;    7.250;  303.000;  154.000
458.823;  -30.125;   22.000;  163.000
458.943;   18.200;  341.000;  467.000
459.063;  -24.975; 1124.000;  192.000
459.183;  -15.975;  328.000;  313.000
459.304;   -3.125;  315.000;  517.000
459.424;  -83.300; -246.000;  -89.000
459.544;  317.200;  388.000;  764.000
459.664;  816.850;  499.000;  506.000
459.784;  278.525; 1004.000; 1175.000
459.904;   50.450;  867.000;  744.000
460.024;   57.950;  867.000;  684.000
460.144;    0.750;  449.000;  554.000
460.264;  -15.300;  515.000;  327.000
460.385;  -97.850; -145.000; -119.000
460.505;   50.675;  905.000;  858.000
460.625; -105.300;  -17.000;  -68.000
460.745;  -18.025;  396.000;  541.000
460.864;  -57.450;  153.000;  469.000
460.984;    7.825;  499.000;  573.000
461.104;  130.675; 1656.000; 1775.000
461.224;   18.750;  657.000;  650.000
461.344;  -30.875;  431.000;  360.000
461.464;  -38.400;  258.000;  513.000
461.584;  -24.275;  283.000;  466.000
461.704;  -50.650;   58.000;  108.000
461.824;  -52.775;  238.000;  259.000
461.943;  -51.600;  191.000;  130.000
462.063;  -80.800;    2.000;  324.000
462.183;   11.400;  639.000;  717.000
462.303;  111.150; 1678.000; 1230.000
462.422;   35.400;  781.000;  840.000
462.542;  -42.725;  271.000;  391.000
462.662;   33.075;  353.000;  380.000
462.782;  230.150;  833.000;  572.000
462.901;  458.525;  545.000;  717.000
463.021;  289.625; 1702.000; 1638.000
463.141;  -10.600;  337.000;  770.000
463.260;  -19.425;  614.000;  474.000
463.380;   17.550;  902.000;  884.000
463.499;  -39.500;  342.000;  332.000
463.619;  -57.950;  581.000;  559.000
463.738;   99.725; 1644.000;  903.000
463.858;   22.775;  657.000;  811.000
463.978;  -29.675;  542.000;  396.000
464.097;   49.950;  921.000; 1114.000
464.217;  105.700; 1196.000; 1143.000
464.336;  120.450; 1068.000; 1130.000
464.455;  -40.400;  328.000;  659.000
464.575;   35.100;  597.000;  602.000
464.694;  169.175; 1204.000; 1179.000
464.814;  113.800; 1190.000; 1138.000
464.933;   72.375; 1095.000; 1027.000
465.052;  100.575; 1412.000; 1054.000
465.172;   86.450;  922.000;  799.000
465.291;  142.800; 1376.000; 1320.000
465.410;    3.575;  462.000;  735.000
465.530;   77.325; 1355.000; 1310.000
465.649;   56.975; 1209.000; 1273.000
465.768;  125.475; 1673.000; 1508.000
465.888;   48.325;  941.000; 1174.000
466.007;   78.900; 1335.000; 1440.000
466.126;  -14.425;  721.000;  641.000
466.245;   41.400; 1176.000; 1187.000
466.364;    8.800;  950.000; 1060.000
466.484;   42.400; 1024.000; 1213.000
466.603;   36.850; 1101.000; 1222.000
466.722;  123.250; 1490.000; 1769.000
466.841;   77.350; 1151.000; 1401.000
466.960;   34.550; 1069.000;  972.000
467.079;  126.175; 1971.000; 1786.000
467.198;   28.475; 1238.000; 1181.000
467.317;   93.250; 1768.000; 1162.000
467.436;   65.025; 1709.000; 1261.000
467.555;  133.150; 1796.000; 1746.000
467.674;   47.525; 1227.000; 1329.000
467.793;   61.225; 1376.000; 1374.000
467.912;   77.350; 1658.000; 1539.000
468.031;  134.375; 2038.000; 1930.000
468.150;  133.950; 1842.000; 1837.000
468.269;  189.650; 2313.000; 2090.000
468.388;  185.425; 2168.000; 2339.000
468.507;  252.475; 2884.000; 2903.000
468.626;  232.300; 2555.000; 2541.000
468.744;  134.375; 2018.000; 2174.000
468.863;  197.300; 2312.000; 2523.000
468.982;   87.625; 1503.000; 1555.000
469.101;  224.950; 2788.000; 2692.000
469.220;  141.675; 2333.000; 2176.000
469.338;  241.525; 2935.000; 3051.000
469.457;  203.125; 2719.000; 2545.000
469.576;  349.975; 3953.000; 3784.000
469.695;  223.550; 2877.000; 3066.000
469.813;  426.400; 4148.000; 4192.000
469.932;  412.175; 4255.000; 4485.000
470.051;  421.075; 4075.000; 4161.000
470.169;  839.700; 4470.000; 4338.000
470.288; 1447.400; 4700.000; 4809.000
470.406;  855.275; 5059.000; 5194.000
470.525;  638.525; 6101.000; 5787.000
470.644;  637.125; 6847.000; 6794.000
470.762;  804.250; 8397.000; 7873.000
470.881;  894.125; 8651.000; 8464.000
470.999; 1018.725; 9685.000; 9151.000
471.118; 1117.850;11174.000;10711.000

