
Integration time [ms]: 100.000
Averaging Nr. [scans]: 40
Smoothing Nr. [pixels]: 0
Data measured with spectrometer [name]: 2101012U2
Wave   ;Sample   ;Dark     ;Reference
[nm]   ;[counts] ;[counts] ;[counts] 

197.733;   51.900;  516.000;  404.000
197.879;  -76.500; -610.000; -634.000
198.025;  -60.350; -475.000; -420.000
198.171;  -75.400; -602.000; -612.000
198.317;  -28.050; -401.000; -316.000
198.463;  -62.475; -655.000; -404.000
198.609;   14.625;  181.000; -137.000
198.755;  -79.925; -644.000; -410.000
198.901;  -69.300; -505.000; -424.000
199.047;  -70.175; -615.000; -488.000
199.193;  -38.300; -230.000; -468.000
199.339;  -41.525; -222.000; -369.000
199.485;   30.800;  330.000;  271.000
199.631;   24.300;  227.000;  310.000
199.777;  -51.050; -466.000; -398.000
199.923;  -64.000; -610.000; -424.000
200.069;   -5.350; -141.000;  -58.000
200.215;   52.825;  128.000;  453.000
200.361;   37.225;  243.000;  477.000
200.507;  -73.000; -600.000; -373.000
200.653;  -29.325; -371.000; -194.000
200.798;  -25.325; -215.000; -125.000
200.944;   -0.250; -146.000;  -41.000
201.090;   31.400;   61.000;  222.000
201.236;    4.550; -116.000; -158.000
201.382;  138.400;  874.000;  903.000
201.528;  -12.575;  -58.000;  -48.000
201.674;  -63.325; -386.000; -293.000
201.819;  -70.950; -540.000; -439.000
201.965;  -87.125; -699.000; -447.000
202.111;  -31.550; -273.000; -226.000
202.257;  -31.650; -250.000; -238.000
202.402;    2.600;   13.000;  -36.000
202.548;  -24.275; -169.000; -116.000
202.694;   89.700;  410.000; -183.000
202.840;  -66.750; -603.000; -531.000
202.985;  -78.550; -681.000; -639.000
203.131; -112.050; -832.000; -666.000
203.277;  -32.975; -199.000; -262.000
203.423;  -42.575; -434.000; -520.000
203.568;  -28.300; -462.000; -237.000
203.714;  -61.450; -535.000; -542.000
203.860;  -85.275; -682.000; -641.000
204.005;   17.000;  112.000;  167.000
204.151;   83.075;  561.000;  556.000
204.296;  -50.375; -354.000; -221.000
204.442;  -70.850; -600.000; -547.000
204.588;  -80.350; -592.000; -579.000
204.733;   10.550;  178.000;  168.000
204.879; -127.125;-1018.000; -822.000
205.025;    9.725;  -99.000;  126.000
205.170;    0.250;  -17.000;   94.000
205.316;   80.900;  438.000;  661.000
205.461;  -93.000; -698.000; -554.000
205.607;   77.250;  609.000;  665.000
205.752;  -75.425; -626.000; -551.000
205.898;  -48.475; -501.000; -391.000
206.043;  -60.350; -578.000; -506.000
206.189;  -55.650; -243.000; -285.000
206.334;   81.950;  554.000;  606.000
206.480;   80.750;  409.000;  239.000
206.625;  -75.925; -529.000; -552.000
206.771;  -48.925; -451.000; -373.000
206.916;  -22.025; -210.000; -537.000
207.062;  -71.725; -545.000; -591.000
207.207;  -56.550; -546.000; -443.000
207.353;   43.300;  185.000;  460.000
207.498;   18.450;  196.000;   85.000
207.643;  -62.125; -501.000; -370.000
207.789; -132.925;-1069.000; -910.000
207.934; -105.350; -665.000; -713.000
208.080;  -21.175; -154.000;   66.000
208.225;    4.450;  -22.000;  -57.000
208.370;  -91.550; -727.000; -619.000
208.516;  -76.150; -741.000; -487.000
208.661;  -40.275; -127.000;  -69.000
208.806;  -19.375; -165.000; -171.000
208.952; -120.675;-1044.000; -731.000
209.097;   83.750;  378.000;  349.000
209.242;  -45.000; -307.000; -382.000
209.387;   67.300;  392.000;  350.000
209.533;  -56.675; -321.000; -350.000
209.678;   68.125;  472.000;  543.000
209.823;  -57.075; -408.000; -310.000
209.969; -102.900; -860.000; -757.000
210.114; -119.425; -907.000; -719.000
210.259; -122.075; -939.000; -889.000
210.404;  -12.475; -171.000;  103.000
210.549;   16.350;  108.000;    3.000
210.695;  -15.325;   -3.000;  -95.000
210.840;   30.650;   94.000;   67.000
210.985;  -56.075; -484.000; -303.000
211.130;   88.675;  268.000;  406.000
211.275;   20.850;  207.000;  199.000
211.420;  -57.500; -300.000; -289.000
211.566;  -65.350; -536.000; -489.000
211.711;   26.850;  218.000;  157.000
211.856;  -60.625; -545.000; -519.000
212.001;   14.700;  151.000;   44.000
212.146;   10.825;  153.000;   49.000
212.291;  -28.400; -210.000; -186.000
212.436;  -25.425; -280.000;   -6.000
212.581;  -83.350; -685.000; -653.000
212.726;  -68.025; -487.000; -538.000
212.871;  -57.050; -552.000; -217.000
213.016; -153.275;-1172.000;-1029.000
213.161;   62.250;  406.000;  291.000
213.306;  -61.750; -435.000; -577.000
213.451; -104.475; -778.000; -689.000
213.596;  -39.025; -455.000; -347.000
213.741;  -64.000; -448.000; -538.000
213.886;  -76.450; -498.000; -517.000
214.031;  -16.450; -294.000; -124.000
214.176;  -59.475; -408.000; -341.000
214.321;  -17.425; -296.000; -157.000
214.466;  -27.900; -163.000;  -43.000
214.611;   -9.250;  -61.000;  -10.000
214.756; -114.225; -948.000; -858.000
214.901;  -29.825; -388.000; -226.000
215.046; -122.025; -797.000; -825.000
215.191;   29.325;  128.000;   35.000
215.336;   -4.475; -157.000;  -19.000
215.480;  -73.800; -684.000; -505.000
215.625;  -22.875; -175.000;  -19.000
215.770;  -90.050; -757.000; -662.000
215.915;    1.225;   -5.000;  -97.000
216.060;   -0.350; -113.000;  -21.000
216.205; -115.975; -731.000; -779.000
216.349;  -71.600; -470.000; -533.000
216.494; -124.550; -939.000; -867.000
216.639; -125.425; -823.000; -888.000
216.784;  -73.425; -577.000; -525.000
216.929;   45.575;  392.000;  281.000
217.073;   -0.825; -244.000;  -31.000
217.218;    2.500;   78.000;  -47.000
217.363;  -86.875; -656.000; -618.000
217.507;  -80.600; -623.000; -588.000
217.652; -121.200; -845.000; -874.000
217.797;  -97.450; -708.000; -659.000
217.942; -107.000; -856.000; -720.000
218.086;   62.950;  608.000;  539.000
218.231;   -8.175; -174.000;  -26.000
218.376;  -55.675; -337.000; -229.000
218.520;    6.850;  -41.000;   96.000
218.665;  -37.200; -338.000; -204.000
218.810;  -53.150; -275.000; -233.000
218.954;   11.800;  201.000;   35.000
219.099; -114.475; -713.000; -963.000
219.243;  -84.150; -589.000; -554.000
219.388;  -35.075; -264.000; -136.000
219.532;   -3.100; -116.000; -116.000
219.677;  -74.850; -564.000; -521.000
219.822;    8.925;   33.000;   89.000
219.966;    8.925;   17.000;  -99.000
220.111;  -46.200; -328.000;  -40.000
220.255;  -95.700; -797.000; -750.000
220.400;  -21.700; -180.000; -146.000
220.544;  -69.150; -516.000; -450.000
220.689;  -61.150; -422.000; -451.000
220.833;  -15.600; -123.000;  -58.000
220.978;  -45.700; -393.000; -563.000
221.122;   23.350;  319.000;  307.000
221.267; -114.525; -906.000; -837.000
221.411;  -63.375; -478.000; -394.000
221.555;  -11.650; -104.000;  -23.000
221.700;  -56.350; -329.000; -222.000
221.844;   30.000;  255.000;  272.000
221.989;  -37.425; -328.000; -311.000
222.133;  -44.925; -289.000; -307.000
222.277;    4.675;    5.000;   78.000
222.422;    6.475;  227.000;  113.000
222.566;  -32.875; -381.000; -214.000
222.711;  -73.600; -414.000; -479.000
222.855;  -85.450; -643.000; -586.000
222.999; -100.575; -642.000; -717.000
223.144;  -42.025; -195.000; -194.000
223.288;   58.875;  423.000;  251.000
223.432;   30.825;  184.000;  230.000
223.576;    8.750;  152.000;  -21.000
223.721;   38.000;  364.000;  273.000
223.865;  -49.825; -472.000; -475.000
224.009;  279.900; 1673.000; 1631.000
224.153;  -89.475; -660.000; -671.000
224.298;  -69.100; -531.000; -489.000
224.442;  -18.100;  -74.000;  -33.000
224.586;   -4.525; -169.000; -106.000
224.730; -106.325; -858.000; -670.000
224.875; -122.675; -739.000; -688.000
225.019;    8.300;  102.000;  188.000
225.163;   61.325;  208.000;  341.000
225.307;   10.600;   97.000;  -91.000
225.451;   42.925;  360.000;  481.000
225.595;   21.225;  264.000;  176.000
225.739;  -19.300; -170.000;  -94.000
225.884;    2.000;   86.000;    5.000
226.028; -100.775; -760.000; -626.000
226.172;  -48.775; -260.000; -273.000
226.316; -124.575; -941.000; -902.000
226.460;  -76.100; -645.000; -493.000
226.604;  -53.850; -406.000; -400.000
226.748; -108.750; -836.000; -733.000
226.892;  -34.925; -227.000; -181.000
227.036;  -60.175; -537.000; -447.000
227.180;  -57.950; -551.000; -375.000
227.324;  -75.650; -561.000; -580.000
227.468; -119.525; -819.000; -717.000
227.612;   15.875;  242.000;  -28.000
227.756; -109.750; -845.000; -698.000
227.900;   48.150;  342.000;  441.000
228.044;  -64.275; -509.000; -290.000
228.188;   45.650;  448.000;  568.000
228.332;  -82.200; -546.000; -472.000
228.476;  -21.800; -223.000; -149.000
228.620;  -32.575; -210.000; -150.000
228.764;   62.525;  431.000;  349.000
228.908;  -11.900; -155.000;   30.000
229.052;  -85.850; -615.000; -528.000
229.195;   -0.900; -172.000;   13.000
229.339;  -28.000; -235.000; -305.000
229.483;  -20.875;    5.000; -162.000
229.627;    7.600; -156.000;  139.000
229.771;  -48.375; -218.000; -294.000
229.915;   11.850;  230.000;   79.000
230.059; -102.575; -648.000; -663.000
230.202;  -34.450; -370.000; -317.000
230.346;  -20.850; -107.000;  107.000
230.490;  -66.700; -489.000; -521.000
230.634; -106.400; -736.000; -553.000
230.777;   77.000;  478.000;  509.000
230.921;  -48.700; -450.000; -359.000
231.065;  -36.200; -246.000; -286.000
231.209;   23.050;  261.000;  265.000
231.352;   21.475;   54.000;   40.000
231.496;   24.450;  568.000;  188.000
231.640;  -86.450; -693.000; -621.000
231.783;   68.825;  546.000;  525.000
231.927;  -39.800; -294.000; -365.000
232.071; -122.400; -962.000; -736.000
232.214; -107.500; -980.000; -764.000
232.358;  -99.175; -683.000; -599.000
232.502;   -4.375;  -19.000;    7.000
232.645; -137.125;-1090.000; -927.000
232.789;  -16.825; -257.000; -218.000
232.933;  -49.025; -407.000; -224.000
233.076; -124.250;-1038.000; -897.000
233.220; -110.575; -752.000; -777.000
233.363;  -75.400; -669.000; -477.000
233.507;   58.900;  371.000;  129.000
233.650;  -97.900; -764.000; -834.000
233.794;   63.650;  438.000;  461.000
233.938;  -56.775; -530.000; -362.000
234.081;  -14.950;  -93.000;   31.000
234.225;  -65.575; -631.000; -539.000
234.368; -111.600; -773.000; -723.000
234.512;  -42.450; -385.000; -299.000
234.655;  -93.100; -582.000; -555.000
234.798;  -70.725; -493.000; -466.000
234.942; -138.500; -884.000;-1002.000
235.085;  -84.425; -651.000; -443.000
235.229;  -80.750; -405.000; -410.000
235.372;  -47.050; -247.000; -191.000
235.516;  -61.375; -397.000; -321.000
235.659;    1.950;   92.000;  121.000
235.802;   -6.575;  -38.000;  -22.000
235.946;   13.375;  335.000;  215.000
236.089;   32.100;  126.000;  250.000
236.233;   40.850;  275.000;  298.000
236.376;  -44.600; -235.000; -378.000
236.519;  -60.200; -297.000; -319.000
236.663;  -18.500; -215.000; -117.000
236.806; -139.750;-1029.000; -999.000
236.949;   69.650;  543.000;  431.000
237.092;   64.150;  412.000;  391.000
237.236;  -89.650; -589.000; -502.000
237.379;   52.950;  352.000;  428.000
237.522; -118.025; -879.000; -768.000
237.666;  -23.975; -271.000;   18.000
237.809; -134.725; -851.000; -823.000
237.952;   28.850;  469.000;  271.000
238.095;  -56.850; -447.000; -442.000
238.238;   72.850;  688.000;  700.000
238.382;    0.425;  166.000;  103.000
238.525;  -74.425; -598.000; -511.000
238.668; -147.550;-1060.000; -985.000
238.811;  -81.075; -638.000; -643.000
238.954;  -67.425; -483.000; -334.000
239.097;   98.375;  617.000;  664.000
239.241;   34.100;  394.000;  326.000
239.384;  -37.700; -254.000; -214.000
239.527;  -43.625; -424.000; -224.000
239.670; -158.375; -994.000;-1091.000
239.813; -119.700; -696.000; -658.000
239.956;   81.225;  579.000;  473.000
240.099; -128.500; -778.000; -725.000
240.242;   61.925;  428.000;  432.000
240.385;   34.150;  466.000;  450.000
240.528;  -64.025; -706.000; -473.000
240.671;   11.025;  189.000;  134.000
240.814;  -47.400; -441.000; -158.000
240.957; -100.025; -767.000; -578.000
241.100;  -96.400; -779.000; -755.000
241.243; -155.075;-1234.000; -893.000
241.386;  -69.250; -508.000; -379.000
241.529;  -85.575; -735.000; -547.000
241.672;  -74.150; -566.000; -495.000
241.815; -125.300; -832.000; -808.000
241.958;  -17.175; -125.000; -182.000
242.101;  -79.900; -545.000; -390.000
242.244;  -45.100; -270.000; -325.000
242.387;  -42.475; -304.000; -246.000
242.530;   57.900;  470.000;  134.000
242.673;  -47.700; -381.000; -309.000
242.815; -131.500; -925.000; -899.000
242.958;  -71.850; -482.000; -381.000
243.101;    1.425;  132.000;  187.000
243.244;  -87.925; -564.000; -521.000
243.387;  -42.300; -313.000; -316.000
243.530;  -93.325; -657.000; -674.000
243.672;    6.700;   43.000;  -92.000
243.815;  -47.800; -355.000; -283.000
243.958;    6.475;   98.000;  -26.000
244.101;   -7.150;   59.000;  -16.000
244.243;  -13.200;  -47.000;  101.000
244.386; -113.575; -761.000; -630.000
244.529;  -36.350; -132.000; -139.000
244.672; -152.275;-1154.000; -951.000
244.814; -106.750; -621.000; -794.000
244.957;  -74.900; -380.000; -304.000
245.100;  -68.825; -489.000; -489.000
245.242;  -64.550; -387.000; -374.000
245.385;   -7.975;  -59.000;  -39.000
245.528; -114.250; -871.000; -705.000
245.670;   88.275;  612.000;  634.000
245.813;  -86.800; -599.000; -547.000
245.956;  -38.550; -324.000; -275.000
246.098;  -85.650; -508.000; -650.000
246.241;   -0.100;  194.000;   48.000
246.383;  -22.325; -119.000;  -73.000
246.526;  -82.075; -454.000; -525.000
246.669; -129.900; -889.000; -780.000
246.811;   11.700;  172.000;   -1.000
246.954;  -73.950; -512.000; -426.000
247.096;  -21.875;  -84.000;   -6.000
247.239;  -71.650; -482.000; -445.000
247.381;  -84.575; -647.000; -488.000
247.524;   86.750;  645.000;  679.000
247.666;   -3.925;   58.000;   11.000
247.809; -119.825; -887.000; -691.000
247.951;  -20.900;  -75.000;  138.000
248.094;   30.100;  432.000;  308.000
248.236; -175.025;-1262.000;-1238.000
248.378;  -46.500; -356.000;  -81.000
248.521;  -47.950; -334.000; -337.000
248.663;  -54.025; -236.000; -267.000
248.806;  -32.850; -300.000; -266.000
248.948; -134.125; -886.000; -763.000
249.090;  -82.775; -428.000; -398.000
249.233;  -69.475; -344.000; -381.000
249.375;  -80.075; -474.000; -451.000
249.518;  -27.025;  -83.000; -133.000
249.660;    2.700; -103.000;    3.000
249.802; -183.150;-1303.000;-1189.000
249.945;  -87.550; -612.000; -540.000
250.087; -124.825; -834.000; -768.000
250.229;  -56.050; -362.000; -480.000
250.371;  -81.950; -494.000; -439.000
250.514;  -65.500; -310.000; -244.000
250.656;  -66.675;   69.000;  102.000
250.798; -123.850; -849.000; -800.000
250.940;  -69.050; -322.000; -322.000
251.083;  -44.075; -335.000; -111.000
251.225;   50.875;  338.000;  310.000
251.367;  -52.625; -274.000; -373.000
251.509;  -40.750; -265.000; -210.000
251.651; -107.975; -731.000; -671.000
251.794;   64.400;  538.000;  632.000
251.936; -124.975; -821.000; -747.000
252.078;  -85.025; -540.000; -461.000
252.220;  -77.725; -645.000; -477.000
252.362;   41.675;  344.000;  462.000
252.504;  -93.525; -677.000; -584.000
252.646; -109.750; -875.000; -722.000
252.788;  -19.800;   14.000; -128.000
252.931;  -51.325; -257.000; -253.000
253.073;  -48.550; -376.000; -317.000
253.215;  -12.825;  141.000;  122.000
253.357;  -17.175;   82.000; -153.000
253.499;  -56.850; -374.000; -234.000
253.641;  -99.250; -749.000; -594.000
253.783; -104.275; -609.000; -527.000
253.925; -100.475; -586.000; -591.000
254.067; -117.600; -744.000; -667.000
254.209;  -41.775; -391.000; -259.000
254.351; -143.375; -865.000; -883.000
254.493;  -59.100; -441.000; -417.000
254.635; -132.725; -936.000; -818.000
254.777; -104.625; -752.000; -687.000
254.918;  -69.425; -512.000; -430.000
255.060;  -64.400; -551.000; -395.000
255.202;  -67.100; -473.000; -261.000
255.344;  -83.450; -658.000; -455.000
255.486;  -78.600; -471.000; -406.000
255.628; -119.475; -780.000; -781.000
255.770;  -83.125; -676.000; -536.000
255.912;  -77.100; -559.000; -468.000
256.053;  -93.450; -730.000; -508.000
256.195;  153.425; 1008.000;  903.000
256.337; -113.225; -861.000; -595.000
256.479;   61.175;  532.000;  416.000
256.621;  -44.850; -394.000; -212.000
256.762; -115.450; -789.000; -742.000
256.904;   36.050;  485.000;  487.000
257.046;  -37.350; -381.000; -271.000
257.188;  -33.050; -351.000; -264.000
257.329;  -83.175; -525.000; -464.000
257.471; -120.700; -939.000; -807.000
257.613;  -76.125; -584.000; -498.000
257.755; -151.600;-1073.000; -982.000
257.896;   30.925;  286.000;  392.000
258.038;  -69.025; -403.000; -352.000
258.180;  -52.750; -354.000; -279.000
258.321;  -93.925; -581.000; -457.000
258.463;  -20.250;  -71.000;  133.000
258.605;  -95.700; -562.000; -570.000
258.746; -109.450; -886.000; -772.000
258.888; -153.025;-1026.000;-1020.000
259.029;   11.175;  121.000;   -8.000
259.171;  -84.975; -614.000; -550.000
259.313;    2.925;  -49.000;  -47.000
259.454;  -73.925; -536.000; -414.000
259.596;  -55.150; -483.000; -390.000
259.737;  -85.025; -590.000; -474.000
259.879;   34.800;  217.000;  311.000
260.020;   94.775;  901.000;  636.000
260.162;  -22.675; -146.000; -253.000
260.303; -116.300; -768.000; -687.000
260.445;  -98.900; -609.000; -613.000
260.586;   35.450;  392.000;  157.000
260.728;  -56.900; -360.000; -248.000
260.869; -110.725; -350.000; -343.000
261.011;   83.100;  706.000;  537.000
261.152;  -60.450; -479.000; -319.000
261.293;  -91.325; -576.000; -595.000
261.435;  -42.700; -219.000; -184.000
261.576;  -58.500; -455.000; -325.000
261.718;   61.600;  420.000;  470.000
261.859; -136.500; -940.000; -949.000
262.000; -141.575; -951.000;-1016.000
262.142;  -33.000;  -52.000;  -60.000
262.283; -119.325; -808.000; -691.000
262.424; -102.975; -666.000; -625.000
262.566; -166.750;-1161.000; -983.000
262.707; -116.500; -840.000; -830.000
262.848; -133.700; -769.000; -726.000
262.990;  -48.650; -362.000; -345.000
263.131;   73.225;  650.000;  681.000
263.272;   -9.575;  -61.000;  -41.000
263.413;  -99.800; -589.000; -561.000
263.555;  -81.250; -669.000; -143.000
263.696; -117.325; -550.000; -641.000
263.837;  -65.775; -449.000; -551.000
263.978;  -14.925;   -5.000;  -77.000
264.119;  -62.275; -283.000; -264.000
264.261; -123.300; -847.000; -630.000
264.402;  -15.675;   33.000;   40.000
264.543;  -72.050; -509.000; -524.000
264.684;  -27.075;   61.000;  -50.000
264.825;  -72.975; -816.000; -538.000
264.966;   -6.675;  -84.000;  -67.000
265.107; -122.925; -646.000; -670.000
265.248; -131.375; -825.000; -812.000
265.390;  -11.275;  152.000;   -9.000
265.531;  -28.525; -238.000; -107.000
265.672;  -93.550; -557.000; -630.000
265.813;   57.850;  563.000;  439.000
265.954; -158.975; -959.000; -940.000
266.095;  -25.875; -372.000; -322.000
266.236; -116.875; -686.000; -548.000
266.377;  -50.200; -243.000; -297.000
266.518;  -85.100; -619.000; -547.000
266.659;    9.250;  170.000;  268.000
266.800;    3.450;   83.000;   85.000
266.941;  -76.150; -487.000; -478.000
267.082;   14.225;  354.000;   99.000
267.223;  -60.625; -344.000; -273.000
267.364; -131.275; -892.000; -686.000
267.504;  -27.525;    3.000;  135.000
267.645;   -1.225;  160.000;   67.000
267.786;  -48.550; -147.000;  -86.000
267.927;  -80.550; -473.000; -379.000
268.068;  -43.000; -186.000;  -61.000
268.209;  -47.200; -175.000; -413.000
268.350;  -69.725; -388.000; -532.000
268.490;  -80.250; -648.000; -521.000
268.631;   29.875;  127.000;  225.000
268.772; -115.375; -874.000; -647.000
268.913;  -56.550; -328.000; -476.000
269.054;  -27.550; -117.000;   12.000
269.194;  -62.800; -418.000; -402.000
269.335; -168.825;-1137.000;-1074.000
269.476;  -21.950;   33.000;  -35.000
269.617;  -59.125; -347.000; -392.000
269.757; -107.800; -713.000; -646.000
269.898; -105.500; -856.000; -613.000
270.039;  -72.975; -415.000; -405.000
270.180; -132.475; -952.000; -816.000
270.320;  -33.300; -190.000; -250.000
270.461;  -44.425; -277.000; -249.000
270.602;  -24.825; -186.000; -156.000
270.742; -132.650; -868.000; -943.000
270.883;  -67.850; -442.000; -390.000
271.023;  -65.725; -358.000; -357.000
271.164;  -94.600; -607.000; -528.000
271.305; -108.400; -666.000; -654.000
271.445;  -96.450; -722.000; -683.000
271.586;  -79.100; -462.000; -283.000
271.726;  -51.300; -397.000; -322.000
271.867;  -92.200; -594.000; -534.000
272.008;  -41.475; -473.000; -285.000
272.148;   35.175;  462.000;  468.000
272.289;  -38.000; -113.000; -181.000
272.429;  -16.125;   19.000;  185.000
272.570; -103.525; -633.000; -737.000
272.710; -108.825; -825.000; -775.000
272.851;  -35.000;  113.000; -130.000
272.991; -178.600;-1173.000;-1077.000
273.131;  -73.025; -419.000; -459.000
273.272; -106.975; -683.000; -723.000
273.412;  -34.575; -143.000;  -31.000
273.553;  -73.700; -488.000; -507.000
273.693;  102.525;  913.000;  858.000
273.834; -134.350; -894.000; -692.000
273.974;  -99.800; -664.000; -615.000
274.114; -111.700; -772.000; -560.000
274.255;   38.425;  414.000;  373.000
274.395;  -45.250; -180.000; -125.000
274.535;   15.500;  199.000;  350.000
274.676;    0.100;  225.000;   94.000
274.816;   -6.825;  110.000;   34.000
274.956; -114.550; -624.000; -690.000
275.097; -139.650;-1014.000; -922.000
275.237; -120.975; -913.000; -803.000
275.377; -114.325; -778.000; -689.000
275.517; -161.600; -878.000; -937.000
275.658;  -86.025; -590.000; -555.000
275.798;  -92.125; -606.000; -413.000
275.938;   14.800;  215.000;  323.000
276.078;  -83.925; -626.000; -395.000
276.218;   -0.575;   99.000;  104.000
276.359; -151.575;-1026.000;-1024.000
276.499;  -97.200; -605.000; -446.000
276.639;  -31.875; -305.000; -151.000
276.779;  -66.075; -475.000; -357.000
276.919; -121.575; -783.000; -624.000
277.059;  -37.775; -261.000; -212.000
277.199;  -55.275; -357.000; -259.000
277.340;   29.950;  287.000;  175.000
277.480; -111.900; -840.000; -693.000
277.620;   11.575;  192.000;   16.000
277.760; -213.825;-1533.000;-1294.000
277.900;  -19.800;  113.000;   33.000
278.040;  -17.900;  137.000;  159.000
278.180;   30.075;  270.000;  170.000
278.320;   -5.650;   21.000;   56.000
278.460;  -79.250; -443.000; -469.000
278.600; -101.800; -708.000; -598.000
278.740;   32.225;  448.000;  224.000
278.880; -131.000; -768.000; -791.000
279.020;  -52.575; -194.000; -144.000
279.160;  -95.750; -672.000; -595.000
279.300; -143.625; -926.000; -873.000
279.440; -106.625; -709.000; -622.000
279.579; -150.250;-1014.000; -929.000
279.719;  -81.850; -410.000; -394.000
279.859;    3.375;   -4.000;   41.000
279.999;  -28.875; -208.000;  101.000
280.139;  -71.675; -435.000; -387.000
280.279; -115.600; -708.000; -745.000
280.419;  -32.550; -229.000; -147.000
280.559;  -64.425; -259.000; -180.000
280.698; -106.325; -790.000; -639.000
280.838; -128.775; -778.000; -800.000
280.978; -108.325; -846.000; -790.000
281.118; -121.875; -811.000; -704.000
281.257;    0.675;   24.000;    6.000
281.397; -156.200;-1094.000; -960.000
281.537; -119.975; -599.000; -712.000
281.677;  -28.325; -150.000; -101.000
281.816; -102.700; -700.000; -630.000
281.956;  -43.250; -193.000; -257.000
282.096;  -78.400; -539.000; -396.000
282.235; -121.875; -672.000; -638.000
282.375;  -44.550; -243.000;  -98.000
282.515; -124.300; -715.000; -707.000
282.654;   -0.375;   29.000;  106.000
282.794;    9.775;  388.000;  244.000
282.934;  -91.325; -530.000; -491.000
283.073; -144.525;-1030.000; -857.000
283.213;  -73.250; -460.000; -467.000
283.353;  -57.725; -408.000; -349.000
283.492;  -44.000; -264.000; -296.000
283.632;  -66.900; -254.000; -168.000
283.771; -105.100; -859.000; -730.000
283.911;  -70.375; -369.000; -260.000
284.050; -135.475; -794.000; -748.000
284.190; -167.550;-1229.000;-1096.000
284.329; -162.825;-1055.000; -964.000
284.469; -110.675; -516.000; -591.000
284.608;  -81.725; -559.000; -598.000
284.748;  -84.850; -614.000; -570.000
284.887;  -20.225;  -87.000;  -20.000
285.027; -143.875; -844.000; -892.000
285.166;  -54.850; -192.000; -249.000
285.306;  -25.175; -116.000;  -33.000
285.445;  -49.575; -229.000; -343.000
285.584; -108.600; -630.000; -494.000
285.724;  -65.575; -282.000; -322.000
285.863; -136.025; -857.000; -507.000
286.002;  -69.100; -366.000; -276.000
286.142; -118.950; -715.000; -622.000
286.281;  -84.500; -525.000; -493.000
286.420; -101.750; -554.000; -417.000
286.560;   71.350;  653.000;  623.000
286.699; -158.250; -958.000; -912.000
286.838;  -97.150; -590.000; -591.000
286.978; -100.475; -533.000; -537.000
287.117; -152.000;-1085.000; -950.000
287.256;  -49.950; -228.000; -211.000
287.395;  -58.775; -197.000; -378.000
287.535;  -62.800; -370.000; -298.000
287.674;  -97.650; -509.000; -484.000
287.813;   56.625;  661.000;  533.000
287.952; -154.925;-1010.000; -871.000
288.091; -161.250;-1049.000; -915.000
288.231;  -11.875;   13.000;   15.000
288.370; -186.400;-1217.000;-1200.000
288.509; -115.875; -728.000; -645.000
288.648; -110.000; -770.000; -548.000
288.787;  -49.125; -243.000;  -87.000
288.926;  -78.350; -454.000; -475.000
289.065;   99.875;  859.000;  672.000
289.204;  -58.475; -377.000; -217.000
289.344; -112.200; -791.000; -690.000
289.483;   21.400;  416.000;  304.000
289.622;  -44.675; -291.000; -149.000
289.761;  -38.250; -309.000; -166.000
289.900; -128.925; -785.000; -626.000
290.039;  -27.775;  -12.000;  -95.000
290.178;  -48.775; -274.000; -180.000
290.317;  -96.400; -618.000; -479.000
290.456;  -80.325; -463.000; -451.000
290.595; -149.750; -961.000; -833.000
290.734; -156.125; -904.000; -891.000
290.873;  -88.950; -456.000; -420.000
291.011; -135.750; -833.000; -843.000
291.150; -129.300; -770.000; -682.000
291.289;  -56.625; -343.000; -110.000
291.428; -104.375; -599.000; -480.000
291.567;  -70.050; -370.000; -442.000
291.706;  -25.075;  109.000;  154.000
291.845; -112.900; -597.000; -505.000
291.984; -181.275;-1234.000;-1061.000
292.122;   55.500;  602.000;  582.000
292.261;   40.100;  620.000;  463.000
292.400;  -18.825; -144.000;  211.000
292.539; -148.275; -959.000; -813.000
292.678;  -62.475; -325.000; -300.000
292.816; -173.300;-1136.000; -965.000
292.955; -132.700; -844.000; -684.000
293.094;  -42.900; -173.000; -337.000
293.233;  -74.600; -556.000; -400.000
293.371;  -44.325; -225.000;  -84.000
293.510; -143.425; -866.000; -780.000
293.649; -147.325; -959.000; -924.000
293.787; -169.250;-1083.000;-1012.000
293.926;  -32.425; -113.000;  -32.000
294.065;  -56.825; -379.000; -290.000
294.203;   27.475;  298.000;  406.000
294.342;   -9.550;   74.000;  156.000
294.481; 6292.475;51180.000; -836.000
294.619;  -42.825; -425.000; -582.000
294.758; -186.750;-1230.000;-1137.000
294.896;  -27.200; -125.000;    5.000
295.035; -170.575;-1040.000;-1006.000
295.174; -158.450;-1082.000; -954.000
295.312;  -66.050; -323.000; -203.000
295.451;  -67.175; -307.000; -428.000
295.589;  -76.575; -389.000; -518.000
295.728;  -16.200; -292.000; -165.000
295.866;  -22.625;  -36.000;  -51.000
296.005;  -89.150; -584.000; -341.000
296.143; -113.625; -558.000; -596.000
296.282; -150.175; -957.000; -881.000
296.420; -100.675; -657.000; -557.000
296.559; -122.350; -892.000; -633.000
296.697; -112.325; -847.000; -665.000
296.835; -178.650;-1141.000;-1002.000
296.974;   -0.100;  -23.000;   39.000
297.112;  -90.425; -443.000; -504.000
297.251; -134.275; -815.000; -755.000
297.389;  -89.000; -576.000; -438.000
297.527;  -33.950; -145.000;  -83.000
297.666; -100.875; -486.000; -438.000
297.804;  -63.000; -404.000; -264.000
297.942;  -36.450; -136.000; -161.000
298.081;  -36.000; -183.000;   63.000
298.219;  -21.625;  -17.000;  -19.000
298.357;  -51.300; -144.000;  -71.000
298.495; -129.175; -810.000; -812.000
298.634;  -13.225;  245.000;  219.000
298.772;  -56.925; -220.000; -338.000
298.910;  -68.450; -309.000; -182.000
299.048;  -41.000; -130.000; -153.000
299.187;  -64.875; -350.000; -250.000
299.325;  -25.775;   52.000;  122.000
299.463;  -74.325; -389.000; -299.000
299.601;  -51.150; -327.000; -271.000
299.739; -141.650; -908.000; -883.000
299.877; -119.000; -791.000; -703.000
300.016; -171.350;-1095.000; -935.000
300.154;  -21.425;  -19.000; -161.000
300.292;  -95.075; -428.000; -348.000
300.430;  -71.675; -408.000; -291.000
300.568; -142.025; -940.000; -874.000
300.706;  -79.575; -366.000; -469.000
300.844; -163.800;-1108.000; -979.000
300.982;   42.975;  246.000;  282.000
301.120; -159.325; -965.000; -866.000
301.258; -114.900; -812.000; -705.000
301.396;   -9.950;  104.000;  -41.000
301.534;  -45.900; -218.000; -293.000
301.672;  -97.200; -664.000; -521.000
301.810;  -91.900; -613.000; -545.000
301.948;  -19.575;   53.000;  149.000
302.086;  -44.800; -250.000;  -32.000
302.224; -105.400; -610.000; -585.000
302.362; -112.250; -558.000; -622.000
302.500; -145.275; -923.000; -893.000
302.638;  -16.150;  128.000;  245.000
302.776;  -57.025; -352.000; -408.000
302.913;   30.250;  447.000;  236.000
303.051;  -47.700;  -86.000;  -23.000
303.189;   -8.900;   90.000;  118.000
303.327;  -61.975; -341.000; -256.000
303.465; -115.150; -832.000; -588.000
303.603; -120.150; -805.000; -604.000
303.740;   21.725;  417.000;  241.000
303.878; -119.425; -800.000; -759.000
304.016; -134.125; -915.000; -790.000
304.154; -171.050;-1123.000;-1152.000
304.291; -102.775; -505.000; -554.000
304.429;  -13.025;  102.000;   74.000
304.567; -163.600; -908.000; -893.000
304.705;  -84.750; -408.000; -515.000
304.842; -119.825; -616.000; -540.000
304.980;  -10.625;  215.000;   35.000
305.118;  -76.225; -367.000; -365.000
305.255; -151.450; -945.000; -927.000
305.393;   12.300;  178.000;  239.000
305.531; -159.925;-1173.000; -956.000
305.668; -110.525; -663.000; -582.000
305.806;  -76.575; -358.000; -439.000
305.943; -104.750; -629.000; -637.000
306.081;  -63.400; -378.000; -267.000
306.219; -126.300; -863.000; -748.000
306.356;  -11.675;  158.000;   27.000
306.494;   82.575;  981.000;  761.000
306.631;  -18.800;  -11.000;  -55.000
306.769;  -77.125; -613.000; -485.000
306.906;  -78.925; -284.000; -258.000
307.044;  -88.750; -473.000; -488.000
307.181;  -76.125; -410.000; -332.000
307.319;   -2.325;  112.000;   87.000
307.456; -193.300;-1191.000;-1153.000
307.594; -139.475; -980.000; -727.000
307.731;  -52.525; -371.000; -164.000
307.868;  -28.025;  -15.000;   20.000
308.006; -143.525; -961.000; -847.000
308.143; -101.050; -618.000; -330.000
308.281;  -52.625;  -37.000; -254.000
308.418; -109.500; -748.000; -640.000
308.555; -101.100; -400.000; -250.000
308.693; -100.550; -577.000; -573.000
308.830; -124.225; -712.000; -657.000
308.967;  -39.050; -215.000;  -95.000
309.105;  -80.675; -507.000; -396.000
309.242;  -79.150; -468.000; -367.000
309.379; -109.425; -577.000; -655.000
309.517; -152.750; -936.000; -948.000
309.654; -135.600; -910.000; -734.000
309.791; -104.775; -662.000; -580.000
309.928; -154.500; -977.000; -914.000
310.065;   67.425;  819.000;  697.000
310.203; -144.100; -825.000; -850.000
310.340;  -90.275; -465.000; -321.000
310.477;  -99.750; -412.000; -516.000
310.614;  -81.025; -383.000; -473.000
310.751; -100.300; -427.000; -518.000
310.889;  -51.750;    1.000;   11.000
311.026; -177.250;-1161.000; -939.000
311.163;  -75.250; -386.000; -380.000
311.300; -106.150; -512.000; -479.000
311.437;  -98.950; -658.000; -619.000
311.574; -178.450;-1226.000; -985.000
311.711;  -82.450; -595.000; -433.000
311.848;  -60.525; -380.000; -388.000
311.985;  -13.525;  270.000;   93.000
312.122; -147.275; -932.000; -762.000
312.259; -160.000; -941.000; -994.000
312.396; -100.475; -508.000; -551.000
312.533; -119.300; -812.000; -790.000
312.670; -171.750;-1070.000; -898.000
312.807;  -69.125; -352.000; -367.000
312.944; -116.950; -513.000; -611.000
313.081;  -74.200; -150.000; -415.000
313.218; -150.375;-1111.000; -867.000
313.355;  -75.500; -531.000; -449.000
313.492;  -74.075; -455.000; -292.000
313.629;   69.850;  815.000;  735.000
313.766; -183.575;-1176.000;-1008.000
313.902;  -42.825; -186.000;   21.000
314.039;  -65.875; -372.000; -289.000
314.176;    2.375;  286.000;  192.000
314.313; -103.800; -569.000; -473.000
314.450; -127.725; -788.000; -684.000
314.587;  -87.600; -468.000; -480.000
314.723;  -33.975;  -78.000;  130.000
314.860;   17.025;  318.000;  332.000
314.997;   -7.750;  223.000;  142.000
315.134;  -75.175; -385.000; -368.000
315.270;  -94.650; -480.000; -496.000
315.407; -171.150;-1094.000; -967.000
315.544;  -99.150; -657.000; -538.000
315.681; -119.250; -681.000; -565.000
315.817;  -37.875; -133.000; -176.000
315.954;  -94.850; -613.000; -392.000
316.091; -181.725;-1045.000;-1023.000
316.227;  -48.300;  -71.000; -179.000
316.364;  -20.775;   23.000;    6.000
316.500;  -66.425; -113.000; -300.000
316.637;  -69.800; -181.000; -302.000
316.774; -101.625; -625.000; -358.000
316.910; -106.275; -598.000; -629.000
317.047; -101.975; -487.000; -351.000
317.183;  -99.175; -435.000; -566.000
317.320;  -82.075; -367.000; -321.000
317.456; -137.125; -733.000; -805.000
317.593; -121.225; -598.000; -641.000
317.729;   -6.050;  168.000;  -67.000
317.866; -227.800;-1434.000;-1285.000
318.002; -128.425; -708.000; -948.000
318.139; -160.800; -883.000; -867.000
318.275; -148.700;-1003.000; -738.000
318.412;  -95.300; -517.000; -336.000
318.548; -110.700; -751.000; -720.000
318.685; -163.350; -985.000; -888.000
318.821; -139.800; -762.000; -735.000
318.957;  -25.150;   34.000;  -23.000
319.094;   21.350;  297.000;  154.000
319.230; -132.875; -756.000; -742.000
319.367;  -88.250; -471.000; -520.000
319.503;  -87.050; -538.000; -436.000
319.639; -126.875; -877.000; -793.000
319.775; -132.600; -750.000; -685.000
319.912;  -81.325; -424.000; -519.000
320.048; -202.125;-1184.000;-1184.000
320.184;  -15.475;   59.000;   70.000
320.321;  -89.050; -497.000; -467.000
320.457;   34.275;  475.000;  662.000
320.593;  -93.200; -375.000; -382.000
320.729; -136.850; -732.000; -734.000
320.866; -112.575; -577.000; -635.000
321.002; -140.175; -759.000; -809.000
321.138;  -68.600; -135.000; -211.000
321.274;  -27.925; -148.000; -115.000
321.410;  -90.925; -585.000; -353.000
321.546; -164.125;-1011.000; -911.000
321.683;    1.950;  400.000;  185.000
321.819;  -33.975;  -48.000; -117.000
321.955; -139.800; -743.000; -722.000
322.091;  -97.525; -585.000; -540.000
322.227;  -63.675; -382.000; -202.000
322.363;  -69.075; -320.000; -215.000
322.499;  -78.700; -343.000; -331.000
322.635;   52.425;  636.000;  443.000
322.771;  -46.750; -139.000;   12.000
322.907;   22.600;  129.000;  327.000
323.043;  -69.250; -115.000; -206.000
323.179;  -81.900; -394.000; -363.000
323.315;  -89.825; -401.000; -371.000
323.451;  -78.025; -328.000; -236.000
323.587;  -45.175;  -60.000;  -77.000
323.723; -107.425; -682.000; -601.000
323.859;  -40.500; -258.000;  -76.000
323.995;  -88.300; -467.000; -409.000
324.131; -149.650; -967.000; -892.000
324.267;  -54.575; -254.000; -276.000
324.402; -160.950; -960.000; -983.000
324.538;  -48.550; -279.000; -104.000
324.674;  -20.725;  164.000;   77.000
324.810;  -11.775;  226.000;  308.000
324.946;  -86.675; -810.000; -658.000
325.082; -103.900; -568.000; -475.000
325.217;  -45.000;  -62.000;   16.000
325.353; -124.150; -764.000; -659.000
325.489; -120.975; -540.000; -506.000
325.625;  -94.675; -579.000; -525.000
325.760;    5.975;  517.000;  376.000
325.896; -104.025; -515.000; -702.000
326.032;  -72.425; -403.000; -352.000
326.168;  -87.875; -462.000; -369.000
326.303;  -67.125; -352.000; -461.000
326.439;  -57.250; -336.000; -276.000
326.575;  -39.125; -190.000;  -29.000
326.710;  -44.475; -156.000;  -30.000
326.846;  -25.225;  146.000;  103.000
326.982; -110.450; -530.000; -548.000
327.117;  -90.875; -481.000; -442.000
327.253; -124.350; -745.000; -742.000
327.388; -163.700;-1137.000;-1153.000
327.524; -130.175; -811.000; -578.000
327.659;  -35.400;  -58.000;  -22.000
327.795;  -26.050;   69.000;   45.000
327.931; -119.025; -723.000; -499.000
328.066;  -77.350; -417.000; -276.000
328.202;  -60.275;   12.000; -129.000
328.337;   88.600;  957.000;  713.000
328.473;   12.275;  -12.000;  -74.000
328.608;  -55.700; -256.000; -267.000
328.743; -131.625; -799.000; -664.000
328.879;   -6.175;  214.000;  114.000
329.014;  -65.300; -102.000; -122.000
329.150;  -99.825; -358.000; -483.000
329.285; -104.350; -465.000; -466.000
329.421;  -71.400; -548.000; -246.000
329.556;  -37.600;  -36.000;   85.000
329.691; -119.925; -633.000; -615.000
329.827;  -95.925; -626.000; -480.000
329.962;  -63.700;  131.000; -301.000
330.097; -107.500; -673.000; -585.000
330.233;  -69.300; -410.000; -223.000
330.368; -134.050; -839.000; -628.000
330.503;  -40.525;    3.000;   98.000
330.638;  -40.350;  -93.000; -125.000
330.774; -115.475; -609.000; -530.000
330.909;  -65.200; -434.000; -244.000
331.044; -112.175; -714.000; -708.000
331.179; -194.825;-1217.000;-1109.000
331.315;  -27.800;   77.000;   20.000
331.450;  -17.725;  157.000;  285.000
331.585; -136.650; -805.000; -706.000
331.720; -104.425; -510.000; -460.000
331.855;  -46.375;  -35.000; -102.000
331.990;  -33.150;   62.000;  138.000
332.126;  -34.025; -110.000;   71.000
332.261;  -89.625; -379.000; -265.000
332.396;  -71.075; -135.000; -242.000
332.531; -186.475;-1074.000;-1031.000
332.666;  -84.950; -519.000; -363.000
332.801; -140.525; -726.000; -807.000
332.936;  -43.875; -192.000; -122.000
333.071; -185.875; -870.000; -817.000
333.206;   -1.150;  307.000;  379.000
333.341;   16.900;  344.000;  418.000
333.476; -118.200; -627.000; -623.000
333.611;  -63.400; -251.000; -173.000
333.746;  -68.850; -381.000; -464.000
333.881; -159.375; -973.000; -935.000
334.016; -158.600; -936.000; -917.000
334.151; -156.600; -746.000; -702.000
334.286;   -7.975;  152.000;  186.000
334.421;  -37.800; -125.000; -178.000
334.556; -120.850; -611.000; -567.000
334.690; -113.875; -631.000; -577.000
334.825;   25.875;  381.000;   83.000
334.960;  -96.850; -285.000; -413.000
335.095;  -27.825;  135.000;  -91.000
335.230; -135.650; -722.000; -738.000
335.365; -170.700;-1084.000; -990.000
335.499; -194.450;-1108.000;-1037.000
335.634;  -29.700;    9.000;  534.000
335.769; -131.300; -755.000; -720.000
335.904; -125.725; -603.000; -561.000
336.038; -136.125; -735.000; -657.000
336.173; -205.950;-1206.000;-1194.000
336.308;  -69.875; -116.000; -189.000
336.443;  -89.400; -544.000; -634.000
336.577; -148.300; -936.000; -787.000
336.712;  -30.925;   -4.000;  -12.000
336.847; -136.875; -724.000; -607.000
336.981;  -85.925; -272.000; -208.000
337.116;   34.600;  615.000;  501.000
337.250; -101.175; -434.000; -421.000
337.385;  -85.850; -297.000; -208.000
337.520; -142.125; -632.000; -603.000
337.654;  -71.100; -215.000; -126.000
337.789; -164.700; -989.000; -933.000
337.923;  -58.350; -104.000; -205.000
338.058; -135.175; -673.000; -738.000
338.192; -113.225; -611.000; -488.000
338.327;  -50.125;  -18.000; -155.000
338.461; -112.225; -299.000; -469.000
338.596; -119.825; -780.000; -638.000
338.730; -132.850; -767.000; -803.000
338.865;  -38.900;  -46.000; -140.000
338.999; -154.525; -846.000; -702.000
339.134; -126.425; -634.000; -536.000
339.268; -126.450; -741.000; -603.000
339.403; -140.350; -740.000; -775.000
339.537; -135.600; -894.000; -820.000
339.671; -157.425; -829.000; -813.000
339.806; -114.075; -556.000; -512.000
339.940;  -60.400; -261.000; -235.000
340.074; -134.675; -685.000; -510.000
340.209;  -72.675; -351.000; -230.000
340.343; -110.225; -517.000; -573.000
340.477;  121.000;  998.000; 1036.000
340.612; -162.425;-1033.000; -900.000
340.746;  -71.175; -199.000; -243.000
340.880; -159.275; -924.000; -785.000
341.014;  -41.700;  -45.000; -154.000
341.149; -133.675; -756.000; -718.000
341.283; -132.350; -839.000; -754.000
341.417; -166.950;-1124.000; -938.000
341.551; -131.075; -768.000; -708.000
341.685; -105.325; -633.000; -611.000
341.820; -116.300; -562.000; -493.000
341.954;  -86.850; -218.000; -349.000
342.088; -170.100;-1102.000;-1019.000
342.222;   47.800;  565.000;  618.000
342.356;  -97.150; -395.000; -335.000
342.490; -142.225; -880.000; -841.000
342.624;  -85.000; -339.000; -242.000
342.758;  -67.075; -364.000; -312.000
342.892; -126.775; -710.000; -585.000
343.026;  -60.050;  -58.000; -116.000
343.160;  -75.225; -426.000; -376.000
343.294;  -99.775; -474.000; -337.000
343.428; -113.100; -488.000; -448.000
343.562;  -40.450; -172.000;  -23.000
343.696;  -81.725; -385.000; -314.000
343.830;  -72.025; -362.000; -356.000
343.964;  -60.700; -231.000; -168.000
344.098;  -34.750;  199.000;   70.000
344.232;  -60.700; -266.000; -127.000
344.366; -120.000; -567.000; -453.000
344.500; -124.675; -665.000; -744.000
344.634;  -74.775; -324.000; -164.000
344.768; -100.475; -531.000; -341.000
344.902;  -15.125;  278.000;  256.000
345.035; -103.400; -556.000; -496.000
345.169; -159.850; -933.000; -656.000
345.303;  -87.225; -308.000; -482.000
345.437; -133.675; -826.000; -717.000
345.571; -122.575; -675.000; -594.000
345.704;  -87.875; -309.000; -532.000
345.838;  -52.225; -331.000; -284.000
345.972; -111.250; -543.000; -495.000
346.106;  -41.125; -179.000; -190.000
346.239;  -74.750; -312.000; -243.000
346.373;  -69.725; -343.000; -302.000
346.507; -183.675; -950.000; -962.000
346.640;  -56.125;  -30.000;   13.000
346.774; -137.075; -650.000; -797.000
346.908;  -42.275; -138.000;  -11.000
347.041; -128.225; -646.000; -593.000
347.175;  -14.650;  259.000;   27.000
347.309; -129.650; -698.000; -628.000
347.442; -154.400; -883.000; -732.000
347.576;   57.925;  670.000;  668.000
347.709;  -58.150; -123.000;  -52.000
347.843; -162.200; -933.000; -825.000
347.976;   -2.400;  235.000;  294.000
348.110; -213.625;-1268.000;-1186.000
348.243; -132.275; -679.000; -772.000
348.377;  -28.125;  -26.000;   60.000
348.510;   29.850;  403.000;  540.000
348.644;  -65.750;  -37.000; -159.000
348.777;  -29.975;  180.000;  191.000
348.911;  -67.025; -142.000; -112.000
349.044;   13.225;  471.000;  448.000
349.178; -172.825;-1069.000;-1006.000
349.311;   -8.750;  141.000;  255.000
349.444; -167.500; -927.000; -813.000
349.578;  -72.150; -347.000; -200.000
349.711; -156.000; -959.000; -862.000
349.845; -140.675; -661.000; -591.000
349.978; -200.550;-1224.000;-1137.000
350.111; -108.600; -546.000; -612.000
350.244; -128.325; -596.000; -700.000
350.378;  -99.550; -392.000; -393.000
350.511;  -98.775; -393.000; -426.000
350.644; -147.925; -808.000; -806.000
350.778;  -44.450;  168.000;  104.000
350.911;  -28.650;  134.000;  140.000
351.044; -135.975; -685.000; -615.000
351.177;  -80.900; -321.000; -281.000
351.310;  -53.725;    3.000; -131.000
351.444; -158.050; -888.000; -788.000
351.577;  -17.075;  140.000;   90.000
351.710;   53.875;  593.000;  417.000
351.843;  -58.825; -165.000;  -77.000
351.976;  -26.150;  149.000;  -79.000
352.109; -133.550; -621.000; -612.000
352.242; -105.700; -464.000; -419.000
352.376; -128.275; -580.000; -636.000
352.509; -106.400; -437.000; -356.000
352.642; -177.400; -654.000; -604.000
352.775;  -52.550; -141.000;  -98.000
352.908; -149.700; -933.000; -904.000
353.041; -154.025; -814.000; -824.000
353.174;  -93.150; -551.000; -424.000
353.307; -139.525; -753.000; -764.000
353.440;   18.375;  541.000;  453.000
353.573; -167.575; -957.000;-1008.000
353.706; -134.000; -384.000; -558.000
353.839;  -71.500; -264.000; -220.000
353.971; -122.250; -657.000; -512.000
354.104; -159.075; -896.000; -835.000
354.237; -130.675; -627.000; -662.000
354.370; -142.950; -846.000; -879.000
354.503; -218.625;-1231.000;-1308.000
354.636;  -86.275; -529.000; -348.000
354.769; -163.475; -937.000; -860.000
354.902;  -69.850; -230.000; -139.000
355.034;  -61.225; -164.000; -220.000
355.167;  -77.100; -262.000; -162.000
355.300; -177.825;-1061.000; -880.000
355.433;  -32.875;  -71.000;  -14.000
355.565;  -93.650; -402.000; -384.000
355.698;  -76.900; -356.000; -296.000
355.831; -163.350; -882.000; -801.000
355.964;  -63.050; -285.000; -170.000
356.096; -172.000; -856.000; -843.000
356.229; -123.050; -523.000; -530.000
356.362;  -92.400; -373.000; -266.000
356.494;  -51.000; -229.000; -162.000
356.627;    4.775;  269.000;  377.000
356.760;  -24.950;  120.000;   53.000
356.892; -127.575; -286.000; -601.000
357.025;   37.600;  403.000;  389.000
357.157;  -50.125; -167.000; -179.000
357.290; -147.975; -856.000; -713.000
357.423; -128.600; -667.000; -556.000
357.555;  -66.575; -217.000; -228.000
357.688; -100.275; -483.000; -364.000
357.820; -162.950; -870.000; -877.000
357.953; -127.950; -563.000; -589.000
358.085; -126.100; -632.000; -612.000
358.218; -181.425;-1131.000; -932.000
358.350;  -52.375;  -58.000;  312.000
358.483; -202.550;-1300.000;-1187.000
358.615; -182.700;-1182.000;-1078.000
358.747; -202.825;-1187.000;-1058.000
358.880; -145.225; -810.000; -744.000
359.012;  -89.950; -376.000; -202.000
359.145; -111.725; -480.000; -511.000
359.277; -171.800; -962.000; -913.000
359.409;   21.525;  536.000;  231.000
359.542; -146.625; -738.000; -688.000
359.674;  -34.025;   46.000;   13.000
359.806; -115.375; -565.000; -438.000
359.939; -105.950; -617.000; -516.000
360.071; -115.025; -583.000; -579.000
360.203;  -76.325; -411.000; -364.000
360.335;  -36.150;  164.000;  -16.000
360.468;  -67.575; -249.000; -307.000
360.600; -125.250; -547.000; -454.000
360.732; -107.125; -546.000; -423.000
360.864; -209.625;-1216.000;-1044.000
360.996; -103.550; -516.000; -554.000
361.129; -106.325; -389.000; -598.000
361.261;  -43.000;  110.000; -113.000
361.393;  -77.900; -252.000; -214.000
361.525;  -27.850;   94.000;  244.000
361.657; -150.700; -821.000; -703.000
361.789;  -45.900; -139.000; -155.000
361.921; -120.550; -642.000; -593.000
362.053;   33.325;  524.000;  541.000
362.185;  -18.175;  288.000;   72.000
362.318; -154.200; -709.000; -705.000
362.450;    3.300;  294.000;  444.000
362.582; -174.900; -913.000; -870.000
362.714;  -88.550; -353.000; -332.000
362.846; -106.600; -606.000; -490.000
362.978; -172.700; -941.000; -811.000
363.109;  -85.575; -161.000; -260.000
363.241; -139.200; -739.000; -749.000
363.373; -120.175; -649.000; -564.000
363.505;  -52.525; -186.000;  -91.000
363.637; -131.300; -787.000; -601.000
363.769; -188.900;-1067.000;-1080.000
363.901; -137.425; -596.000; -654.000
364.033; -188.950;-1103.000;-1062.000
364.165;  -80.700; -283.000; -283.000
364.296;  -89.400; -316.000; -177.000
364.428; -226.100;-1344.000;-1220.000
364.560; -118.350; -679.000; -661.000
364.692; -133.425; -738.000; -835.000
364.824; -101.250; -588.000; -456.000
364.955;  -88.000; -402.000; -564.000
365.087; -184.025;-1097.000; -852.000
365.219; -135.925; -686.000; -816.000
365.351; -126.175; -526.000; -572.000
365.482;  -20.100;  300.000;  240.000
365.614;  -90.400; -402.000; -314.000
365.746; -135.675; -729.000; -752.000
365.877; -142.750; -706.000; -672.000
366.009;  -64.700;  -35.000;  -62.000
366.141; -218.900;-1249.000;-1134.000
366.272; -145.750; -803.000; -719.000
366.404; -155.900;-1005.000; -874.000
366.535;  -48.775; -139.000;  -12.000
366.667; -136.975; -644.000; -649.000
366.799;    7.975;  353.000;  203.000
366.930; -177.000; -862.000; -996.000
367.062; -129.925; -639.000; -613.000
367.193; -150.925; -872.000; -842.000
367.325; -115.325; -580.000; -684.000
367.456;  -74.850; -246.000;   31.000
367.588; -101.700; -371.000; -318.000
367.719;  -66.100;  -44.000;  -45.000
367.851;  -74.725; -222.000; -241.000
367.982; -155.050; -875.000; -732.000
368.113;  -99.900; -475.000; -358.000
368.245; -180.975; -960.000; -841.000
368.376;  -75.650; -254.000; -302.000
368.508;  -83.575; -188.000; -263.000
368.639; -189.375;-1166.000;-1034.000
368.770; -145.000; -670.000; -589.000
368.902; -167.775; -836.000; -926.000
369.033; -163.375; -906.000; -855.000
369.164; -127.325; -720.000; -653.000
369.296; -150.700; -452.000; -601.000
369.427;  -74.700; -209.000; -144.000
369.558; -104.125; -593.000; -377.000
369.689; -137.000; -721.000; -569.000
369.821; -173.225; -951.000; -845.000
369.952;  -58.025;   42.000; -108.000
370.083;  -82.400; -229.000; -108.000
370.214; -126.450; -735.000; -650.000
370.345;  -46.525;   65.000;   81.000
370.477; -165.450; -810.000; -790.000
370.608;  -83.525; -328.000; -264.000
370.739; -199.350;-1233.000;-1292.000
370.870; -169.050;-1102.000; -923.000
371.001;  -96.825; -378.000; -467.000
371.132; -139.800; -754.000; -735.000
371.263;  -49.975;  -42.000; -148.000
371.394; -169.075; -841.000; -748.000
371.525;   -5.225;  345.000;  225.000
371.657; -157.700; -808.000; -670.000
371.788;  -17.825;  103.000;  199.000
371.919; -107.050; -384.000; -304.000
372.050;  -51.050;  -91.000; -156.000
372.181;  -55.475; -188.000; -294.000
372.311;  -39.100;   42.000; -127.000
372.442; -103.350; -457.000; -451.000
372.573;  -80.325; -444.000; -340.000
372.704; -182.075;-1008.000; -980.000
372.835;  -79.225; -228.000; -289.000
372.966; -126.750; -646.000; -554.000
373.097; -156.350; -575.000; -711.000
373.228; -133.900; -717.000; -542.000
373.359; -152.575; -824.000; -536.000
373.490; -145.125; -881.000; -727.000
373.620; -174.700;-1001.000; -803.000
373.751; -114.950; -332.000; -396.000
373.882; -138.125; -663.000; -733.000
374.013;  -87.150; -449.000; -262.000
374.143; -114.500; -581.000; -659.000
374.274; -179.850; -987.000; -908.000
374.405;  -83.550; -388.000; -276.000
374.536; -125.575; -526.000; -387.000
374.666; -146.925; -759.000; -807.000
374.797; -159.375; -817.000; -868.000
374.928; -145.175; -710.000; -560.000
375.058; -117.200; -535.000; -500.000
375.189;  -53.025;  -59.000;  -93.000
375.320; -189.450; -928.000;-1034.000
375.450; -123.925; -625.000; -616.000
375.581; -111.975; -526.000; -436.000
375.712; -108.000; -574.000; -250.000
375.842; -119.475; -438.000; -415.000
375.973; -117.850; -554.000; -513.000
376.103; -140.875; -665.000; -648.000
376.234; -122.700; -531.000; -552.000
376.364; -174.525; -944.000; -867.000
376.495;   62.275;  925.000;  529.000
376.625; -129.175; -472.000; -485.000
376.756; -134.625; -709.000; -678.000
376.886; -208.200;-1178.000;-1026.000
377.017; -198.825;-1048.000;-1061.000
377.147; -165.925; -786.000; -782.000
377.278;  -16.925;  174.000;  228.000
377.408; -158.325; -801.000; -815.000
377.538; -140.350; -707.000; -693.000
377.669; -114.625; -537.000; -613.000
377.799; -142.475; -645.000; -635.000
377.929; -110.425; -610.000; -428.000
378.060; -176.725; -781.000; -847.000
378.190; -141.625; -726.000; -531.000
378.320; -100.050; -401.000; -406.000
378.451;  -41.900; -131.000;  -22.000
378.581;  -58.925;  -67.000; -110.000
378.711;   71.300; 1035.000;  866.000
378.841; -130.650; -533.000; -675.000
378.972; -170.775; -871.000; -751.000
379.102; -119.100; -652.000; -579.000
379.232;  -78.025; -126.000;  -73.000
379.362; -173.925;-1001.000; -885.000
379.492; -121.125; -373.000; -424.000
379.623;  -36.275;    0.000;  111.000
379.753; -182.475;-1107.000; -974.000
379.883;  -25.325;   59.000;  156.000
380.013; -189.000;-1081.000;-1017.000
380.143; -204.500;-1097.000;-1056.000
380.273; -159.650; -985.000; -861.000
380.403;  -90.350; -344.000; -257.000
380.533; -147.900; -651.000; -664.000
380.663;  -40.225;  173.000;  128.000
380.793; -195.975;-1027.000;-1074.000
380.923;  -77.025; -103.000;  -34.000
381.053; -141.550; -613.000; -623.000
381.183;  -77.000; -106.000; -248.000
381.313; -131.875; -656.000; -470.000
381.443; -126.675; -692.000; -473.000
381.573; -107.100; -402.000; -409.000
381.703; -206.675;-1249.000;-1095.000
381.833; -231.950;-1454.000;-1336.000
381.963;  -44.725; -134.000;  -87.000
382.093; -179.325; -925.000; -909.000
382.223; -137.825; -713.000; -602.000
382.353; -145.025; -801.000; -608.000
382.482; -187.775;-1091.000; -964.000
382.612; -148.000; -872.000; -644.000
382.742; -137.175; -695.000; -622.000
382.872; -117.025; -565.000; -551.000
383.002;  -35.200;  347.000; -132.000
383.131;  -96.925; -226.000; -160.000
383.261; -143.725; -706.000; -768.000
383.391; -109.700; -552.000; -377.000
383.521;    5.850;  451.000;  263.000
383.650; -182.575; -947.000; -904.000
383.780; -141.600; -783.000; -656.000
383.910;   58.125;  880.000;  802.000
384.039; -165.000; -794.000; -656.000
384.169; -204.200;-1205.000;-1017.000
384.299; -130.300; -650.000; -662.000
384.428; -144.250; -764.000; -680.000
384.558;  -85.375; -308.000; -275.000
384.687; -102.925; -414.000; -334.000
384.817;  -51.150;   75.000;   -2.000
384.947;  -82.650; -234.000; -141.000
385.076;   86.450;  982.000;  912.000
385.206;   -1.350;  369.000;  480.000
385.335; -104.075; -549.000; -417.000
385.465; -144.675; -655.000; -663.000
385.594;  -47.325;  -53.000;  -44.000
385.724; -156.250; -868.000; -838.000
385.853;  -85.275; -296.000; -270.000
385.982; -168.150; -743.000; -787.000
386.112; -177.525;-1052.000; -871.000
386.241; -111.300; -307.000; -312.000
386.371;  -82.700; -174.000;  -87.000
386.500; -173.550; -825.000; -789.000
386.629; -153.075; -874.000; -817.000
386.759;  -52.375;  -43.000;   68.000
386.888;  -66.000; -170.000; -250.000
387.017; -138.900; -648.000; -620.000
387.147; -159.150; -771.000; -798.000
387.276; -118.400; -410.000; -397.000
387.405;  -87.650; -398.000; -342.000
387.535; -112.525; -452.000; -361.000
387.664; -138.875; -692.000; -620.000
387.793;  -77.875; -198.000; -113.000
387.922;  -32.300;  255.000;  200.000
388.052; -135.400; -576.000; -423.000
388.181; -108.950; -342.000; -472.000
388.310; -156.525; -889.000; -710.000
388.439; -171.350; -749.000; -742.000
388.568;  -26.225;  365.000;  244.000
388.697; -130.375; -756.000; -653.000
388.826; -130.875; -768.000; -666.000
388.956;  -85.400; -285.000; -307.000
389.085;  -92.925; -347.000; -287.000
389.214; -146.025; -842.000; -872.000
389.343; -136.775; -645.000; -413.000
389.472;  -18.150;  126.000;  149.000
389.601;  -35.775;   91.000;    0.000
389.730; -145.425; -568.000; -687.000
389.859;  -12.125;  226.000;   46.000
389.988;  -92.050; -423.000; -408.000
390.117;  -68.800; -168.000; -146.000
390.246;  -98.375; -331.000; -320.000
390.375; -143.125; -673.000; -626.000
390.504; -133.100; -703.000; -621.000
390.633; -156.825; -672.000; -726.000
390.761; -156.950; -732.000; -645.000
390.890;  -63.125;   -4.000; -130.000
391.019; -101.750; -421.000; -441.000
391.148; -179.675; -826.000; -855.000
391.277; -128.925; -576.000; -493.000
391.406; -153.325; -821.000; -805.000
391.534;  -23.825;  574.000; -301.000
391.663; -128.025; -583.000; -645.000
391.792; -151.450; -673.000; -701.000
391.921;  -53.100;   -3.000;   15.000
392.050;  -81.075; -287.000; -228.000
392.178; -196.775;-1206.000;-1061.000
392.307; -153.000; -758.000; -712.000
392.436; -145.000; -427.000; -641.000
392.564;  -32.425;  166.000;   -6.000
392.693; -162.625; -860.000; -682.000
392.822; -121.700; -529.000; -534.000
392.950; -147.675; -880.000; -714.000
393.079;  -98.875; -188.000; -328.000
393.208; -134.675; -488.000; -511.000
393.336;  -76.425; -170.000; -145.000
393.465;  -84.650; -317.000; -199.000
393.593;  -26.150;   62.000;   79.000
393.722; -193.825;-1121.000; -916.000
393.850;  -73.100; -188.000;  -61.000
393.979; -194.575; -926.000; -805.000
394.107; -109.925; -517.000; -537.000
394.236; -122.925; -570.000; -507.000
394.364;   -9.625;  383.000;  206.000
394.493; -182.500; -911.000; -767.000
394.621; -186.850; -955.000; -916.000
394.750; -185.075; -873.000; -923.000
394.878;  -75.225; -247.000; -149.000
395.007; -155.425; -721.000; -807.000
395.135; -155.675; -790.000; -721.000
395.263; -194.175;-1038.000;-1040.000
395.392;  -50.225;  -25.000; -107.000
395.520; -178.525; -818.000; -679.000
395.648; -163.375; -865.000; -915.000
395.777; -113.150; -366.000; -405.000
395.905; -123.025; -449.000; -564.000
396.033;  -30.025;  217.000;  172.000
396.162; -103.275; -399.000; -453.000
396.290;  -71.525;  -17.000;   -2.000
396.418; -123.200; -555.000; -514.000
396.546; -150.950; -571.000; -466.000
396.674; -170.525; -850.000; -878.000
396.803;  -49.625;  -72.000;  -23.000
396.931;  -78.925; -179.000; -199.000
397.059; -197.325;-1026.000; -989.000
397.187; -176.475;-1026.000; -975.000
397.315; -179.175; -884.000; -649.000
397.443; -123.300; -592.000; -443.000
397.572; -116.300; -578.000; -424.000
397.700; -160.250; -607.000; -614.000
397.828;  -83.975;  120.000;  -90.000
397.956; -112.825; -508.000; -478.000
398.084; -151.200; -767.000; -626.000
398.212;  -25.775;  137.000;  124.000
398.340;  -54.300;  -56.000;  159.000
398.468;  -98.675; -390.000; -169.000
398.596; -185.275; -993.000; -953.000
398.724; -159.075; -762.000; -767.000
398.852; -181.000;-1024.000; -976.000
398.980; -123.750; -560.000; -560.000
399.108; -150.800; -982.000; -735.000
399.236;  -39.200;   13.000;    8.000
399.363;  -34.225;  222.000;  196.000
399.491; -114.625; -404.000; -398.000
399.619; -160.225; -829.000; -800.000
399.747; -174.050; -859.000; -771.000
399.875;  -20.850;  220.000;  234.000
400.003;  -94.275; -359.000; -284.000
400.130; -125.800; -421.000; -341.000
400.258;  -51.950;  -83.000;   38.000
400.386;  -78.125; -352.000; -168.000
400.514; -119.300; -526.000; -587.000
400.641; -181.175; -928.000; -802.000
400.769; -176.800; -979.000; -888.000
400.897; -155.000; -838.000; -793.000
401.025;  -62.625; -166.000; -152.000
401.152;  -27.275;  220.000;   38.000
401.280; -118.600; -430.000; -429.000
401.408; -145.000; -712.000; -576.000
401.535; -138.500; -735.000; -758.000
401.663; -222.725;-1134.000;-1054.000
401.790; -114.250; -514.000; -525.000
401.918;   -2.625;  436.000;  405.000
402.046;  -40.325;  134.000;  122.000
402.173;  -65.075;  -18.000;    7.000
402.301;  -96.600; -519.000; -397.000
402.428;   12.775;  528.000;  383.000
402.556; -212.250;-1188.000; -913.000
402.683;  -68.525;  -20.000;   -1.000
402.811;  -72.575;  -37.000; -206.000
402.938;  -52.350;   20.000;   27.000
403.066; -127.525; -574.000; -558.000
403.193;  -33.500;  299.000;  239.000
403.321; -112.375; -396.000; -574.000
403.448;  -37.525;   83.000;   27.000
403.575;  -46.400;  -90.000;  -46.000
403.703; -165.250; -732.000; -557.000
403.830; -109.275; -531.000; -496.000
403.957; -200.175;-1117.000;-1023.000
404.085;  -83.375;  -61.000; -172.000
404.212;  -47.725;  -50.000;   63.000
404.339;  -98.800; -566.000; -306.000
404.467; -128.825; -612.000; -524.000
404.594;  -86.275; -287.000; -227.000
404.721; -146.125; -869.000; -764.000
404.848;  -71.325; -113.000; -202.000
404.976; -169.625; -856.000; -783.000
405.103;  -58.300;  -14.000;  -82.000
405.230;  -39.350;  190.000;  226.000
405.357;  -58.150;  117.000;   44.000
405.484;  -78.875;  -49.000;    5.000
405.612; -127.925; -548.000; -563.000
405.739; -115.600; -488.000; -243.000
405.866;   21.225;  669.000;  385.000
405.993; -107.175; -398.000; -102.000
406.120; -168.150; -801.000; -887.000
406.247; -115.500; -323.000; -342.000
406.374;   27.175;  540.000;  629.000
406.501; -143.425; -632.000; -702.000
406.628; -116.275; -621.000; -589.000
406.755; -159.475; -803.000; -620.000
406.882;  -79.000; -228.000; -277.000
407.009; -135.150; -719.000; -628.000
407.136; -100.250; -480.000; -401.000
407.263; -188.850; -939.000; -829.000
407.390; -141.525; -692.000; -614.000
407.517; -207.325;-1139.000;-1187.000
407.644; -105.475; -332.000; -256.000
407.771; -115.650; -249.000; -287.000
407.898;  -33.600;  168.000;  328.000
408.025; -126.125; -421.000; -313.000
408.151;  -48.200;   82.000;  153.000
408.278; -106.725; -267.000; -216.000
408.405; -168.300; -931.000; -899.000
408.532; -135.950; -549.000; -542.000
408.659; -148.975; -677.000; -648.000
408.785; -219.350;-1298.000;-1170.000
408.912;  -87.625; -412.000; -296.000
409.039; -127.075; -610.000; -686.000
409.166; -134.675; -591.000; -555.000
409.292; -147.075; -571.000; -534.000
409.419; -150.500; -665.000; -649.000
409.546; -104.100; -431.000; -192.000
409.672; -137.600; -713.000; -545.000
409.799;  -66.575;  -36.000;   34.000
409.926;  -90.050; -180.000; -179.000
410.052; -220.550;-1127.000;-1091.000
410.179; -121.750; -368.000; -392.000
410.305; -105.675; -375.000; -493.000
410.432;  -83.850; -220.000; -333.000
410.558; -114.325; -305.000; -380.000
410.685; -128.750; -688.000; -431.000
410.812; -136.450; -409.000; -588.000
410.938; -182.225; -964.000; -808.000
411.065; -142.125; -671.000; -645.000
411.191;  -98.000; -189.000; -174.000
411.317; -165.750; -823.000; -742.000
411.444; -106.275; -317.000; -246.000
411.570; -101.550; -339.000; -294.000
411.697; -145.950; -758.000; -752.000
411.823; -195.450; -989.000; -999.000
411.949;  -83.800;  -56.000;   17.000
412.076; -144.400; -539.000; -519.000
412.202; -159.500; -758.000; -757.000
412.329; -165.525; -798.000; -752.000
412.455; -140.800; -821.000; -657.000
412.581;  -54.075;  -15.000;  172.000
412.707; -134.575; -540.000; -457.000
412.834;  -24.150;  156.000;  219.000
412.960; -158.650; -785.000; -784.000
413.086; -150.775; -743.000; -701.000
413.212;   19.075;  604.000;  578.000
413.339; -159.425; -685.000; -701.000
413.465; -122.500; -364.000; -310.000
413.591; -163.550; -757.000; -474.000
413.717;  -95.275; -358.000; -366.000
413.843; -191.125; -839.000; -861.000
413.969; -115.875;  -47.000; -292.000
414.096; -154.675; -679.000; -679.000
414.222;  -45.525;  -33.000;   85.000
414.348; -140.250; -652.000; -385.000
414.474;  -56.275;   38.000;  -52.000
414.600;  -78.825; -126.000; -144.000
414.726;  -70.025;  -96.000;  -55.000
414.852; -120.450; -365.000; -342.000
414.978;  -61.025;  104.000;  -18.000
415.104;  -46.825;   38.000;   80.000
415.230; -101.375; -329.000; -330.000
415.356; -130.675; -409.000; -514.000
415.482;  -73.325;   13.000;  -35.000
415.608;  -97.150; -247.000; -323.000
415.734;  -53.150;   67.000;   38.000
415.860; -163.800; -875.000; -767.000
415.986; -154.450; -685.000; -607.000
416.111; -155.825; -798.000; -652.000
416.237; -115.500; -424.000; -571.000
416.363; -156.725; -765.000; -733.000
416.489;  -89.575; -324.000; -251.000
416.615; -168.175; -707.000; -742.000
416.741; -147.200; -677.000; -784.000
416.866; -163.600; -673.000; -736.000
416.992; -173.975; -801.000; -818.000
417.118;  -87.425;  -41.000;  -80.000
417.244; -159.725; -798.000; -531.000
417.369; -174.550; -801.000; -612.000
417.495;  -98.150; -325.000; -254.000
417.621; -205.125;-1015.000; -803.000
417.746; -105.675; -579.000; -572.000
417.872;  -71.900; -254.000; -144.000
417.998; -136.850; -515.000; -530.000
418.123; -194.600;-1073.000; -845.000
418.249; -129.925; -512.000; -601.000
418.374; -188.125; -916.000; -824.000
418.500; -123.300; -383.000; -482.000
418.626;  -40.975;   70.000;  -59.000
418.751; -135.525; -549.000; -448.000
418.877; -160.325; -637.000; -643.000
419.002; -151.025; -688.000; -560.000
419.128; -175.825; -930.000; -721.000
419.253; -175.475; -967.000; -837.000
419.379; -137.975; -391.000; -338.000
419.504;  -12.050;  325.000;  415.000
419.629;  -96.275; -393.000; -212.000
419.755;  -95.475; -317.000; -254.000
419.880;  -91.125;  -98.000;   67.000
420.006;  -97.750; -280.000; -221.000
420.131; -149.325; -662.000; -775.000
420.256; -107.400; -315.000; -316.000
420.382; -142.500; -665.000; -687.000
420.507; -155.950; -649.000; -778.000
420.632;  -99.000; -337.000; -339.000
420.758; -100.350; -251.000; -425.000
420.883; -151.925; -876.000; -672.000
421.008; -154.650; -775.000; -619.000
421.133; -129.175; -509.000; -467.000
421.259;  -76.475; -325.000; -259.000
421.384; -165.100; -834.000; -693.000
421.509; -178.225;-1052.000; -862.000
421.634; -189.025; -936.000; -820.000
421.759; -111.775; -359.000; -327.000
421.885; -157.750; -717.000; -656.000
422.010; -131.325; -673.000; -542.000
422.135; -186.050; -695.000; -727.000
422.260;  -16.650;  340.000;  280.000
422.385;  -80.650;   12.000;  -98.000
422.510;  -37.925;  151.000;  -26.000
422.635;  -69.875;  -87.000;  -43.000
422.760; -152.500; -766.000; -791.000
422.885;  -61.300;  -57.000;  -80.000
423.010;  -67.700; -112.000; -169.000
423.135; -124.200; -481.000; -561.000
423.260;  -86.550; -150.000; -245.000
423.385;  -20.650;  476.000;  222.000
423.510;  -46.125;   71.000;  -22.000
423.635;  -48.275;  133.000;   45.000
423.760;   -8.125;  383.000;  328.000
423.885;  -21.975;  336.000;  391.000
424.010;  -70.425;  -68.000;  -13.000
424.135;  -72.800;    5.000;  -33.000
424.259; -145.425; -654.000; -457.000
424.384; -106.450; -279.000; -272.000
424.509;  -87.900; -260.000; -186.000
424.634; -168.325; -761.000; -623.000
424.759; -146.975; -688.000; -544.000
424.883; -128.825; -506.000; -527.000
425.008; -132.925; -502.000; -410.000
425.133; -148.075; -679.000; -653.000
425.258; -145.500; -517.000; -381.000
425.382; -158.825; -867.000; -774.000
425.507; -145.475; -487.000; -543.000
425.632; -179.675; -802.000; -663.000
425.756; -100.800; -256.000; -146.000
425.881; -170.350; -831.000; -857.000
426.006; -124.025; -604.000; -355.000
426.130; -167.550; -696.000; -508.000
426.255; -137.400; -611.000; -491.000
426.379;  -98.975; -189.000; -577.000
426.504;    8.850;  660.000;  544.000
426.629; -137.250; -519.000; -466.000
426.753;  -59.075;   64.000;  -46.000
426.878;  -87.925; -252.000; -288.000
427.002; -183.375; -651.000; -668.000
427.127;  -94.175;  -35.000; -158.000
427.251;   -3.725;  372.000;  401.000
427.375;  -83.650; -191.000; -173.000
427.500; -149.050; -616.000; -610.000
427.624;  -98.575; -234.000; -400.000
427.749; -100.475; -216.000; -225.000
427.873; -128.400; -499.000; -412.000
427.997;  -88.000; -222.000; -230.000
428.122;   44.050;  795.000;  703.000
428.246;    5.125;  433.000;  434.000
428.371; -170.225; -869.000; -773.000
428.495; -156.600; -624.000; -646.000
428.619;  -95.325; -186.000; -117.000
428.743;  -45.525;   65.000;  132.000
428.868; -169.950; -732.000; -643.000
428.992;  -99.175; -219.000; -326.000
429.116; -115.100; -329.000; -357.000
429.240;  -30.625;  419.000;  426.000
429.365; -124.350; -454.000; -574.000
429.489; -158.275; -638.000; -647.000
429.613;  -85.525; -236.000; -177.000
429.737; -133.550; -563.000; -432.000
429.861; -105.700; -247.000; -133.000
429.985; -136.475; -425.000; -305.000
430.109; -191.975; -770.000; -908.000
430.234;  -53.100;   76.000;  -50.000
430.358; -111.150; -250.000; -160.000
430.482; -170.250; -672.000; -564.000
430.606; -135.300; -655.000; -375.000
430.730; -120.200; -437.000; -388.000
430.854; -190.525; -909.000; -835.000
430.978; -182.300; -795.000; -764.000
431.102; -129.075; -499.000; -422.000
431.226; -176.425; -874.000; -815.000
431.350;  -21.100;  345.000;  422.000
431.474; -130.825; -661.000; -373.000
431.597; -200.500;-1060.000; -848.000
431.721; -117.575; -276.000; -267.000
431.845; -161.175; -704.000; -472.000
431.969; -105.900; -304.000; -349.000
432.093; -125.225; -395.000; -317.000
432.217;  -60.350;   32.000;   82.000
432.341; -136.050; -523.000; -518.000
432.464;  -69.625;   96.000;   40.000
432.588; -140.675; -401.000; -329.000
432.712;  -85.475;  -52.000;  -52.000
432.836;  -29.775;  213.000;  263.000
432.959;  -98.875; -372.000; -311.000
433.083;  -66.675;   11.000;    2.000
433.207;    7.750;  285.000;  930.000
433.330;  -89.900; -391.000; -200.000
433.454; -145.775; -654.000; -638.000
433.578;    6.775;  583.000;  278.000
433.701; -162.125; -623.000; -675.000
433.825; -120.575; -292.000; -299.000
433.949;  -70.675;   28.000;  -72.000
434.072; -125.650; -410.000; -323.000
434.196;  -93.675; -309.000; -117.000
434.319; 3728.975;25482.000;25124.000
434.443; -157.750; -656.000; -603.000
434.566;  -43.100;  281.000;   62.000
434.690; -142.325; -637.000; -383.000
434.813; -102.550; -251.000; -173.000
434.937; -155.400; -569.000; -696.000
435.060; -118.700; -423.000; -332.000
435.184; -126.575; -492.000; -217.000
435.307;  -47.975;  159.000;  102.000
435.431;  -72.750;  -40.000;   24.000
435.554;  -98.750; -399.000; -240.000
435.677; -113.375; -350.000; -258.000
435.801;  -66.200;  -25.000;   49.000
435.924;  -59.800;    1.000;  -67.000
436.048; -200.075;-1019.000; -732.000
436.171;  -96.525; -240.000;  -66.000
436.294; -103.675; -248.000; -229.000
436.417; -204.100; -963.000; -849.000
436.541; -169.050; -814.000; -840.000
436.664;  -84.775; -242.000; -316.000
436.787;  -58.925;   13.000;  113.000
436.910; -153.525; -792.000; -422.000
437.034;  -50.150;  142.000;  143.000
437.157;  -78.625;  -11.000;    0.000
437.280; -105.575; -392.000; -292.000
437.403; -198.325; -982.000; -869.000
437.526; -201.250; -903.000; -865.000
437.649; -133.075; -505.000; -332.000
437.772; -157.375; -692.000; -540.000
437.896;   15.750;  700.000;  544.000
438.019; -156.775; -758.000; -503.000
438.142; -140.125; -596.000; -506.000
438.265; -163.275; -639.000; -670.000
438.388; -134.425; -520.000; -410.000
438.511; -141.700; -597.000; -394.000
438.634; -126.125; -247.000; -125.000
438.757; -168.350; -693.000; -619.000
438.880;  -76.750;  -34.000;  -57.000
439.003; -112.625; -417.000; -437.000
439.126;  -93.700; -287.000; -167.000
439.248;  -76.975;  -98.000; -139.000
439.371;  -65.525;    9.000;  -53.000
439.494;   16.375;  510.000;  439.000
439.617;  -83.600;   65.000;  -88.000
439.740; -200.375; -968.000; -816.000
439.863; -161.175; -755.000; -595.000
439.986; -147.700; -476.000; -431.000
440.108;  -85.000; -161.000; -112.000
440.231; -203.625; -950.000; -836.000
440.354;  -84.725;  -64.000; -150.000
440.477; -159.800; -566.000; -542.000
440.599; -123.225; -200.000; -225.000
440.722; -161.250; -709.000; -586.000
440.845;   45.325;  751.000;  928.000
440.968; -125.975; -415.000; -311.000
441.090;  -93.725; -199.000;  -33.000
441.213; -191.625;-1021.000; -825.000
441.336;  -85.725; -159.000;   -5.000
441.458; -111.925; -549.000; -396.000
441.581; -154.475; -628.000; -629.000
441.703;  -87.400; -152.000;   13.000
441.826; -143.175; -557.000; -400.000
441.948;  -61.725;   56.000;   51.000
442.071;    4.975;  555.000;  424.000
442.193; -148.775; -531.000; -485.000
442.316;  -54.350;  152.000;   97.000
442.438; -100.400; -233.000;  -10.000
442.561;  -28.525;  272.000;  262.000
442.683; -179.450; -809.000; -522.000
442.806;  -72.500;   -8.000;   74.000
442.928; -197.100; -859.000; -604.000
443.051; -155.750; -577.000; -373.000
443.173; -112.300; -341.000; -339.000
443.295; -134.675; -263.000; -371.000
443.418; -112.625; -321.000;  -29.000
443.540;  -86.200; -106.000;   -4.000
443.662; -160.450; -563.000; -465.000
443.785;  -43.700;  335.000;  199.000
443.907; -134.650; -362.000; -208.000
444.029; -155.025; -767.000; -494.000
444.152; -165.350; -644.000; -554.000
444.274;  -63.225;  -18.000;  -24.000
444.396; -138.525; -461.000; -221.000
444.518; -162.325; -691.000; -454.000
444.640; -127.900; -268.000; -111.000
444.763;  -39.050;  388.000;  249.000
444.885; -137.250; -432.000; -392.000
445.007;  -49.350;   35.000;   86.000
445.129; -155.375; -610.000; -515.000
445.251; -140.975; -372.000; -439.000
445.373; -169.600; -537.000; -386.000
445.495;  -20.175;  242.000;  350.000
445.617;    8.925;  853.000;  753.000
445.739; -103.975; -215.000;  -97.000
445.861;  -91.300; -245.000; -112.000
445.984; -106.500; -267.000; -101.000
446.105; -112.575; -418.000; -251.000
446.227; -100.275; -176.000;  -19.000
446.349; -126.825; -358.000; -249.000
446.471; -144.900; -615.000; -448.000
446.593; -106.150; -316.000;   19.000
446.715;  -73.850;  -67.000;   41.000
446.837;   19.800;  697.000;  832.000
446.959; -137.650; -457.000; -478.000
447.081; -175.950; -628.000; -518.000
447.203;   33.800;  862.000;  834.000
447.325;  -94.025; -270.000;   42.000
447.446;  -22.650;  286.000;  530.000
447.568; -201.425; -921.000; -803.000
447.690; -122.825; -236.000; -245.000
447.812; -177.475; -798.000; -519.000
447.933;  -69.150;  155.000;  127.000
448.055; -110.100; -306.000; -261.000
448.177;  -68.275;   31.000;   79.000
448.299; -213.100; -935.000; -727.000
448.420;  -59.000;  -25.000;  159.000
448.542;  -71.925;   -3.000;   33.000
448.664;  -51.350;  109.000;  322.000
448.785;  -57.150;  265.000;   83.000
448.907; -146.250; -614.000; -353.000
449.028; -176.725; -771.000; -471.000
449.150;   -5.500;  492.000;  589.000
449.272; -215.075;-1044.000; -913.000
449.393;   -3.600;  612.000;  694.000
449.515; -173.550; -634.000; -581.000
449.636; -109.125; -264.000; -155.000
449.758;   16.450;  763.000;  622.000
449.879; -147.725; -498.000; -396.000
450.001; -112.425; -149.000;  -49.000
450.122;  -85.025;  -95.000;  162.000
450.244;  -71.275;   37.000;  364.000
450.365; -139.475; -495.000; -301.000
450.486;  -78.675;   80.000;  268.000
450.608;  -49.350;  393.000;  326.000
450.729;   -3.475;  578.000;  645.000
450.850; -152.625; -574.000; -466.000
450.972; -170.500; -552.000; -389.000
451.093;  -36.175;  190.000;  588.000
451.214; -144.300; -516.000; -337.000
451.336;   25.225;  773.000;  579.000
451.457;  -19.850;  264.000;  393.000
451.578;  -92.050; -118.000;  -74.000
451.699; -154.675; -546.000; -540.000
451.821; -107.175; -284.000;  -50.000
451.942;  -40.625;  278.000;  285.000
452.063;  -37.650;  228.000;  419.000
452.184; -116.250;  -54.000;  -49.000
452.305;  -46.625;  103.000;  170.000
452.427; -131.250; -549.000; -301.000
452.548;  -97.850;   23.000;   79.000
452.669; -116.050; -257.000;  -89.000
452.790;  -91.100;    3.000;  -18.000
452.911;  -47.950;  195.000;  259.000
453.032; -111.325; -289.000;  -60.000
453.153; -103.900;  -29.000;   81.000
453.274;   19.750;  737.000;  868.000
453.395;  -84.800;  -51.000;  175.000
453.516;   95.675; 1317.000; 1388.000
453.637; -117.150; -205.000; -150.000
453.758;  -93.925;   15.000;   69.000
453.879; -132.425; -462.000; -250.000
454.000;   55.650; 1086.000;  948.000
454.121; -149.575; -554.000; -326.000
454.242; -141.025; -599.000; -383.000
454.362;  -80.100;  -99.000;  114.000
454.483; -123.000; -309.000; -229.000
454.604;  -28.075;  512.000;  580.000
454.725; -171.000; -627.000; -555.000
454.846; -145.525; -474.000; -406.000
454.967;  -44.375;  230.000;  539.000
455.087;  -56.350;  179.000;  153.000
455.208;    2.525;  554.000;  856.000
455.329;  -77.875;  -22.000;   82.000
455.450;   -6.875;  473.000;  633.000
455.570; -111.750; -234.000; -211.000
455.691;  -78.500;  201.000;  407.000
455.812; -119.400; -270.000;  -92.000
455.932;  -73.925;  107.000;  -97.000
456.053;  -92.025;   36.000;   24.000
456.173; -132.050; -433.000; -355.000
456.294; -154.850; -476.000; -303.000
456.415;  -91.550;  -73.000;   70.000
456.535;  -59.400;  297.000;  273.000
456.656;  -55.875;  132.000;  240.000
456.776;  -81.800;    3.000;  298.000
456.897;  -22.575;  308.000;  513.000
457.017; -107.150; -153.000;   -3.000
457.138; -132.250; -402.000; -249.000
457.258;  -63.750;  263.000;  224.000
457.379;  -28.125;  509.000;  521.000
457.499;  -49.825;  443.000;  432.000
457.620; -136.675; -407.000; -231.000
457.740; -119.500; -132.000;  -11.000
457.860;  -77.675;   87.000;   44.000
457.981;  -75.300;  132.000;  124.000
458.101; -102.900;  -89.000;   40.000
458.221;  -24.675;  336.000;  402.000
458.342;  -72.900;   -4.000;  -37.000
458.462;  -15.225;  617.000;  352.000
458.582; -133.900; -302.000; -294.000
458.703;  -71.925;  303.000;  154.000
458.823;  -79.725;   22.000;  163.000
458.943;  -48.225;  341.000;  467.000
459.063;  -82.600; 1124.000;  192.000
459.183;  -51.700;  328.000;  313.000
459.304;  -42.450;  315.000;  517.000
459.424; -103.900; -246.000;  -89.000
459.544;   -4.450;  388.000;  764.000
459.664;  -25.125;  499.000;  506.000
459.784;   44.925; 1004.000; 1175.000
459.904;   -3.375;  867.000;  744.000
460.024;   14.850;  867.000;  684.000
460.144;  -39.775;  449.000;  554.000
460.264;  -31.300;  515.000;  327.000
460.385; -108.775; -145.000; -119.000
460.505;   29.625;  905.000;  858.000
460.625; -102.575;  -17.000;  -68.000
460.745;  -35.925;  396.000;  541.000
460.864;  -76.400;  153.000;  469.000
460.984;  -39.925;  499.000;  573.000
461.104;  116.925; 1656.000; 1775.000
461.224;  -10.900;  657.000;  650.000
461.344;  -57.575;  431.000;  360.000
461.464;  -61.725;  258.000;  513.000
461.584;  -45.775;  283.000;  466.000
461.704; -107.200;   58.000;  108.000
461.824;  -87.025;  238.000;  259.000
461.943;  -61.600;  191.000;  130.000
462.063;  -99.050;    2.000;  324.000
462.183;    3.575;  639.000;  717.000
462.303;   85.825; 1678.000; 1230.000
462.422;    9.900;  781.000;  840.000
462.542;  -74.325;  271.000;  391.000
462.662;  -45.200;  353.000;  380.000
462.782;  -28.000;  833.000;  572.000
462.901;  -27.000;  545.000;  717.000
463.021;  112.825; 1702.000; 1638.000
463.141;  -42.525;  337.000;  770.000
463.260;  -49.725;  614.000;  474.000
463.380;    0.525;  902.000;  884.000
463.499;  -62.275;  342.000;  332.000
463.619;  -51.425;  581.000;  559.000
463.738;   84.600; 1644.000;  903.000
463.858;  -32.075;  657.000;  811.000
463.978;  -52.550;  542.000;  396.000
464.097;   35.425;  921.000; 1114.000
464.217;   36.675; 1196.000; 1143.000
464.336;   43.800; 1068.000; 1130.000
464.455;  -62.150;  328.000;  659.000
464.575;  -20.300;  597.000;  602.000
464.694;   40.350; 1204.000; 1179.000
464.814;   17.075; 1190.000; 1138.000
464.933;   32.525; 1095.000; 1027.000
465.052;   44.575; 1412.000; 1054.000
465.172;    8.950;  922.000;  799.000
465.291;   79.050; 1376.000; 1320.000
465.410;  -24.450;  462.000;  735.000
465.530;   63.300; 1355.000; 1310.000
465.649;   26.175; 1209.000; 1273.000
465.768;   99.650; 1673.000; 1508.000
465.888;   24.325;  941.000; 1174.000
466.007;   92.825; 1335.000; 1440.000
466.126;  -14.400;  721.000;  641.000
466.245;   18.125; 1176.000; 1187.000
466.364;   -6.725;  950.000; 1060.000
466.484;   26.825; 1024.000; 1213.000
466.603;   17.725; 1101.000; 1222.000
466.722;   75.650; 1490.000; 1769.000
466.841;   39.700; 1151.000; 1401.000
466.960;   12.425; 1069.000;  972.000
467.079;  115.775; 1971.000; 1786.000
467.198;   32.500; 1238.000; 1181.000
467.317;   74.550; 1768.000; 1162.000
467.436;   55.900; 1709.000; 1261.000
467.555;  110.675; 1796.000; 1746.000
467.674;   43.400; 1227.000; 1329.000
467.793;   31.975; 1376.000; 1374.000
467.912;   72.550; 1658.000; 1539.000
468.031;  118.625; 2038.000; 1930.000
468.150;  113.525; 1842.000; 1837.000
468.269;  186.475; 2313.000; 2090.000
468.388;  169.525; 2168.000; 2339.000
468.507;  236.475; 2884.000; 2903.000
468.626;  201.425; 2555.000; 2541.000
468.744;  143.000; 2018.000; 2174.000
468.863;  190.075; 2312.000; 2523.000
468.982;   74.700; 1503.000; 1555.000
469.101;  209.550; 2788.000; 2692.000
469.220;  153.100; 2333.000; 2176.000
469.338;  227.000; 2935.000; 3051.000
469.457;  188.475; 2719.000; 2545.000
469.576;  321.575; 3953.000; 3784.000
469.695;  216.775; 2877.000; 3066.000
469.813;  404.125; 4148.000; 4192.000
469.932;  367.525; 4255.000; 4485.000
470.051;  349.200; 4075.000; 4161.000
470.169;  387.325; 4470.000; 4338.000
470.288;  405.325; 4700.000; 4809.000
470.406;  451.025; 5059.000; 5194.000
470.525;  570.250; 6101.000; 5787.000
470.644;  635.975; 6847.000; 6794.000
470.762;  807.775; 8397.000; 7873.000
470.881;  829.175; 8651.000; 8464.000
470.999;  946.225; 9685.000; 9151.000
471.118; 1073.550;11174.000;10711.000

