
Integration time [ms]: 100.000
Averaging Nr. [scans]: 40
Smoothing Nr. [pixels]: 0
Data measured with spectrometer [name]: 2101012U2
Wave   ;Sample   ;Dark     ;Reference
[nm]   ;[counts] ;[counts] ;[counts] 

197.733;   37.075;  516.000;  404.000
197.879;  -76.400; -610.000; -634.000
198.025;  -57.500; -475.000; -420.000
198.171;  -72.875; -602.000; -612.000
198.317;  -43.150; -401.000; -316.000
198.463;  -55.375; -655.000; -404.000
198.609;   31.325;  181.000; -137.000
198.755;  -75.525; -644.000; -410.000
198.901;  -78.950; -505.000; -424.000
199.047;  -62.725; -615.000; -488.000
199.193;  -41.575; -230.000; -468.000
199.339;  -31.000; -222.000; -369.000
199.485;   40.475;  330.000;  271.000
199.631;   20.975;  227.000;  310.000
199.777;  -64.475; -466.000; -398.000
199.923;  -52.025; -610.000; -424.000
200.069;   -8.075; -141.000;  -58.000
200.215;   57.625;  128.000;  453.000
200.361;   38.775;  243.000;  477.000
200.507;  -63.975; -600.000; -373.000
200.653;  -35.700; -371.000; -194.000
200.798;  -35.075; -215.000; -125.000
200.944;   -6.800; -146.000;  -41.000
201.090;   50.600;   61.000;  222.000
201.236;  -10.700; -116.000; -158.000
201.382;  129.950;  874.000;  903.000
201.528;    2.150;  -58.000;  -48.000
201.674;  -52.425; -386.000; -293.000
201.819;  -76.400; -540.000; -439.000
201.965;  -83.475; -699.000; -447.000
202.111;  -31.225; -273.000; -226.000
202.257;  -37.550; -250.000; -238.000
202.402;   12.350;   13.000;  -36.000
202.548;  -20.200; -169.000; -116.000
202.694;   74.950;  410.000; -183.000
202.840;  -75.250; -603.000; -531.000
202.985;  -92.525; -681.000; -639.000
203.131; -107.850; -832.000; -666.000
203.277;  -28.100; -199.000; -262.000
203.423;  -46.450; -434.000; -520.000
203.568;  -37.550; -462.000; -237.000
203.714;  -50.750; -535.000; -542.000
203.860;  -90.875; -682.000; -641.000
204.005;   27.450;  112.000;  167.000
204.151;   70.325;  561.000;  556.000
204.296;  -45.850; -354.000; -221.000
204.442;  -83.375; -600.000; -547.000
204.588;  -76.000; -592.000; -579.000
204.733;   20.350;  178.000;  168.000
204.879; -138.075;-1018.000; -822.000
205.025;    7.350;  -99.000;  126.000
205.170;    8.275;  -17.000;   94.000
205.316;   88.450;  438.000;  661.000
205.461;  -87.800; -698.000; -554.000
205.607;   75.625;  609.000;  665.000
205.752;  -72.625; -626.000; -551.000
205.898;  -55.950; -501.000; -391.000
206.043;  -72.250; -578.000; -506.000
206.189;  -47.475; -243.000; -285.000
206.334;   78.350;  554.000;  606.000
206.480;   83.700;  409.000;  239.000
206.625;  -83.275; -529.000; -552.000
206.771;  -56.800; -451.000; -373.000
206.916;  -25.800; -210.000; -537.000
207.062;  -88.325; -545.000; -591.000
207.207;  -48.050; -546.000; -443.000
207.353;   54.775;  185.000;  460.000
207.498;   21.475;  196.000;   85.000
207.643;  -51.625; -501.000; -370.000
207.789; -128.575;-1069.000; -910.000
207.934; -100.000; -665.000; -713.000
208.080;  -24.850; -154.000;   66.000
208.225;  -11.600;  -22.000;  -57.000
208.370;  -76.175; -727.000; -619.000
208.516;  -79.525; -741.000; -487.000
208.661;  -29.700; -127.000;  -69.000
208.806;  -23.200; -165.000; -171.000
208.952; -116.725;-1044.000; -731.000
209.097;   82.300;  378.000;  349.000
209.242;  -45.225; -307.000; -382.000
209.387;   62.050;  392.000;  350.000
209.533;  -52.550; -321.000; -350.000
209.678;   84.950;  472.000;  543.000
209.823;  -49.050; -408.000; -310.000
209.969; -108.050; -860.000; -757.000
210.114;  -89.750; -907.000; -719.000
210.259; -112.650; -939.000; -889.000
210.404;  -20.450; -171.000;  103.000
210.549;    7.175;  108.000;    3.000
210.695;   -4.100;   -3.000;  -95.000
210.840;   23.125;   94.000;   67.000
210.985;  -60.950; -484.000; -303.000
211.130;   68.375;  268.000;  406.000
211.275;   24.775;  207.000;  199.000
211.420;  -47.925; -300.000; -289.000
211.566;  -66.825; -536.000; -489.000
211.711;   25.475;  218.000;  157.000
211.856;  -66.600; -545.000; -519.000
212.001;   -1.125;  151.000;   44.000
212.146;   40.400;  153.000;   49.000
212.291;  -36.550; -210.000; -186.000
212.436;  -21.825; -280.000;   -6.000
212.581;  -92.225; -685.000; -653.000
212.726;  -58.400; -487.000; -538.000
212.871;  -52.225; -552.000; -217.000
213.016; -154.650;-1172.000;-1029.000
213.161;   57.050;  406.000;  291.000
213.306;  -69.700; -435.000; -577.000
213.451;  -96.650; -778.000; -689.000
213.596;  -42.500; -455.000; -347.000
213.741;  -58.775; -448.000; -538.000
213.886;  -75.850; -498.000; -517.000
214.031;  -35.525; -294.000; -124.000
214.176;  -47.575; -408.000; -341.000
214.321;  -29.925; -296.000; -157.000
214.466;  -25.450; -163.000;  -43.000
214.611;  -11.075;  -61.000;  -10.000
214.756; -124.900; -948.000; -858.000
214.901;  -25.600; -388.000; -226.000
215.046; -118.425; -797.000; -825.000
215.191;    3.300;  128.000;   35.000
215.336;   -9.425; -157.000;  -19.000
215.480;  -78.850; -684.000; -505.000
215.625;   -4.850; -175.000;  -19.000
215.770;  -92.875; -757.000; -662.000
215.915;    5.150;   -5.000;  -97.000
216.060;   -5.700; -113.000;  -21.000
216.205;  -91.875; -731.000; -779.000
216.349;  -76.450; -470.000; -533.000
216.494; -133.975; -939.000; -867.000
216.639; -124.600; -823.000; -888.000
216.784;  -90.150; -577.000; -525.000
216.929;   33.375;  392.000;  281.000
217.073;   -7.750; -244.000;  -31.000
217.218;   -2.475;   78.000;  -47.000
217.363;  -85.700; -656.000; -618.000
217.507;  -73.575; -623.000; -588.000
217.652; -119.825; -845.000; -874.000
217.797;  -98.600; -708.000; -659.000
217.942; -107.825; -856.000; -720.000
218.086;   78.750;  608.000;  539.000
218.231;  -25.800; -174.000;  -26.000
218.376;  -42.000; -337.000; -229.000
218.520;    3.375;  -41.000;   96.000
218.665;  -40.025; -338.000; -204.000
218.810;  -43.250; -275.000; -233.000
218.954;   22.250;  201.000;   35.000
219.099; -103.350; -713.000; -963.000
219.243;  -78.350; -589.000; -554.000
219.388;  -29.200; -264.000; -136.000
219.532;  -15.700; -116.000; -116.000
219.677;  -72.725; -564.000; -521.000
219.822;   -5.875;   33.000;   89.000
219.966;   16.300;   17.000;  -99.000
220.111;  -45.000; -328.000;  -40.000
220.255; -103.600; -797.000; -750.000
220.400;  -21.675; -180.000; -146.000
220.544;  -57.675; -516.000; -450.000
220.689;  -70.225; -422.000; -451.000
220.833;  -32.600; -123.000;  -58.000
220.978;  -51.000; -393.000; -563.000
221.122;   33.050;  319.000;  307.000
221.267; -121.975; -906.000; -837.000
221.411;  -65.750; -478.000; -394.000
221.555;   -4.375; -104.000;  -23.000
221.700;  -47.525; -329.000; -222.000
221.844;   24.675;  255.000;  272.000
221.989;  -53.450; -328.000; -311.000
222.133;  -38.025; -289.000; -307.000
222.277;    1.375;    5.000;   78.000
222.422;   16.650;  227.000;  113.000
222.566;  -24.200; -381.000; -214.000
222.711;  -62.100; -414.000; -479.000
222.855;  -65.625; -643.000; -586.000
222.999;  -90.075; -642.000; -717.000
223.144;  -23.250; -195.000; -194.000
223.288;   50.625;  423.000;  251.000
223.432;   30.275;  184.000;  230.000
223.576;   10.575;  152.000;  -21.000
223.721;   55.625;  364.000;  273.000
223.865;  -65.125; -472.000; -475.000
224.009;  248.825; 1673.000; 1631.000
224.153;  -94.375; -660.000; -671.000
224.298;  -80.275; -531.000; -489.000
224.442;  -26.875;  -74.000;  -33.000
224.586;   -3.600; -169.000; -106.000
224.730; -107.475; -858.000; -670.000
224.875; -112.150; -739.000; -688.000
225.019;    7.675;  102.000;  188.000
225.163;   60.925;  208.000;  341.000
225.307;    9.050;   97.000;  -91.000
225.451;   55.500;  360.000;  481.000
225.595;   35.700;  264.000;  176.000
225.739;   -8.325; -170.000;  -94.000
225.884;    8.025;   86.000;    5.000
226.028;  -94.675; -760.000; -626.000
226.172;  -40.125; -260.000; -273.000
226.316; -122.950; -941.000; -902.000
226.460;  -76.500; -645.000; -493.000
226.604;  -53.700; -406.000; -400.000
226.748; -115.725; -836.000; -733.000
226.892;  -29.500; -227.000; -181.000
227.036;  -54.350; -537.000; -447.000
227.180;  -60.300; -551.000; -375.000
227.324;  -75.750; -561.000; -580.000
227.468; -122.050; -819.000; -717.000
227.612;    7.350;  242.000;  -28.000
227.756; -102.275; -845.000; -698.000
227.900;   41.100;  342.000;  441.000
228.044;  -56.525; -509.000; -290.000
228.188;   59.075;  448.000;  568.000
228.332;  -76.300; -546.000; -472.000
228.476;  -37.950; -223.000; -149.000
228.620;  -18.575; -210.000; -150.000
228.764;   64.375;  431.000;  349.000
228.908;  -19.725; -155.000;   30.000
229.052;  -73.425; -615.000; -528.000
229.195;   -9.925; -172.000;   13.000
229.339;  -38.200; -235.000; -305.000
229.483;  -29.425;    5.000; -162.000
229.627;   -7.375; -156.000;  139.000
229.771;  -52.275; -218.000; -294.000
229.915;    5.325;  230.000;   79.000
230.059;  -92.050; -648.000; -663.000
230.202;  -52.650; -370.000; -317.000
230.346;  -20.275; -107.000;  107.000
230.490;  -74.000; -489.000; -521.000
230.634;  -99.000; -736.000; -553.000
230.777;   78.800;  478.000;  509.000
230.921;  -51.325; -450.000; -359.000
231.065;  -55.850; -246.000; -286.000
231.209;   42.375;  261.000;  265.000
231.352;   25.550;   54.000;   40.000
231.496;   19.800;  568.000;  188.000
231.640;  -84.975; -693.000; -621.000
231.783;   66.600;  546.000;  525.000
231.927;  -41.175; -294.000; -365.000
232.071; -110.675; -962.000; -736.000
232.214; -126.650; -980.000; -764.000
232.358;  -89.800; -683.000; -599.000
232.502;   -6.825;  -19.000;    7.000
232.645; -138.250;-1090.000; -927.000
232.789;  -18.350; -257.000; -218.000
232.933;  -37.075; -407.000; -224.000
233.076; -130.150;-1038.000; -897.000
233.220; -109.125; -752.000; -777.000
233.363;  -78.925; -669.000; -477.000
233.507;   75.400;  371.000;  129.000
233.650; -113.400; -764.000; -834.000
233.794;   40.750;  438.000;  461.000
233.938;  -69.125; -530.000; -362.000
234.081;   -4.875;  -93.000;   31.000
234.225;  -74.400; -631.000; -539.000
234.368; -109.075; -773.000; -723.000
234.512;  -51.875; -385.000; -299.000
234.655;  -94.700; -582.000; -555.000
234.798;  -76.550; -493.000; -466.000
234.942; -132.800; -884.000;-1002.000
235.085;  -65.825; -651.000; -443.000
235.229;  -79.500; -405.000; -410.000
235.372;  -53.150; -247.000; -191.000
235.516;  -50.575; -397.000; -321.000
235.659;   19.800;   92.000;  121.000
235.802;  -15.450;  -38.000;  -22.000
235.946;   31.800;  335.000;  215.000
236.089;   20.800;  126.000;  250.000
236.233;   51.150;  275.000;  298.000
236.376;  -60.375; -235.000; -378.000
236.519;  -53.350; -297.000; -319.000
236.663;  -29.500; -215.000; -117.000
236.806; -144.525;-1029.000; -999.000
236.949;   47.275;  543.000;  431.000
237.092;   48.775;  412.000;  391.000
237.236;  -85.275; -589.000; -502.000
237.379;   51.050;  352.000;  428.000
237.522; -107.400; -879.000; -768.000
237.666;  -20.750; -271.000;   18.000
237.809; -120.600; -851.000; -823.000
237.952;   26.425;  469.000;  271.000
238.095;  -71.925; -447.000; -442.000
238.238;   97.075;  688.000;  700.000
238.382;   -3.650;  166.000;  103.000
238.525;  -74.050; -598.000; -511.000
238.668; -152.450;-1060.000; -985.000
238.811;  -89.850; -638.000; -643.000
238.954;  -43.400; -483.000; -334.000
239.097;   88.225;  617.000;  664.000
239.241;   32.700;  394.000;  326.000
239.384;  -31.900; -254.000; -214.000
239.527;  -57.375; -424.000; -224.000
239.670; -154.400; -994.000;-1091.000
239.813; -107.700; -696.000; -658.000
239.956;   81.600;  579.000;  473.000
240.099; -118.625; -778.000; -725.000
240.242;   60.725;  428.000;  432.000
240.385;   49.450;  466.000;  450.000
240.528;  -71.125; -706.000; -473.000
240.671;   14.075;  189.000;  134.000
240.814;  -50.775; -441.000; -158.000
240.957; -107.400; -767.000; -578.000
241.100; -109.325; -779.000; -755.000
241.243; -132.925;-1234.000; -893.000
241.386;  -68.825; -508.000; -379.000
241.529;  -91.425; -735.000; -547.000
241.672;  -86.975; -566.000; -495.000
241.815; -119.075; -832.000; -808.000
241.958;  -33.150; -125.000; -182.000
242.101;  -85.650; -545.000; -390.000
242.244;  -44.225; -270.000; -325.000
242.387;  -46.100; -304.000; -246.000
242.530;   49.400;  470.000;  134.000
242.673;  -39.250; -381.000; -309.000
242.815; -130.500; -925.000; -899.000
242.958;  -72.800; -482.000; -381.000
243.101;    3.175;  132.000;  187.000
243.244;  -91.875; -564.000; -521.000
243.387;  -61.925; -313.000; -316.000
243.530;  -98.200; -657.000; -674.000
243.672;  -12.350;   43.000;  -92.000
243.815;  -59.650; -355.000; -283.000
243.958;  -10.725;   98.000;  -26.000
244.101;    7.925;   59.000;  -16.000
244.243;  -22.250;  -47.000;  101.000
244.386; -106.950; -761.000; -630.000
244.529;  -36.325; -132.000; -139.000
244.672; -149.850;-1154.000; -951.000
244.814; -107.450; -621.000; -794.000
244.957;  -49.900; -380.000; -304.000
245.100;  -82.975; -489.000; -489.000
245.242;  -61.525; -387.000; -374.000
245.385;   -4.600;  -59.000;  -39.000
245.528; -120.550; -871.000; -705.000
245.670;   77.700;  612.000;  634.000
245.813;  -88.375; -599.000; -547.000
245.956;  -34.800; -324.000; -275.000
246.098;  -70.150; -508.000; -650.000
246.241;    0.525;  194.000;   48.000
246.383;  -15.325; -119.000;  -73.000
246.526;  -83.825; -454.000; -525.000
246.669; -110.975; -889.000; -780.000
246.811;   10.625;  172.000;   -1.000
246.954;  -66.375; -512.000; -426.000
247.096;  -31.425;  -84.000;   -6.000
247.239;  -68.225; -482.000; -445.000
247.381;  -73.050; -647.000; -488.000
247.524;   80.275;  645.000;  679.000
247.666;   -8.200;   58.000;   11.000
247.809; -108.750; -887.000; -691.000
247.951;  -15.100;  -75.000;  138.000
248.094;   32.825;  432.000;  308.000
248.236; -163.375;-1262.000;-1238.000
248.378;   12.575; -356.000;  -81.000
248.521;  -14.700; -334.000; -337.000
248.663;  -48.225; -236.000; -267.000
248.806;  -38.075; -300.000; -266.000
248.948;  -99.625; -886.000; -763.000
249.090;  -46.700; -428.000; -398.000
249.233;  -44.350; -344.000; -381.000
249.375;  -77.450; -474.000; -451.000
249.518;  -24.975;  -83.000; -133.000
249.660;    0.375; -103.000;    3.000
249.802; -176.100;-1303.000;-1189.000
249.945;  -84.050; -612.000; -540.000
250.087; -108.150; -834.000; -768.000
250.229;  -59.100; -362.000; -480.000
250.371;  -62.850; -494.000; -439.000
250.514;  -49.425; -310.000; -244.000
250.656;  -70.650;   69.000;  102.000
250.798; -131.375; -849.000; -800.000
250.940;  -54.300; -322.000; -322.000
251.083;  -28.775; -335.000; -111.000
251.225;   59.925;  338.000;  310.000
251.367;  -47.325; -274.000; -373.000
251.509;  -34.575; -265.000; -210.000
251.651; -102.975; -731.000; -671.000
251.794;   61.400;  538.000;  632.000
251.936; -120.850; -821.000; -747.000
252.078;  -81.925; -540.000; -461.000
252.220;  -85.475; -645.000; -477.000
252.362;   91.375;  344.000;  462.000
252.504;  -71.225; -677.000; -584.000
252.646; -110.275; -875.000; -722.000
252.788;   -0.025;   14.000; -128.000
252.931;  -35.150; -257.000; -253.000
253.073;  -38.475; -376.000; -317.000
253.215;    1.225;  141.000;  122.000
253.357;   -3.900;   82.000; -153.000
253.499;  -57.850; -374.000; -234.000
253.641;  -92.725; -749.000; -594.000
253.783;  -90.750; -609.000; -527.000
253.925;  -91.025; -586.000; -591.000
254.067; -106.325; -744.000; -667.000
254.209;  -38.825; -391.000; -259.000
254.351; -134.350; -865.000; -883.000
254.493;  -61.975; -441.000; -417.000
254.635; -117.350; -936.000; -818.000
254.777; -104.350; -752.000; -687.000
254.918;  -62.475; -512.000; -430.000
255.060;  -70.075; -551.000; -395.000
255.202;  -43.200; -473.000; -261.000
255.344;  -75.425; -658.000; -455.000
255.486;  -67.625; -471.000; -406.000
255.628; -113.100; -780.000; -781.000
255.770;  -99.450; -676.000; -536.000
255.912;  -71.100; -559.000; -468.000
256.053;  -85.225; -730.000; -508.000
256.195;  160.350; 1008.000;  903.000
256.337; -107.350; -861.000; -595.000
256.479;   67.100;  532.000;  416.000
256.621;  -25.475; -394.000; -212.000
256.762; -103.400; -789.000; -742.000
256.904;   52.900;  485.000;  487.000
257.046;  -46.725; -381.000; -271.000
257.188;  -40.850; -351.000; -264.000
257.329;  -77.175; -525.000; -464.000
257.471; -116.675; -939.000; -807.000
257.613;  -72.150; -584.000; -498.000
257.755; -147.275;-1073.000; -982.000
257.896;   35.900;  286.000;  392.000
258.038;  -66.550; -403.000; -352.000
258.180;  -48.125; -354.000; -279.000
258.321;  -95.250; -581.000; -457.000
258.463;  -16.900;  -71.000;  133.000
258.605;  -72.000; -562.000; -570.000
258.746; -112.050; -886.000; -772.000
258.888; -129.575;-1026.000;-1020.000
259.029;   21.725;  121.000;   -8.000
259.171;  -88.625; -614.000; -550.000
259.313;  -16.150;  -49.000;  -47.000
259.454;  -75.550; -536.000; -414.000
259.596;  -69.225; -483.000; -390.000
259.737;  -76.575; -590.000; -474.000
259.879;   26.200;  217.000;  311.000
260.020;   92.250;  901.000;  636.000
260.162;  -22.500; -146.000; -253.000
260.303; -116.200; -768.000; -687.000
260.445;  -96.125; -609.000; -613.000
260.586;   27.100;  392.000;  157.000
260.728;  -55.000; -360.000; -248.000
260.869; -100.050; -350.000; -343.000
261.011;   79.025;  706.000;  537.000
261.152;  -62.450; -479.000; -319.000
261.293;  -87.150; -576.000; -595.000
261.435;  -28.500; -219.000; -184.000
261.576;  -69.750; -455.000; -325.000
261.718;   57.375;  420.000;  470.000
261.859; -134.000; -940.000; -949.000
262.000; -136.775; -951.000;-1016.000
262.142;  -25.025;  -52.000;  -60.000
262.283; -114.675; -808.000; -691.000
262.424; -102.725; -666.000; -625.000
262.566; -152.475;-1161.000; -983.000
262.707; -123.050; -840.000; -830.000
262.848; -130.975; -769.000; -726.000
262.990;  -59.600; -362.000; -345.000
263.131;   77.175;  650.000;  681.000
263.272;   -5.525;  -61.000;  -41.000
263.413;  -71.600; -589.000; -561.000
263.555;  -74.725; -669.000; -143.000
263.696;  -76.450; -550.000; -641.000
263.837;  -68.200; -449.000; -551.000
263.978;   15.625;   -5.000;  -77.000
264.119;  -52.475; -283.000; -264.000
264.261; -118.250; -847.000; -630.000
264.402;   -3.000;   33.000;   40.000
264.543;  -75.875; -509.000; -524.000
264.684;   -9.550;   61.000;  -50.000
264.825;  -70.575; -816.000; -538.000
264.966;   -4.900;  -84.000;  -67.000
265.107; -117.175; -646.000; -670.000
265.248; -132.350; -825.000; -812.000
265.390;   -4.675;  152.000;   -9.000
265.531;  -27.100; -238.000; -107.000
265.672;  -80.250; -557.000; -630.000
265.813;   64.275;  563.000;  439.000
265.954; -141.200; -959.000; -940.000
266.095;  -32.275; -372.000; -322.000
266.236; -109.075; -686.000; -548.000
266.377;  -42.850; -243.000; -297.000
266.518;  -67.800; -619.000; -547.000
266.659;   36.400;  170.000;  268.000
266.800;   13.425;   83.000;   85.000
266.941;  -78.100; -487.000; -478.000
267.082;   16.600;  354.000;   99.000
267.223;  -60.875; -344.000; -273.000
267.364; -124.100; -892.000; -686.000
267.504;  -17.325;    3.000;  135.000
267.645;    6.550;  160.000;   67.000
267.786;  -32.750; -147.000;  -86.000
267.927;  -69.675; -473.000; -379.000
268.068;  -28.825; -186.000;  -61.000
268.209;  -39.225; -175.000; -413.000
268.350;  -68.675; -388.000; -532.000
268.490;  -76.375; -648.000; -521.000
268.631;   22.475;  127.000;  225.000
268.772;  -95.750; -874.000; -647.000
268.913;  -61.350; -328.000; -476.000
269.054;   -4.350; -117.000;   12.000
269.194;  -54.125; -418.000; -402.000
269.335; -149.850;-1137.000;-1074.000
269.476;  -26.250;   33.000;  -35.000
269.617;  -31.675; -347.000; -392.000
269.757; -118.425; -713.000; -646.000
269.898; -104.875; -856.000; -613.000
270.039;  -74.550; -415.000; -405.000
270.180; -134.150; -952.000; -816.000
270.320;  -32.000; -190.000; -250.000
270.461;  -41.400; -277.000; -249.000
270.602;  -22.975; -186.000; -156.000
270.742; -114.775; -868.000; -943.000
270.883;  -79.150; -442.000; -390.000
271.023;  -43.250; -358.000; -357.000
271.164;  -89.525; -607.000; -528.000
271.305;  -98.475; -666.000; -654.000
271.445;  -94.350; -722.000; -683.000
271.586;  -63.600; -462.000; -283.000
271.726;  -52.650; -397.000; -322.000
271.867;  -60.525; -594.000; -534.000
272.008;  182.525; -473.000; -285.000
272.148;  158.325;  462.000;  468.000
272.289;   17.425; -113.000; -181.000
272.429;   24.300;   19.000;  185.000
272.570; -101.650; -633.000; -737.000
272.710;  -86.950; -825.000; -775.000
272.851;  -27.325;  113.000; -130.000
272.991; -163.575;-1173.000;-1077.000
273.131;  -73.775; -419.000; -459.000
273.272;  -97.825; -683.000; -723.000
273.412;    8.225; -143.000;  -31.000
273.553;  -47.450; -488.000; -507.000
273.693;  134.925;  913.000;  858.000
273.834;  -80.925; -894.000; -692.000
273.974;  -68.600; -664.000; -615.000
274.114;  -85.475; -772.000; -560.000
274.255;   88.150;  414.000;  373.000
274.395;   20.925; -180.000; -125.000
274.535;   45.100;  199.000;  350.000
274.676;   29.975;  225.000;   94.000
274.816;   -5.625;  110.000;   34.000
274.956;  -70.325; -624.000; -690.000
275.097;  -62.425;-1014.000; -922.000
275.237;  -99.125; -913.000; -803.000
275.377; -100.600; -778.000; -689.000
275.517; -141.675; -878.000; -937.000
275.658;  -59.175; -590.000; -555.000
275.798;  -52.975; -606.000; -413.000
275.938;   13.275;  215.000;  323.000
276.078;  -80.525; -626.000; -395.000
276.218;    6.175;   99.000;  104.000
276.359; -125.050;-1026.000;-1024.000
276.499;  -68.550; -605.000; -446.000
276.639;  -41.225; -305.000; -151.000
276.779;  -51.700; -475.000; -357.000
276.919; -103.900; -783.000; -624.000
277.059;  -31.850; -261.000; -212.000
277.199;  -36.900; -357.000; -259.000
277.340;   54.725;  287.000;  175.000
277.480; -106.075; -840.000; -693.000
277.620;   20.375;  192.000;   16.000
277.760; -191.075;-1533.000;-1294.000
277.900;   12.250;  113.000;   33.000
278.040;   36.175;  137.000;  159.000
278.180;   47.200;  270.000;  170.000
278.320;   10.550;   21.000;   56.000
278.460;  -79.425; -443.000; -469.000
278.600; -103.950; -708.000; -598.000
278.740;   60.600;  448.000;  224.000
278.880;  -15.175; -768.000; -791.000
279.020;    8.600; -194.000; -144.000
279.160;  -88.300; -672.000; -595.000
279.300; -113.600; -926.000; -873.000
279.440;  -77.575; -709.000; -622.000
279.579;  -22.975;-1014.000; -929.000
279.719;  -41.750; -410.000; -394.000
279.859;   66.200;   -4.000;   41.000
279.999;   46.400; -208.000;  101.000
280.139;  -11.925; -435.000; -387.000
280.279;  -60.850; -708.000; -745.000
280.419;  -20.275; -229.000; -147.000
280.559;  -24.975; -259.000; -180.000
280.698;  -83.725; -790.000; -639.000
280.838;  -78.700; -778.000; -800.000
280.978;  -96.225; -846.000; -790.000
281.118; -110.900; -811.000; -704.000
281.257;    2.225;   24.000;    6.000
281.397;  -91.750;-1094.000; -960.000
281.537;  -78.650; -599.000; -712.000
281.677;   -8.550; -150.000; -101.000
281.816;  -94.000; -700.000; -630.000
281.956;  -20.150; -193.000; -257.000
282.096;  -58.900; -539.000; -396.000
282.235; -101.850; -672.000; -638.000
282.375;  -22.125; -243.000;  -98.000
282.515;  -90.475; -715.000; -707.000
282.654;   38.775;   29.000;  106.000
282.794;   32.150;  388.000;  244.000
282.934;  -57.775; -530.000; -491.000
283.073; -116.325;-1030.000; -857.000
283.213;  -57.125; -460.000; -467.000
283.353;  -18.700; -408.000; -349.000
283.492;  -24.625; -264.000; -296.000
283.632;  -28.900; -254.000; -168.000
283.771;  -98.625; -859.000; -730.000
283.911;  -51.875; -369.000; -260.000
284.050; -114.150; -794.000; -748.000
284.190; -144.775;-1229.000;-1096.000
284.329; -144.225;-1055.000; -964.000
284.469;  -31.375; -516.000; -591.000
284.608;  -52.150; -559.000; -598.000
284.748;  -82.825; -614.000; -570.000
284.887;   -6.700;  -87.000;  -20.000
285.027; -117.200; -844.000; -892.000
285.166;  -26.250; -192.000; -249.000
285.306;   20.100; -116.000;  -33.000
285.445;  -40.325; -229.000; -343.000
285.584;  -89.875; -630.000; -494.000
285.724;  -35.675; -282.000; -322.000
285.863; -111.175; -857.000; -507.000
286.002;  -50.200; -366.000; -276.000
286.142; -107.200; -715.000; -622.000
286.281;  -84.375; -525.000; -493.000
286.420;  -64.525; -554.000; -417.000
286.560;   97.450;  653.000;  623.000
286.699; -117.825; -958.000; -912.000
286.838;  -75.425; -590.000; -591.000
286.978;  -76.700; -533.000; -537.000
287.117; -147.500;-1085.000; -950.000
287.256;  -23.550; -228.000; -211.000
287.395;  -51.650; -197.000; -378.000
287.535;  -47.825; -370.000; -298.000
287.674;  -73.925; -509.000; -484.000
287.813;   76.100;  661.000;  533.000
287.952; -128.925;-1010.000; -871.000
288.091; -140.850;-1049.000; -915.000
288.231;   11.575;   13.000;   15.000
288.370; -169.050;-1217.000;-1200.000
288.509;  -91.725; -728.000; -645.000
288.648;  -74.475; -770.000; -548.000
288.787;  -25.925; -243.000;  -87.000
288.926;  -48.200; -454.000; -475.000
289.065;  119.625;  859.000;  672.000
289.204;  -36.125; -377.000; -217.000
289.344; -102.500; -791.000; -690.000
289.483;   48.525;  416.000;  304.000
289.622;  -29.700; -291.000; -149.000
289.761;  -15.900; -309.000; -166.000
289.900; -123.250; -785.000; -626.000
290.039;   -2.250;  -12.000;  -95.000
290.178;  -34.525; -274.000; -180.000
290.317;  -74.425; -618.000; -479.000
290.456;  -68.600; -463.000; -451.000
290.595; -131.825; -961.000; -833.000
290.734; -138.975; -904.000; -891.000
290.873;  -53.900; -456.000; -420.000
291.011; -116.250; -833.000; -843.000
291.150;  -94.475; -770.000; -682.000
291.289;  -15.575; -343.000; -110.000
291.428;  -85.575; -599.000; -480.000
291.567;  -64.775; -370.000; -442.000
291.706;   -8.150;  109.000;  154.000
291.845; -107.625; -597.000; -505.000
291.984; -150.825;-1234.000;-1061.000
292.122;   71.600;  602.000;  582.000
292.261;   53.400;  620.000;  463.000
292.400;    5.550; -144.000;  211.000
292.539; -109.100; -959.000; -813.000
292.678;  -38.225; -325.000; -300.000
292.816; -157.750;-1136.000; -965.000
292.955;  -89.175; -844.000; -684.000
293.094;    0.900; -173.000; -337.000
293.233;  -55.775; -556.000; -400.000
293.371;  -38.375; -225.000;  -84.000
293.510;  -93.000; -866.000; -780.000
293.649; -121.050; -959.000; -924.000
293.787;  -43.400;-1083.000;-1012.000
293.926;   15.850; -113.000;  -32.000
294.065;  -37.875; -379.000; -290.000
294.203;   65.450;  298.000;  406.000
294.342;   41.375;   74.000;  156.000
294.481; 6154.525;51180.000; -836.000
294.619;  -24.700; -425.000; -582.000
294.758; -136.375;-1230.000;-1137.000
294.896;   95.200; -125.000;    5.000
295.035; -101.550;-1040.000;-1006.000
295.174; -120.900;-1082.000; -954.000
295.312;  -34.975; -323.000; -203.000
295.451;   23.025; -307.000; -428.000
295.589;  -33.750; -389.000; -518.000
295.728;   26.525; -292.000; -165.000
295.866;   29.250;  -36.000;  -51.000
296.005;  -58.925; -584.000; -341.000
296.143;  -56.025; -558.000; -596.000
296.282; -107.875; -957.000; -881.000
296.420;  -77.750; -657.000; -557.000
296.559;  -81.050; -892.000; -633.000
296.697;   70.925; -847.000; -665.000
296.835;  121.325;-1141.000;-1002.000
296.974;   76.600;  -23.000;   39.000
297.112;   28.325; -443.000; -504.000
297.251;  -59.450; -815.000; -755.000
297.389;  140.625; -576.000; -438.000
297.527;   61.400; -145.000;  -83.000
297.666;  -48.800; -486.000; -438.000
297.804;  -43.650; -404.000; -264.000
297.942;  -12.225; -136.000; -161.000
298.081;   13.350; -183.000;   63.000
298.219;   77.325;  -17.000;  -19.000
298.357;   97.175; -144.000;  -71.000
298.495;   64.225; -810.000; -812.000
298.634;  108.800;  245.000;  219.000
298.772;  108.050; -220.000; -338.000
298.910;  -16.175; -309.000; -182.000
299.048;   -1.925; -130.000; -153.000
299.187;  -16.650; -350.000; -250.000
299.325;   27.425;   52.000;  122.000
299.463;  103.575; -389.000; -299.000
299.601;  150.425; -327.000; -271.000
299.739;  -90.900; -908.000; -883.000
299.877;  -72.275; -791.000; -703.000
300.016;  -28.800;-1095.000; -935.000
300.154;  210.700;  -19.000; -161.000
300.292;  105.275; -428.000; -348.000
300.430;   48.875; -408.000; -291.000
300.568;  -92.475; -940.000; -874.000
300.706;  -38.200; -366.000; -469.000
300.844;  -55.325;-1108.000; -979.000
300.982;  143.275;  246.000;  282.000
301.120;  -98.600; -965.000; -866.000
301.258;  -59.975; -812.000; -705.000
301.396;   53.350;  104.000;  -41.000
301.534;  129.675; -218.000; -293.000
301.672;   40.175; -664.000; -521.000
301.810;   71.475; -613.000; -545.000
301.948;  171.050;   53.000;  149.000
302.086;  744.175; -250.000;  -32.000
302.224; 1222.400; -610.000; -585.000
302.362;   82.350; -558.000; -622.000
302.500;   25.300; -923.000; -893.000
302.638;  138.725;  128.000;  245.000
302.776;    1.175; -352.000; -408.000
302.913;   44.600;  447.000;  236.000
303.051;   22.575;  -86.000;  -23.000
303.189;   82.950;   90.000;  118.000
303.327;  -24.500; -341.000; -256.000
303.465;  -87.025; -832.000; -588.000
303.603;  -77.375; -805.000; -604.000
303.740;  107.175;  417.000;  241.000
303.878;   71.800; -800.000; -759.000
304.016; -101.800; -915.000; -790.000
304.154; -114.300;-1123.000;-1152.000
304.291;  -22.850; -505.000; -554.000
304.429;    8.825;  102.000;   74.000
304.567; -125.975; -908.000; -893.000
304.705;  -40.150; -408.000; -515.000
304.842;  149.325; -616.000; -540.000
304.980;   97.075;  215.000;   35.000
305.118;   77.450; -367.000; -365.000
305.255;  -41.225; -945.000; -927.000
305.393;   66.950;  178.000;  239.000
305.531;  -87.375;-1173.000; -956.000
305.668;  -60.125; -663.000; -582.000
305.806;  124.775; -358.000; -439.000
305.943;  135.850; -629.000; -637.000
306.081;   97.200; -378.000; -267.000
306.219;  -95.375; -863.000; -748.000
306.356;    8.200;  158.000;   27.000
306.494;  120.600;  981.000;  761.000
306.631;    3.675;  -11.000;  -55.000
306.769;   17.025; -613.000; -485.000
306.906;  -11.375; -284.000; -258.000
307.044;  -57.825; -473.000; -488.000
307.181;  -48.575; -410.000; -332.000
307.319;   16.950;  112.000;   87.000
307.456; -157.625;-1191.000;-1153.000
307.594;  -98.025; -980.000; -727.000
307.731;    0.800; -371.000; -164.000
307.868;   -1.350;  -15.000;   20.000
308.006; -127.350; -961.000; -847.000
308.143;  -54.950; -618.000; -330.000
308.281;  171.700;  -37.000; -254.000
308.418;  -12.425; -748.000; -640.000
308.555;  -64.725; -400.000; -250.000
308.693;  -74.350; -577.000; -573.000
308.830; -102.125; -712.000; -657.000
308.967;  -20.025; -215.000;  -95.000
309.105;  -42.075; -507.000; -396.000
309.242;   32.650; -468.000; -367.000
309.379;  274.350; -577.000; -655.000
309.517;  -54.500; -936.000; -948.000
309.654;  -92.250; -910.000; -734.000
309.791;  -64.525; -662.000; -580.000
309.928;  -92.325; -977.000; -914.000
310.065;  193.250;  819.000;  697.000
310.203;   44.800; -825.000; -850.000
310.340;   12.475; -465.000; -321.000
310.477;  -63.900; -412.000; -516.000
310.614;  -60.300; -383.000; -473.000
310.751;  -65.950; -427.000; -518.000
310.889;  -14.575;    1.000;   11.000
311.026; -156.075;-1161.000; -939.000
311.163;  -51.300; -386.000; -380.000
311.300;  -54.200; -512.000; -479.000
311.437;  -73.975; -658.000; -619.000
311.574; -139.225;-1226.000; -985.000
311.711;  -56.000; -595.000; -433.000
311.848;  -16.400; -380.000; -388.000
311.985;   13.850;  270.000;   93.000
312.122; -107.075; -932.000; -762.000
312.259; -120.325; -941.000; -994.000
312.396;  -76.825; -508.000; -551.000
312.533; -109.725; -812.000; -790.000
312.670; -118.300;-1070.000; -898.000
312.807;  -33.575; -352.000; -367.000
312.944;  -68.225; -513.000; -611.000
313.081;  -32.600; -150.000; -415.000
313.218;  -85.825;-1111.000; -867.000
313.355;    9.100; -531.000; -449.000
313.492;   22.500; -455.000; -292.000
313.629;  156.950;  815.000;  735.000
313.766; -136.825;-1176.000;-1008.000
313.902;   -7.575; -186.000;   21.000
314.039;  -40.075; -372.000; -289.000
314.176;   38.150;  286.000;  192.000
314.313;  -57.975; -569.000; -473.000
314.450;  -76.100; -788.000; -684.000
314.587;  -46.775; -468.000; -480.000
314.723;    9.250;  -78.000;  130.000
314.860;   51.275;  318.000;  332.000
314.997;   44.975;  223.000;  142.000
315.134;  -26.975; -385.000; -368.000
315.270;  -36.425; -480.000; -496.000
315.407; -104.925;-1094.000; -967.000
315.544;  -44.500; -657.000; -538.000
315.681;  -47.675; -681.000; -565.000
315.817;   34.300; -133.000; -176.000
315.954;   35.350; -613.000; -392.000
316.091; -110.450;-1045.000;-1023.000
316.227;  -13.950;  -71.000; -179.000
316.364;    4.475;   23.000;    6.000
316.500;  -33.250; -113.000; -300.000
316.637;  -42.275; -181.000; -302.000
316.774;  -77.925; -625.000; -358.000
316.910;  -97.925; -598.000; -629.000
317.047;  -57.475; -487.000; -351.000
317.183;  -51.175; -435.000; -566.000
317.320;    1.050; -367.000; -321.000
317.456;  -78.225; -733.000; -805.000
317.593;  -78.475; -598.000; -641.000
317.729;   11.375;  168.000;  -67.000
317.866; -189.875;-1434.000;-1285.000
318.002;  -87.700; -708.000; -948.000
318.139;  -81.525; -883.000; -867.000
318.275; -107.000;-1003.000; -738.000
318.412;  -48.500; -517.000; -336.000
318.548;  -17.225; -751.000; -720.000
318.685;  -80.800; -985.000; -888.000
318.821; -102.525; -762.000; -735.000
318.957;    8.500;   34.000;  -23.000
319.094;   33.375;  297.000;  154.000
319.230;  -41.100; -756.000; -742.000
319.367;  169.975; -471.000; -520.000
319.503;   89.650; -538.000; -436.000
319.639;  -94.925; -877.000; -793.000
319.775;  -52.400; -750.000; -685.000
319.912;  -42.975; -424.000; -519.000
320.048;  -78.850;-1184.000;-1184.000
320.184;   86.800;   59.000;   70.000
320.321;  -66.925; -497.000; -467.000
320.457;   71.400;  475.000;  662.000
320.593;  -52.700; -375.000; -382.000
320.729; -108.175; -732.000; -734.000
320.866;  -67.450; -577.000; -635.000
321.002;  -76.525; -759.000; -809.000
321.138;    0.300; -135.000; -211.000
321.274;   72.825; -148.000; -115.000
321.410;   -1.750; -585.000; -353.000
321.546;   -8.350;-1011.000; -911.000
321.683;   63.400;  400.000;  185.000
321.819;   13.325;  -48.000; -117.000
321.955; -100.675; -743.000; -722.000
322.091;  -44.325; -585.000; -540.000
322.227;   -5.625; -382.000; -202.000
322.363;   -8.025; -320.000; -215.000
322.499;  -34.925; -343.000; -331.000
322.635;  202.275;  636.000;  443.000
322.771;   56.575; -139.000;   12.000
322.907;  100.175;  129.000;  327.000
323.043;    6.975; -115.000; -206.000
323.179;  -32.000; -394.000; -363.000
323.315;   87.550; -401.000; -371.000
323.451;  157.900; -328.000; -236.000
323.587;   79.000;  -60.000;  -77.000
323.723;   48.300; -682.000; -601.000
323.859;    0.200; -258.000;  -76.000
323.995;  -16.425; -467.000; -409.000
324.131; -123.375; -967.000; -892.000
324.267;  -43.325; -254.000; -276.000
324.402; -132.775; -960.000; -983.000
324.538;  -12.550; -279.000; -104.000
324.674;   47.425;  164.000;   77.000
324.810;  177.125;  226.000;  308.000
324.946;   40.975; -810.000; -658.000
325.082;  -77.975; -568.000; -475.000
325.217;   -3.600;  -62.000;   16.000
325.353;  -96.300; -764.000; -659.000
325.489;  -78.900; -540.000; -506.000
325.625;  -77.150; -579.000; -525.000
325.760;   51.550;  517.000;  376.000
325.896;  -31.600; -515.000; -702.000
326.032;  -45.700; -403.000; -352.000
326.168;  -57.225; -462.000; -369.000
326.303;  -59.125; -352.000; -461.000
326.439;  -20.475; -336.000; -276.000
326.575;   30.650; -190.000;  -29.000
326.710;   -1.250; -156.000;  -30.000
326.846;    4.650;  146.000;  103.000
326.982;  -91.625; -530.000; -548.000
327.117;  -70.225; -481.000; -442.000
327.253; -102.025; -745.000; -742.000
327.388; -124.800;-1137.000;-1153.000
327.524;  -32.225; -811.000; -578.000
327.659;  -12.200;  -58.000;  -22.000
327.795;  -25.700;   69.000;   45.000
327.931;  -81.275; -723.000; -499.000
328.066;  -17.100; -417.000; -276.000
328.202;   14.475;   12.000; -129.000
328.337;   99.025;  957.000;  713.000
328.473;   51.675;  -12.000;  -74.000
328.608;  -16.000; -256.000; -267.000
328.743;  -73.200; -799.000; -664.000
328.879;   17.950;  214.000;  114.000
329.014;  -23.850; -102.000; -122.000
329.150;  -95.925; -358.000; -483.000
329.285;  -58.625; -465.000; -466.000
329.421;  -46.525; -548.000; -246.000
329.556;  -22.225;  -36.000;   85.000
329.691;  -92.475; -633.000; -615.000
329.827;  -74.175; -626.000; -480.000
329.962;  -45.225;  131.000; -301.000
330.097;  -80.475; -673.000; -585.000
330.233;  -46.925; -410.000; -223.000
330.368; -123.175; -839.000; -628.000
330.503;  -10.950;    3.000;   98.000
330.638;   13.675;  -93.000; -125.000
330.774;  -27.500; -609.000; -530.000
330.909;  -34.450; -434.000; -244.000
331.044;  -95.050; -714.000; -708.000
331.179; -162.725;-1217.000;-1109.000
331.315;    6.000;   77.000;   20.000
331.450;   16.075;  157.000;  285.000
331.585;  -92.925; -805.000; -706.000
331.720;  -80.225; -510.000; -460.000
331.855;   -6.875;  -35.000; -102.000
331.990;  185.450;   62.000;  138.000
332.126;   76.075; -110.000;   71.000
332.261;  -19.925; -379.000; -265.000
332.396;  -14.625; -135.000; -242.000
332.531; -112.950;-1074.000;-1031.000
332.666;   -3.900; -519.000; -363.000
332.801;  -93.000; -726.000; -807.000
332.936;  -25.650; -192.000; -122.000
333.071; -141.850; -870.000; -817.000
333.206;   36.750;  307.000;  379.000
333.341;   52.300;  344.000;  418.000
333.476;  -94.575; -627.000; -623.000
333.611;  -17.950; -251.000; -173.000
333.746;  -50.675; -381.000; -464.000
333.881;  -93.850; -973.000; -935.000
334.016; -126.375; -936.000; -917.000
334.151;  -99.875; -746.000; -702.000
334.286;   38.100;  152.000;  186.000
334.421;    2.325; -125.000; -178.000
334.556;  -64.650; -611.000; -567.000
334.690;  -67.775; -631.000; -577.000
334.825;   75.900;  381.000;   83.000
334.960;  -40.475; -285.000; -413.000
335.095;   17.950;  135.000;  -91.000
335.230;  -79.200; -722.000; -738.000
335.365; -131.725;-1084.000; -990.000
335.499; -112.425;-1108.000;-1037.000
335.634;   30.825;    9.000;  534.000
335.769;  -78.675; -755.000; -720.000
335.904;  -39.150; -603.000; -561.000
336.038;  -29.050; -735.000; -657.000
336.173;  -96.750;-1206.000;-1194.000
336.308;   37.750; -116.000; -189.000
336.443;   24.925; -544.000; -634.000
336.577;  -43.000; -936.000; -787.000
336.712;  100.175;   -4.000;  -12.000
336.847;   13.375; -724.000; -607.000
336.981;  128.425; -272.000; -208.000
337.116;  379.150;  615.000;  501.000
337.250;  210.300; -434.000; -421.000
337.385;  192.400; -297.000; -208.000
337.520;   25.925; -632.000; -603.000
337.654;  -30.025; -215.000; -126.000
337.789; -138.525; -989.000; -933.000
337.923;  -18.225; -104.000; -205.000
338.058;  -69.675; -673.000; -738.000
338.192;   -8.950; -611.000; -488.000
338.327;    7.850;  -18.000; -155.000
338.461;  -53.975; -299.000; -469.000
338.596;  -93.675; -780.000; -638.000
338.730;  -84.100; -767.000; -803.000
338.865;   63.275;  -46.000; -140.000
338.999;  -62.325; -846.000; -702.000
339.134;  -28.425; -634.000; -536.000
339.268;   16.400; -741.000; -603.000
339.403;  284.925; -740.000; -775.000
339.537;   54.150; -894.000; -820.000
339.671; -130.175; -829.000; -813.000
339.806;  -78.100; -556.000; -512.000
339.940;   14.975; -261.000; -235.000
340.074;  -79.425; -685.000; -510.000
340.209;  -43.575; -351.000; -230.000
340.343;  -72.075; -517.000; -573.000
340.477;  151.675;  998.000; 1036.000
340.612;  -62.675;-1033.000; -900.000
340.746;   91.875; -199.000; -243.000
340.880;  -41.950; -924.000; -785.000
341.014;  -17.700;  -45.000; -154.000
341.149; -101.025; -756.000; -718.000
341.283; -105.425; -839.000; -754.000
341.417;  -63.050;-1124.000; -938.000
341.551;  232.575; -768.000; -708.000
341.685;   -5.300; -633.000; -611.000
341.820;  -57.350; -562.000; -493.000
341.954;  -39.250; -218.000; -349.000
342.088; -152.375;-1102.000;-1019.000
342.222;   76.575;  565.000;  618.000
342.356;  -48.900; -395.000; -335.000
342.490;  -70.675; -880.000; -841.000
342.624;  -38.025; -339.000; -242.000
342.758;   36.325; -364.000; -312.000
342.892;  -47.425; -710.000; -585.000
343.026;  -36.300;  -58.000; -116.000
343.160;  -56.975; -426.000; -376.000
343.294;  -63.400; -474.000; -337.000
343.428;   10.250; -488.000; -448.000
343.562;   -4.350; -172.000;  -23.000
343.696;  -12.500; -385.000; -314.000
343.830;    8.875; -362.000; -356.000
343.964;   34.525; -231.000; -168.000
344.098; 1210.700;  199.000;   70.000
344.232; 1003.525; -266.000; -127.000
344.366;  103.100; -567.000; -453.000
344.500;  103.200; -665.000; -744.000
344.634;   63.525; -324.000; -164.000
344.768;   -1.600; -531.000; -341.000
344.902;   34.775;  278.000;  256.000
345.035;  -67.775; -556.000; -496.000
345.169; -118.325; -933.000; -656.000
345.303;   -9.850; -308.000; -482.000
345.437;  -53.900; -826.000; -717.000
345.571;  -85.450; -675.000; -594.000
345.704;  -48.375; -309.000; -532.000
345.838;  -13.200; -331.000; -284.000
345.972;  -12.425; -543.000; -495.000
346.106;  127.000; -179.000; -190.000
346.239;  442.075; -312.000; -243.000
346.373;   32.050; -343.000; -302.000
346.507; -139.025; -950.000; -962.000
346.640;  198.900;  -30.000;   13.000
346.774;  -17.225; -650.000; -797.000
346.908;    2.225; -138.000;  -11.000
347.041;  -87.900; -646.000; -593.000
347.175;    2.400;  259.000;   27.000
347.309;  -44.625; -698.000; -628.000
347.442;  -87.900; -883.000; -732.000
347.576;  368.200;  670.000;  668.000
347.709;  275.350; -123.000;  -52.000
347.843;  -62.175; -933.000; -825.000
347.976;   32.850;  235.000;  294.000
348.110; -170.125;-1268.000;-1186.000
348.243; -104.825; -679.000; -772.000
348.377;   15.325;  -26.000;   60.000
348.510;   59.575;  403.000;  540.000
348.644;  -25.825;  -37.000; -159.000
348.777;   -1.650;  180.000;  191.000
348.911;  -36.425; -142.000; -112.000
349.044;  200.225;  471.000;  448.000
349.178;  261.575;-1069.000;-1006.000
349.311;  122.075;  141.000;  255.000
349.444;  -25.575; -927.000; -813.000
349.578;   -5.375; -347.000; -200.000
349.711;  -67.775; -959.000; -862.000
349.845;   17.650; -661.000; -591.000
349.978; -132.350;-1224.000;-1137.000
350.111;  -92.575; -546.000; -612.000
350.244;  -60.450; -596.000; -700.000
350.378;   13.350; -392.000; -393.000
350.511;  -53.850; -393.000; -426.000
350.644; -106.825; -808.000; -806.000
350.778;   20.125;  168.000;  104.000
350.911;    4.950;  134.000;  140.000
351.044;  -81.525; -685.000; -615.000
351.177;   -8.150; -321.000; -281.000
351.310;    1.925;    3.000; -131.000
351.444;  -60.600; -888.000; -788.000
351.577;  171.150;  140.000;   90.000
351.710;  105.525;  593.000;  417.000
351.843;  -18.850; -165.000;  -77.000
351.976;    5.250;  149.000;  -79.000
352.109;  -72.975; -621.000; -612.000
352.242;  -11.600; -464.000; -419.000
352.376;  -22.200; -580.000; -636.000
352.509;  281.900; -437.000; -356.000
352.642;   80.050; -654.000; -604.000
352.775;   88.975; -141.000;  -98.000
352.908;  -95.525; -933.000; -904.000
353.041;  -89.150; -814.000; -824.000
353.174;  -35.100; -551.000; -424.000
353.307;  -89.000; -753.000; -764.000
353.440;   88.275;  541.000;  453.000
353.573; -111.825; -957.000;-1008.000
353.706;  -44.625; -384.000; -558.000
353.839;  -14.600; -264.000; -220.000
353.971;  -76.550; -657.000; -512.000
354.104;  -75.975; -896.000; -835.000
354.237;  -14.825; -627.000; -662.000
354.370;  -85.575; -846.000; -879.000
354.503; -174.200;-1231.000;-1308.000
354.636;  -34.650; -529.000; -348.000
354.769; -117.500; -937.000; -860.000
354.902;    4.950; -230.000; -139.000
355.034;   -7.800; -164.000; -220.000
355.167;  -14.350; -262.000; -162.000
355.300;  -93.300;-1061.000; -880.000
355.433;  809.025;  -71.000;  -14.000
355.565; 1236.750; -402.000; -384.000
355.698;  309.925; -356.000; -296.000
355.831;   26.175; -882.000; -801.000
355.964;  111.450; -285.000; -170.000
356.096;  -54.875; -856.000; -843.000
356.229;   33.475; -523.000; -530.000
356.362;  274.075; -373.000; -266.000
356.494;  488.625; -229.000; -162.000
356.627;  567.475;  269.000;  377.000
356.760;  585.325;  120.000;   53.000
356.892;  753.425; -286.000; -601.000
357.025;  818.400;  403.000;  389.000
357.157;  815.225; -167.000; -179.000
357.290;  484.875; -856.000; -713.000
357.423;  164.775; -667.000; -556.000
357.555;  143.375; -217.000; -228.000
357.688;  171.575; -483.000; -364.000
357.820;  546.600; -870.000; -877.000
357.953; 4377.300; -563.000; -589.000
358.085; 1037.150; -632.000; -612.000
358.218; 1745.700;-1131.000; -932.000
358.350;  318.675;  -58.000;  312.000
358.483;  -89.650;-1300.000;-1187.000
358.615;   48.725;-1182.000;-1078.000
358.747;    2.250;-1187.000;-1058.000
358.880;   76.100; -810.000; -744.000
359.012;   21.500; -376.000; -202.000
359.145;  -35.000; -480.000; -511.000
359.277;  110.375; -962.000; -913.000
359.409; 3652.900;  536.000;  231.000
359.542; 1001.350; -738.000; -688.000
359.674;   90.100;   46.000;   13.000
359.806;  -39.450; -565.000; -438.000
359.939;  -50.425; -617.000; -516.000
360.071;  -30.950; -583.000; -579.000
360.203;  -22.050; -411.000; -364.000
360.335;   61.825;  164.000;  -16.000
360.468;  222.950; -249.000; -307.000
360.600; 2854.100; -547.000; -454.000
360.732; 2274.175; -546.000; -423.000
360.864;  316.925;-1216.000;-1044.000
360.996;  418.025; -516.000; -554.000
361.129;   98.750; -389.000; -598.000
361.261;   44.375;  110.000; -113.000
361.393;  -25.800; -252.000; -214.000
361.525;   36.275;   94.000;  244.000
361.657;  -11.125; -821.000; -703.000
361.789;   22.900; -139.000; -155.000
361.921;  356.925; -642.000; -593.000
362.053;  341.800;  524.000;  541.000
362.185;   68.025;  288.000;   72.000
362.318;  -53.700; -709.000; -705.000
362.450;  179.250;  294.000;  444.000
362.582;  291.825; -913.000; -870.000
362.714;    3.350; -353.000; -332.000
362.846;  -91.775; -606.000; -490.000
362.978; -120.950; -941.000; -811.000
363.109;   83.850; -161.000; -260.000
363.241;  601.000; -739.000; -749.000
363.373;  361.650; -649.000; -564.000
363.505;  535.850; -186.000;  -91.000
363.637;  109.150; -787.000; -601.000
363.769;  -95.275;-1067.000;-1080.000
363.901;  -62.475; -596.000; -654.000
364.033;  -98.975;-1103.000;-1062.000
364.165;    3.250; -283.000; -283.000
364.296;   76.775; -316.000; -177.000
364.428;   29.775;-1344.000;-1220.000
364.560;  -65.750; -679.000; -661.000
364.692;  -48.300; -738.000; -835.000
364.824;  426.450; -588.000; -456.000
364.955;  429.075; -402.000; -564.000
365.087;  631.825;-1097.000; -852.000
365.219;  -12.675; -686.000; -816.000
365.351;  -54.900; -526.000; -572.000
365.482;   52.150;  300.000;  240.000
365.614;  -35.600; -402.000; -314.000
365.746;  -83.725; -729.000; -752.000
365.877;  -91.225; -706.000; -672.000
366.009;  190.050;  -35.000;  -62.000
366.141; -108.625;-1249.000;-1134.000
366.272; -114.950; -803.000; -719.000
366.404; -103.100;-1005.000; -874.000
366.535;  -13.000; -139.000;  -12.000
366.667;  -86.725; -644.000; -649.000
366.799;   60.825;  353.000;  203.000
366.930;  -99.925; -862.000; -996.000
367.062;  134.125; -639.000; -613.000
367.193;   80.500; -872.000; -842.000
367.325;  -65.750; -580.000; -684.000
367.456;  139.350; -246.000;   31.000
367.588;  115.425; -371.000; -318.000
367.719;   28.975;  -44.000;  -45.000
367.851;   -3.725; -222.000; -241.000
367.982;  -10.575; -875.000; -732.000
368.113;  156.775; -475.000; -358.000
368.245;  -93.975; -960.000; -841.000
368.376;   -5.275; -254.000; -302.000
368.508;   -6.775; -188.000; -263.000
368.639; -123.875;-1166.000;-1034.000
368.770;   13.125; -670.000; -589.000
368.902;  -37.850; -836.000; -926.000
369.033;  -85.450; -906.000; -855.000
369.164;  -47.025; -720.000; -653.000
369.296; -101.650; -452.000; -601.000
369.427;   24.075; -209.000; -144.000
369.558;  -17.525; -593.000; -377.000
369.689;  -90.825; -721.000; -569.000
369.821; -108.375; -951.000; -845.000
369.952;  -21.850;   42.000; -108.000
370.083;  -39.125; -229.000; -108.000
370.214;  -74.475; -735.000; -650.000
370.345;   13.725;   65.000;   81.000
370.477;  -68.825; -810.000; -790.000
370.608;  341.775; -328.000; -264.000
370.739;  -12.625;-1233.000;-1292.000
370.870;    3.050;-1102.000; -923.000
371.001;  130.650; -378.000; -467.000
371.132;  -53.400; -754.000; -735.000
371.263;  -16.500;  -42.000; -148.000
371.394; -108.100; -841.000; -748.000
371.525;   46.700;  345.000;  225.000
371.657;  -62.050; -808.000; -670.000
371.788;   87.225;  103.000;  199.000
371.919;  257.125; -384.000; -304.000
372.050; 4650.500;  -91.000; -156.000
372.181; 1388.950; -188.000; -294.000
372.311;  510.675;   42.000; -127.000
372.442;   82.600; -457.000; -451.000
372.573;   -1.925; -444.000; -340.000
372.704;  -99.350;-1008.000; -980.000
372.835;  118.675; -228.000; -289.000
372.966;  -43.800; -646.000; -554.000
373.097;  -57.150; -575.000; -711.000
373.228;  -13.675; -717.000; -542.000
373.359;  222.450; -824.000; -536.000
373.490; 1303.600; -881.000; -727.000
373.620; 1588.800;-1001.000; -803.000
373.751; 2427.675; -332.000; -396.000
373.882; 1075.175; -663.000; -733.000
374.013;  133.775; -449.000; -262.000
374.143;  -10.500; -581.000; -659.000
374.274;  -73.800; -987.000; -908.000
374.405;  234.950; -388.000; -276.000
374.536;  637.800; -526.000; -387.000
374.666; 1572.625; -759.000; -807.000
374.797;  358.675; -817.000; -868.000
374.928; 1224.350; -710.000; -560.000
375.058; 1217.375; -535.000; -500.000
375.189;  112.200;  -59.000;  -93.000
375.320;  -84.650; -928.000;-1034.000
375.450;  -24.275; -625.000; -616.000
375.581;  -33.075; -526.000; -436.000
375.712;  -40.175; -574.000; -250.000
375.842;  455.275; -438.000; -415.000
375.973;  329.600; -554.000; -513.000
376.103;   12.000; -665.000; -648.000
376.234;  -79.200; -531.000; -552.000
376.364;    0.000; -944.000; -867.000
376.495;  403.925;  925.000;  529.000
376.625;   44.675; -472.000; -485.000
376.756;  122.025; -709.000; -678.000
376.886;  -31.425;-1178.000;-1026.000
377.017;   14.125;-1048.000;-1061.000
377.147;  249.125; -786.000; -782.000
377.278;   48.075;  174.000;  228.000
377.408; -111.350; -801.000; -815.000
377.538; -108.175; -707.000; -693.000
377.669;  -65.125; -537.000; -613.000
377.799;  -72.500; -645.000; -635.000
377.929;  -23.150; -610.000; -428.000
378.060; -137.525; -781.000; -847.000
378.190;  -45.050; -726.000; -531.000
378.320;  -42.950; -401.000; -406.000
378.451;   19.875; -131.000;  -22.000
378.581;   12.425;  -67.000; -110.000
378.711;  192.500; 1035.000;  866.000
378.841;   -4.525; -533.000; -675.000
378.972;  -38.475; -871.000; -751.000
379.102;   21.425; -652.000; -579.000
379.232;    7.950; -126.000;  -73.000
379.362;  -76.875;-1001.000; -885.000
379.492;   55.125; -373.000; -424.000
379.623;  153.125;    0.000;  111.000
379.753;  -61.900;-1107.000; -974.000
379.883;  264.600;   59.000;  156.000
380.013;   63.700;-1081.000;-1017.000
380.143;  -85.200;-1097.000;-1056.000
380.273;  -80.675; -985.000; -861.000
380.403;   18.950; -344.000; -257.000
380.533;    2.800; -651.000; -664.000
380.663;  107.350;  173.000;  128.000
380.793;  -62.275;-1027.000;-1074.000
380.923;  -23.150; -103.000;  -34.000
381.053;  -83.450; -613.000; -623.000
381.183;  -24.000; -106.000; -248.000
381.313;   73.150; -656.000; -470.000
381.443;   73.075; -692.000; -473.000
381.573;  325.650; -402.000; -409.000
381.703;  464.500;-1249.000;-1095.000
381.833; -101.200;-1454.000;-1336.000
381.963;  147.825; -134.000;  -87.000
382.093; 1762.625; -925.000; -909.000
382.223;  565.850; -713.000; -602.000
382.353;   22.500; -801.000; -608.000
382.482;  562.925;-1091.000; -964.000
382.612; 1000.075; -872.000; -644.000
382.742;  558.825; -695.000; -622.000
382.872;  406.275; -565.000; -551.000
383.002;   91.900;  347.000; -132.000
383.131;   14.325; -226.000; -160.000
383.261;  -37.450; -706.000; -768.000
383.391;  292.100; -552.000; -377.000
383.521; 2482.175;  451.000;  263.000
383.650;  503.175; -947.000; -904.000
383.780;  -47.700; -783.000; -656.000
383.910;  134.500;  880.000;  802.000
384.039;   76.775; -794.000; -656.000
384.169;  324.700;-1205.000;-1017.000
384.299;  -12.625; -650.000; -662.000
384.428;  -78.200; -764.000; -680.000
384.558;  -37.000; -308.000; -275.000
384.687;  -20.075; -414.000; -334.000
384.817;   31.075;   75.000;   -2.000
384.947;   54.575; -234.000; -141.000
385.076;  364.050;  982.000;  912.000
385.206;  155.325;  369.000;  480.000
385.335;   -3.550; -549.000; -417.000
385.465;  -59.425; -655.000; -663.000
385.594;  194.875;  -53.000;  -44.000
385.724;  645.000; -868.000; -838.000
385.853;  190.325; -296.000; -270.000
385.982; 1897.400; -743.000; -787.000
386.112; 2868.425;-1052.000; -871.000
386.241;  225.850; -307.000; -312.000
386.371;   50.350; -174.000;  -87.000
386.500;   35.425; -825.000; -789.000
386.629;   29.400; -874.000; -817.000
386.759;   68.425;  -43.000;   68.000
386.888;   21.300; -170.000; -250.000
387.017;  -55.400; -648.000; -620.000
387.147;  -78.475; -771.000; -798.000
387.276;   31.575; -410.000; -397.000
387.405;   35.950; -398.000; -342.000
387.535;  -21.850; -452.000; -361.000
387.664;  -60.075; -692.000; -620.000
387.793;  115.075; -198.000; -113.000
387.922;  711.675;  255.000;  200.000
388.052;   87.750; -576.000; -423.000
388.181;   77.475; -342.000; -472.000
388.310;   94.025; -889.000; -710.000
388.439;   -3.450; -749.000; -742.000
388.568;  275.600;  365.000;  244.000
388.697; 1486.250; -756.000; -653.000
388.826;  323.025; -768.000; -666.000
388.956;  106.025; -285.000; -307.000
389.085;  -17.625; -347.000; -287.000
389.214; -115.400; -842.000; -872.000
389.343;  -63.850; -645.000; -413.000
389.472;  351.800;  126.000;  149.000
389.601;  507.875;   91.000;    0.000
389.730;   44.225; -568.000; -687.000
389.859;   95.100;  226.000;   46.000
389.988;  263.300; -423.000; -408.000
390.117;  214.925; -168.000; -146.000
390.246;    8.750; -331.000; -320.000
390.375;  194.525; -673.000; -626.000
390.504;  -42.950; -703.000; -621.000
390.633;  -70.025; -672.000; -726.000
390.761;  -42.675; -732.000; -645.000
390.890;   79.375;   -4.000; -130.000
391.019;  -14.400; -421.000; -441.000
391.148; -117.600; -826.000; -855.000
391.277;  -62.200; -576.000; -493.000
391.406;  -44.725; -821.000; -805.000
391.534;   27.125;  574.000; -301.000
391.663;  -31.475; -583.000; -645.000
391.792;  -72.975; -673.000; -701.000
391.921;  181.975;   -3.000;   15.000
392.050;  311.575; -287.000; -228.000
392.178;   30.075;-1206.000;-1061.000
392.307;  236.825; -758.000; -712.000
392.436;  124.675; -427.000; -641.000
392.564;   30.025;  166.000;   -6.000
392.693;  -69.550; -860.000; -682.000
392.822;  316.725; -529.000; -534.000
392.950;  174.950; -880.000; -714.000
393.079;  465.250; -188.000; -328.000
393.208;   56.925; -488.000; -511.000
393.336;   -0.225; -170.000; -145.000
393.465;  -37.025; -317.000; -199.000
393.593;   -8.850;   62.000;   79.000
393.722; -148.775;-1121.000; -916.000
393.850;  -34.725; -188.000;  -61.000
393.979; -153.825; -926.000; -805.000
394.107;  -75.375; -517.000; -537.000
394.236;  -11.525; -570.000; -507.000
394.364;  209.275;  383.000;  206.000
394.493;  314.875; -911.000; -767.000
394.621;  -31.900; -955.000; -916.000
394.750;  558.300; -873.000; -923.000
394.878; 2424.550; -247.000; -149.000
395.007; 3242.100; -721.000; -807.000
395.135;  223.100; -790.000; -721.000
395.263;  -93.050;-1038.000;-1040.000
395.392;   13.600;  -25.000; -107.000
395.520; -135.825; -818.000; -679.000
395.648;  -62.850; -865.000; -915.000
395.777;    2.625; -366.000; -405.000
395.905;  -47.550; -449.000; -564.000
396.033;   19.550;  217.000;  172.000
396.162;  536.025; -399.000; -453.000
396.290;  474.075;  -17.000;   -2.000
396.418;  151.825; -555.000; -514.000
396.546;  -34.800; -571.000; -466.000
396.674;  -66.350; -850.000; -878.000
396.803;   25.825;  -72.000;  -23.000
396.931;  162.850; -179.000; -199.000
397.059;  136.150;-1026.000; -989.000
397.187; -102.650;-1026.000; -975.000
397.315; -127.050; -884.000; -649.000
397.443;  -85.525; -592.000; -443.000
397.572;  -95.625; -578.000; -424.000
397.700;   31.875; -607.000; -614.000
397.828;   66.550;  120.000;  -90.000
397.956;  -54.450; -508.000; -478.000
398.084;  -69.100; -767.000; -626.000
398.212;   52.450;  137.000;  124.000
398.340;   35.775;  -56.000;  159.000
398.468;   66.050; -390.000; -169.000
398.596; -123.325; -993.000; -953.000
398.724; -115.175; -762.000; -767.000
398.852; -156.850;-1024.000; -976.000
398.980;  -53.200; -560.000; -560.000
399.108;  -25.725; -982.000; -735.000
399.236;   67.775;   13.000;    8.000
399.363;   27.325;  222.000;  196.000
399.491;  -58.975; -404.000; -398.000
399.619; -108.600; -829.000; -800.000
399.747;  -90.150; -859.000; -771.000
399.875;  112.500;  220.000;  234.000
400.003;  -50.875; -359.000; -284.000
400.130;  -80.600; -421.000; -341.000
400.258;  -21.675;  -83.000;   38.000
400.386;  -51.575; -352.000; -168.000
400.514;  -29.425; -526.000; -587.000
400.641;  -47.475; -928.000; -802.000
400.769; -129.375; -979.000; -888.000
400.897; -100.425; -838.000; -793.000
401.025;   -4.850; -166.000; -152.000
401.152;    4.875;  220.000;   38.000
401.280;  -98.500; -430.000; -429.000
401.408;  -98.975; -712.000; -576.000
401.535; -109.050; -735.000; -758.000
401.663; -181.150;-1134.000;-1054.000
401.790;  -81.375; -514.000; -525.000
401.918;   62.200;  436.000;  405.000
402.046;  -24.425;  134.000;  122.000
402.173;  -23.775;  -18.000;    7.000
402.301;  -65.650; -519.000; -397.000
402.428;   49.175;  528.000;  383.000
402.556; -132.775;-1188.000; -913.000
402.683;  -19.925;  -20.000;   -1.000
402.811;  -10.025;  -37.000; -206.000
402.938;   -9.950;   20.000;   27.000
403.066;  295.425; -574.000; -558.000
403.193;  454.150;  299.000;  239.000
403.321;  363.425; -396.000; -574.000
403.448;  445.550;   83.000;   27.000
403.575;  196.550;  -90.000;  -46.000
403.703;  -74.400; -732.000; -557.000
403.830;  -62.875; -531.000; -496.000
403.957; -137.050;-1117.000;-1023.000
404.085;    5.275;  -61.000; -172.000
404.212;  121.575;  -50.000;   63.000
404.339;  225.825; -566.000; -306.000
404.467; 4696.550; -612.000; -524.000
404.594; 3492.950; -287.000; -227.000
404.721;  988.700; -869.000; -764.000
404.848;   69.425; -113.000; -202.000
404.976;  -97.000; -856.000; -783.000
405.103;  -17.300;  -14.000;  -82.000
405.230;    0.950;  190.000;  226.000
405.357;   30.400;  117.000;   44.000
405.484;  224.125;  -49.000;    5.000
405.612;   38.400; -548.000; -563.000
405.739;  -57.175; -488.000; -243.000
405.866;   91.800;  669.000;  385.000
405.993;  -32.625; -398.000; -102.000
406.120; -140.275; -801.000; -887.000
406.247;  -49.425; -323.000; -342.000
406.374;  618.950;  540.000;  629.000
406.501;  199.625; -632.000; -702.000
406.628;  -75.225; -621.000; -589.000
406.755;  -83.800; -803.000; -620.000
406.882;  -30.975; -228.000; -277.000
407.009;  -98.000; -719.000; -628.000
407.136;   93.125; -480.000; -401.000
407.263;  247.925; -939.000; -829.000
407.390;  -69.325; -692.000; -614.000
407.517; -155.225;-1139.000;-1187.000
407.644;  -60.925; -332.000; -256.000
407.771;  -50.550; -249.000; -287.000
407.898;    8.900;  168.000;  328.000
408.025;  -57.075; -421.000; -313.000
408.151;   -7.700;   82.000;  153.000
408.278;  -41.375; -267.000; -216.000
408.405; -115.400; -931.000; -899.000
408.532;  -72.675; -549.000; -542.000
408.659; -127.975; -677.000; -648.000
408.785; -205.925;-1298.000;-1170.000
408.912;  -64.100; -412.000; -296.000
409.039; -110.675; -610.000; -686.000
409.166; -107.125; -591.000; -555.000
409.292; -105.250; -571.000; -534.000
409.419; -134.600; -665.000; -649.000
409.546;  -81.300; -431.000; -192.000
409.672; -112.650; -713.000; -545.000
409.799;   -9.125;  -36.000;   34.000
409.926;  -39.525; -180.000; -179.000
410.052; -164.150;-1127.000;-1091.000
410.179;  -55.325; -368.000; -392.000
410.305;  -87.950; -375.000; -493.000
410.432;  -37.750; -220.000; -333.000
410.558;  -91.225; -305.000; -380.000
410.685; -112.475; -688.000; -431.000
410.812;  -88.800; -409.000; -588.000
410.938; -140.500; -964.000; -808.000
411.065;  -78.325; -671.000; -645.000
411.191;  -18.025; -189.000; -174.000
411.317; -107.525; -823.000; -742.000
411.444;  -68.200; -317.000; -246.000
411.570;  -63.825; -339.000; -294.000
411.697; -137.075; -758.000; -752.000
411.823; -164.000; -989.000; -999.000
411.949;  -32.150;  -56.000;   17.000
412.076; -105.650; -539.000; -519.000
412.202; -128.975; -758.000; -757.000
412.329; -121.075; -798.000; -752.000
412.455; -112.500; -821.000; -657.000
412.581;   -8.125;  -15.000;  172.000
412.707;  -57.825; -540.000; -457.000
412.834;   25.750;  156.000;  219.000
412.960;  -93.700; -785.000; -784.000
413.086;  -84.325; -743.000; -701.000
413.212;  191.300;  604.000;  578.000
413.339;  -40.650; -685.000; -701.000
413.465;   26.975; -364.000; -310.000
413.591;  -73.500; -757.000; -474.000
413.717;  -54.375; -358.000; -366.000
413.843; -146.600; -839.000; -861.000
413.969;  -64.375;  -47.000; -292.000
414.096;  -90.625; -679.000; -679.000
414.222;    3.125;  -33.000;   85.000
414.348;    8.050; -652.000; -385.000
414.474;  147.050;   38.000;  -52.000
414.600;  -11.300; -126.000; -144.000
414.726;  -26.575;  -96.000;  -55.000
414.852;  -66.675; -365.000; -342.000
414.978;   29.425;  104.000;  -18.000
415.104;   42.525;   38.000;   80.000
415.230;    9.150; -329.000; -330.000
415.356;   44.400; -409.000; -514.000
415.482;  173.000;   13.000;  -35.000
415.608;  221.100; -247.000; -323.000
415.734;  849.375;   67.000;   38.000
415.860;17821.800; -875.000; -767.000
415.986;12300.000; -685.000; -607.000
416.111; 1026.300; -798.000; -652.000
416.237;  192.300; -424.000; -571.000
416.363;  936.950; -765.000; -733.000
416.489; 3359.375; -324.000; -251.000
416.615;  311.175; -707.000; -742.000
416.741;  -48.575; -677.000; -784.000
416.866; -100.150; -673.000; -736.000
416.992; -127.475; -801.000; -818.000
417.118;  -22.125;  -41.000;  -80.000
417.244;  -66.225; -798.000; -531.000
417.369;  -60.225; -801.000; -612.000
417.495;    4.425; -325.000; -254.000
417.621;  -79.375;-1015.000; -803.000
417.746;   -2.625; -579.000; -572.000
417.872;   49.000; -254.000; -144.000
417.998;   20.675; -515.000; -530.000
418.123;  888.975;-1073.000; -845.000
418.249; 4415.525; -512.000; -601.000
418.374;  554.150; -916.000; -824.000
418.500;   87.225; -383.000; -482.000
418.626;  105.900;   70.000;  -59.000
418.751;  104.550; -549.000; -448.000
418.877;  161.975; -637.000; -643.000
419.002; 1520.650; -688.000; -560.000
419.128;10370.050; -930.000; -721.000
419.253; 2406.625; -967.000; -837.000
419.379;  312.075; -391.000; -338.000
419.504;  321.475;  325.000;  415.000
419.629;  414.625; -393.000; -212.000
419.755; 2865.200; -317.000; -254.000
419.880;16450.000;  -98.000;   67.000
420.006; 9491.175; -280.000; -221.000
420.131;24807.750; -662.000; -775.000
420.256; 3459.750; -315.000; -316.000
420.382;  445.600; -665.000; -687.000
420.507;   37.450; -649.000; -778.000
420.632;  223.275; -337.000; -339.000
420.758;  376.850; -251.000; -425.000
420.883;  -65.000; -876.000; -672.000
421.008;  -99.575; -775.000; -619.000
421.133;  -64.475; -509.000; -467.000
421.259;  -54.700; -325.000; -259.000
421.384; -105.175; -834.000; -693.000
421.509;    2.900;-1052.000; -862.000
421.634; 1827.850; -936.000; -820.000
421.759;  759.200; -359.000; -327.000
421.885;  -25.900; -717.000; -656.000
422.010;  -82.050; -673.000; -542.000
422.135; -136.975; -695.000; -727.000
422.260;   26.575;  340.000;  280.000
422.385;  -44.650;   12.000;  -98.000
422.510;    4.275;  151.000;  -26.000
422.635;   38.525;  -87.000;  -43.000
422.760;  125.750; -766.000; -791.000
422.885;   67.600;  -57.000;  -80.000
423.010;  -37.650; -112.000; -169.000
423.135;  -78.725; -481.000; -561.000
423.260;   -2.700; -150.000; -245.000
423.385;   81.625;  476.000;  222.000
423.510;   37.300;   71.000;  -22.000
423.635;  105.850;  133.000;   45.000
423.760;   66.950;  383.000;  328.000
423.885;   56.925;  336.000;  391.000
424.010;   11.850;  -68.000;  -13.000
424.135;    1.850;    5.000;  -33.000
424.259; -101.775; -654.000; -457.000
424.384;  -51.150; -279.000; -272.000
424.509;  -27.775; -260.000; -186.000
424.634;  -97.850; -761.000; -623.000
424.759;  -18.200; -688.000; -544.000
424.883;  -19.525; -506.000; -527.000
425.008;  153.225; -502.000; -410.000
425.133; 1724.450; -679.000; -653.000
425.258;  747.450; -517.000; -381.000
425.382; 1345.650; -867.000; -774.000
425.507; 3256.950; -487.000; -543.000
425.632;  452.325; -802.000; -663.000
425.756;  375.625; -256.000; -146.000
425.881; 5054.175; -831.000; -857.000
426.006;12949.850; -604.000; -355.000
426.130; 2078.375; -696.000; -508.000
426.255;  272.075; -611.000; -491.000
426.379;  122.650; -189.000; -577.000
426.504;  330.125;  660.000;  544.000
426.629; 3621.525; -519.000; -466.000
426.753; 2400.350;   64.000;  -46.000
426.878;  276.200; -252.000; -288.000
427.002;  153.350; -651.000; -668.000
427.127; 1440.200;  -35.000; -158.000
427.251; 9497.675;  372.000;  401.000
427.375; 2649.275; -191.000; -173.000
427.500; 2816.900; -616.000; -610.000
427.624;  943.450; -234.000; -400.000
427.749;  117.775; -216.000; -225.000
427.873;  -27.400; -499.000; -412.000
427.997;  -35.325; -222.000; -230.000
428.122;   94.325;  795.000;  703.000
428.246;   93.400;  433.000;  434.000
428.371; -120.925; -869.000; -773.000
428.495; -106.075; -624.000; -646.000
428.619;  -22.575; -186.000; -117.000
428.743;   14.725;   65.000;  132.000
428.868;   62.150; -732.000; -643.000
428.992; 1829.500; -219.000; -326.000
429.116;  760.850; -329.000; -357.000
429.240;  381.300;  419.000;  426.000
429.365;   -3.650; -454.000; -574.000
429.489;  -51.300; -638.000; -647.000
429.613;   28.725; -236.000; -177.000
429.737;   26.975; -563.000; -432.000
429.861;  256.750; -247.000; -133.000
429.985; 4833.525; -425.000; -305.000
430.109; 5026.725; -770.000; -908.000
430.234;  555.800;   76.000;  -50.000
430.358;   65.825; -250.000; -160.000
430.482;  -88.900; -672.000; -564.000
430.606;  -41.050; -655.000; -375.000
430.730;   42.625; -437.000; -388.000
430.854;  225.600; -909.000; -835.000
430.978;  -58.500; -795.000; -764.000
431.102;  -68.350; -499.000; -422.000
431.226; -104.750; -874.000; -815.000
431.350;   61.925;  345.000;  422.000
431.474;  -64.150; -661.000; -373.000
431.597; -143.675;-1060.000; -848.000
431.721;  -85.925; -276.000; -267.000
431.845; -118.825; -704.000; -472.000
431.969;  -79.000; -304.000; -349.000
432.093;  -91.150; -395.000; -317.000
432.217;  -25.050;   32.000;   82.000
432.341;  -75.475; -523.000; -518.000
432.464;   21.125;   96.000;   40.000
432.588;  315.650; -401.000; -329.000
432.712;  140.800;  -52.000;  -52.000
432.836;   48.900;  213.000;  263.000
432.959;  -25.100; -372.000; -311.000
433.083;   64.200;   11.000;    2.000
433.207;  329.425;  285.000;  930.000
433.330; 4200.550; -391.000; -200.000
433.454; 4947.650; -654.000; -638.000
433.578; 2943.450;  583.000;  278.000
433.701;  548.600; -623.000; -675.000
433.825;  203.475; -292.000; -299.000
433.949;  314.900;   28.000;  -72.000
434.072;  145.875; -410.000; -323.000
434.196;  -13.700; -309.000; -117.000
434.319; 3816.475;25482.000;25124.000
434.443;  741.800; -656.000; -603.000
434.566; 2238.325;  281.000;   62.000
434.690;  313.425; -637.000; -383.000
434.813;   54.425; -251.000; -173.000
434.937;  -73.825; -569.000; -696.000
435.060;   -2.425; -423.000; -332.000
435.184;  570.875; -492.000; -217.000
435.307;  282.450;  159.000;  102.000
435.431;    7.175;  -40.000;   24.000
435.554;  -67.325; -399.000; -240.000
435.677;  -85.200; -350.000; -258.000
435.801;  -38.550;  -25.000;   49.000
435.924;   12.725;    1.000;  -67.000
436.048;  -74.800;-1019.000; -732.000
436.171;  -71.950; -240.000;  -66.000
436.294;  -21.675; -248.000; -229.000
436.417;   30.450; -963.000; -849.000
436.541; -101.875; -814.000; -840.000
436.664;  -54.000; -242.000; -316.000
436.787;    4.375;   13.000;  113.000
436.910; -111.525; -792.000; -422.000
437.034;   38.875;  142.000;  143.000
437.157;  106.825;  -11.000;    0.000
437.280;  -23.625; -392.000; -292.000
437.403;  -52.300; -982.000; -869.000
437.526; 1150.775; -903.000; -865.000
437.649; 3570.650; -505.000; -332.000
437.772;  558.150; -692.000; -540.000
437.896;  160.050;  700.000;  544.000
438.019;  -75.975; -758.000; -503.000
438.142;  -87.850; -596.000; -506.000
438.265;   39.000; -639.000; -670.000
438.388;  820.600; -520.000; -410.000
438.511;  201.875; -597.000; -394.000
438.634;  -31.100; -247.000; -125.000
438.757; -108.150; -693.000; -619.000
438.880;  -26.250;  -34.000;  -57.000
439.003;  -64.650; -417.000; -437.000
439.126;  -83.550; -287.000; -167.000
439.248;  -69.125;  -98.000; -139.000
439.371;  -44.725;    9.000;  -53.000
439.494;   24.125;  510.000;  439.000
439.617;  -65.250;   65.000;  -88.000
439.740; -176.725; -968.000; -816.000
439.863; -147.550; -755.000; -595.000
439.986; -116.350; -476.000; -431.000
440.108;  -48.675; -161.000; -112.000
440.231; -162.400; -950.000; -836.000
440.354;  -37.475;  -64.000; -150.000
440.477;  110.500; -566.000; -542.000
440.599;   28.375; -200.000; -225.000
440.722; -122.125; -709.000; -586.000
440.845;   64.600;  751.000;  928.000
440.968; -102.900; -415.000; -311.000
441.090;  -70.325; -199.000;  -33.000
441.213; -162.925;-1021.000; -825.000
441.336;  -67.300; -159.000;   -5.000
441.458;  -67.750; -549.000; -396.000
441.581;  -70.175; -628.000; -629.000
441.703;  -75.150; -152.000;   13.000
441.826; -124.100; -557.000; -400.000
441.948;  -39.775;   56.000;   51.000
442.071;   19.625;  555.000;  424.000
442.193;  -93.375; -531.000; -485.000
442.316;   19.675;  152.000;   97.000
442.438;   38.500; -233.000;  -10.000
442.561;   75.675;  272.000;  262.000
442.683;  890.600; -809.000; -522.000
442.806; 1755.300;   -8.000;   74.000
442.928;  123.000; -859.000; -604.000
443.051;  -57.725; -577.000; -373.000
443.173;  -68.925; -341.000; -339.000
443.295;  -90.625; -263.000; -371.000
443.418;  -73.950; -321.000;  -29.000
443.540;  -10.700; -106.000;   -4.000
443.662; -108.825; -563.000; -465.000
443.785;   -6.900;  335.000;  199.000
443.907; -114.775; -362.000; -208.000
444.029; -142.300; -767.000; -494.000
444.152; -131.525; -644.000; -554.000
444.274;  -40.350;  -18.000;  -24.000
444.396; -107.350; -461.000; -221.000
444.518; -136.900; -691.000; -454.000
444.640; -124.900; -268.000; -111.000
444.763;  -26.825;  388.000;  249.000
444.885; -108.675; -432.000; -392.000
445.007;  -41.450;   35.000;   86.000
445.129; -118.725; -610.000; -515.000
445.251;  -98.050; -372.000; -439.000
445.373; -130.125; -537.000; -386.000
445.495;    2.450;  242.000;  350.000
445.617;   62.075;  853.000;  753.000
445.739;  -66.925; -215.000;  -97.000
445.861;  -18.675; -245.000; -112.000
445.984;  -44.275; -267.000; -101.000
446.105;  328.675; -418.000; -251.000
446.227;  888.325; -176.000;  -19.000
446.349;   49.500; -358.000; -249.000
446.471;  -98.750; -615.000; -448.000
446.593;  -71.825; -316.000;   19.000
446.715;   13.775;  -67.000;   41.000
446.837;   71.475;  697.000;  832.000
446.959; -107.425; -457.000; -478.000
447.081; -127.250; -628.000; -518.000
447.203;   47.575;  862.000;  834.000
447.325;  -90.700; -270.000;   42.000
447.446;  -11.975;  286.000;  530.000
447.568; -156.475; -921.000; -803.000
447.690;  -85.000; -236.000; -245.000
447.812; -158.750; -798.000; -519.000
447.933;  -25.175;  155.000;  127.000
448.055;  -59.625; -306.000; -261.000
448.177;  204.475;   31.000;   79.000
448.299;  170.225; -935.000; -727.000
448.420;   22.950;  -25.000;  159.000
448.542;  -40.375;   -3.000;   33.000
448.664;  -34.300;  109.000;  322.000
448.785;  -33.050;  265.000;   83.000
448.907;  -80.050; -614.000; -353.000
449.028;    7.525; -771.000; -471.000
449.150;   61.575;  492.000;  589.000
449.272; -166.350;-1044.000; -913.000
449.393;   35.175;  612.000;  694.000
449.515; -147.725; -634.000; -581.000
449.636;  -69.300; -264.000; -155.000
449.758;   97.325;  763.000;  622.000
449.879; -105.950; -498.000; -396.000
450.001;  -77.175; -149.000;  -49.000
450.122;  -51.975;  -95.000;  162.000
450.244;  -12.300;   37.000;  364.000
450.365; -102.550; -495.000; -301.000
450.486;  -26.325;   80.000;  268.000
450.608;    9.400;  393.000;  326.000
450.729;   50.975;  578.000;  645.000
450.850;  -33.125; -574.000; -466.000
450.972;  571.050; -552.000; -389.000
451.093; 3860.725;  190.000;  588.000
451.214; 1552.000; -516.000; -337.000
451.336;  292.075;  773.000;  579.000
451.457;   33.750;  264.000;  393.000
451.578;  -61.225; -118.000;  -74.000
451.699; -116.275; -546.000; -540.000
451.821;  -68.375; -284.000;  -50.000
451.942;   -8.350;  278.000;  285.000
452.063;   28.900;  228.000;  419.000
452.184;  452.150;  -54.000;  -49.000
452.305;  891.150;  103.000;  170.000
452.427;   72.000; -549.000; -301.000
452.548;  -18.625;   23.000;   79.000
452.669;  -42.425; -257.000;  -89.000
452.790;  -41.900;    3.000;  -18.000
452.911;   13.950;  195.000;  259.000
453.032;  -77.725; -289.000;  -60.000
453.153;  -35.000;  -29.000;   81.000
453.274;   60.600;  737.000;  868.000
453.395;  -49.175;  -51.000;  175.000
453.516;  144.600; 1317.000; 1388.000
453.637;  -55.800; -205.000; -150.000
453.758;  -58.050;   15.000;   69.000
453.879; -113.575; -462.000; -250.000
454.000;   68.175; 1086.000;  948.000
454.121; -111.775; -554.000; -326.000
454.242; -112.575; -599.000; -383.000
454.362;  -49.850;  -99.000;  114.000
454.483;  -41.725; -309.000; -229.000
454.604;   62.075;  512.000;  580.000
454.725; -133.425; -627.000; -555.000
454.846; -115.875; -474.000; -406.000
454.967;  -37.250;  230.000;  539.000
455.087;  -33.650;  179.000;  153.000
455.208;    3.675;  554.000;  856.000
455.329;  -66.225;  -22.000;   82.000
455.450;   21.550;  473.000;  633.000
455.570;  -86.925; -234.000; -211.000
455.691;  -56.450;  201.000;  407.000
455.812; -107.400; -270.000;  -92.000
455.932;  -66.500;  107.000;  -97.000
456.053;  -77.950;   36.000;   24.000
456.173; -114.300; -433.000; -355.000
456.294; -139.000; -476.000; -303.000
456.415;  -67.775;  -73.000;   70.000
456.535;  -33.775;  297.000;  273.000
456.656;  -47.475;  132.000;  240.000
456.776;  -67.025;    3.000;  298.000
456.897;   -1.600;  308.000;  513.000
457.017;  -75.125; -153.000;   -3.000
457.138;  -95.350; -402.000; -249.000
457.258;  -24.150;  263.000;  224.000
457.379;  -18.425;  509.000;  521.000
457.499;  -26.400;  443.000;  432.000
457.620; -125.675; -407.000; -231.000
457.740; -102.275; -132.000;  -11.000
457.860;  -62.550;   87.000;   44.000
457.981;  -40.425;  132.000;  124.000
458.101;  -75.750;  -89.000;   40.000
458.221;  -10.200;  336.000;  402.000
458.342;  -72.875;   -4.000;  -37.000
458.462;    6.600;  617.000;  352.000
458.582;  -56.225; -302.000; -294.000
458.703;  -13.350;  303.000;  154.000
458.823;  -38.050;   22.000;  163.000
458.943;   10.850;  341.000;  467.000
459.063;  -14.975; 1124.000;  192.000
459.183;  -22.275;  328.000;  313.000
459.304;   -9.825;  315.000;  517.000
459.424;  -67.300; -246.000;  -89.000
459.544;  283.275;  388.000;  764.000
459.664;  671.650;  499.000;  506.000
459.784;  257.575; 1004.000; 1175.000
459.904;   52.500;  867.000;  744.000
460.024;   78.200;  867.000;  684.000
460.144;   30.550;  449.000;  554.000
460.264;   -7.375;  515.000;  327.000
460.385;  -90.650; -145.000; -119.000
460.505;   17.450;  905.000;  858.000
460.625;  -96.250;  -17.000;  -68.000
460.745;  -38.275;  396.000;  541.000
460.864;  -41.300;  153.000;  469.000
460.984;   11.900;  499.000;  573.000
461.104;  143.100; 1656.000; 1775.000
461.224;   12.175;  657.000;  650.000
461.344;  -22.575;  431.000;  360.000
461.464;  -48.700;  258.000;  513.000
461.584;    5.575;  283.000;  466.000
461.704;  -42.425;   58.000;  108.000
461.824;  -55.075;  238.000;  259.000
461.943;  -51.325;  191.000;  130.000
462.063;  -74.425;    2.000;  324.000
462.183;   30.850;  639.000;  717.000
462.303;  115.475; 1678.000; 1230.000
462.422;   18.275;  781.000;  840.000
462.542;  -41.375;  271.000;  391.000
462.662;   30.900;  353.000;  380.000
462.782;  199.425;  833.000;  572.000
462.901;  409.425;  545.000;  717.000
463.021;  269.000; 1702.000; 1638.000
463.141;  -31.400;  337.000;  770.000
463.260;  -19.025;  614.000;  474.000
463.380;   21.375;  902.000;  884.000
463.499;  -40.800;  342.000;  332.000
463.619;  -40.200;  581.000;  559.000
463.738;  129.025; 1644.000;  903.000
463.858;   12.225;  657.000;  811.000
463.978;  -25.475;  542.000;  396.000
464.097;   41.550;  921.000; 1114.000
464.217;  105.400; 1196.000; 1143.000
464.336;   96.500; 1068.000; 1130.000
464.455;  -39.625;  328.000;  659.000
464.575;   62.300;  597.000;  602.000
464.694;  210.950; 1204.000; 1179.000
464.814;  129.325; 1190.000; 1138.000
464.933;   75.950; 1095.000; 1027.000
465.052;   95.150; 1412.000; 1054.000
465.172;  108.175;  922.000;  799.000
465.291;  155.725; 1376.000; 1320.000
465.410;   16.700;  462.000;  735.000
465.530;   83.900; 1355.000; 1310.000
465.649;   67.000; 1209.000; 1273.000
465.768;  134.375; 1673.000; 1508.000
465.888;   58.800;  941.000; 1174.000
466.007;   96.375; 1335.000; 1440.000
466.126;   -7.750;  721.000;  641.000
466.245;   41.225; 1176.000; 1187.000
466.364;   21.100;  950.000; 1060.000
466.484;   61.925; 1024.000; 1213.000
466.603;   53.825; 1101.000; 1222.000
466.722;  117.975; 1490.000; 1769.000
466.841;   83.475; 1151.000; 1401.000
466.960;   46.875; 1069.000;  972.000
467.079;  143.225; 1971.000; 1786.000
467.198;   36.700; 1238.000; 1181.000
467.317;   81.800; 1768.000; 1162.000
467.436;   59.600; 1709.000; 1261.000
467.555;  122.000; 1796.000; 1746.000
467.674;   55.550; 1227.000; 1329.000
467.793;   54.650; 1376.000; 1374.000
467.912;   76.175; 1658.000; 1539.000
468.031;  134.400; 2038.000; 1930.000
468.150;  136.825; 1842.000; 1837.000
468.269;  223.825; 2313.000; 2090.000
468.388;  172.175; 2168.000; 2339.000
468.507;  254.500; 2884.000; 2903.000
468.626;  276.825; 2555.000; 2541.000
468.744;  145.475; 2018.000; 2174.000
468.863;  199.375; 2312.000; 2523.000
468.982;   92.375; 1503.000; 1555.000
469.101;  219.975; 2788.000; 2692.000
469.220;  147.850; 2333.000; 2176.000
469.338;  243.375; 2935.000; 3051.000
469.457;  188.900; 2719.000; 2545.000
469.576;  347.450; 3953.000; 3784.000
469.695;  258.950; 2877.000; 3066.000
469.813;  439.575; 4148.000; 4192.000
469.932;  410.725; 4255.000; 4485.000
470.051;  402.625; 4075.000; 4161.000
470.169;  779.750; 4470.000; 4338.000
470.288; 1305.050; 4700.000; 4809.000
470.406;  800.900; 5059.000; 5194.000
470.525;  615.825; 6101.000; 5787.000
470.644;  663.900; 6847.000; 6794.000
470.762;  821.375; 8397.000; 7873.000
470.881;  912.850; 8651.000; 8464.000
470.999; 1008.025; 9685.000; 9151.000
471.118; 1126.625;11174.000;10711.000

