
Integration time [ms]: 100.000
Averaging Nr. [scans]: 40
Smoothing Nr. [pixels]: 0
Data measured with spectrometer [name]: 2101012U2
Wave   ;Sample   ;Dark     ;Reference
[nm]   ;[counts] ;[counts] ;[counts] 

197.733;   64.425;  516.000;  404.000
197.879;  -71.975; -610.000; -634.000
198.025;  -40.825; -475.000; -420.000
198.171;  -63.750; -602.000; -612.000
198.317;  -31.725; -401.000; -316.000
198.463;  -53.175; -655.000; -404.000
198.609;   21.350;  181.000; -137.000
198.755;  -73.150; -644.000; -410.000
198.901;  -50.575; -505.000; -424.000
199.047;  -51.825; -615.000; -488.000
199.193;  -39.875; -230.000; -468.000
199.339;  -37.250; -222.000; -369.000
199.485;   45.300;  330.000;  271.000
199.631;    1.500;  227.000;  310.000
199.777;  -39.750; -466.000; -398.000
199.923;  -61.650; -610.000; -424.000
200.069;    1.450; -141.000;  -58.000
200.215;   51.375;  128.000;  453.000
200.361;   27.025;  243.000;  477.000
200.507;  -66.075; -600.000; -373.000
200.653;  -13.325; -371.000; -194.000
200.798;  -33.575; -215.000; -125.000
200.944;    4.775; -146.000;  -41.000
201.090;   24.950;   61.000;  222.000
201.236;   -3.325; -116.000; -158.000
201.382;  111.850;  874.000;  903.000
201.528;   13.825;  -58.000;  -48.000
201.674;  -52.225; -386.000; -293.000
201.819;  -50.325; -540.000; -439.000
201.965;  -80.600; -699.000; -447.000
202.111;  -11.225; -273.000; -226.000
202.257;  -34.200; -250.000; -238.000
202.402;    2.500;   13.000;  -36.000
202.548;  -20.550; -169.000; -116.000
202.694;   69.900;  410.000; -183.000
202.840;  -71.650; -603.000; -531.000
202.985;  -54.625; -681.000; -639.000
203.131;  -83.475; -832.000; -666.000
203.277;  -20.075; -199.000; -262.000
203.423;  -42.350; -434.000; -520.000
203.568;  -43.200; -462.000; -237.000
203.714;  -64.050; -535.000; -542.000
203.860;  -72.625; -682.000; -641.000
204.005;    0.825;  112.000;  167.000
204.151;   81.675;  561.000;  556.000
204.296;  -47.800; -354.000; -221.000
204.442;  -48.375; -600.000; -547.000
204.588;  -63.450; -592.000; -579.000
204.733;   28.350;  178.000;  168.000
204.879; -122.325;-1018.000; -822.000
205.025;    6.500;  -99.000;  126.000
205.170;   -9.950;  -17.000;   94.000
205.316;   77.225;  438.000;  661.000
205.461;  -73.600; -698.000; -554.000
205.607;   68.875;  609.000;  665.000
205.752;  -68.900; -626.000; -551.000
205.898;  -52.975; -501.000; -391.000
206.043;  -56.175; -578.000; -506.000
206.189;  -46.350; -243.000; -285.000
206.334;   67.650;  554.000;  606.000
206.480;   91.550;  409.000;  239.000
206.625;  -82.350; -529.000; -552.000
206.771;  -29.550; -451.000; -373.000
206.916;  -38.100; -210.000; -537.000
207.062;  -62.500; -545.000; -591.000
207.207;  -68.550; -546.000; -443.000
207.353;   55.750;  185.000;  460.000
207.498;   17.050;  196.000;   85.000
207.643;  -41.425; -501.000; -370.000
207.789; -123.800;-1069.000; -910.000
207.934;  -84.075; -665.000; -713.000
208.080;  -29.575; -154.000;   66.000
208.225;   -3.425;  -22.000;  -57.000
208.370;  -84.025; -727.000; -619.000
208.516;  -68.125; -741.000; -487.000
208.661;  -34.125; -127.000;  -69.000
208.806;  -12.650; -165.000; -171.000
208.952; -123.600;-1044.000; -731.000
209.097;   64.900;  378.000;  349.000
209.242;  -53.875; -307.000; -382.000
209.387;   71.975;  392.000;  350.000
209.533;  -54.500; -321.000; -350.000
209.678;   81.100;  472.000;  543.000
209.823;  -49.725; -408.000; -310.000
209.969;  -90.075; -860.000; -757.000
210.114; -104.425; -907.000; -719.000
210.259; -102.775; -939.000; -889.000
210.404;   -0.825; -171.000;  103.000
210.549;   10.175;  108.000;    3.000
210.695;  -18.825;   -3.000;  -95.000
210.840;   30.100;   94.000;   67.000
210.985;  -57.875; -484.000; -303.000
211.130;   76.550;  268.000;  406.000
211.275;    1.675;  207.000;  199.000
211.420;  -42.500; -300.000; -289.000
211.566;  -70.925; -536.000; -489.000
211.711;   26.475;  218.000;  157.000
211.856;  -69.675; -545.000; -519.000
212.001;   21.400;  151.000;   44.000
212.146;    9.250;  153.000;   49.000
212.291;   -5.550; -210.000; -186.000
212.436;  -26.250; -280.000;   -6.000
212.581;  -62.000; -685.000; -653.000
212.726;  -70.925; -487.000; -538.000
212.871;  -48.700; -552.000; -217.000
213.016; -137.925;-1172.000;-1029.000
213.161;   60.550;  406.000;  291.000
213.306;  -74.450; -435.000; -577.000
213.451;  -77.125; -778.000; -689.000
213.596;  -54.725; -455.000; -347.000
213.741;  -50.625; -448.000; -538.000
213.886;  -76.225; -498.000; -517.000
214.031;  -12.050; -294.000; -124.000
214.176;  -54.225; -408.000; -341.000
214.321;   -3.550; -296.000; -157.000
214.466;  -34.150; -163.000;  -43.000
214.611;   -7.550;  -61.000;  -10.000
214.756; -115.950; -948.000; -858.000
214.901;  -10.825; -388.000; -226.000
215.046; -111.950; -797.000; -825.000
215.191;   19.500;  128.000;   35.000
215.336;   -6.700; -157.000;  -19.000
215.480;  -59.150; -684.000; -505.000
215.625;  -11.475; -175.000;  -19.000
215.770;  -51.075; -757.000; -662.000
215.915;   -0.750;   -5.000;  -97.000
216.060;    0.525; -113.000;  -21.000
216.205; -105.750; -731.000; -779.000
216.349;  -64.200; -470.000; -533.000
216.494; -123.525; -939.000; -867.000
216.639; -107.425; -823.000; -888.000
216.784;  -84.000; -577.000; -525.000
216.929;   46.750;  392.000;  281.000
217.073;  -16.125; -244.000;  -31.000
217.218;   18.200;   78.000;  -47.000
217.363;  -78.675; -656.000; -618.000
217.507;  -51.150; -623.000; -588.000
217.652; -126.175; -845.000; -874.000
217.797;  -91.700; -708.000; -659.000
217.942; -100.775; -856.000; -720.000
218.086;   64.100;  608.000;  539.000
218.231;  -30.275; -174.000;  -26.000
218.376;  -25.225; -337.000; -229.000
218.520;  -14.300;  -41.000;   96.000
218.665;  -32.975; -338.000; -204.000
218.810;  -46.400; -275.000; -233.000
218.954;   16.050;  201.000;   35.000
219.099;  -99.025; -713.000; -963.000
219.243;  -56.625; -589.000; -554.000
219.388;  -31.400; -264.000; -136.000
219.532;  -17.375; -116.000; -116.000
219.677;  -79.325; -564.000; -521.000
219.822;    1.300;   33.000;   89.000
219.966;    0.125;   17.000;  -99.000
220.111;  -39.500; -328.000;  -40.000
220.255;  -94.375; -797.000; -750.000
220.400;  -19.525; -180.000; -146.000
220.544;  -69.850; -516.000; -450.000
220.689;  -53.450; -422.000; -451.000
220.833;  -17.500; -123.000;  -58.000
220.978;  -31.250; -393.000; -563.000
221.122;   14.450;  319.000;  307.000
221.267; -114.850; -906.000; -837.000
221.411;  -63.100; -478.000; -394.000
221.555;    1.725; -104.000;  -23.000
221.700;  -61.525; -329.000; -222.000
221.844;   27.475;  255.000;  272.000
221.989;  -43.350; -328.000; -311.000
222.133;  -29.475; -289.000; -307.000
222.277;   -6.725;    5.000;   78.000
222.422;    9.150;  227.000;  113.000
222.566;  -48.475; -381.000; -214.000
222.711;  -45.775; -414.000; -479.000
222.855;  -72.125; -643.000; -586.000
222.999;  -79.075; -642.000; -717.000
223.144;  -38.575; -195.000; -194.000
223.288;   57.100;  423.000;  251.000
223.432;   15.600;  184.000;  230.000
223.576;   24.975;  152.000;  -21.000
223.721;   31.075;  364.000;  273.000
223.865;  -55.600; -472.000; -475.000
224.009;  209.450; 1673.000; 1631.000
224.153;  -65.575; -660.000; -671.000
224.298;  -63.425; -531.000; -489.000
224.442;  -11.475;  -74.000;  -33.000
224.586;   -7.975; -169.000; -106.000
224.730;  -78.100; -858.000; -670.000
224.875; -104.850; -739.000; -688.000
225.019;   13.450;  102.000;  188.000
225.163;   46.350;  208.000;  341.000
225.307;   16.125;   97.000;  -91.000
225.451;   45.275;  360.000;  481.000
225.595;   22.425;  264.000;  176.000
225.739;  -19.225; -170.000;  -94.000
225.884;    2.825;   86.000;    5.000
226.028;  -99.700; -760.000; -626.000
226.172;  -35.525; -260.000; -273.000
226.316; -108.175; -941.000; -902.000
226.460;  -68.150; -645.000; -493.000
226.604;  -68.550; -406.000; -400.000
226.748;  -85.625; -836.000; -733.000
226.892;  -49.600; -227.000; -181.000
227.036;  -39.225; -537.000; -447.000
227.180;  -57.350; -551.000; -375.000
227.324;  -56.825; -561.000; -580.000
227.468; -109.550; -819.000; -717.000
227.612;   12.150;  242.000;  -28.000
227.756;  -86.775; -845.000; -698.000
227.900;   38.550;  342.000;  441.000
228.044;  -71.150; -509.000; -290.000
228.188;   43.250;  448.000;  568.000
228.332;  -81.825; -546.000; -472.000
228.476;  -20.500; -223.000; -149.000
228.620;  -23.900; -210.000; -150.000
228.764;   79.000;  431.000;  349.000
228.908;  -18.075; -155.000;   30.000
229.052;  -52.775; -615.000; -528.000
229.195;  -21.950; -172.000;   13.000
229.339;  -17.675; -235.000; -305.000
229.483;  -24.625;    5.000; -162.000
229.627;   -0.025; -156.000;  139.000
229.771;  -54.250; -218.000; -294.000
229.915;   13.225;  230.000;   79.000
230.059;  -80.775; -648.000; -663.000
230.202;  -43.100; -370.000; -317.000
230.346;  -29.300; -107.000;  107.000
230.490;  -55.350; -489.000; -521.000
230.634; -107.750; -736.000; -553.000
230.777;   83.325;  478.000;  509.000
230.921;  -53.675; -450.000; -359.000
231.065;  -34.725; -246.000; -286.000
231.209;   23.375;  261.000;  265.000
231.352;    3.250;   54.000;   40.000
231.496;    9.400;  568.000;  188.000
231.640;  -65.825; -693.000; -621.000
231.783;   51.425;  546.000;  525.000
231.927;  -38.750; -294.000; -365.000
232.071; -109.100; -962.000; -736.000
232.214;  -91.350; -980.000; -764.000
232.358;  -94.775; -683.000; -599.000
232.502;   10.825;  -19.000;    7.000
232.645; -124.375;-1090.000; -927.000
232.789;  -19.200; -257.000; -218.000
232.933;  -54.750; -407.000; -224.000
233.076; -116.225;-1038.000; -897.000
233.220;  -95.825; -752.000; -777.000
233.363;  -62.225; -669.000; -477.000
233.507;   49.400;  371.000;  129.000
233.650;  -99.500; -764.000; -834.000
233.794;   32.175;  438.000;  461.000
233.938;  -51.700; -530.000; -362.000
234.081;  -29.150;  -93.000;   31.000
234.225;  -52.650; -631.000; -539.000
234.368; -106.475; -773.000; -723.000
234.512;  -33.700; -385.000; -299.000
234.655;  -90.950; -582.000; -555.000
234.798;  -42.675; -493.000; -466.000
234.942; -122.850; -884.000;-1002.000
235.085;  -71.975; -651.000; -443.000
235.229;  -84.350; -405.000; -410.000
235.372;  -49.400; -247.000; -191.000
235.516;  -58.900; -397.000; -321.000
235.659;   12.950;   92.000;  121.000
235.802;  -26.000;  -38.000;  -22.000
235.946;   27.250;  335.000;  215.000
236.089;   14.150;  126.000;  250.000
236.233;   48.575;  275.000;  298.000
236.376;  -50.450; -235.000; -378.000
236.519;  -44.550; -297.000; -319.000
236.663;  -20.600; -215.000; -117.000
236.806; -130.500;-1029.000; -999.000
236.949;   60.125;  543.000;  431.000
237.092;   65.075;  412.000;  391.000
237.236;  -83.925; -589.000; -502.000
237.379;   73.100;  352.000;  428.000
237.522; -110.150; -879.000; -768.000
237.666;   -6.925; -271.000;   18.000
237.809; -121.125; -851.000; -823.000
237.952;   25.675;  469.000;  271.000
238.095;  -58.925; -447.000; -442.000
238.238;   76.950;  688.000;  700.000
238.382;   -4.800;  166.000;  103.000
238.525;  -54.175; -598.000; -511.000
238.668; -128.400;-1060.000; -985.000
238.811;  -82.975; -638.000; -643.000
238.954;  -55.775; -483.000; -334.000
239.097;   81.325;  617.000;  664.000
239.241;   12.825;  394.000;  326.000
239.384;  -27.000; -254.000; -214.000
239.527;  -56.875; -424.000; -224.000
239.670; -134.925; -994.000;-1091.000
239.813; -114.500; -696.000; -658.000
239.956;   87.475;  579.000;  473.000
240.099; -114.650; -778.000; -725.000
240.242;   57.000;  428.000;  432.000
240.385;   40.600;  466.000;  450.000
240.528;  -64.850; -706.000; -473.000
240.671;   12.850;  189.000;  134.000
240.814;  -41.475; -441.000; -158.000
240.957;  -95.200; -767.000; -578.000
241.100;  -90.700; -779.000; -755.000
241.243; -137.875;-1234.000; -893.000
241.386;  -79.300; -508.000; -379.000
241.529;  -91.150; -735.000; -547.000
241.672;  -59.325; -566.000; -495.000
241.815; -118.075; -832.000; -808.000
241.958;  -12.250; -125.000; -182.000
242.101;  -79.025; -545.000; -390.000
242.244;  -29.550; -270.000; -325.000
242.387;  -43.825; -304.000; -246.000
242.530;   50.750;  470.000;  134.000
242.673;  -44.625; -381.000; -309.000
242.815; -120.825; -925.000; -899.000
242.958;  -63.275; -482.000; -381.000
243.101;    8.725;  132.000;  187.000
243.244;  -85.800; -564.000; -521.000
243.387;  -42.325; -313.000; -316.000
243.530;  -85.150; -657.000; -674.000
243.672;    6.775;   43.000;  -92.000
243.815;  -46.375; -355.000; -283.000
243.958;   -4.000;   98.000;  -26.000
244.101;  -11.675;   59.000;  -16.000
244.243;  -12.725;  -47.000;  101.000
244.386; -107.175; -761.000; -630.000
244.529;  -13.875; -132.000; -139.000
244.672; -160.025;-1154.000; -951.000
244.814;  -83.925; -621.000; -794.000
244.957;  -26.150; -380.000; -304.000
245.100;  -69.575; -489.000; -489.000
245.242;  -58.425; -387.000; -374.000
245.385;   -1.250;  -59.000;  -39.000
245.528; -119.200; -871.000; -705.000
245.670;   92.400;  612.000;  634.000
245.813;  -90.050; -599.000; -547.000
245.956;  -35.825; -324.000; -275.000
246.098;  -63.400; -508.000; -650.000
246.241;   -2.325;  194.000;   48.000
246.383;  -35.800; -119.000;  -73.000
246.526;  -78.075; -454.000; -525.000
246.669; -113.300; -889.000; -780.000
246.811;   20.650;  172.000;   -1.000
246.954;  -57.525; -512.000; -426.000
247.096;  -17.675;  -84.000;   -6.000
247.239;  -76.925; -482.000; -445.000
247.381;  -67.325; -647.000; -488.000
247.524;   71.950;  645.000;  679.000
247.666;   -4.725;   58.000;   11.000
247.809; -111.825; -887.000; -691.000
247.951;   -3.775;  -75.000;  138.000
248.094;   17.500;  432.000;  308.000
248.236; -152.275;-1262.000;-1238.000
248.378;  -45.525; -356.000;  -81.000
248.521;  -48.775; -334.000; -337.000
248.663;  -49.750; -236.000; -267.000
248.806;  -37.850; -300.000; -266.000
248.948; -130.425; -886.000; -763.000
249.090;  -61.350; -428.000; -398.000
249.233;  -71.225; -344.000; -381.000
249.375;  -64.850; -474.000; -451.000
249.518;  -22.600;  -83.000; -133.000
249.660;  -12.000; -103.000;    3.000
249.802; -174.600;-1303.000;-1189.000
249.945;  -78.375; -612.000; -540.000
250.087; -126.825; -834.000; -768.000
250.229;  -56.600; -362.000; -480.000
250.371;  -75.400; -494.000; -439.000
250.514;  -44.525; -310.000; -244.000
250.656;  -13.900;   69.000;  102.000
250.798; -104.325; -849.000; -800.000
250.940;  -65.725; -322.000; -322.000
251.083;  -37.850; -335.000; -111.000
251.225;   32.600;  338.000;  310.000
251.367;  -37.275; -274.000; -373.000
251.509;  -57.875; -265.000; -210.000
251.651;  -99.800; -731.000; -671.000
251.794;   31.750;  538.000;  632.000
251.936; -100.850; -821.000; -747.000
252.078;  -74.025; -540.000; -461.000
252.220;  -63.375; -645.000; -477.000
252.362;   11.700;  344.000;  462.000
252.504;  -79.100; -677.000; -584.000
252.646; -108.925; -875.000; -722.000
252.788;   -9.300;   14.000; -128.000
252.931;  -69.325; -257.000; -253.000
253.073;  -49.100; -376.000; -317.000
253.215;  -12.750;  141.000;  122.000
253.357;  -14.975;   82.000; -153.000
253.499;  -49.100; -374.000; -234.000
253.641;  -98.075; -749.000; -594.000
253.783;  -91.725; -609.000; -527.000
253.925;  -82.650; -586.000; -591.000
254.067; -112.725; -744.000; -667.000
254.209;  -34.625; -391.000; -259.000
254.351; -134.150; -865.000; -883.000
254.493;  -46.875; -441.000; -417.000
254.635; -144.700; -936.000; -818.000
254.777;  -88.575; -752.000; -687.000
254.918;  -69.850; -512.000; -430.000
255.060;  -60.400; -551.000; -395.000
255.202;  -65.550; -473.000; -261.000
255.344;  -68.900; -658.000; -455.000
255.486;  -71.325; -471.000; -406.000
255.628;  -99.000; -780.000; -781.000
255.770;  -97.875; -676.000; -536.000
255.912;  -58.675; -559.000; -468.000
256.053;  -83.850; -730.000; -508.000
256.195;  139.000; 1008.000;  903.000
256.337; -107.525; -861.000; -595.000
256.479;   45.675;  532.000;  416.000
256.621;  -48.975; -394.000; -212.000
256.762;  -90.650; -789.000; -742.000
256.904;   25.975;  485.000;  487.000
257.046;  -41.375; -381.000; -271.000
257.188;  -45.925; -351.000; -264.000
257.329;  -74.175; -525.000; -464.000
257.471; -102.325; -939.000; -807.000
257.613;  -78.825; -584.000; -498.000
257.755; -134.050;-1073.000; -982.000
257.896;   27.850;  286.000;  392.000
258.038;  -70.800; -403.000; -352.000
258.180;  -47.875; -354.000; -279.000
258.321;  -86.900; -581.000; -457.000
258.463;   -8.825;  -71.000;  133.000
258.605;  -94.850; -562.000; -570.000
258.746;  -94.875; -886.000; -772.000
258.888; -144.550;-1026.000;-1020.000
259.029;    6.325;  121.000;   -8.000
259.171; -101.575; -614.000; -550.000
259.313;   -0.950;  -49.000;  -47.000
259.454;  -88.725; -536.000; -414.000
259.596;  -53.700; -483.000; -390.000
259.737;  -91.750; -590.000; -474.000
259.879;   36.900;  217.000;  311.000
260.020;   67.025;  901.000;  636.000
260.162;  -24.475; -146.000; -253.000
260.303; -116.000; -768.000; -687.000
260.445;  -73.175; -609.000; -613.000
260.586;   14.475;  392.000;  157.000
260.728;  -41.925; -360.000; -248.000
260.869;  -69.550; -350.000; -343.000
261.011;   60.100;  706.000;  537.000
261.152;  -72.050; -479.000; -319.000
261.293;  -75.500; -576.000; -595.000
261.435;  -42.375; -219.000; -184.000
261.576;  -54.950; -455.000; -325.000
261.718;   39.600;  420.000;  470.000
261.859; -117.200; -940.000; -949.000
262.000; -130.600; -951.000;-1016.000
262.142;  -20.300;  -52.000;  -60.000
262.283; -109.175; -808.000; -691.000
262.424;  -88.075; -666.000; -625.000
262.566; -153.625;-1161.000; -983.000
262.707; -108.450; -840.000; -830.000
262.848; -124.675; -769.000; -726.000
262.990;  -33.700; -362.000; -345.000
263.131;   55.550;  650.000;  681.000
263.272;  -10.900;  -61.000;  -41.000
263.413; -100.375; -589.000; -561.000
263.555;  -69.825; -669.000; -143.000
263.696;  -75.975; -550.000; -641.000
263.837;  -51.850; -449.000; -551.000
263.978;  -13.200;   -5.000;  -77.000
264.119;  -42.100; -283.000; -264.000
264.261; -117.100; -847.000; -630.000
264.402;   -0.475;   33.000;   40.000
264.543;  -88.200; -509.000; -524.000
264.684;   -8.325;   61.000;  -50.000
264.825;  -79.875; -816.000; -538.000
264.966;  -10.250;  -84.000;  -67.000
265.107;  -98.175; -646.000; -670.000
265.248; -111.625; -825.000; -812.000
265.390;  -20.350;  152.000;   -9.000
265.531;  -29.100; -238.000; -107.000
265.672;  -77.100; -557.000; -630.000
265.813;   55.800;  563.000;  439.000
265.954; -143.175; -959.000; -940.000
266.095;  -18.350; -372.000; -322.000
266.236; -109.675; -686.000; -548.000
266.377;  -26.700; -243.000; -297.000
266.518;  -67.200; -619.000; -547.000
266.659;   11.350;  170.000;  268.000
266.800;  -19.950;   83.000;   85.000
266.941;  -77.850; -487.000; -478.000
267.082;   10.000;  354.000;   99.000
267.223;  -60.000; -344.000; -273.000
267.364; -102.775; -892.000; -686.000
267.504;  -10.350;    3.000;  135.000
267.645;  -20.525;  160.000;   67.000
267.786;  -37.750; -147.000;  -86.000
267.927;  -83.825; -473.000; -379.000
268.068;  -33.275; -186.000;  -61.000
268.209;  -53.775; -175.000; -413.000
268.350;  -68.975; -388.000; -532.000
268.490;  -86.575; -648.000; -521.000
268.631;   29.650;  127.000;  225.000
268.772; -107.800; -874.000; -647.000
268.913;  -56.225; -328.000; -476.000
269.054;  -28.450; -117.000;   12.000
269.194;  -62.375; -418.000; -402.000
269.335; -147.750;-1137.000;-1074.000
269.476;  -29.700;   33.000;  -35.000
269.617;  -66.675; -347.000; -392.000
269.757;  -98.100; -713.000; -646.000
269.898; -114.425; -856.000; -613.000
270.039;  -58.925; -415.000; -405.000
270.180; -129.425; -952.000; -816.000
270.320;  -30.375; -190.000; -250.000
270.461;  -64.150; -277.000; -249.000
270.602;  -22.825; -186.000; -156.000
270.742; -127.350; -868.000; -943.000
270.883;  -61.900; -442.000; -390.000
271.023;  -76.950; -358.000; -357.000
271.164;  -72.625; -607.000; -528.000
271.305; -104.350; -666.000; -654.000
271.445;  -96.375; -722.000; -683.000
271.586;  -74.675; -462.000; -283.000
271.726;  -52.900; -397.000; -322.000
271.867;  -99.750; -594.000; -534.000
272.008;  -34.825; -473.000; -285.000
272.148;   30.125;  462.000;  468.000
272.289;  -32.550; -113.000; -181.000
272.429;  -24.800;   19.000;  185.000
272.570;  -93.875; -633.000; -737.000
272.710;  -97.675; -825.000; -775.000
272.851;  -40.975;  113.000; -130.000
272.991; -156.350;-1173.000;-1077.000
273.131;  -71.375; -419.000; -459.000
273.272; -115.150; -683.000; -723.000
273.412;  -23.325; -143.000;  -31.000
273.553;  -88.850; -488.000; -507.000
273.693;   88.325;  913.000;  858.000
273.834; -126.150; -894.000; -692.000
273.974;  -91.975; -664.000; -615.000
274.114; -107.650; -772.000; -560.000
274.255;   30.200;  414.000;  373.000
274.395;  -39.975; -180.000; -125.000
274.535;   17.850;  199.000;  350.000
274.676;   11.025;  225.000;   94.000
274.816;   -3.775;  110.000;   34.000
274.956;  -96.650; -624.000; -690.000
275.097; -125.625;-1014.000; -922.000
275.237; -126.250; -913.000; -803.000
275.377; -101.025; -778.000; -689.000
275.517; -145.500; -878.000; -937.000
275.658;  -68.725; -590.000; -555.000
275.798;  -87.350; -606.000; -413.000
275.938;    7.050;  215.000;  323.000
276.078;  -88.800; -626.000; -395.000
276.218;   -0.275;   99.000;  104.000
276.359; -125.450;-1026.000;-1024.000
276.499;  -84.750; -605.000; -446.000
276.639;  -38.100; -305.000; -151.000
276.779;  -61.500; -475.000; -357.000
276.919; -118.600; -783.000; -624.000
277.059;  -32.100; -261.000; -212.000
277.199;  -60.350; -357.000; -259.000
277.340;   21.675;  287.000;  175.000
277.480; -113.025; -840.000; -693.000
277.620;   17.525;  192.000;   16.000
277.760; -205.950;-1533.000;-1294.000
277.900;   -3.875;  113.000;   33.000
278.040;   -6.225;  137.000;  159.000
278.180;   17.825;  270.000;  170.000
278.320;  -22.550;   21.000;   56.000
278.460;  -77.150; -443.000; -469.000
278.600; -105.500; -708.000; -598.000
278.740;   41.950;  448.000;  224.000
278.880; -137.300; -768.000; -791.000
279.020;  -34.225; -194.000; -144.000
279.160; -103.450; -672.000; -595.000
279.300; -120.750; -926.000; -873.000
279.440; -119.625; -709.000; -622.000
279.579; -123.775;-1014.000; -929.000
279.719;  -72.300; -410.000; -394.000
279.859;   -1.025;   -4.000;   41.000
279.999;  -42.175; -208.000;  101.000
280.139;  -63.025; -435.000; -387.000
280.279; -114.225; -708.000; -745.000
280.419;  -20.650; -229.000; -147.000
280.559;  -36.500; -259.000; -180.000
280.698;  -92.200; -790.000; -639.000
280.838; -124.050; -778.000; -800.000
280.978; -109.275; -846.000; -790.000
281.118; -120.975; -811.000; -704.000
281.257;   -2.050;   24.000;    6.000
281.397; -151.200;-1094.000; -960.000
281.537; -104.800; -599.000; -712.000
281.677;  -38.700; -150.000; -101.000
281.816;  -86.275; -700.000; -630.000
281.956;  -39.425; -193.000; -257.000
282.096;  -64.150; -539.000; -396.000
282.235; -119.575; -672.000; -638.000
282.375;  -27.475; -243.000;  -98.000
282.515; -113.975; -715.000; -707.000
282.654;  -18.700;   29.000;  106.000
282.794;    9.875;  388.000;  244.000
282.934;  -61.975; -530.000; -491.000
283.073; -139.425;-1030.000; -857.000
283.213;  -58.900; -460.000; -467.000
283.353;  -72.825; -408.000; -349.000
283.492;  -34.750; -264.000; -296.000
283.632;  -69.300; -254.000; -168.000
283.771; -101.750; -859.000; -730.000
283.911;  -63.775; -369.000; -260.000
284.050; -106.050; -794.000; -748.000
284.190; -166.450;-1229.000;-1096.000
284.329; -134.675;-1055.000; -964.000
284.469;  -91.050; -516.000; -591.000
284.608;  -70.700; -559.000; -598.000
284.748;  -90.425; -614.000; -570.000
284.887;   -8.900;  -87.000;  -20.000
285.027; -133.750; -844.000; -892.000
285.166;  -44.125; -192.000; -249.000
285.306;  -29.625; -116.000;  -33.000
285.445;  -37.225; -229.000; -343.000
285.584; -115.100; -630.000; -494.000
285.724;  -58.750; -282.000; -322.000
285.863; -111.325; -857.000; -507.000
286.002;  -51.275; -366.000; -276.000
286.142; -117.600; -715.000; -622.000
286.281;  -75.850; -525.000; -493.000
286.420;  -93.725; -554.000; -417.000
286.560;   72.300;  653.000;  623.000
286.699; -139.325; -958.000; -912.000
286.838;  -80.650; -590.000; -591.000
286.978; -101.350; -533.000; -537.000
287.117; -132.375;-1085.000; -950.000
287.256;  -44.225; -228.000; -211.000
287.395;  -50.525; -197.000; -378.000
287.535;  -68.875; -370.000; -298.000
287.674;  -85.425; -509.000; -484.000
287.813;   26.175;  661.000;  533.000
287.952; -139.725;-1010.000; -871.000
288.091; -146.725;-1049.000; -915.000
288.231;  -18.125;   13.000;   15.000
288.370; -180.050;-1217.000;-1200.000
288.509; -103.150; -728.000; -645.000
288.648; -100.050; -770.000; -548.000
288.787;  -30.300; -243.000;  -87.000
288.926;  -79.575; -454.000; -475.000
289.065;   80.950;  859.000;  672.000
289.204;  -76.875; -377.000; -217.000
289.344; -101.650; -791.000; -690.000
289.483;  -10.625;  416.000;  304.000
289.622;  -43.975; -291.000; -149.000
289.761;  -30.300; -309.000; -166.000
289.900; -110.950; -785.000; -626.000
290.039;  -44.075;  -12.000;  -95.000
290.178;  -62.875; -274.000; -180.000
290.317;  -78.850; -618.000; -479.000
290.456;  -69.500; -463.000; -451.000
290.595; -126.275; -961.000; -833.000
290.734; -147.675; -904.000; -891.000
290.873;  -88.125; -456.000; -420.000
291.011; -112.425; -833.000; -843.000
291.150; -104.125; -770.000; -682.000
291.289;  -33.425; -343.000; -110.000
291.428; -101.100; -599.000; -480.000
291.567;  -64.250; -370.000; -442.000
291.706;   -8.050;  109.000;  154.000
291.845; -100.625; -597.000; -505.000
291.984; -169.000;-1234.000;-1061.000
292.122;   63.575;  602.000;  582.000
292.261;   29.150;  620.000;  463.000
292.400;  -15.050; -144.000;  211.000
292.539; -140.800; -959.000; -813.000
292.678;  -49.825; -325.000; -300.000
292.816; -166.625;-1136.000; -965.000
292.955; -101.850; -844.000; -684.000
293.094;  -50.675; -173.000; -337.000
293.233;  -59.600; -556.000; -400.000
293.371;  -47.425; -225.000;  -84.000
293.510;  -97.300; -866.000; -780.000
293.649; -151.925; -959.000; -924.000
293.787; -144.800;-1083.000;-1012.000
293.926;  -38.500; -113.000;  -32.000
294.065;  -59.075; -379.000; -290.000
294.203;   14.375;  298.000;  406.000
294.342;   -4.875;   74.000;  156.000
294.481; 5079.050;51180.000; -836.000
294.619;  -46.700; -425.000; -582.000
294.758; -174.900;-1230.000;-1137.000
294.896;  -21.900; -125.000;    5.000
295.035; -154.625;-1040.000;-1006.000
295.174; -136.750;-1082.000; -954.000
295.312;  -74.950; -323.000; -203.000
295.451;  -69.125; -307.000; -428.000
295.589;  -85.500; -389.000; -518.000
295.728;   -7.850; -292.000; -165.000
295.866;  -32.150;  -36.000;  -51.000
296.005;  -73.475; -584.000; -341.000
296.143; -111.725; -558.000; -596.000
296.282; -113.150; -957.000; -881.000
296.420;  -94.550; -657.000; -557.000
296.559;  -99.400; -892.000; -633.000
296.697; -116.950; -847.000; -665.000
296.835; -150.150;-1141.000;-1002.000
296.974;  -15.325;  -23.000;   39.000
297.112;  -80.725; -443.000; -504.000
297.251; -128.400; -815.000; -755.000
297.389;  -83.950; -576.000; -438.000
297.527;  -46.150; -145.000;  -83.000
297.666;  -88.200; -486.000; -438.000
297.804;  -67.950; -404.000; -264.000
297.942;  -31.875; -136.000; -161.000
298.081;  -29.500; -183.000;   63.000
298.219;  -14.825;  -17.000;  -19.000
298.357;  -50.075; -144.000;  -71.000
298.495; -117.175; -810.000; -812.000
298.634;  -24.325;  245.000;  219.000
298.772;  -51.325; -220.000; -338.000
298.910;  -65.150; -309.000; -182.000
299.048;  -23.050; -130.000; -153.000
299.187;  -54.800; -350.000; -250.000
299.325;  -24.275;   52.000;  122.000
299.463;  -77.600; -389.000; -299.000
299.601;  -62.350; -327.000; -271.000
299.739; -147.575; -908.000; -883.000
299.877; -104.575; -791.000; -703.000
300.016; -154.700;-1095.000; -935.000
300.154;  -18.000;  -19.000; -161.000
300.292;  -77.925; -428.000; -348.000
300.430;  -58.200; -408.000; -291.000
300.568; -135.100; -940.000; -874.000
300.706;  -87.025; -366.000; -469.000
300.844; -169.125;-1108.000; -979.000
300.982;   30.000;  246.000;  282.000
301.120; -161.225; -965.000; -866.000
301.258;  -90.500; -812.000; -705.000
301.396;  -11.025;  104.000;  -41.000
301.534;  -54.750; -218.000; -293.000
301.672;  -97.775; -664.000; -521.000
301.810; -102.375; -613.000; -545.000
301.948;  -20.400;   53.000;  149.000
302.086;  -39.450; -250.000;  -32.000
302.224;  -98.250; -610.000; -585.000
302.362;  -93.600; -558.000; -622.000
302.500; -139.425; -923.000; -893.000
302.638;   -7.575;  128.000;  245.000
302.776;  -48.375; -352.000; -408.000
302.913;   17.450;  447.000;  236.000
303.051;  -51.375;  -86.000;  -23.000
303.189;    0.950;   90.000;  118.000
303.327;  -66.725; -341.000; -256.000
303.465;  -89.925; -832.000; -588.000
303.603; -106.625; -805.000; -604.000
303.740;   14.625;  417.000;  241.000
303.878; -132.400; -800.000; -759.000
304.016; -113.875; -915.000; -790.000
304.154; -173.325;-1123.000;-1152.000
304.291;  -66.100; -505.000; -554.000
304.429;  -30.300;  102.000;   74.000
304.567; -152.950; -908.000; -893.000
304.705;  -97.750; -408.000; -515.000
304.842;  -95.425; -616.000; -540.000
304.980;  -12.575;  215.000;   35.000
305.118;  -60.250; -367.000; -365.000
305.255; -153.850; -945.000; -927.000
305.393;    7.925;  178.000;  239.000
305.531; -145.350;-1173.000; -956.000
305.668;  -83.450; -663.000; -582.000
305.806;  -84.300; -358.000; -439.000
305.943;  -88.350; -629.000; -637.000
306.081;  -67.325; -378.000; -267.000
306.219; -113.650; -863.000; -748.000
306.356;  -16.850;  158.000;   27.000
306.494;   75.675;  981.000;  761.000
306.631;  -35.900;  -11.000;  -55.000
306.769;  -42.725; -613.000; -485.000
306.906;  -95.750; -284.000; -258.000
307.044;  -80.425; -473.000; -488.000
307.181;  -87.575; -410.000; -332.000
307.319;   -2.675;  112.000;   87.000
307.456; -174.900;-1191.000;-1153.000
307.594; -128.700; -980.000; -727.000
307.731;  -63.725; -371.000; -164.000
307.868;  -19.700;  -15.000;   20.000
308.006; -150.350; -961.000; -847.000
308.143; -101.275; -618.000; -330.000
308.281;  -45.000;  -37.000; -254.000
308.418; -104.775; -748.000; -640.000
308.555;  -97.775; -400.000; -250.000
308.693;  -94.125; -577.000; -573.000
308.830; -117.300; -712.000; -657.000
308.967;  -26.775; -215.000;  -95.000
309.105;  -77.300; -507.000; -396.000
309.242;  -73.325; -468.000; -367.000
309.379; -101.425; -577.000; -655.000
309.517; -138.525; -936.000; -948.000
309.654; -126.275; -910.000; -734.000
309.791;  -95.250; -662.000; -580.000
309.928; -146.700; -977.000; -914.000
310.065;   67.200;  819.000;  697.000
310.203; -131.275; -825.000; -850.000
310.340;  -81.450; -465.000; -321.000
310.477;  -98.400; -412.000; -516.000
310.614;  -70.450; -383.000; -473.000
310.751;  -99.475; -427.000; -518.000
310.889;  -33.775;    1.000;   11.000
311.026; -160.625;-1161.000; -939.000
311.163;  -65.375; -386.000; -380.000
311.300; -100.975; -512.000; -479.000
311.437;  -97.850; -658.000; -619.000
311.574; -162.475;-1226.000; -985.000
311.711;  -81.500; -595.000; -433.000
311.848;  -63.500; -380.000; -388.000
311.985;   13.825;  270.000;   93.000
312.122; -158.700; -932.000; -762.000
312.259; -133.050; -941.000; -994.000
312.396; -110.775; -508.000; -551.000
312.533; -105.850; -812.000; -790.000
312.670; -163.675;-1070.000; -898.000
312.807;  -69.650; -352.000; -367.000
312.944;  -98.450; -513.000; -611.000
313.081;  -67.800; -150.000; -415.000
313.218; -154.400;-1111.000; -867.000
313.355;  -66.925; -531.000; -449.000
313.492;  -74.525; -455.000; -292.000
313.629;   54.700;  815.000;  735.000
313.766; -171.800;-1176.000;-1008.000
313.902;  -38.900; -186.000;   21.000
314.039;  -72.350; -372.000; -289.000
314.176;    2.175;  286.000;  192.000
314.313; -111.625; -569.000; -473.000
314.450; -105.300; -788.000; -684.000
314.587; -100.975; -468.000; -480.000
314.723;  -26.700;  -78.000;  130.000
314.860;   -2.675;  318.000;  332.000
314.997;    1.325;  223.000;  142.000
315.134;  -80.175; -385.000; -368.000
315.270;  -85.375; -480.000; -496.000
315.407; -158.275;-1094.000; -967.000
315.544;  -92.025; -657.000; -538.000
315.681; -116.550; -681.000; -565.000
315.817;  -58.000; -133.000; -176.000
315.954;  -86.575; -613.000; -392.000
316.091; -152.550;-1045.000;-1023.000
316.227;  -52.225;  -71.000; -179.000
316.364;   -2.400;   23.000;    6.000
316.500;  -58.150; -113.000; -300.000
316.637;  -65.875; -181.000; -302.000
316.774;  -97.550; -625.000; -358.000
316.910; -100.100; -598.000; -629.000
317.047;  -91.525; -487.000; -351.000
317.183;  -83.500; -435.000; -566.000
317.320;  -89.250; -367.000; -321.000
317.456; -118.475; -733.000; -805.000
317.593; -108.225; -598.000; -641.000
317.729;  -28.050;  168.000;  -67.000
317.866; -206.900;-1434.000;-1285.000
318.002; -115.275; -708.000; -948.000
318.139; -134.150; -883.000; -867.000
318.275; -135.175;-1003.000; -738.000
318.412;  -93.925; -517.000; -336.000
318.548; -103.175; -751.000; -720.000
318.685; -160.600; -985.000; -888.000
318.821; -106.700; -762.000; -735.000
318.957;  -49.025;   34.000;  -23.000
319.094;   10.675;  297.000;  154.000
319.230; -143.000; -756.000; -742.000
319.367;  -77.500; -471.000; -520.000
319.503;  -82.375; -538.000; -436.000
319.639; -104.225; -877.000; -793.000
319.775; -116.675; -750.000; -685.000
319.912;  -71.025; -424.000; -519.000
320.048; -170.275;-1184.000;-1184.000
320.184;  -10.625;   59.000;   70.000
320.321;  -76.275; -497.000; -467.000
320.457;   25.675;  475.000;  662.000
320.593;  -98.800; -375.000; -382.000
320.729; -116.075; -732.000; -734.000
320.866; -105.800; -577.000; -635.000
321.002; -111.525; -759.000; -809.000
321.138;  -73.175; -135.000; -211.000
321.274;  -27.300; -148.000; -115.000
321.410;  -96.375; -585.000; -353.000
321.546; -150.300;-1011.000; -911.000
321.683;    7.450;  400.000;  185.000
321.819;  -35.650;  -48.000; -117.000
321.955; -123.075; -743.000; -722.000
322.091;  -77.200; -585.000; -540.000
322.227;  -68.225; -382.000; -202.000
322.363;  -65.350; -320.000; -215.000
322.499;  -92.425; -343.000; -331.000
322.635;   47.600;  636.000;  443.000
322.771;  -43.550; -139.000;   12.000
322.907;    7.175;  129.000;  327.000
323.043;  -63.425; -115.000; -206.000
323.179;  -81.725; -394.000; -363.000
323.315;  -98.225; -401.000; -371.000
323.451;  -56.525; -328.000; -236.000
323.587;  -65.400;  -60.000;  -77.000
323.723;  -92.325; -682.000; -601.000
323.859;  -48.150; -258.000;  -76.000
323.995;  -73.300; -467.000; -409.000
324.131; -152.975; -967.000; -892.000
324.267;  -53.825; -254.000; -276.000
324.402; -156.475; -960.000; -983.000
324.538;  -65.250; -279.000; -104.000
324.674;   -8.775;  164.000;   77.000
324.810;   -3.400;  226.000;  308.000
324.946;  -89.000; -810.000; -658.000
325.082;  -84.475; -568.000; -475.000
325.217;  -31.050;  -62.000;   16.000
325.353; -113.350; -764.000; -659.000
325.489; -104.050; -540.000; -506.000
325.625;  -83.950; -579.000; -525.000
325.760;    6.175;  517.000;  376.000
325.896;  -88.225; -515.000; -702.000
326.032;  -84.500; -403.000; -352.000
326.168;  -78.250; -462.000; -369.000
326.303;  -92.025; -352.000; -461.000
326.439;  -51.825; -336.000; -276.000
326.575;  -50.150; -190.000;  -29.000
326.710;  -38.675; -156.000;  -30.000
326.846;  -43.750;  146.000;  103.000
326.982; -111.075; -530.000; -548.000
327.117; -100.625; -481.000; -442.000
327.253; -126.550; -745.000; -742.000
327.388; -195.000;-1137.000;-1153.000
327.524; -113.300; -811.000; -578.000
327.659;  -56.125;  -58.000;  -22.000
327.795;  -17.700;   69.000;   45.000
327.931; -110.975; -723.000; -499.000
328.066;  -60.125; -417.000; -276.000
328.202;  -50.875;   12.000; -129.000
328.337;   59.925;  957.000;  713.000
328.473;   10.500;  -12.000;  -74.000
328.608;  -70.425; -256.000; -267.000
328.743; -135.700; -799.000; -664.000
328.879;   -3.100;  214.000;  114.000
329.014;  -46.775; -102.000; -122.000
329.150;  -98.400; -358.000; -483.000
329.285;  -94.075; -465.000; -466.000
329.421;  -69.000; -548.000; -246.000
329.556;  -54.425;  -36.000;   85.000
329.691;  -98.325; -633.000; -615.000
329.827; -100.450; -626.000; -480.000
329.962;  -20.300;  131.000; -301.000
330.097; -120.525; -673.000; -585.000
330.233;  -72.775; -410.000; -223.000
330.368; -132.750; -839.000; -628.000
330.503;  -25.200;    3.000;   98.000
330.638;  -24.800;  -93.000; -125.000
330.774;  -95.975; -609.000; -530.000
330.909;  -70.450; -434.000; -244.000
331.044;  -99.025; -714.000; -708.000
331.179; -182.000;-1217.000;-1109.000
331.315;   -7.925;   77.000;   20.000
331.450;  -11.500;  157.000;  285.000
331.585; -120.575; -805.000; -706.000
331.720; -123.350; -510.000; -460.000
331.855;  -26.525;  -35.000; -102.000
331.990;  -35.575;   62.000;  138.000
332.126;  -17.225; -110.000;   71.000
332.261;  -88.400; -379.000; -265.000
332.396;  -58.750; -135.000; -242.000
332.531; -176.000;-1074.000;-1031.000
332.666;  -79.625; -519.000; -363.000
332.801; -129.275; -726.000; -807.000
332.936;  -45.200; -192.000; -122.000
333.071; -150.925; -870.000; -817.000
333.206;  -16.900;  307.000;  379.000
333.341;    3.925;  344.000;  418.000
333.476; -102.950; -627.000; -623.000
333.611;  -67.650; -251.000; -173.000
333.746;  -65.450; -381.000; -464.000
333.881; -155.725; -973.000; -935.000
334.016; -139.750; -936.000; -917.000
334.151; -140.550; -746.000; -702.000
334.286;   -9.600;  152.000;  186.000
334.421;  -53.450; -125.000; -178.000
334.556; -102.900; -611.000; -567.000
334.690; -112.850; -631.000; -577.000
334.825;   16.600;  381.000;   83.000
334.960;  -90.825; -285.000; -413.000
335.095;  -25.850;  135.000;  -91.000
335.230; -132.150; -722.000; -738.000
335.365; -156.050;-1084.000; -990.000
335.499; -168.600;-1108.000;-1037.000
335.634;  -24.450;    9.000;  534.000
335.769; -123.650; -755.000; -720.000
335.904; -101.925; -603.000; -561.000
336.038; -139.475; -735.000; -657.000
336.173; -173.800;-1206.000;-1194.000
336.308;  -73.750; -116.000; -189.000
336.443;  -77.400; -544.000; -634.000
336.577; -149.375; -936.000; -787.000
336.712;  -21.750;   -4.000;  -12.000
336.847; -133.450; -724.000; -607.000
336.981;  -71.375; -272.000; -208.000
337.116;   18.325;  615.000;  501.000
337.250;  -83.800; -434.000; -421.000
337.385;  -69.075; -297.000; -208.000
337.520; -124.175; -632.000; -603.000
337.654;  -72.325; -215.000; -126.000
337.789; -134.325; -989.000; -933.000
337.923;  -57.100; -104.000; -205.000
338.058; -115.875; -673.000; -738.000
338.192; -102.175; -611.000; -488.000
338.327;  -61.300;  -18.000; -155.000
338.461;  -96.325; -299.000; -469.000
338.596; -105.725; -780.000; -638.000
338.730; -143.625; -767.000; -803.000
338.865;  -44.400;  -46.000; -140.000
338.999; -135.750; -846.000; -702.000
339.134; -109.825; -634.000; -536.000
339.268; -131.300; -741.000; -603.000
339.403; -121.850; -740.000; -775.000
339.537; -140.400; -894.000; -820.000
339.671; -139.025; -829.000; -813.000
339.806; -115.525; -556.000; -512.000
339.940;  -48.925; -261.000; -235.000
340.074; -112.850; -685.000; -510.000
340.209;  -65.825; -351.000; -230.000
340.343; -115.925; -517.000; -573.000
340.477;  109.075;  998.000; 1036.000
340.612; -142.500;-1033.000; -900.000
340.746;  -64.925; -199.000; -243.000
340.880; -132.800; -924.000; -785.000
341.014;  -38.575;  -45.000; -154.000
341.149; -129.625; -756.000; -718.000
341.283; -123.825; -839.000; -754.000
341.417; -158.725;-1124.000; -938.000
341.551; -115.175; -768.000; -708.000
341.685; -113.950; -633.000; -611.000
341.820;  -95.150; -562.000; -493.000
341.954;  -84.200; -218.000; -349.000
342.088; -149.975;-1102.000;-1019.000
342.222;   16.925;  565.000;  618.000
342.356;  -94.875; -395.000; -335.000
342.490; -135.650; -880.000; -841.000
342.624;  -65.700; -339.000; -242.000
342.758;  -71.350; -364.000; -312.000
342.892; -108.500; -710.000; -585.000
343.026;  -47.550;  -58.000; -116.000
343.160;  -80.325; -426.000; -376.000
343.294; -101.525; -474.000; -337.000
343.428;  -95.200; -488.000; -448.000
343.562;  -53.800; -172.000;  -23.000
343.696;  -54.625; -385.000; -314.000
343.830;  -82.400; -362.000; -356.000
343.964;  -52.450; -231.000; -168.000
344.098;  -37.425;  199.000;   70.000
344.232;  -52.650; -266.000; -127.000
344.366; -106.225; -567.000; -453.000
344.500; -116.325; -665.000; -744.000
344.634;  -78.950; -324.000; -164.000
344.768;  -95.050; -531.000; -341.000
344.902;  -24.550;  278.000;  256.000
345.035;  -86.300; -556.000; -496.000
345.169; -147.200; -933.000; -656.000
345.303;  -96.700; -308.000; -482.000
345.437; -134.450; -826.000; -717.000
345.571; -115.250; -675.000; -594.000
345.704; -103.700; -309.000; -532.000
345.838;  -60.775; -331.000; -284.000
345.972; -105.675; -543.000; -495.000
346.106;  -37.000; -179.000; -190.000
346.239;  -63.200; -312.000; -243.000
346.373;  -77.025; -343.000; -302.000
346.507; -174.350; -950.000; -962.000
346.640;  -31.025;  -30.000;   13.000
346.774; -128.725; -650.000; -797.000
346.908;  -30.875; -138.000;  -11.000
347.041; -111.525; -646.000; -593.000
347.175;  -17.425;  259.000;   27.000
347.309; -125.000; -698.000; -628.000
347.442; -131.125; -883.000; -732.000
347.576;   40.375;  670.000;  668.000
347.709;  -46.600; -123.000;  -52.000
347.843; -154.800; -933.000; -825.000
347.976;   -7.725;  235.000;  294.000
348.110; -187.875;-1268.000;-1186.000
348.243; -117.075; -679.000; -772.000
348.377;  -47.125;  -26.000;   60.000
348.510;   24.325;  403.000;  540.000
348.644;  -73.675;  -37.000; -159.000
348.777;  -20.300;  180.000;  191.000
348.911;  -74.600; -142.000; -112.000
349.044;   17.825;  471.000;  448.000
349.178; -174.700;-1069.000;-1006.000
349.311;  -17.575;  141.000;  255.000
349.444; -147.875; -927.000; -813.000
349.578;  -64.250; -347.000; -200.000
349.711; -147.425; -959.000; -862.000
349.845; -103.600; -661.000; -591.000
349.978; -177.525;-1224.000;-1137.000
350.111; -115.625; -546.000; -612.000
350.244; -132.300; -596.000; -700.000
350.378;  -87.175; -392.000; -393.000
350.511;  -94.075; -393.000; -426.000
350.644; -132.325; -808.000; -806.000
350.778;  -38.700;  168.000;  104.000
350.911;  -29.275;  134.000;  140.000
351.044; -125.150; -685.000; -615.000
351.177;  -62.500; -321.000; -281.000
351.310;  -52.825;    3.000; -131.000
351.444; -136.375; -888.000; -788.000
351.577;  -43.375;  140.000;   90.000
351.710;   32.400;  593.000;  417.000
351.843;  -55.650; -165.000;  -77.000
351.976;  -24.475;  149.000;  -79.000
352.109; -109.775; -621.000; -612.000
352.242;  -94.350; -464.000; -419.000
352.376; -122.375; -580.000; -636.000
352.509;  -81.275; -437.000; -356.000
352.642; -172.925; -654.000; -604.000
352.775;  -55.700; -141.000;  -98.000
352.908; -154.200; -933.000; -904.000
353.041; -129.675; -814.000; -824.000
353.174;  -90.075; -551.000; -424.000
353.307; -127.875; -753.000; -764.000
353.440;   17.625;  541.000;  453.000
353.573; -149.400; -957.000;-1008.000
353.706; -127.500; -384.000; -558.000
353.839;  -66.125; -264.000; -220.000
353.971; -111.250; -657.000; -512.000
354.104; -147.625; -896.000; -835.000
354.237; -132.925; -627.000; -662.000
354.370; -123.350; -846.000; -879.000
354.503; -205.050;-1231.000;-1308.000
354.636;  -86.900; -529.000; -348.000
354.769; -157.000; -937.000; -860.000
354.902;  -71.675; -230.000; -139.000
355.034;  -52.200; -164.000; -220.000
355.167;  -60.825; -262.000; -162.000
355.300; -167.725;-1061.000; -880.000
355.433;  -30.825;  -71.000;  -14.000
355.565; -100.350; -402.000; -384.000
355.698;  -72.550; -356.000; -296.000
355.831; -140.450; -882.000; -801.000
355.964;  -62.375; -285.000; -170.000
356.096; -152.050; -856.000; -843.000
356.229; -103.050; -523.000; -530.000
356.362;  -83.075; -373.000; -266.000
356.494;  -50.550; -229.000; -162.000
356.627;   -2.300;  269.000;  377.000
356.760;  -41.975;  120.000;   53.000
356.892;  -80.275; -286.000; -601.000
357.025;   16.500;  403.000;  389.000
357.157;  -63.525; -167.000; -179.000
357.290; -136.425; -856.000; -713.000
357.423; -123.200; -667.000; -556.000
357.555;  -60.850; -217.000; -228.000
357.688; -105.575; -483.000; -364.000
357.820; -143.450; -870.000; -877.000
357.953; -104.825; -563.000; -589.000
358.085; -115.000; -632.000; -612.000
358.218; -175.275;-1131.000; -932.000
358.350;  -40.150;  -58.000;  312.000
358.483; -203.750;-1300.000;-1187.000
358.615; -168.100;-1182.000;-1078.000
358.747; -199.600;-1187.000;-1058.000
358.880; -116.800; -810.000; -744.000
359.012;  -90.175; -376.000; -202.000
359.145;  -92.175; -480.000; -511.000
359.277; -160.375; -962.000; -913.000
359.409;   19.425;  536.000;  231.000
359.542; -135.475; -738.000; -688.000
359.674;  -49.425;   46.000;   13.000
359.806; -107.250; -565.000; -438.000
359.939;  -87.125; -617.000; -516.000
360.071; -121.775; -583.000; -579.000
360.203;  -79.925; -411.000; -364.000
360.335;  -49.675;  164.000;  -16.000
360.468;  -71.850; -249.000; -307.000
360.600; -109.025; -547.000; -454.000
360.732; -119.275; -546.000; -423.000
360.864; -190.400;-1216.000;-1044.000
360.996;  -83.350; -516.000; -554.000
361.129; -109.650; -389.000; -598.000
361.261;  -37.500;  110.000; -113.000
361.393;  -81.975; -252.000; -214.000
361.525;  -23.650;   94.000;  244.000
361.657; -143.825; -821.000; -703.000
361.789;  -48.975; -139.000; -155.000
361.921; -109.400; -642.000; -593.000
362.053;   23.800;  524.000;  541.000
362.185;  -31.350;  288.000;   72.000
362.318; -125.675; -709.000; -705.000
362.450;   -1.375;  294.000;  444.000
362.582; -149.775; -913.000; -870.000
362.714;  -81.900; -353.000; -332.000
362.846;  -98.525; -606.000; -490.000
362.978; -164.075; -941.000; -811.000
363.109;  -62.400; -161.000; -260.000
363.241; -144.575; -739.000; -749.000
363.373; -111.600; -649.000; -564.000
363.505;  -71.325; -186.000;  -91.000
363.637; -108.875; -787.000; -601.000
363.769; -191.075;-1067.000;-1080.000
363.901; -110.050; -596.000; -654.000
364.033; -189.750;-1103.000;-1062.000
364.165;  -77.825; -283.000; -283.000
364.296;  -80.050; -316.000; -177.000
364.428; -201.975;-1344.000;-1220.000
364.560; -132.900; -679.000; -661.000
364.692; -120.425; -738.000; -835.000
364.824; -115.975; -588.000; -456.000
364.955;  -82.800; -402.000; -564.000
365.087; -171.600;-1097.000; -852.000
365.219; -125.700; -686.000; -816.000
365.351; -120.150; -526.000; -572.000
365.482;  -18.650;  300.000;  240.000
365.614;  -89.800; -402.000; -314.000
365.746; -129.325; -729.000; -752.000
365.877; -140.525; -706.000; -672.000
366.009;  -57.575;  -35.000;  -62.000
366.141; -177.825;-1249.000;-1134.000
366.272; -137.100; -803.000; -719.000
366.404; -161.950;-1005.000; -874.000
366.535;  -43.775; -139.000;  -12.000
366.667; -128.600; -644.000; -649.000
366.799;    4.950;  353.000;  203.000
366.930; -168.300; -862.000; -996.000
367.062; -104.575; -639.000; -613.000
367.193; -141.175; -872.000; -842.000
367.325; -110.550; -580.000; -684.000
367.456;  -83.850; -246.000;   31.000
367.588;  -71.050; -371.000; -318.000
367.719;  -59.275;  -44.000;  -45.000
367.851;  -66.575; -222.000; -241.000
367.982; -159.050; -875.000; -732.000
368.113;  -83.700; -475.000; -358.000
368.245; -165.525; -960.000; -841.000
368.376;  -76.025; -254.000; -302.000
368.508;  -87.075; -188.000; -263.000
368.639; -166.300;-1166.000;-1034.000
368.770; -133.500; -670.000; -589.000
368.902; -149.150; -836.000; -926.000
369.033; -170.825; -906.000; -855.000
369.164; -109.500; -720.000; -653.000
369.296; -132.150; -452.000; -601.000
369.427;  -53.575; -209.000; -144.000
369.558; -105.525; -593.000; -377.000
369.689; -119.775; -721.000; -569.000
369.821; -153.600; -951.000; -845.000
369.952;  -45.650;   42.000; -108.000
370.083;  -76.900; -229.000; -108.000
370.214; -124.325; -735.000; -650.000
370.345;  -41.800;   65.000;   81.000
370.477; -150.000; -810.000; -790.000
370.608;  -81.950; -328.000; -264.000
370.739; -177.450;-1233.000;-1292.000
370.870; -168.325;-1102.000; -923.000
371.001;  -90.150; -378.000; -467.000
371.132; -140.775; -754.000; -735.000
371.263;  -51.550;  -42.000; -148.000
371.394; -160.250; -841.000; -748.000
371.525;   -3.650;  345.000;  225.000
371.657; -148.550; -808.000; -670.000
371.788;  -20.600;  103.000;  199.000
371.919;  -90.450; -384.000; -304.000
372.050;  -42.025;  -91.000; -156.000
372.181;  -60.875; -188.000; -294.000
372.311;  -37.675;   42.000; -127.000
372.442; -102.100; -457.000; -451.000
372.573;  -72.800; -444.000; -340.000
372.704; -166.000;-1008.000; -980.000
372.835;  -77.500; -228.000; -289.000
372.966; -115.750; -646.000; -554.000
373.097; -136.600; -575.000; -711.000
373.228; -127.125; -717.000; -542.000
373.359; -128.375; -824.000; -536.000
373.490; -147.450; -881.000; -727.000
373.620; -141.875;-1001.000; -803.000
373.751; -108.450; -332.000; -396.000
373.882; -107.075; -663.000; -733.000
374.013;  -85.650; -449.000; -262.000
374.143; -116.150; -581.000; -659.000
374.274; -171.125; -987.000; -908.000
374.405;  -74.900; -388.000; -276.000
374.536; -110.275; -526.000; -387.000
374.666; -136.775; -759.000; -807.000
374.797; -139.275; -817.000; -868.000
374.928; -122.900; -710.000; -560.000
375.058; -118.550; -535.000; -500.000
375.189;  -53.050;  -59.000;  -93.000
375.320; -175.500; -928.000;-1034.000
375.450; -109.450; -625.000; -616.000
375.581; -112.300; -526.000; -436.000
375.712;  -65.025; -574.000; -250.000
375.842; -109.625; -438.000; -415.000
375.973; -106.725; -554.000; -513.000
376.103; -127.750; -665.000; -648.000
376.234; -118.950; -531.000; -552.000
376.364; -171.075; -944.000; -867.000
376.495;   48.275;  925.000;  529.000
376.625; -118.750; -472.000; -485.000
376.756; -106.250; -709.000; -678.000
376.886; -189.600;-1178.000;-1026.000
377.017; -172.325;-1048.000;-1061.000
377.147; -155.925; -786.000; -782.000
377.278;  -14.225;  174.000;  228.000
377.408; -142.500; -801.000; -815.000
377.538; -114.675; -707.000; -693.000
377.669; -124.550; -537.000; -613.000
377.799; -128.800; -645.000; -635.000
377.929; -114.200; -610.000; -428.000
378.060; -157.450; -781.000; -847.000
378.190; -138.775; -726.000; -531.000
378.320;  -81.225; -401.000; -406.000
378.451;  -63.525; -131.000;  -22.000
378.581;  -54.100;  -67.000; -110.000
378.711;   42.800; 1035.000;  866.000
378.841; -114.400; -533.000; -675.000
378.972; -150.200; -871.000; -751.000
379.102; -109.250; -652.000; -579.000
379.232;  -83.325; -126.000;  -73.000
379.362; -162.300;-1001.000; -885.000
379.492;  -96.875; -373.000; -424.000
379.623;  -11.000;    0.000;  111.000
379.753; -180.950;-1107.000; -974.000
379.883;  -24.300;   59.000;  156.000
380.013; -185.400;-1081.000;-1017.000
380.143; -163.450;-1097.000;-1056.000
380.273; -177.900; -985.000; -861.000
380.403;  -81.925; -344.000; -257.000
380.533; -150.000; -651.000; -664.000
380.663;  -22.925;  173.000;  128.000
380.793; -184.950;-1027.000;-1074.000
380.923;  -78.075; -103.000;  -34.000
381.053; -134.600; -613.000; -623.000
381.183;  -68.100; -106.000; -248.000
381.313; -128.400; -656.000; -470.000
381.443; -114.000; -692.000; -473.000
381.573; -102.500; -402.000; -409.000
381.703; -198.200;-1249.000;-1095.000
381.833; -220.175;-1454.000;-1336.000
381.963;  -28.925; -134.000;  -87.000
382.093; -163.650; -925.000; -909.000
382.223; -112.975; -713.000; -602.000
382.353; -141.350; -801.000; -608.000
382.482; -170.300;-1091.000; -964.000
382.612; -151.925; -872.000; -644.000
382.742; -125.650; -695.000; -622.000
382.872; -119.075; -565.000; -551.000
383.002;  -18.275;  347.000; -132.000
383.131;  -88.475; -226.000; -160.000
383.261; -126.200; -706.000; -768.000
383.391; -118.175; -552.000; -377.000
383.521;    6.800;  451.000;  263.000
383.650; -174.600; -947.000; -904.000
383.780; -130.850; -783.000; -656.000
383.910;   41.350;  880.000;  802.000
384.039; -147.625; -794.000; -656.000
384.169; -191.150;-1205.000;-1017.000
384.299; -117.975; -650.000; -662.000
384.428; -144.775; -764.000; -680.000
384.558;  -74.225; -308.000; -275.000
384.687;  -93.450; -414.000; -334.000
384.817;  -44.900;   75.000;   -2.000
384.947;  -71.825; -234.000; -141.000
385.076;   64.025;  982.000;  912.000
385.206;  -11.700;  369.000;  480.000
385.335;  -88.075; -549.000; -417.000
385.465; -130.075; -655.000; -663.000
385.594;  -40.675;  -53.000;  -44.000
385.724; -148.250; -868.000; -838.000
385.853;  -74.375; -296.000; -270.000
385.982; -153.700; -743.000; -787.000
386.112; -147.000;-1052.000; -871.000
386.241;  -90.975; -307.000; -312.000
386.371;  -58.700; -174.000;  -87.000
386.500; -158.625; -825.000; -789.000
386.629; -141.400; -874.000; -817.000
386.759;  -65.225;  -43.000;   68.000
386.888;  -72.700; -170.000; -250.000
387.017; -120.475; -648.000; -620.000
387.147; -135.500; -771.000; -798.000
387.276; -124.825; -410.000; -397.000
387.405;  -85.600; -398.000; -342.000
387.535; -111.750; -452.000; -361.000
387.664; -114.150; -692.000; -620.000
387.793;  -91.975; -198.000; -113.000
387.922;  -22.100;  255.000;  200.000
388.052; -117.325; -576.000; -423.000
388.181;  -92.225; -342.000; -472.000
388.310; -149.825; -889.000; -710.000
388.439; -150.400; -749.000; -742.000
388.568;  -17.600;  365.000;  244.000
388.697; -127.175; -756.000; -653.000
388.826; -132.050; -768.000; -666.000
388.956;  -93.125; -285.000; -307.000
389.085; -107.125; -347.000; -287.000
389.214; -150.025; -842.000; -872.000
389.343; -136.200; -645.000; -413.000
389.472;  -21.050;  126.000;  149.000
389.601;  -58.800;   91.000;    0.000
389.730; -114.350; -568.000; -687.000
389.859;  -31.500;  226.000;   46.000
389.988;  -91.500; -423.000; -408.000
390.117;  -88.350; -168.000; -146.000
390.246;  -88.950; -331.000; -320.000
390.375; -138.475; -673.000; -626.000
390.504; -110.900; -703.000; -621.000
390.633; -150.150; -672.000; -726.000
390.761; -125.975; -732.000; -645.000
390.890;  -69.100;   -4.000; -130.000
391.019;  -97.675; -421.000; -441.000
391.148; -148.500; -826.000; -855.000
391.277; -110.500; -576.000; -493.000
391.406; -148.550; -821.000; -805.000
391.534;  -17.225;  574.000; -301.000
391.663; -124.625; -583.000; -645.000
391.792; -129.950; -673.000; -701.000
391.921;  -43.225;   -3.000;   15.000
392.050;  -79.100; -287.000; -228.000
392.178; -189.850;-1206.000;-1061.000
392.307; -140.000; -758.000; -712.000
392.436; -132.750; -427.000; -641.000
392.564;  -37.675;  166.000;   -6.000
392.693; -145.075; -860.000; -682.000
392.822; -122.475; -529.000; -534.000
392.950; -156.475; -880.000; -714.000
393.079;  -87.225; -188.000; -328.000
393.208; -110.400; -488.000; -511.000
393.336;  -64.025; -170.000; -145.000
393.465;  -86.075; -317.000; -199.000
393.593;  -40.425;   62.000;   79.000
393.722; -185.875;-1121.000; -916.000
393.850;  -61.200; -188.000;  -61.000
393.979; -181.250; -926.000; -805.000
394.107; -113.975; -517.000; -537.000
394.236; -117.300; -570.000; -507.000
394.364;  -14.050;  383.000;  206.000
394.493; -148.400; -911.000; -767.000
394.621; -151.225; -955.000; -916.000
394.750; -168.175; -873.000; -923.000
394.878;  -80.400; -247.000; -149.000
395.007; -159.075; -721.000; -807.000
395.135; -126.400; -790.000; -721.000
395.263; -189.725;-1038.000;-1040.000
395.392;  -49.050;  -25.000; -107.000
395.520; -169.150; -818.000; -679.000
395.648; -146.050; -865.000; -915.000
395.777; -105.625; -366.000; -405.000
395.905; -109.375; -449.000; -564.000
396.033;  -38.800;  217.000;  172.000
396.162;  -92.325; -399.000; -453.000
396.290;  -75.425;  -17.000;   -2.000
396.418; -112.100; -555.000; -514.000
396.546; -112.675; -571.000; -466.000
396.674; -158.500; -850.000; -878.000
396.803;  -62.950;  -72.000;  -23.000
396.931;  -65.275; -179.000; -199.000
397.059; -204.225;-1026.000; -989.000
397.187; -157.525;-1026.000; -975.000
397.315; -152.800; -884.000; -649.000
397.443; -108.850; -592.000; -443.000
397.572; -124.700; -578.000; -424.000
397.700; -119.175; -607.000; -614.000
397.828;  -83.875;  120.000;  -90.000
397.956; -106.650; -508.000; -478.000
398.084; -152.650; -767.000; -626.000
398.212;  -30.250;  137.000;  124.000
398.340;  -57.275;  -56.000;  159.000
398.468;  -78.850; -390.000; -169.000
398.596; -181.800; -993.000; -953.000
398.724; -144.950; -762.000; -767.000
398.852; -177.325;-1024.000; -976.000
398.980; -109.575; -560.000; -560.000
399.108; -140.875; -982.000; -735.000
399.236;  -42.475;   13.000;    8.000
399.363;  -33.925;  222.000;  196.000
399.491; -104.150; -404.000; -398.000
399.619; -146.475; -829.000; -800.000
399.747; -146.975; -859.000; -771.000
399.875;  -24.250;  220.000;  234.000
400.003;  -97.550; -359.000; -284.000
400.130; -103.700; -421.000; -341.000
400.258;  -34.600;  -83.000;   38.000
400.386;  -86.950; -352.000; -168.000
400.514; -119.850; -526.000; -587.000
400.641; -166.400; -928.000; -802.000
400.769; -157.125; -979.000; -888.000
400.897; -153.950; -838.000; -793.000
401.025;  -48.050; -166.000; -152.000
401.152;  -38.100;  220.000;   38.000
401.280;  -94.525; -430.000; -429.000
401.408; -143.625; -712.000; -576.000
401.535; -131.200; -735.000; -758.000
401.663; -204.150;-1134.000;-1054.000
401.790; -101.550; -514.000; -525.000
401.918;   -7.350;  436.000;  405.000
402.046;  -36.075;  134.000;  122.000
402.173;  -71.725;  -18.000;    7.000
402.301;  -92.150; -519.000; -397.000
402.428;  -12.125;  528.000;  383.000
402.556; -179.125;-1188.000; -913.000
402.683;  -58.025;  -20.000;   -1.000
402.811;  -58.950;  -37.000; -206.000
402.938;  -53.200;   20.000;   27.000
403.066; -111.375; -574.000; -558.000
403.193;  -48.125;  299.000;  239.000
403.321; -100.325; -396.000; -574.000
403.448;  -50.575;   83.000;   27.000
403.575;  -46.400;  -90.000;  -46.000
403.703; -153.475; -732.000; -557.000
403.830; -114.575; -531.000; -496.000
403.957; -190.800;-1117.000;-1023.000
404.085;  -66.700;  -61.000; -172.000
404.212;  -45.700;  -50.000;   63.000
404.339; -102.125; -566.000; -306.000
404.467; -125.800; -612.000; -524.000
404.594;  -78.900; -287.000; -227.000
404.721; -141.075; -869.000; -764.000
404.848;  -74.800; -113.000; -202.000
404.976; -163.750; -856.000; -783.000
405.103;  -49.175;  -14.000;  -82.000
405.230;  -38.925;  190.000;  226.000
405.357;  -36.725;  117.000;   44.000
405.484;  -77.650;  -49.000;    5.000
405.612; -105.150; -548.000; -563.000
405.739; -107.550; -488.000; -243.000
405.866;   30.925;  669.000;  385.000
405.993;  -95.950; -398.000; -102.000
406.120; -142.450; -801.000; -887.000
406.247; -104.975; -323.000; -342.000
406.374;   27.350;  540.000;  629.000
406.501; -147.725; -632.000; -702.000
406.628; -115.525; -621.000; -589.000
406.755; -152.525; -803.000; -620.000
406.882;  -88.400; -228.000; -277.000
407.009; -131.300; -719.000; -628.000
407.136;  -96.400; -480.000; -401.000
407.263; -165.725; -939.000; -829.000
407.390; -133.825; -692.000; -614.000
407.517; -200.175;-1139.000;-1187.000
407.644;  -93.625; -332.000; -256.000
407.771; -171.575; -249.000; -287.000
407.898;  -31.475;  168.000;  328.000
408.025; -120.700; -421.000; -313.000
408.151;  -38.950;   82.000;  153.000
408.278;  -85.100; -267.000; -216.000
408.405; -152.050; -931.000; -899.000
408.532; -134.450; -549.000; -542.000
408.659; -128.400; -677.000; -648.000
408.785; -210.175;-1298.000;-1170.000
408.912;  -81.075; -412.000; -296.000
409.039; -130.125; -610.000; -686.000
409.166; -111.525; -591.000; -555.000
409.292; -125.400; -571.000; -534.000
409.419; -119.675; -665.000; -649.000
409.546; -109.800; -431.000; -192.000
409.672; -121.700; -713.000; -545.000
409.799;  -78.500;  -36.000;   34.000
409.926;  -61.650; -180.000; -179.000
410.052; -195.650;-1127.000;-1091.000
410.179;  -99.050; -368.000; -392.000
410.305; -105.150; -375.000; -493.000
410.432;  -86.075; -220.000; -333.000
410.558; -122.825; -305.000; -380.000
410.685; -109.925; -688.000; -431.000
410.812; -135.650; -409.000; -588.000
410.938; -148.550; -964.000; -808.000
411.065; -132.600; -671.000; -645.000
411.191;  -72.175; -189.000; -174.000
411.317; -159.525; -823.000; -742.000
411.444;  -79.575; -317.000; -246.000
411.570;  -96.500; -339.000; -294.000
411.697; -138.100; -758.000; -752.000
411.823; -191.650; -989.000; -999.000
411.949;  -69.775;  -56.000;   17.000
412.076; -130.200; -539.000; -519.000
412.202; -144.725; -758.000; -757.000
412.329; -154.650; -798.000; -752.000
412.455; -129.475; -821.000; -657.000
412.581;  -64.700;  -15.000;  172.000
412.707; -105.575; -540.000; -457.000
412.834;  -50.825;  156.000;  219.000
412.960; -141.625; -785.000; -784.000
413.086; -143.775; -743.000; -701.000
413.212;   14.650;  604.000;  578.000
413.339; -153.800; -685.000; -701.000
413.465; -115.000; -364.000; -310.000
413.591; -154.650; -757.000; -474.000
413.717;  -74.300; -358.000; -366.000
413.843; -169.700; -839.000; -861.000
413.969;  -91.300;  -47.000; -292.000
414.096; -142.900; -679.000; -679.000
414.222;  -51.750;  -33.000;   85.000
414.348; -137.850; -652.000; -385.000
414.474;  -59.050;   38.000;  -52.000
414.600;  -72.100; -126.000; -144.000
414.726;  -53.400;  -96.000;  -55.000
414.852; -121.325; -365.000; -342.000
414.978;  -42.800;  104.000;  -18.000
415.104;  -52.150;   38.000;   80.000
415.230; -108.050; -329.000; -330.000
415.356; -117.500; -409.000; -514.000
415.482;  -44.900;   13.000;  -35.000
415.608;  -85.825; -247.000; -323.000
415.734;  -51.500;   67.000;   38.000
415.860; -149.025; -875.000; -767.000
415.986; -133.550; -685.000; -607.000
416.111; -150.500; -798.000; -652.000
416.237; -101.150; -424.000; -571.000
416.363; -167.025; -765.000; -733.000
416.489;  -98.425; -324.000; -251.000
416.615; -165.475; -707.000; -742.000
416.741; -133.075; -677.000; -784.000
416.866; -141.125; -673.000; -736.000
416.992; -165.975; -801.000; -818.000
417.118;  -78.125;  -41.000;  -80.000
417.244; -134.775; -798.000; -531.000
417.369; -154.525; -801.000; -612.000
417.495;  -89.325; -325.000; -254.000
417.621; -188.700;-1015.000; -803.000
417.746; -115.375; -579.000; -572.000
417.872;  -65.125; -254.000; -144.000
417.998; -103.650; -515.000; -530.000
418.123; -176.325;-1073.000; -845.000
418.249; -129.325; -512.000; -601.000
418.374; -182.200; -916.000; -824.000
418.500; -106.775; -383.000; -482.000
418.626;  -53.150;   70.000;  -59.000
418.751; -111.500; -549.000; -448.000
418.877; -139.675; -637.000; -643.000
419.002; -137.250; -688.000; -560.000
419.128; -163.700; -930.000; -721.000
419.253; -150.350; -967.000; -837.000
419.379; -131.400; -391.000; -338.000
419.504;  -23.075;  325.000;  415.000
419.629;  -87.625; -393.000; -212.000
419.755;  -74.125; -317.000; -254.000
419.880;  -83.825;  -98.000;   67.000
420.006;  -90.525; -280.000; -221.000
420.131; -136.775; -662.000; -775.000
420.256;  -97.925; -315.000; -316.000
420.382; -146.600; -665.000; -687.000
420.507; -137.375; -649.000; -778.000
420.632; -127.525; -337.000; -339.000
420.758;  -88.975; -251.000; -425.000
420.883; -146.275; -876.000; -672.000
421.008; -136.525; -775.000; -619.000
421.133; -124.775; -509.000; -467.000
421.259;  -74.475; -325.000; -259.000
421.384; -157.250; -834.000; -693.000
421.509; -145.725;-1052.000; -862.000
421.634; -178.675; -936.000; -820.000
421.759;  -96.675; -359.000; -327.000
421.885; -138.525; -717.000; -656.000
422.010; -123.050; -673.000; -542.000
422.135; -172.525; -695.000; -727.000
422.260;  -12.050;  340.000;  280.000
422.385;  -93.500;   12.000;  -98.000
422.510;  -43.400;  151.000;  -26.000
422.635;  -70.025;  -87.000;  -43.000
422.760; -127.075; -766.000; -791.000
422.885;  -58.575;  -57.000;  -80.000
423.010;  -66.575; -112.000; -169.000
423.135; -135.800; -481.000; -561.000
423.260;  -78.125; -150.000; -245.000
423.385;  -32.675;  476.000;  222.000
423.510;  -44.350;   71.000;  -22.000
423.635;  -57.675;  133.000;   45.000
423.760;  -13.725;  383.000;  328.000
423.885;  -39.575;  336.000;  391.000
424.010;  -62.275;  -68.000;  -13.000
424.135;  -78.100;    5.000;  -33.000
424.259; -127.725; -654.000; -457.000
424.384; -107.225; -279.000; -272.000
424.509;  -77.850; -260.000; -186.000
424.634; -162.375; -761.000; -623.000
424.759; -127.850; -688.000; -544.000
424.883; -133.675; -506.000; -527.000
425.008; -118.800; -502.000; -410.000
425.133; -146.375; -679.000; -653.000
425.258; -109.350; -517.000; -381.000
425.382; -157.400; -867.000; -774.000
425.507; -127.850; -487.000; -543.000
425.632; -166.800; -802.000; -663.000
425.756;  -90.925; -256.000; -146.000
425.881; -157.050; -831.000; -857.000
426.006; -104.925; -604.000; -355.000
426.130; -140.625; -696.000; -508.000
426.255; -128.375; -611.000; -491.000
426.379;  -79.975; -189.000; -577.000
426.504;   17.575;  660.000;  544.000
426.629; -128.500; -519.000; -466.000
426.753;  -62.825;   64.000;  -46.000
426.878; -101.200; -252.000; -288.000
427.002; -140.175; -651.000; -668.000
427.127;  -97.825;  -35.000; -158.000
427.251;  -21.075;  372.000;  401.000
427.375; -102.975; -191.000; -173.000
427.500; -127.650; -616.000; -610.000
427.624; -109.550; -234.000; -400.000
427.749;  -91.400; -216.000; -225.000
427.873; -129.800; -499.000; -412.000
427.997;  -93.500; -222.000; -230.000
428.122;   21.475;  795.000;  703.000
428.246;   -3.250;  433.000;  434.000
428.371; -175.075; -869.000; -773.000
428.495; -134.700; -624.000; -646.000
428.619;  -84.875; -186.000; -117.000
428.743;  -40.000;   65.000;  132.000
428.868; -164.475; -732.000; -643.000
428.992;  -96.000; -219.000; -326.000
429.116; -112.975; -329.000; -357.000
429.240;  -19.725;  419.000;  426.000
429.365; -113.250; -454.000; -574.000
429.489; -132.325; -638.000; -647.000
429.613;  -86.950; -236.000; -177.000
429.737; -111.750; -563.000; -432.000
429.861; -109.175; -247.000; -133.000
429.985; -108.600; -425.000; -305.000
430.109; -162.025; -770.000; -908.000
430.234;  -29.650;   76.000;  -50.000
430.358; -104.150; -250.000; -160.000
430.482; -151.500; -672.000; -564.000
430.606; -133.725; -655.000; -375.000
430.730; -120.675; -437.000; -388.000
430.854; -169.550; -909.000; -835.000
430.978; -147.725; -795.000; -764.000
431.102; -118.550; -499.000; -422.000
431.226; -160.350; -874.000; -815.000
431.350;  -30.600;  345.000;  422.000
431.474; -116.050; -661.000; -373.000
431.597; -195.200;-1060.000; -848.000
431.721;  -99.200; -276.000; -267.000
431.845; -150.150; -704.000; -472.000
431.969; -101.725; -304.000; -349.000
432.093; -117.325; -395.000; -317.000
432.217;  -47.225;   32.000;   82.000
432.341; -133.750; -523.000; -518.000
432.464;  -57.425;   96.000;   40.000
432.588; -127.075; -401.000; -329.000
432.712;  -70.375;  -52.000;  -52.000
432.836;  -32.700;  213.000;  263.000
432.959;  -97.800; -372.000; -311.000
433.083;  -71.125;   11.000;    2.000
433.207;   -1.750;  285.000;  930.000
433.330;  -95.950; -391.000; -200.000
433.454; -126.950; -654.000; -638.000
433.578;   -7.525;  583.000;  278.000
433.701; -136.325; -623.000; -675.000
433.825; -116.750; -292.000; -299.000
433.949;  -65.975;   28.000;  -72.000
434.072; -123.750; -410.000; -323.000
434.196;  -94.475; -309.000; -117.000
434.319; 3258.625;25482.000;25124.000
434.443; -139.225; -656.000; -603.000
434.566;  -54.225;  281.000;   62.000
434.690; -126.950; -637.000; -383.000
434.813;  -98.200; -251.000; -173.000
434.937; -131.250; -569.000; -696.000
435.060; -119.800; -423.000; -332.000
435.184;  -91.925; -492.000; -217.000
435.307;  -67.125;  159.000;  102.000
435.431;  -60.300;  -40.000;   24.000
435.554;  -94.600; -399.000; -240.000
435.677; -101.900; -350.000; -258.000
435.801;  -67.875;  -25.000;   49.000
435.924;  -64.325;    1.000;  -67.000
436.048; -170.575;-1019.000; -732.000
436.171;  -92.500; -240.000;  -66.000
436.294; -110.750; -248.000; -229.000
436.417; -174.600; -963.000; -849.000
436.541; -172.575; -814.000; -840.000
436.664;  -79.325; -242.000; -316.000
436.787;  -77.500;   13.000;  113.000
436.910; -136.550; -792.000; -422.000
437.034;  -52.375;  142.000;  143.000
437.157;  -49.550;  -11.000;    0.000
437.280; -123.575; -392.000; -292.000
437.403; -164.050; -982.000; -869.000
437.526; -178.200; -903.000; -865.000
437.649; -118.750; -505.000; -332.000
437.772; -154.875; -692.000; -540.000
437.896;    2.650;  700.000;  544.000
438.019; -148.800; -758.000; -503.000
438.142; -115.675; -596.000; -506.000
438.265; -157.950; -639.000; -670.000
438.388; -115.300; -520.000; -410.000
438.511; -136.700; -597.000; -394.000
438.634;  -92.350; -247.000; -125.000
438.757; -165.650; -693.000; -619.000
438.880;  -67.000;  -34.000;  -57.000
439.003; -107.350; -417.000; -437.000
439.126;  -87.650; -287.000; -167.000
439.248;  -84.500;  -98.000; -139.000
439.371;  -64.900;    9.000;  -53.000
439.494;   -2.525;  510.000;  439.000
439.617;  -72.500;   65.000;  -88.000
439.740; -182.425; -968.000; -816.000
439.863; -149.675; -755.000; -595.000
439.986; -144.000; -476.000; -431.000
440.108;  -85.800; -161.000; -112.000
440.231; -181.975; -950.000; -836.000
440.354;  -77.150;  -64.000; -150.000
440.477; -153.550; -566.000; -542.000
440.599; -122.925; -200.000; -225.000
440.722; -139.375; -709.000; -586.000
440.845;   46.975;  751.000;  928.000
440.968; -121.775; -415.000; -311.000
441.090;  -82.925; -199.000;  -33.000
441.213; -185.250;-1021.000; -825.000
441.336;  -73.325; -159.000;   -5.000
441.458; -127.125; -549.000; -396.000
441.581; -146.475; -628.000; -629.000
441.703; -107.425; -152.000;   13.000
441.826; -116.425; -557.000; -400.000
441.948;  -72.525;   56.000;   51.000
442.071;   10.925;  555.000;  424.000
442.193; -137.600; -531.000; -485.000
442.316;  -40.275;  152.000;   97.000
442.438;  -95.750; -233.000;  -10.000
442.561;  -36.975;  272.000;  262.000
442.683; -154.325; -809.000; -522.000
442.806;  -56.600;   -8.000;   74.000
442.928; -179.975; -859.000; -604.000
443.051; -122.925; -577.000; -373.000
443.173; -110.375; -341.000; -339.000
443.295; -104.725; -263.000; -371.000
443.418; -111.900; -321.000;  -29.000
443.540;  -78.000; -106.000;   -4.000
443.662; -147.175; -563.000; -465.000
443.785;  -28.225;  335.000;  199.000
443.907; -116.800; -362.000; -208.000
444.029; -143.075; -767.000; -494.000
444.152; -167.375; -644.000; -554.000
444.274;  -56.850;  -18.000;  -24.000
444.396; -144.075; -461.000; -221.000
444.518; -136.275; -691.000; -454.000
444.640; -117.925; -268.000; -111.000
444.763;  -39.975;  388.000;  249.000
444.885; -144.150; -432.000; -392.000
445.007;  -56.275;   35.000;   86.000
445.129; -148.550; -610.000; -515.000
445.251; -111.400; -372.000; -439.000
445.373; -150.125; -537.000; -386.000
445.495;  -29.025;  242.000;  350.000
445.617;   24.525;  853.000;  753.000
445.739;  -95.125; -215.000;  -97.000
445.861;  -92.300; -245.000; -112.000
445.984;  -89.675; -267.000; -101.000
446.105; -119.600; -418.000; -251.000
446.227;  -85.350; -176.000;  -19.000
446.349; -132.625; -358.000; -249.000
446.471; -138.900; -615.000; -448.000
446.593; -108.525; -316.000;   19.000
446.715;  -75.925;  -67.000;   41.000
446.837;   25.475;  697.000;  832.000
446.959; -113.475; -457.000; -478.000
447.081; -157.125; -628.000; -518.000
447.203;   43.475;  862.000;  834.000
447.325; -104.750; -270.000;   42.000
447.446;  -31.875;  286.000;  530.000
447.568; -177.350; -921.000; -803.000
447.690; -104.175; -236.000; -245.000
447.812; -182.250; -798.000; -519.000
447.933;  -49.625;  155.000;  127.000
448.055;  -98.175; -306.000; -261.000
448.177;  -56.000;   31.000;   79.000
448.299; -188.500; -935.000; -727.000
448.420;  -49.125;  -25.000;  159.000
448.542;  -84.850;   -3.000;   33.000
448.664;  -43.675;  109.000;  322.000
448.785;  -62.200;  265.000;   83.000
448.907; -126.475; -614.000; -353.000
449.028; -140.775; -771.000; -471.000
449.150;   12.875;  492.000;  589.000
449.272; -193.700;-1044.000; -913.000
449.393;    6.975;  612.000;  694.000
449.515; -149.950; -634.000; -581.000
449.636; -102.025; -264.000; -155.000
449.758;   19.125;  763.000;  622.000
449.879; -122.175; -498.000; -396.000
450.001; -104.500; -149.000;  -49.000
450.122;  -61.825;  -95.000;  162.000
450.244;  -56.800;   37.000;  364.000
450.365; -115.200; -495.000; -301.000
450.486;  -55.400;   80.000;  268.000
450.608;  -23.500;  393.000;  326.000
450.729;  -22.925;  578.000;  645.000
450.850; -126.725; -574.000; -466.000
450.972; -159.150; -552.000; -389.000
451.093;  -37.225;  190.000;  588.000
451.214; -137.325; -516.000; -337.000
451.336;   18.900;  773.000;  579.000
451.457;  -34.700;  264.000;  393.000
451.578;  -72.400; -118.000;  -74.000
451.699; -147.925; -546.000; -540.000
451.821;  -89.900; -284.000;  -50.000
451.942;  -52.100;  278.000;  285.000
452.063;   -9.175;  228.000;  419.000
452.184;  -87.150;  -54.000;  -49.000
452.305;  -44.800;  103.000;  170.000
452.427; -131.875; -549.000; -301.000
452.548;  -71.300;   23.000;   79.000
452.669; -109.650; -257.000;  -89.000
452.790;  -71.825;    3.000;  -18.000
452.911;  -54.450;  195.000;  259.000
453.032;  -95.625; -289.000;  -60.000
453.153;  -88.850;  -29.000;   81.000
453.274;   26.175;  737.000;  868.000
453.395;  -66.550;  -51.000;  175.000
453.516;   58.400; 1317.000; 1388.000
453.637; -108.875; -205.000; -150.000
453.758;  -74.875;   15.000;   69.000
453.879; -126.025; -462.000; -250.000
454.000;   43.475; 1086.000;  948.000
454.121; -140.600; -554.000; -326.000
454.242; -132.400; -599.000; -383.000
454.362;  -87.650;  -99.000;  114.000
454.483;  -98.075; -309.000; -229.000
454.604;  -49.725;  512.000;  580.000
454.725; -139.025; -627.000; -555.000
454.846; -150.775; -474.000; -406.000
454.967;  -42.025;  230.000;  539.000
455.087;  -63.125;  179.000;  153.000
455.208;   11.225;  554.000;  856.000
455.329;  -80.025;  -22.000;   82.000
455.450;  -20.275;  473.000;  633.000
455.570; -124.175; -234.000; -211.000
455.691;  -56.650;  201.000;  407.000
455.812; -120.950; -270.000;  -92.000
455.932;  -56.450;  107.000;  -97.000
456.053;  -92.700;   36.000;   24.000
456.173; -111.675; -433.000; -355.000
456.294; -133.975; -476.000; -303.000
456.415;  -76.150;  -73.000;   70.000
456.535;  -54.100;  297.000;  273.000
456.656;  -48.375;  132.000;  240.000
456.776;  -80.050;    3.000;  298.000
456.897;  -24.950;  308.000;  513.000
457.017;  -96.850; -153.000;   -3.000
457.138; -121.650; -402.000; -249.000
457.258;  -55.150;  263.000;  224.000
457.379;  -23.150;  509.000;  521.000
457.499;  -39.325;  443.000;  432.000
457.620; -122.475; -407.000; -231.000
457.740; -108.875; -132.000;  -11.000
457.860;  -73.475;   87.000;   44.000
457.981;  -82.175;  132.000;  124.000
458.101;  -97.375;  -89.000;   40.000
458.221;  -46.775;  336.000;  402.000
458.342;  -83.550;   -4.000;  -37.000
458.462;  -28.950;  617.000;  352.000
458.582; -100.550; -302.000; -294.000
458.703;  -71.475;  303.000;  154.000
458.823;  -81.950;   22.000;  163.000
458.943;  -41.900;  341.000;  467.000
459.063;  -72.525; 1124.000;  192.000
459.183;  -58.600;  328.000;  313.000
459.304;  -16.775;  315.000;  517.000
459.424; -102.175; -246.000;  -89.000
459.544;   -4.125;  388.000;  764.000
459.664;  -22.700;  499.000;  506.000
459.784;   32.825; 1004.000; 1175.000
459.904;   -7.375;  867.000;  744.000
460.024;   26.875;  867.000;  684.000
460.144;  -44.050;  449.000;  554.000
460.264;  -13.300;  515.000;  327.000
460.385; -101.800; -145.000; -119.000
460.505;   26.725;  905.000;  858.000
460.625;  -99.625;  -17.000;  -68.000
460.745;  -28.575;  396.000;  541.000
460.864;  -61.975;  153.000;  469.000
460.984;  -26.900;  499.000;  573.000
461.104;   96.950; 1656.000; 1775.000
461.224;    2.900;  657.000;  650.000
461.344;  -60.450;  431.000;  360.000
461.464;  -45.725;  258.000;  513.000
461.584;  -38.275;  283.000;  466.000
461.704;  -69.675;   58.000;  108.000
461.824;  -76.625;  238.000;  259.000
461.943;  -49.800;  191.000;  130.000
462.063;  -82.825;    2.000;  324.000
462.183;    9.650;  639.000;  717.000
462.303;   67.750; 1678.000; 1230.000
462.422;   -1.125;  781.000;  840.000
462.542;  -63.075;  271.000;  391.000
462.662;  -26.250;  353.000;  380.000
462.782;  -17.350;  833.000;  572.000
462.901;  -15.950;  545.000;  717.000
463.021;  115.700; 1702.000; 1638.000
463.141;  -37.550;  337.000;  770.000
463.260;  -23.250;  614.000;  474.000
463.380;   15.000;  902.000;  884.000
463.499;  -45.275;  342.000;  332.000
463.619;  -33.100;  581.000;  559.000
463.738;   81.500; 1644.000;  903.000
463.858;   -8.350;  657.000;  811.000
463.978;  -30.925;  542.000;  396.000
464.097;   30.800;  921.000; 1114.000
464.217;   37.050; 1196.000; 1143.000
464.336;   51.900; 1068.000; 1130.000
464.455;  -38.875;  328.000;  659.000
464.575;   -3.300;  597.000;  602.000
464.694;   46.625; 1204.000; 1179.000
464.814;   22.350; 1190.000; 1138.000
464.933;   30.625; 1095.000; 1027.000
465.052;   66.925; 1412.000; 1054.000
465.172;   11.650;  922.000;  799.000
465.291;   69.425; 1376.000; 1320.000
465.410;  -15.350;  462.000;  735.000
465.530;   55.800; 1355.000; 1310.000
465.649;   37.725; 1209.000; 1273.000
465.768;   96.325; 1673.000; 1508.000
465.888;   19.375;  941.000; 1174.000
466.007;   83.275; 1335.000; 1440.000
466.126;  -14.600;  721.000;  641.000
466.245;   22.325; 1176.000; 1187.000
466.364;    9.675;  950.000; 1060.000
466.484;   44.700; 1024.000; 1213.000
466.603;   21.600; 1101.000; 1222.000
466.722;   80.775; 1490.000; 1769.000
466.841;   37.125; 1151.000; 1401.000
466.960;   29.350; 1069.000;  972.000
467.079;  115.700; 1971.000; 1786.000
467.198;   55.675; 1238.000; 1181.000
467.317;   68.750; 1768.000; 1162.000
467.436;   59.700; 1709.000; 1261.000
467.555;  116.750; 1796.000; 1746.000
467.674;   59.525; 1227.000; 1329.000
467.793;   31.625; 1376.000; 1374.000
467.912;   88.925; 1658.000; 1539.000
468.031;  108.850; 2038.000; 1930.000
468.150;  131.525; 1842.000; 1837.000
468.269;  162.875; 2313.000; 2090.000
468.388;  172.900; 2168.000; 2339.000
468.507;  229.500; 2884.000; 2903.000
468.626;  223.825; 2555.000; 2541.000
468.744;  128.000; 2018.000; 2174.000
468.863;  173.125; 2312.000; 2523.000
468.982;   70.725; 1503.000; 1555.000
469.101;  214.625; 2788.000; 2692.000
469.220;  136.700; 2333.000; 2176.000
469.338;  232.825; 2935.000; 3051.000
469.457;  181.500; 2719.000; 2545.000
469.576;  317.975; 3953.000; 3784.000
469.695;  224.500; 2877.000; 3066.000
469.813;  376.125; 4148.000; 4192.000
469.932;  359.575; 4255.000; 4485.000
470.051;  332.425; 4075.000; 4161.000
470.169;  377.650; 4470.000; 4338.000
470.288;  420.500; 4700.000; 4809.000
470.406;  460.700; 5059.000; 5194.000
470.525;  546.350; 6101.000; 5787.000
470.644;  608.400; 6847.000; 6794.000
470.762;  773.875; 8397.000; 7873.000
470.881;  822.675; 8651.000; 8464.000
470.999;  912.525; 9685.000; 9151.000
471.118; 1036.350;11174.000;10711.000

