
Integration time [ms]: 100.000
Averaging Nr. [scans]: 40
Smoothing Nr. [pixels]: 0
Data measured with spectrometer [name]: 2101012U2
Wave   ;Sample   ;Dark     ;Reference
[nm]   ;[counts] ;[counts] ;[counts] 

197.733;   57.775;  516.000;  404.000
197.879;  -76.900; -610.000; -634.000
198.025;  -40.200; -475.000; -420.000
198.171;  -83.475; -602.000; -612.000
198.317;  -30.000; -401.000; -316.000
198.463;  -78.600; -655.000; -404.000
198.609;   26.550;  181.000; -137.000
198.755;  -72.975; -644.000; -410.000
198.901;  -50.125; -505.000; -424.000
199.047;  -67.450; -615.000; -488.000
199.193;  -35.175; -230.000; -468.000
199.339;  -48.175; -222.000; -369.000
199.485;   48.300;  330.000;  271.000
199.631;    9.975;  227.000;  310.000
199.777;  -45.025; -466.000; -398.000
199.923;  -65.225; -610.000; -424.000
200.069;    0.425; -141.000;  -58.000
200.215;   45.375;  128.000;  453.000
200.361;   47.625;  243.000;  477.000
200.507;  -57.450; -600.000; -373.000
200.653;  -21.225; -371.000; -194.000
200.798;  -19.025; -215.000; -125.000
200.944;    0.775; -146.000;  -41.000
201.090;   35.900;   61.000;  222.000
201.236;   -0.400; -116.000; -158.000
201.382;  111.625;  874.000;  903.000
201.528;   17.250;  -58.000;  -48.000
201.674;  -28.575; -386.000; -293.000
201.819;  -58.225; -540.000; -439.000
201.965;  -84.150; -699.000; -447.000
202.111;  -25.625; -273.000; -226.000
202.257;  -37.875; -250.000; -238.000
202.402;   -3.050;   13.000;  -36.000
202.548;  -31.325; -169.000; -116.000
202.694;   91.750;  410.000; -183.000
202.840;  -75.225; -603.000; -531.000
202.985;  -58.950; -681.000; -639.000
203.131;  -97.200; -832.000; -666.000
203.277;  -21.850; -199.000; -262.000
203.423;  -49.525; -434.000; -520.000
203.568;  -34.250; -462.000; -237.000
203.714;  -55.400; -535.000; -542.000
203.860;  -74.850; -682.000; -641.000
204.005;   20.925;  112.000;  167.000
204.151;   71.075;  561.000;  556.000
204.296;  -43.800; -354.000; -221.000
204.442;  -58.425; -600.000; -547.000
204.588;  -80.925; -592.000; -579.000
204.733;   26.300;  178.000;  168.000
204.879; -119.350;-1018.000; -822.000
205.025;    2.750;  -99.000;  126.000
205.170;   -0.725;  -17.000;   94.000
205.316;   78.300;  438.000;  661.000
205.461;  -91.175; -698.000; -554.000
205.607;   85.850;  609.000;  665.000
205.752;  -68.725; -626.000; -551.000
205.898;  -45.375; -501.000; -391.000
206.043;  -54.050; -578.000; -506.000
206.189;  -37.425; -243.000; -285.000
206.334;   69.925;  554.000;  606.000
206.480;   70.875;  409.000;  239.000
206.625;  -75.150; -529.000; -552.000
206.771;  -32.500; -451.000; -373.000
206.916;  -22.275; -210.000; -537.000
207.062;  -55.175; -545.000; -591.000
207.207;  -84.000; -546.000; -443.000
207.353;   57.775;  185.000;  460.000
207.498;   11.025;  196.000;   85.000
207.643;  -43.500; -501.000; -370.000
207.789; -109.175;-1069.000; -910.000
207.934;  -96.050; -665.000; -713.000
208.080;  -23.150; -154.000;   66.000
208.225;    5.225;  -22.000;  -57.000
208.370;  -80.800; -727.000; -619.000
208.516;  -60.750; -741.000; -487.000
208.661;  -27.300; -127.000;  -69.000
208.806;  -18.525; -165.000; -171.000
208.952; -113.350;-1044.000; -731.000
209.097;   69.300;  378.000;  349.000
209.242;  -30.475; -307.000; -382.000
209.387;   70.350;  392.000;  350.000
209.533;  -56.475; -321.000; -350.000
209.678;   71.175;  472.000;  543.000
209.823;  -54.750; -408.000; -310.000
209.969;  -96.275; -860.000; -757.000
210.114;  -96.225; -907.000; -719.000
210.259;  -95.675; -939.000; -889.000
210.404;  -17.025; -171.000;  103.000
210.549;    5.100;  108.000;    3.000
210.695;  -28.175;   -3.000;  -95.000
210.840;   34.550;   94.000;   67.000
210.985;  -62.175; -484.000; -303.000
211.130;   79.975;  268.000;  406.000
211.275;   -0.875;  207.000;  199.000
211.420;  -49.050; -300.000; -289.000
211.566;  -65.475; -536.000; -489.000
211.711;   27.800;  218.000;  157.000
211.856;  -74.050; -545.000; -519.000
212.001;   14.125;  151.000;   44.000
212.146;   13.325;  153.000;   49.000
212.291;  -22.100; -210.000; -186.000
212.436;  -22.275; -280.000;   -6.000
212.581;  -83.100; -685.000; -653.000
212.726;  -66.100; -487.000; -538.000
212.871;  -45.650; -552.000; -217.000
213.016; -139.425;-1172.000;-1029.000
213.161;   60.950;  406.000;  291.000
213.306;  -62.275; -435.000; -577.000
213.451;  -90.175; -778.000; -689.000
213.596;  -32.375; -455.000; -347.000
213.741;  -51.275; -448.000; -538.000
213.886;  -70.025; -498.000; -517.000
214.031;  -20.825; -294.000; -124.000
214.176;  -46.650; -408.000; -341.000
214.321;  -10.750; -296.000; -157.000
214.466;  -11.750; -163.000;  -43.000
214.611;    1.475;  -61.000;  -10.000
214.756; -112.425; -948.000; -858.000
214.901;  -21.825; -388.000; -226.000
215.046; -123.775; -797.000; -825.000
215.191;   23.150;  128.000;   35.000
215.336;  -18.350; -157.000;  -19.000
215.480;  -67.200; -684.000; -505.000
215.625;  -19.625; -175.000;  -19.000
215.770;  -81.775; -757.000; -662.000
215.915;  -12.875;   -5.000;  -97.000
216.060;  -17.375; -113.000;  -21.000
216.205;  -98.350; -731.000; -779.000
216.349;  -57.150; -470.000; -533.000
216.494; -130.600; -939.000; -867.000
216.639; -112.350; -823.000; -888.000
216.784;  -80.900; -577.000; -525.000
216.929;   50.500;  392.000;  281.000
217.073;   -7.675; -244.000;  -31.000
217.218;    3.100;   78.000;  -47.000
217.363;  -87.550; -656.000; -618.000
217.507;  -67.325; -623.000; -588.000
217.652; -120.850; -845.000; -874.000
217.797;  -89.675; -708.000; -659.000
217.942; -115.300; -856.000; -720.000
218.086;   81.125;  608.000;  539.000
218.231;  -31.725; -174.000;  -26.000
218.376;  -18.975; -337.000; -229.000
218.520;   11.950;  -41.000;   96.000
218.665;  -40.025; -338.000; -204.000
218.810;  -44.950; -275.000; -233.000
218.954;   19.175;  201.000;   35.000
219.099; -117.800; -713.000; -963.000
219.243;  -69.550; -589.000; -554.000
219.388;  -28.950; -264.000; -136.000
219.532;  -23.925; -116.000; -116.000
219.677;  -71.900; -564.000; -521.000
219.822;    5.700;   33.000;   89.000
219.966;    1.325;   17.000;  -99.000
220.111;  -25.600; -328.000;  -40.000
220.255;  -99.700; -797.000; -750.000
220.400;  -13.300; -180.000; -146.000
220.544;  -69.075; -516.000; -450.000
220.689;  -39.800; -422.000; -451.000
220.833;  -12.925; -123.000;  -58.000
220.978;  -46.675; -393.000; -563.000
221.122;   43.250;  319.000;  307.000
221.267; -113.175; -906.000; -837.000
221.411;  -58.225; -478.000; -394.000
221.555;  -13.075; -104.000;  -23.000
221.700;  -37.850; -329.000; -222.000
221.844;   27.350;  255.000;  272.000
221.989;  -47.050; -328.000; -311.000
222.133;  -32.675; -289.000; -307.000
222.277;  -15.900;    5.000;   78.000
222.422;   20.850;  227.000;  113.000
222.566;  -38.650; -381.000; -214.000
222.711;  -53.325; -414.000; -479.000
222.855;  -83.925; -643.000; -586.000
222.999;  -79.800; -642.000; -717.000
223.144;  -31.925; -195.000; -194.000
223.288;   52.700;  423.000;  251.000
223.432;   32.725;  184.000;  230.000
223.576;   18.575;  152.000;  -21.000
223.721;   42.850;  364.000;  273.000
223.865;  -57.650; -472.000; -475.000
224.009;  252.450; 1673.000; 1631.000
224.153;  -81.850; -660.000; -671.000
224.298;  -56.425; -531.000; -489.000
224.442;  -17.600;  -74.000;  -33.000
224.586;  -14.575; -169.000; -106.000
224.730;  -86.675; -858.000; -670.000
224.875; -105.850; -739.000; -688.000
225.019;   22.375;  102.000;  188.000
225.163;   50.650;  208.000;  341.000
225.307;   11.275;   97.000;  -91.000
225.451;   55.275;  360.000;  481.000
225.595;   32.900;  264.000;  176.000
225.739;  -19.800; -170.000;  -94.000
225.884;    4.725;   86.000;    5.000
226.028; -107.250; -760.000; -626.000
226.172;  -39.700; -260.000; -273.000
226.316; -109.475; -941.000; -902.000
226.460;  -56.225; -645.000; -493.000
226.604;  -46.200; -406.000; -400.000
226.748;  -93.450; -836.000; -733.000
226.892;  -28.925; -227.000; -181.000
227.036;  -38.475; -537.000; -447.000
227.180;  -55.000; -551.000; -375.000
227.324;  -62.150; -561.000; -580.000
227.468; -112.600; -819.000; -717.000
227.612;    8.400;  242.000;  -28.000
227.756;  -91.650; -845.000; -698.000
227.900;   47.250;  342.000;  441.000
228.044;  -59.325; -509.000; -290.000
228.188;   63.500;  448.000;  568.000
228.332;  -85.550; -546.000; -472.000
228.476;  -35.575; -223.000; -149.000
228.620;  -40.575; -210.000; -150.000
228.764;   68.450;  431.000;  349.000
228.908;  -13.200; -155.000;   30.000
229.052;  -47.150; -615.000; -528.000
229.195;  -32.925; -172.000;   13.000
229.339;  -23.450; -235.000; -305.000
229.483;  -32.175;    5.000; -162.000
229.627;    7.475; -156.000;  139.000
229.771;  -50.375; -218.000; -294.000
229.915;   14.175;  230.000;   79.000
230.059;  -93.375; -648.000; -663.000
230.202;  -26.675; -370.000; -317.000
230.346;  -18.775; -107.000;  107.000
230.490;  -63.325; -489.000; -521.000
230.634; -100.100; -736.000; -553.000
230.777;   70.100;  478.000;  509.000
230.921;  -40.925; -450.000; -359.000
231.065;  -43.600; -246.000; -286.000
231.209;   22.050;  261.000;  265.000
231.352;   13.300;   54.000;   40.000
231.496;   10.575;  568.000;  188.000
231.640;  -81.600; -693.000; -621.000
231.783;   61.100;  546.000;  525.000
231.927;  -43.800; -294.000; -365.000
232.071; -116.450; -962.000; -736.000
232.214; -103.375; -980.000; -764.000
232.358; -109.200; -683.000; -599.000
232.502;    2.100;  -19.000;    7.000
232.645; -131.450;-1090.000; -927.000
232.789;  -17.450; -257.000; -218.000
232.933;  -54.800; -407.000; -224.000
233.076; -117.300;-1038.000; -897.000
233.220; -105.425; -752.000; -777.000
233.363;  -75.300; -669.000; -477.000
233.507;   42.775;  371.000;  129.000
233.650;  -93.400; -764.000; -834.000
233.794;   58.650;  438.000;  461.000
233.938;  -56.275; -530.000; -362.000
234.081;  -31.575;  -93.000;   31.000
234.225;  -73.350; -631.000; -539.000
234.368; -101.125; -773.000; -723.000
234.512;  -41.175; -385.000; -299.000
234.655;  -80.250; -582.000; -555.000
234.798;  -63.300; -493.000; -466.000
234.942; -127.675; -884.000;-1002.000
235.085;  -72.625; -651.000; -443.000
235.229;  -67.075; -405.000; -410.000
235.372;  -40.625; -247.000; -191.000
235.516;  -60.425; -397.000; -321.000
235.659;   22.400;   92.000;  121.000
235.802;   -8.950;  -38.000;  -22.000
235.946;   26.750;  335.000;  215.000
236.089;   22.125;  126.000;  250.000
236.233;   64.300;  275.000;  298.000
236.376;  -58.000; -235.000; -378.000
236.519;  -46.350; -297.000; -319.000
236.663;  -20.950; -215.000; -117.000
236.806; -123.275;-1029.000; -999.000
236.949;   47.175;  543.000;  431.000
237.092;   55.650;  412.000;  391.000
237.236;  -80.950; -589.000; -502.000
237.379;   65.500;  352.000;  428.000
237.522; -111.275; -879.000; -768.000
237.666;   -7.550; -271.000;   18.000
237.809; -125.325; -851.000; -823.000
237.952;   35.925;  469.000;  271.000
238.095;  -60.075; -447.000; -442.000
238.238;   78.125;  688.000;  700.000
238.382;    8.600;  166.000;  103.000
238.525;  -62.500; -598.000; -511.000
238.668; -142.625;-1060.000; -985.000
238.811;  -80.575; -638.000; -643.000
238.954;  -57.950; -483.000; -334.000
239.097;   96.425;  617.000;  664.000
239.241;   17.300;  394.000;  326.000
239.384;  -23.000; -254.000; -214.000
239.527;  -62.325; -424.000; -224.000
239.670; -132.875; -994.000;-1091.000
239.813; -111.475; -696.000; -658.000
239.956;   80.225;  579.000;  473.000
240.099; -103.450; -778.000; -725.000
240.242;   57.550;  428.000;  432.000
240.385;   43.850;  466.000;  450.000
240.528;  -66.675; -706.000; -473.000
240.671;   25.500;  189.000;  134.000
240.814;  -44.150; -441.000; -158.000
240.957; -100.750; -767.000; -578.000
241.100;  -90.850; -779.000; -755.000
241.243; -126.500;-1234.000; -893.000
241.386;  -61.600; -508.000; -379.000
241.529;  -89.600; -735.000; -547.000
241.672;  -49.675; -566.000; -495.000
241.815; -118.825; -832.000; -808.000
241.958;  -25.775; -125.000; -182.000
242.101;  -73.975; -545.000; -390.000
242.244;  -39.750; -270.000; -325.000
242.387;  -33.750; -304.000; -246.000
242.530;   44.450;  470.000;  134.000
242.673;  -34.625; -381.000; -309.000
242.815; -117.475; -925.000; -899.000
242.958;  -76.650; -482.000; -381.000
243.101;   22.900;  132.000;  187.000
243.244;  -82.250; -564.000; -521.000
243.387;  -42.475; -313.000; -316.000
243.530;  -92.900; -657.000; -674.000
243.672;   -4.175;   43.000;  -92.000
243.815;  -53.175; -355.000; -283.000
243.958;   -4.200;   98.000;  -26.000
244.101;  -10.650;   59.000;  -16.000
244.243;   -0.900;  -47.000;  101.000
244.386; -101.425; -761.000; -630.000
244.529;  -35.700; -132.000; -139.000
244.672; -135.925;-1154.000; -951.000
244.814;  -89.725; -621.000; -794.000
244.957;  -49.950; -380.000; -304.000
245.100;  -76.925; -489.000; -489.000
245.242;  -55.975; -387.000; -374.000
245.385;   10.525;  -59.000;  -39.000
245.528; -118.750; -871.000; -705.000
245.670;   85.925;  612.000;  634.000
245.813;  -71.800; -599.000; -547.000
245.956;  -32.775; -324.000; -275.000
246.098;  -74.675; -508.000; -650.000
246.241;   11.125;  194.000;   48.000
246.383;  -26.150; -119.000;  -73.000
246.526;  -70.625; -454.000; -525.000
246.669; -112.875; -889.000; -780.000
246.811;   12.225;  172.000;   -1.000
246.954;  -80.225; -512.000; -426.000
247.096;  -19.200;  -84.000;   -6.000
247.239;  -76.350; -482.000; -445.000
247.381;  -61.475; -647.000; -488.000
247.524;   77.900;  645.000;  679.000
247.666;   -2.800;   58.000;   11.000
247.809; -116.850; -887.000; -691.000
247.951;   -6.450;  -75.000;  138.000
248.094;   17.875;  432.000;  308.000
248.236; -146.250;-1262.000;-1238.000
248.378;   12.625; -356.000;  -81.000
248.521;   -6.375; -334.000; -337.000
248.663;  -31.300; -236.000; -267.000
248.806;  -26.350; -300.000; -266.000
248.948;  -91.850; -886.000; -763.000
249.090;  -23.425; -428.000; -398.000
249.233;  -44.025; -344.000; -381.000
249.375;  -57.825; -474.000; -451.000
249.518;  -15.650;  -83.000; -133.000
249.660;    2.300; -103.000;    3.000
249.802; -164.875;-1303.000;-1189.000
249.945;  -63.375; -612.000; -540.000
250.087; -114.275; -834.000; -768.000
250.229;  -52.225; -362.000; -480.000
250.371;  -75.650; -494.000; -439.000
250.514;  -37.900; -310.000; -244.000
250.656;  -62.525;   69.000;  102.000
250.798; -111.150; -849.000; -800.000
250.940;  -59.400; -322.000; -322.000
251.083;  -24.400; -335.000; -111.000
251.225;   57.600;  338.000;  310.000
251.367;  -39.450; -274.000; -373.000
251.509;  -30.450; -265.000; -210.000
251.651;  -88.450; -731.000; -671.000
251.794;   57.525;  538.000;  632.000
251.936;  -94.625; -821.000; -747.000
252.078;  -68.150; -540.000; -461.000
252.220;  -64.925; -645.000; -477.000
252.362;   89.700;  344.000;  462.000
252.504;  -64.625; -677.000; -584.000
252.646; -115.750; -875.000; -722.000
252.788;    6.125;   14.000; -128.000
252.931;  -49.775; -257.000; -253.000
253.073;  -32.425; -376.000; -317.000
253.215;    2.050;  141.000;  122.000
253.357;  -24.650;   82.000; -153.000
253.499;  -42.600; -374.000; -234.000
253.641;  -76.575; -749.000; -594.000
253.783;  -89.825; -609.000; -527.000
253.925;  -77.800; -586.000; -591.000
254.067; -107.275; -744.000; -667.000
254.209;  -23.325; -391.000; -259.000
254.351; -134.275; -865.000; -883.000
254.493;  -57.600; -441.000; -417.000
254.635; -108.375; -936.000; -818.000
254.777;  -71.650; -752.000; -687.000
254.918;  -65.500; -512.000; -430.000
255.060;  -57.025; -551.000; -395.000
255.202;  -58.325; -473.000; -261.000
255.344;  -66.050; -658.000; -455.000
255.486;  -71.850; -471.000; -406.000
255.628; -108.275; -780.000; -781.000
255.770;  -91.150; -676.000; -536.000
255.912;  -50.225; -559.000; -468.000
256.053;  -87.475; -730.000; -508.000
256.195;  143.225; 1008.000;  903.000
256.337; -103.800; -861.000; -595.000
256.479;   65.175;  532.000;  416.000
256.621;  -41.350; -394.000; -212.000
256.762;  -95.175; -789.000; -742.000
256.904;   48.550;  485.000;  487.000
257.046;  -34.750; -381.000; -271.000
257.188;  -53.125; -351.000; -264.000
257.329;  -70.200; -525.000; -464.000
257.471; -117.950; -939.000; -807.000
257.613;  -61.575; -584.000; -498.000
257.755; -153.375;-1073.000; -982.000
257.896;   36.325;  286.000;  392.000
258.038;  -72.825; -403.000; -352.000
258.180;  -37.950; -354.000; -279.000
258.321;  -92.050; -581.000; -457.000
258.463;   -3.550;  -71.000;  133.000
258.605;  -82.250; -562.000; -570.000
258.746; -103.450; -886.000; -772.000
258.888; -139.925;-1026.000;-1020.000
259.029;   18.275;  121.000;   -8.000
259.171;  -85.325; -614.000; -550.000
259.313;   -9.225;  -49.000;  -47.000
259.454;  -60.100; -536.000; -414.000
259.596;  -51.600; -483.000; -390.000
259.737;  -67.850; -590.000; -474.000
259.879;   39.925;  217.000;  311.000
260.020;   83.050;  901.000;  636.000
260.162;  -30.950; -146.000; -253.000
260.303; -114.925; -768.000; -687.000
260.445;  -87.100; -609.000; -613.000
260.586;   18.625;  392.000;  157.000
260.728;  -45.950; -360.000; -248.000
260.869; -104.550; -350.000; -343.000
261.011;   86.675;  706.000;  537.000
261.152;  -65.725; -479.000; -319.000
261.293;  -78.775; -576.000; -595.000
261.435;  -44.900; -219.000; -184.000
261.576;  -46.325; -455.000; -325.000
261.718;   42.725;  420.000;  470.000
261.859; -118.750; -940.000; -949.000
262.000; -140.950; -951.000;-1016.000
262.142;  -15.725;  -52.000;  -60.000
262.283; -117.250; -808.000; -691.000
262.424;  -72.050; -666.000; -625.000
262.566; -152.100;-1161.000; -983.000
262.707; -104.325; -840.000; -830.000
262.848; -122.600; -769.000; -726.000
262.990;  -57.225; -362.000; -345.000
263.131;   87.225;  650.000;  681.000
263.272;   -3.250;  -61.000;  -41.000
263.413;  -83.275; -589.000; -561.000
263.555;  -55.750; -669.000; -143.000
263.696;  -79.700; -550.000; -641.000
263.837;  -61.875; -449.000; -551.000
263.978;   -8.725;   -5.000;  -77.000
264.119;  -40.050; -283.000; -264.000
264.261; -111.350; -847.000; -630.000
264.402;   12.675;   33.000;   40.000
264.543;  -79.300; -509.000; -524.000
264.684;   -8.700;   61.000;  -50.000
264.825;  -71.675; -816.000; -538.000
264.966;   -9.450;  -84.000;  -67.000
265.107; -106.000; -646.000; -670.000
265.248; -116.000; -825.000; -812.000
265.390;  -18.525;  152.000;   -9.000
265.531;  -32.350; -238.000; -107.000
265.672;  -90.800; -557.000; -630.000
265.813;   58.425;  563.000;  439.000
265.954; -141.075; -959.000; -940.000
266.095;   -8.325; -372.000; -322.000
266.236;  -98.575; -686.000; -548.000
266.377;  -52.100; -243.000; -297.000
266.518;  -71.325; -619.000; -547.000
266.659;   37.475;  170.000;  268.000
266.800;   11.275;   83.000;   85.000
266.941;  -69.350; -487.000; -478.000
267.082;    9.300;  354.000;   99.000
267.223;  -52.150; -344.000; -273.000
267.364; -110.100; -892.000; -686.000
267.504;   -5.400;    3.000;  135.000
267.645;    7.325;  160.000;   67.000
267.786;  -21.250; -147.000;  -86.000
267.927;  -62.625; -473.000; -379.000
268.068;  -15.750; -186.000;  -61.000
268.209;  -42.925; -175.000; -413.000
268.350;  -57.225; -388.000; -532.000
268.490;  -89.500; -648.000; -521.000
268.631;   32.300;  127.000;  225.000
268.772; -103.725; -874.000; -647.000
268.913;  -41.950; -328.000; -476.000
269.054;  -20.450; -117.000;   12.000
269.194;  -38.475; -418.000; -402.000
269.335; -149.775;-1137.000;-1074.000
269.476;  -17.975;   33.000;  -35.000
269.617;  -54.325; -347.000; -392.000
269.757;  -77.450; -713.000; -646.000
269.898; -105.100; -856.000; -613.000
270.039;  -68.525; -415.000; -405.000
270.180; -127.300; -952.000; -816.000
270.320;  -20.975; -190.000; -250.000
270.461;  -41.875; -277.000; -249.000
270.602;   -9.200; -186.000; -156.000
270.742; -111.700; -868.000; -943.000
270.883;  -59.400; -442.000; -390.000
271.023;  -52.900; -358.000; -357.000
271.164;  -58.375; -607.000; -528.000
271.305; -104.450; -666.000; -654.000
271.445;  -91.100; -722.000; -683.000
271.586;  -78.175; -462.000; -283.000
271.726;  -48.375; -397.000; -322.000
271.867;  -41.575; -594.000; -534.000
272.008;  198.150; -473.000; -285.000
272.148;  145.075;  462.000;  468.000
272.289;   18.600; -113.000; -181.000
272.429;   22.950;   19.000;  185.000
272.570;  -86.575; -633.000; -737.000
272.710; -107.225; -825.000; -775.000
272.851;  -21.975;  113.000; -130.000
272.991; -148.400;-1173.000;-1077.000
273.131;  -59.100; -419.000; -459.000
273.272;  -93.925; -683.000; -723.000
273.412;   22.025; -143.000;  -31.000
273.553;  -36.775; -488.000; -507.000
273.693;  146.400;  913.000;  858.000
273.834;  -80.700; -894.000; -692.000
273.974;  -57.875; -664.000; -615.000
274.114;  -86.075; -772.000; -560.000
274.255;   85.625;  414.000;  373.000
274.395;    7.175; -180.000; -125.000
274.535;   44.750;  199.000;  350.000
274.676;   27.725;  225.000;   94.000
274.816;   21.725;  110.000;   34.000
274.956;  -86.050; -624.000; -690.000
275.097;  -53.625;-1014.000; -922.000
275.237; -107.475; -913.000; -803.000
275.377;  -91.125; -778.000; -689.000
275.517; -149.925; -878.000; -937.000
275.658;  -60.750; -590.000; -555.000
275.798;  -73.200; -606.000; -413.000
275.938;   25.775;  215.000;  323.000
276.078;  -77.400; -626.000; -395.000
276.218;   11.175;   99.000;  104.000
276.359; -127.875;-1026.000;-1024.000
276.499;  -57.375; -605.000; -446.000
276.639;  -40.800; -305.000; -151.000
276.779;  -48.725; -475.000; -357.000
276.919; -103.550; -783.000; -624.000
277.059;  -11.700; -261.000; -212.000
277.199;  -40.500; -357.000; -259.000
277.340;   47.325;  287.000;  175.000
277.480; -113.175; -840.000; -693.000
277.620;   26.175;  192.000;   16.000
277.760; -187.425;-1533.000;-1294.000
277.900;   39.250;  113.000;   33.000
278.040;   17.775;  137.000;  159.000
278.180;   27.800;  270.000;  170.000
278.320;    2.775;   21.000;   56.000
278.460;  -65.025; -443.000; -469.000
278.600;  -83.025; -708.000; -598.000
278.740;   55.325;  448.000;  224.000
278.880;  -42.000; -768.000; -791.000
279.020;   -2.950; -194.000; -144.000
279.160;  -80.475; -672.000; -595.000
279.300; -113.175; -926.000; -873.000
279.440;  -80.025; -709.000; -622.000
279.579;   -1.775;-1014.000; -929.000
279.719;  -40.650; -410.000; -394.000
279.859;   81.500;   -4.000;   41.000
279.999;   29.550; -208.000;  101.000
280.139;   -4.550; -435.000; -387.000
280.279;  -60.700; -708.000; -745.000
280.419;   -7.875; -229.000; -147.000
280.559;  -29.100; -259.000; -180.000
280.698;  -85.175; -790.000; -639.000
280.838;  -86.075; -778.000; -800.000
280.978;  -96.575; -846.000; -790.000
281.118; -103.925; -811.000; -704.000
281.257;    2.075;   24.000;    6.000
281.397; -111.350;-1094.000; -960.000
281.537;  -85.850; -599.000; -712.000
281.677;  -11.450; -150.000; -101.000
281.816;  -77.850; -700.000; -630.000
281.956;  -24.800; -193.000; -257.000
282.096;  -52.525; -539.000; -396.000
282.235; -103.475; -672.000; -638.000
282.375;  -21.925; -243.000;  -98.000
282.515;  -96.850; -715.000; -707.000
282.654;   25.200;   29.000;  106.000
282.794;   24.700;  388.000;  244.000
282.934;  -45.675; -530.000; -491.000
283.073; -117.400;-1030.000; -857.000
283.213;  -43.350; -460.000; -467.000
283.353;  -40.075; -408.000; -349.000
283.492;  -26.325; -264.000; -296.000
283.632;  -50.325; -254.000; -168.000
283.771;  -89.675; -859.000; -730.000
283.911;  -49.675; -369.000; -260.000
284.050; -107.775; -794.000; -748.000
284.190; -172.375;-1229.000;-1096.000
284.329; -132.150;-1055.000; -964.000
284.469;  -56.450; -516.000; -591.000
284.608;  -55.375; -559.000; -598.000
284.748;  -76.150; -614.000; -570.000
284.887;    2.850;  -87.000;  -20.000
285.027; -111.775; -844.000; -892.000
285.166;  -31.025; -192.000; -249.000
285.306;    3.250; -116.000;  -33.000
285.445;  -25.175; -229.000; -343.000
285.584;  -80.850; -630.000; -494.000
285.724;  -40.175; -282.000; -322.000
285.863; -106.650; -857.000; -507.000
286.002;  -42.875; -366.000; -276.000
286.142; -101.075; -715.000; -622.000
286.281;  -62.350; -525.000; -493.000
286.420;  -86.625; -554.000; -417.000
286.560;   95.975;  653.000;  623.000
286.699; -123.800; -958.000; -912.000
286.838;  -86.950; -590.000; -591.000
286.978;  -79.725; -533.000; -537.000
287.117; -117.050;-1085.000; -950.000
287.256;  -36.175; -228.000; -211.000
287.395;  -43.275; -197.000; -378.000
287.535;  -54.400; -370.000; -298.000
287.674;  -78.450; -509.000; -484.000
287.813;   62.175;  661.000;  533.000
287.952; -112.900;-1010.000; -871.000
288.091; -142.825;-1049.000; -915.000
288.231;   13.225;   13.000;   15.000
288.370; -165.475;-1217.000;-1200.000
288.509;  -79.550; -728.000; -645.000
288.648;  -88.150; -770.000; -548.000
288.787;  -35.175; -243.000;  -87.000
288.926;  -66.500; -454.000; -475.000
289.065;  115.325;  859.000;  672.000
289.204;  -50.175; -377.000; -217.000
289.344;  -84.250; -791.000; -690.000
289.483;   22.175;  416.000;  304.000
289.622;  -33.150; -291.000; -149.000
289.761;  -19.125; -309.000; -166.000
289.900; -104.025; -785.000; -626.000
290.039;  -13.775;  -12.000;  -95.000
290.178;  -37.050; -274.000; -180.000
290.317;  -74.950; -618.000; -479.000
290.456;  -69.600; -463.000; -451.000
290.595; -120.975; -961.000; -833.000
290.734; -132.475; -904.000; -891.000
290.873;  -60.875; -456.000; -420.000
291.011;  -93.650; -833.000; -843.000
291.150;  -99.750; -770.000; -682.000
291.289;  -25.900; -343.000; -110.000
291.428;  -97.550; -599.000; -480.000
291.567;  -57.875; -370.000; -442.000
291.706;    2.650;  109.000;  154.000
291.845;  -82.800; -597.000; -505.000
291.984; -151.575;-1234.000;-1061.000
292.122;   60.975;  602.000;  582.000
292.261;   45.825;  620.000;  463.000
292.400;   21.400; -144.000;  211.000
292.539; -109.775; -959.000; -813.000
292.678;  -25.075; -325.000; -300.000
292.816; -148.550;-1136.000; -965.000
292.955;  -74.450; -844.000; -684.000
293.094;  -27.350; -173.000; -337.000
293.233;  -56.325; -556.000; -400.000
293.371;  -39.600; -225.000;  -84.000
293.510;  -99.675; -866.000; -780.000
293.649; -126.950; -959.000; -924.000
293.787;  -41.425;-1083.000;-1012.000
293.926;   -9.400; -113.000;  -32.000
294.065;  -23.975; -379.000; -290.000
294.203;   55.200;  298.000;  406.000
294.342;   35.825;   74.000;  156.000
294.481; 5868.225;51180.000; -836.000
294.619;  -32.325; -425.000; -582.000
294.758; -125.825;-1230.000;-1137.000
294.896;   81.950; -125.000;    5.000
295.035; -115.675;-1040.000;-1006.000
295.174; -112.725;-1082.000; -954.000
295.312;  -42.100; -323.000; -203.000
295.451;    1.525; -307.000; -428.000
295.589;  -53.325; -389.000; -518.000
295.728;   24.850; -292.000; -165.000
295.866;    5.575;  -36.000;  -51.000
296.005;  -54.075; -584.000; -341.000
296.143;  -51.250; -558.000; -596.000
296.282;  -80.625; -957.000; -881.000
296.420;  -80.775; -657.000; -557.000
296.559;  -73.225; -892.000; -633.000
296.697;   43.950; -847.000; -665.000
296.835;   86.575;-1141.000;-1002.000
296.974;   48.100;  -23.000;   39.000
297.112;   19.625; -443.000; -504.000
297.251;  -48.750; -815.000; -755.000
297.389;  114.725; -576.000; -438.000
297.527;   44.225; -145.000;  -83.000
297.666;  -59.575; -486.000; -438.000
297.804;  -52.125; -404.000; -264.000
297.942;    1.575; -136.000; -161.000
298.081;   -7.225; -183.000;   63.000
298.219;   95.300;  -17.000;  -19.000
298.357;   70.325; -144.000;  -71.000
298.495;   45.750; -810.000; -812.000
298.634;   90.725;  245.000;  219.000
298.772;   74.000; -220.000; -338.000
298.910;  -27.075; -309.000; -182.000
299.048;  -12.000; -130.000; -153.000
299.187;  -30.725; -350.000; -250.000
299.325;   28.200;   52.000;  122.000
299.463;   79.275; -389.000; -299.000
299.601;  145.575; -327.000; -271.000
299.739;  -94.000; -908.000; -883.000
299.877;  -72.250; -791.000; -703.000
300.016;  -34.000;-1095.000; -935.000
300.154;  184.275;  -19.000; -161.000
300.292;   71.200; -428.000; -348.000
300.430;   38.975; -408.000; -291.000
300.568;  -85.625; -940.000; -874.000
300.706;  -22.025; -366.000; -469.000
300.844;  -44.225;-1108.000; -979.000
300.982;  127.700;  246.000;  282.000
301.120;  -88.925; -965.000; -866.000
301.258;  -51.725; -812.000; -705.000
301.396;   26.325;  104.000;  -41.000
301.534;   86.875; -218.000; -293.000
301.672;   -4.550; -664.000; -521.000
301.810;   45.475; -613.000; -545.000
301.948;  132.200;   53.000;  149.000
302.086;  701.225; -250.000;  -32.000
302.224; 1055.450; -610.000; -585.000
302.362;   56.775; -558.000; -622.000
302.500;   -3.750; -923.000; -893.000
302.638;  114.200;  128.000;  245.000
302.776;   15.125; -352.000; -408.000
302.913;   43.775;  447.000;  236.000
303.051;    7.200;  -86.000;  -23.000
303.189;   64.625;   90.000;  118.000
303.327;  -38.425; -341.000; -256.000
303.465;  -68.975; -832.000; -588.000
303.603;  -92.875; -805.000; -604.000
303.740;  122.425;  417.000;  241.000
303.878;   33.125; -800.000; -759.000
304.016;  -72.225; -915.000; -790.000
304.154; -113.675;-1123.000;-1152.000
304.291;  -25.000; -505.000; -554.000
304.429;    1.550;  102.000;   74.000
304.567; -116.250; -908.000; -893.000
304.705;  -46.050; -408.000; -515.000
304.842;  128.450; -616.000; -540.000
304.980;   62.000;  215.000;   35.000
305.118;   81.075; -367.000; -365.000
305.255;  -58.600; -945.000; -927.000
305.393;   62.625;  178.000;  239.000
305.531;  -90.600;-1173.000; -956.000
305.668;  -56.050; -663.000; -582.000
305.806;  125.425; -358.000; -439.000
305.943;  133.275; -629.000; -637.000
306.081;   65.075; -378.000; -267.000
306.219;  -82.000; -863.000; -748.000
306.356;   -0.025;  158.000;   27.000
306.494;  120.675;  981.000;  761.000
306.631;   -6.425;  -11.000;  -55.000
306.769;   12.250; -613.000; -485.000
306.906;   -2.275; -284.000; -258.000
307.044;  -56.050; -473.000; -488.000
307.181;  -58.125; -410.000; -332.000
307.319;   18.675;  112.000;   87.000
307.456; -156.650;-1191.000;-1153.000
307.594;  -89.775; -980.000; -727.000
307.731;   -7.875; -371.000; -164.000
307.868;   -2.600;  -15.000;   20.000
308.006; -127.375; -961.000; -847.000
308.143;  -42.725; -618.000; -330.000
308.281;  217.525;  -37.000; -254.000
308.418;   15.825; -748.000; -640.000
308.555;  -41.100; -400.000; -250.000
308.693;  -61.050; -577.000; -573.000
308.830;  -96.225; -712.000; -657.000
308.967;   -4.625; -215.000;  -95.000
309.105;  -36.900; -507.000; -396.000
309.242;   70.875; -468.000; -367.000
309.379;  408.525; -577.000; -655.000
309.517;  -44.550; -936.000; -948.000
309.654; -109.800; -910.000; -734.000
309.791;  -60.575; -662.000; -580.000
309.928; -104.325; -977.000; -914.000
310.065;  184.225;  819.000;  697.000
310.203;    6.800; -825.000; -850.000
310.340;   -2.950; -465.000; -321.000
310.477;  -70.275; -412.000; -516.000
310.614;  -51.000; -383.000; -473.000
310.751;  -63.475; -427.000; -518.000
310.889;  -13.000;    1.000;   11.000
311.026; -138.425;-1161.000; -939.000
311.163;  -38.200; -386.000; -380.000
311.300;  -70.700; -512.000; -479.000
311.437;  -60.700; -658.000; -619.000
311.574; -146.750;-1226.000; -985.000
311.711;  -51.125; -595.000; -433.000
311.848;  -26.625; -380.000; -388.000
311.985;   18.975;  270.000;   93.000
312.122; -115.125; -932.000; -762.000
312.259; -112.600; -941.000; -994.000
312.396;  -76.775; -508.000; -551.000
312.533;  -72.800; -812.000; -790.000
312.670; -130.700;-1070.000; -898.000
312.807;  -30.700; -352.000; -367.000
312.944;  -64.300; -513.000; -611.000
313.081;  -27.175; -150.000; -415.000
313.218;  -95.250;-1111.000; -867.000
313.355;   28.275; -531.000; -449.000
313.492;   13.575; -455.000; -292.000
313.629;  132.700;  815.000;  735.000
313.766; -145.950;-1176.000;-1008.000
313.902;  -20.525; -186.000;   21.000
314.039;  -48.550; -372.000; -289.000
314.176;   21.175;  286.000;  192.000
314.313;  -63.325; -569.000; -473.000
314.450;  -51.275; -788.000; -684.000
314.587;  -60.825; -468.000; -480.000
314.723;   16.325;  -78.000;  130.000
314.860;   30.950;  318.000;  332.000
314.997;   38.775;  223.000;  142.000
315.134;  -29.025; -385.000; -368.000
315.270;  -16.675; -480.000; -496.000
315.407; -111.175;-1094.000; -967.000
315.544;  -47.775; -657.000; -538.000
315.681;  -60.125; -681.000; -565.000
315.817;   41.375; -133.000; -176.000
315.954;   34.475; -613.000; -392.000
316.091; -121.975;-1045.000;-1023.000
316.227;  -19.125;  -71.000; -179.000
316.364;    8.725;   23.000;    6.000
316.500;  -48.075; -113.000; -300.000
316.637;  -38.600; -181.000; -302.000
316.774;  -82.000; -625.000; -358.000
316.910;  -85.100; -598.000; -629.000
317.047;  -60.725; -487.000; -351.000
317.183;  -38.425; -435.000; -566.000
317.320;  -13.225; -367.000; -321.000
317.456;  -63.825; -733.000; -805.000
317.593;  -89.825; -598.000; -641.000
317.729;   -2.500;  168.000;  -67.000
317.866; -204.050;-1434.000;-1285.000
318.002;  -77.700; -708.000; -948.000
318.139;  -69.075; -883.000; -867.000
318.275;  -98.575;-1003.000; -738.000
318.412;  -59.175; -517.000; -336.000
318.548;   -8.000; -751.000; -720.000
318.685;  -84.575; -985.000; -888.000
318.821;  -88.950; -762.000; -735.000
318.957;   -5.725;   34.000;  -23.000
319.094;   39.750;  297.000;  154.000
319.230;  -53.075; -756.000; -742.000
319.367;  159.850; -471.000; -520.000
319.503;   62.175; -538.000; -436.000
319.639;  -87.475; -877.000; -793.000
319.775;  -56.350; -750.000; -685.000
319.912;  -42.175; -424.000; -519.000
320.048;  -72.000;-1184.000;-1184.000
320.184;   73.875;   59.000;   70.000
320.321;  -47.300; -497.000; -467.000
320.457;   62.350;  475.000;  662.000
320.593;  -65.075; -375.000; -382.000
320.729;  -93.725; -732.000; -734.000
320.866;  -52.800; -577.000; -635.000
321.002;  -67.625; -759.000; -809.000
321.138;   -6.100; -135.000; -211.000
321.274;   75.075; -148.000; -115.000
321.410;  -11.850; -585.000; -353.000
321.546;   -8.025;-1011.000; -911.000
321.683;   51.325;  400.000;  185.000
321.819;   17.525;  -48.000; -117.000
321.955;  -97.100; -743.000; -722.000
322.091;  -32.625; -585.000; -540.000
322.227;    0.850; -382.000; -202.000
322.363;   -5.025; -320.000; -215.000
322.499;  -43.100; -343.000; -331.000
322.635;  181.700;  636.000;  443.000
322.771;   37.425; -139.000;   12.000
322.907;  102.550;  129.000;  327.000
323.043;  -11.750; -115.000; -206.000
323.179;  -30.875; -394.000; -363.000
323.315;   34.700; -401.000; -371.000
323.451;  119.300; -328.000; -236.000
323.587;   64.525;  -60.000;  -77.000
323.723;   36.925; -682.000; -601.000
323.859;  -13.325; -258.000;  -76.000
323.995;  -17.600; -467.000; -409.000
324.131; -111.450; -967.000; -892.000
324.267;  -37.825; -254.000; -276.000
324.402; -113.550; -960.000; -983.000
324.538;   -8.425; -279.000; -104.000
324.674;    6.675;  164.000;   77.000
324.810;  160.275;  226.000;  308.000
324.946;   20.900; -810.000; -658.000
325.082;  -62.800; -568.000; -475.000
325.217;    3.650;  -62.000;   16.000
325.353;  -88.625; -764.000; -659.000
325.489;  -74.100; -540.000; -506.000
325.625;  -67.150; -579.000; -525.000
325.760;   51.525;  517.000;  376.000
325.896;  -18.850; -515.000; -702.000
326.032;  -52.225; -403.000; -352.000
326.168;  -53.550; -462.000; -369.000
326.303;  -49.025; -352.000; -461.000
326.439;  -14.600; -336.000; -276.000
326.575;   14.275; -190.000;  -29.000
326.710;   -4.475; -156.000;  -30.000
326.846;  -20.150;  146.000;  103.000
326.982;  -93.075; -530.000; -548.000
327.117;  -76.500; -481.000; -442.000
327.253;  -81.500; -745.000; -742.000
327.388; -149.825;-1137.000;-1153.000
327.524;  -39.375; -811.000; -578.000
327.659;  -36.075;  -58.000;  -22.000
327.795;  -11.725;   69.000;   45.000
327.931;  -95.550; -723.000; -499.000
328.066;   -3.175; -417.000; -276.000
328.202;   -2.950;   12.000; -129.000
328.337;  101.325;  957.000;  713.000
328.473;   42.475;  -12.000;  -74.000
328.608;  -21.350; -256.000; -267.000
328.743;  -91.025; -799.000; -664.000
328.879;   27.800;  214.000;  114.000
329.014;  -35.950; -102.000; -122.000
329.150;  -70.575; -358.000; -483.000
329.285;  -70.450; -465.000; -466.000
329.421;  -45.325; -548.000; -246.000
329.556;  -19.300;  -36.000;   85.000
329.691;  -84.550; -633.000; -615.000
329.827;  -80.125; -626.000; -480.000
329.962;  -38.350;  131.000; -301.000
330.097;  -75.850; -673.000; -585.000
330.233;  -48.650; -410.000; -223.000
330.368; -116.125; -839.000; -628.000
330.503;  -16.575;    3.000;   98.000
330.638;   10.500;  -93.000; -125.000
330.774;  -44.950; -609.000; -530.000
330.909;  -44.750; -434.000; -244.000
331.044;  -93.000; -714.000; -708.000
331.179; -166.700;-1217.000;-1109.000
331.315;   14.775;   77.000;   20.000
331.450;   22.275;  157.000;  285.000
331.585;  -67.500; -805.000; -706.000
331.720;  -68.175; -510.000; -460.000
331.855;  -10.675;  -35.000; -102.000
331.990;  236.175;   62.000;  138.000
332.126;  115.750; -110.000;   71.000
332.261;  -16.825; -379.000; -265.000
332.396;   -3.875; -135.000; -242.000
332.531;  -84.800;-1074.000;-1031.000
332.666;   37.600; -519.000; -363.000
332.801; -111.125; -726.000; -807.000
332.936;  -11.250; -192.000; -122.000
333.071; -143.125; -870.000; -817.000
333.206;   37.075;  307.000;  379.000
333.341;   38.450;  344.000;  418.000
333.476;  -81.625; -627.000; -623.000
333.611;  -38.575; -251.000; -173.000
333.746;  -30.425; -381.000; -464.000
333.881; -115.900; -973.000; -935.000
334.016; -113.200; -936.000; -917.000
334.151; -123.725; -746.000; -702.000
334.286;   35.025;  152.000;  186.000
334.421;   -9.250; -125.000; -178.000
334.556;  -68.050; -611.000; -567.000
334.690;  -76.675; -631.000; -577.000
334.825;   57.000;  381.000;   83.000
334.960;  -64.450; -285.000; -413.000
335.095;    8.575;  135.000;  -91.000
335.230;  -95.925; -722.000; -738.000
335.365; -123.300;-1084.000; -990.000
335.499; -115.975;-1108.000;-1037.000
335.634;   25.075;    9.000;  534.000
335.769; -105.475; -755.000; -720.000
335.904;  -46.900; -603.000; -561.000
336.038;  -51.000; -735.000; -657.000
336.173;  -91.750;-1206.000;-1194.000
336.308;    7.375; -116.000; -189.000
336.443;    1.450; -544.000; -634.000
336.577;  -64.325; -936.000; -787.000
336.712;   72.625;   -4.000;  -12.000
336.847;  -18.200; -724.000; -607.000
336.981;   80.825; -272.000; -208.000
337.116;  315.325;  615.000;  501.000
337.250;  180.075; -434.000; -421.000
337.385;  237.675; -297.000; -208.000
337.520;   83.825; -632.000; -603.000
337.654;  -44.575; -215.000; -126.000
337.789; -115.600; -989.000; -933.000
337.923;  -23.175; -104.000; -205.000
338.058;  -81.350; -673.000; -738.000
338.192;  -24.400; -611.000; -488.000
338.327;    2.000;  -18.000; -155.000
338.461;  -51.425; -299.000; -469.000
338.596;  -93.800; -780.000; -638.000
338.730;  -96.600; -767.000; -803.000
338.865;   82.575;  -46.000; -140.000
338.999;  -45.850; -846.000; -702.000
339.134;  -18.825; -634.000; -536.000
339.268;   22.400; -741.000; -603.000
339.403;  343.300; -740.000; -775.000
339.537;  110.800; -894.000; -820.000
339.671; -101.500; -829.000; -813.000
339.806;  -53.475; -556.000; -512.000
339.940;   24.750; -261.000; -235.000
340.074;  -90.925; -685.000; -510.000
340.209;  -44.625; -351.000; -230.000
340.343;  -88.325; -517.000; -573.000
340.477;  139.950;  998.000; 1036.000
340.612;  -53.725;-1033.000; -900.000
340.746;  134.625; -199.000; -243.000
340.880;  -52.125; -924.000; -785.000
341.014;  -20.425;  -45.000; -154.000
341.149; -105.775; -756.000; -718.000
341.283;  -97.975; -839.000; -754.000
341.417;  -76.900;-1124.000; -938.000
341.551;  165.650; -768.000; -708.000
341.685;  -18.775; -633.000; -611.000
341.820;  -43.000; -562.000; -493.000
341.954;  -55.675; -218.000; -349.000
342.088; -158.325;-1102.000;-1019.000
342.222;   56.550;  565.000;  618.000
342.356;  -51.800; -395.000; -335.000
342.490;  -70.650; -880.000; -841.000
342.624;  -31.900; -339.000; -242.000
342.758;    5.250; -364.000; -312.000
342.892;  -57.150; -710.000; -585.000
343.026;  -41.500;  -58.000; -116.000
343.160;  -49.550; -426.000; -376.000
343.294;  -86.050; -474.000; -337.000
343.428;   -5.125; -488.000; -448.000
343.562;  -16.925; -172.000;  -23.000
343.696;  -16.500; -385.000; -314.000
343.830;   -8.500; -362.000; -356.000
343.964;   22.150; -231.000; -168.000
344.098; 1014.675;  199.000;   70.000
344.232;  856.000; -266.000; -127.000
344.366;  106.650; -567.000; -453.000
344.500;   86.475; -665.000; -744.000
344.634;   48.825; -324.000; -164.000
344.768;   -5.800; -531.000; -341.000
344.902;   25.850;  278.000;  256.000
345.035;  -82.650; -556.000; -496.000
345.169; -132.375; -933.000; -656.000
345.303;  -16.025; -308.000; -482.000
345.437;  -60.000; -826.000; -717.000
345.571;  -58.950; -675.000; -594.000
345.704;  -60.625; -309.000; -532.000
345.838;  -11.700; -331.000; -284.000
345.972;  -29.525; -543.000; -495.000
346.106;  170.550; -179.000; -190.000
346.239;  419.975; -312.000; -243.000
346.373;   16.575; -343.000; -302.000
346.507; -139.200; -950.000; -962.000
346.640;  181.100;  -30.000;   13.000
346.774;  -34.850; -650.000; -797.000
346.908;  -13.875; -138.000;  -11.000
347.041;  -94.200; -646.000; -593.000
347.175;   14.050;  259.000;   27.000
347.309;  -64.625; -698.000; -628.000
347.442;  -86.900; -883.000; -732.000
347.576;  297.350;  670.000;  668.000
347.709;  225.550; -123.000;  -52.000
347.843;  -77.050; -933.000; -825.000
347.976;   43.525;  235.000;  294.000
348.110; -178.300;-1268.000;-1186.000
348.243;  -81.775; -679.000; -772.000
348.377;    2.625;  -26.000;   60.000
348.510;   54.725;  403.000;  540.000
348.644;  -29.475;  -37.000; -159.000
348.777;    2.550;  180.000;  191.000
348.911;  -48.450; -142.000; -112.000
349.044;  190.375;  471.000;  448.000
349.178;  193.000;-1069.000;-1006.000
349.311;  123.700;  141.000;  255.000
349.444;    4.525; -927.000; -813.000
349.578;  -20.725; -347.000; -200.000
349.711;  -91.950; -959.000; -862.000
349.845;   13.025; -661.000; -591.000
349.978; -146.475;-1224.000;-1137.000
350.111;  -72.750; -546.000; -612.000
350.244;  -69.625; -596.000; -700.000
350.378;   21.750; -392.000; -393.000
350.511;  -64.775; -393.000; -426.000
350.644;  -92.625; -808.000; -806.000
350.778;    3.925;  168.000;  104.000
350.911;    6.575;  134.000;  140.000
351.044;  -80.875; -685.000; -615.000
351.177;  -19.475; -321.000; -281.000
351.310;  -10.175;    3.000; -131.000
351.444;  -64.675; -888.000; -788.000
351.577;  128.175;  140.000;   90.000
351.710;   99.875;  593.000;  417.000
351.843;  -34.650; -165.000;  -77.000
351.976;    0.850;  149.000;  -79.000
352.109;  -81.375; -621.000; -612.000
352.242;  -11.250; -464.000; -419.000
352.376;  -58.125; -580.000; -636.000
352.509;  206.525; -437.000; -356.000
352.642;   28.925; -654.000; -604.000
352.775;   78.050; -141.000;  -98.000
352.908; -112.075; -933.000; -904.000
353.041;  -98.300; -814.000; -824.000
353.174;  -62.525; -551.000; -424.000
353.307;  -75.375; -753.000; -764.000
353.440;   75.500;  541.000;  453.000
353.573; -113.400; -957.000;-1008.000
353.706;  -18.650; -384.000; -558.000
353.839;    2.550; -264.000; -220.000
353.971;  -90.175; -657.000; -512.000
354.104;  -61.100; -896.000; -835.000
354.237;  -32.875; -627.000; -662.000
354.370;  -71.550; -846.000; -879.000
354.503; -176.625;-1231.000;-1308.000
354.636;  -35.350; -529.000; -348.000
354.769; -127.900; -937.000; -860.000
354.902;  -14.475; -230.000; -139.000
355.034;  -18.275; -164.000; -220.000
355.167;  -12.950; -262.000; -162.000
355.300;  -89.100;-1061.000; -880.000
355.433;  949.200;  -71.000;  -14.000
355.565; 1480.700; -402.000; -384.000
355.698;  380.125; -356.000; -296.000
355.831;    7.475; -882.000; -801.000
355.964;   88.975; -285.000; -170.000
356.096;  -74.500; -856.000; -843.000
356.229;   26.550; -523.000; -530.000
356.362;  305.125; -373.000; -266.000
356.494;  603.675; -229.000; -162.000
356.627;  527.700;  269.000;  377.000
356.760;  657.800;  120.000;   53.000
356.892;  950.950; -286.000; -601.000
357.025;  722.450;  403.000;  389.000
357.157;  686.150; -167.000; -179.000
357.290;  646.775; -856.000; -713.000
357.423;  177.750; -667.000; -556.000
357.555;  123.175; -217.000; -228.000
357.688;  136.125; -483.000; -364.000
357.820;  519.800; -870.000; -877.000
357.953; 3978.700; -563.000; -589.000
358.085;  918.200; -632.000; -612.000
358.218; 1337.800;-1131.000; -932.000
358.350;  250.375;  -58.000;  312.000
358.483;  -96.375;-1300.000;-1187.000
358.615;   15.425;-1182.000;-1078.000
358.747;  -31.350;-1187.000;-1058.000
358.880;   47.325; -810.000; -744.000
359.012;   -5.100; -376.000; -202.000
359.145;  -27.725; -480.000; -511.000
359.277;   86.675; -962.000; -913.000
359.409; 3300.475;  536.000;  231.000
359.542;  897.275; -738.000; -688.000
359.674;   86.125;   46.000;   13.000
359.806;  -54.350; -565.000; -438.000
359.939;  -38.350; -617.000; -516.000
360.071;  -14.275; -583.000; -579.000
360.203;  -19.325; -411.000; -364.000
360.335;   56.925;  164.000;  -16.000
360.468;  229.825; -249.000; -307.000
360.600; 2607.625; -547.000; -454.000
360.732; 2763.500; -546.000; -423.000
360.864;  417.400;-1216.000;-1044.000
360.996;  349.925; -516.000; -554.000
361.129;   68.325; -389.000; -598.000
361.261;   35.425;  110.000; -113.000
361.393;  -17.300; -252.000; -214.000
361.525;   27.825;   94.000;  244.000
361.657;  -27.000; -821.000; -703.000
361.789;   24.000; -139.000; -155.000
361.921;  283.250; -642.000; -593.000
362.053;  298.975;  524.000;  541.000
362.185;   53.675;  288.000;   72.000
362.318;  -69.975; -709.000; -705.000
362.450;  127.675;  294.000;  444.000
362.582;  156.900; -913.000; -870.000
362.714;  -34.250; -353.000; -332.000
362.846;  -89.075; -606.000; -490.000
362.978; -132.325; -941.000; -811.000
363.109;   71.775; -161.000; -260.000
363.241;  509.400; -739.000; -749.000
363.373;  433.750; -649.000; -564.000
363.505;  648.525; -186.000;  -91.000
363.637;  174.775; -787.000; -601.000
363.769;  -97.800;-1067.000;-1080.000
363.901;  -55.050; -596.000; -654.000
364.033; -102.950;-1103.000;-1062.000
364.165;    4.625; -283.000; -283.000
364.296;   66.750; -316.000; -177.000
364.428;   88.700;-1344.000;-1220.000
364.560;  -52.050; -679.000; -661.000
364.692;  -49.050; -738.000; -835.000
364.824;  325.300; -588.000; -456.000
364.955;  460.075; -402.000; -564.000
365.087;  866.400;-1097.000; -852.000
365.219;   28.425; -686.000; -816.000
365.351;  -48.675; -526.000; -572.000
365.482;   60.275;  300.000;  240.000
365.614;  -42.000; -402.000; -314.000
365.746;  -94.800; -729.000; -752.000
365.877;  -94.500; -706.000; -672.000
366.009;  257.725;  -35.000;  -62.000
366.141;  -81.250;-1249.000;-1134.000
366.272;  -90.975; -803.000; -719.000
366.404; -106.675;-1005.000; -874.000
366.535;  -12.025; -139.000;  -12.000
366.667;  -94.525; -644.000; -649.000
366.799;   37.675;  353.000;  203.000
366.930; -115.150; -862.000; -996.000
367.062;  128.625; -639.000; -613.000
367.193;  143.675; -872.000; -842.000
367.325;  -58.800; -580.000; -684.000
367.456;   74.550; -246.000;   31.000
367.588;  170.300; -371.000; -318.000
367.719;   36.225;  -44.000;  -45.000
367.851;  -11.525; -222.000; -241.000
367.982;  -33.875; -875.000; -732.000
368.113;  116.775; -475.000; -358.000
368.245; -110.025; -960.000; -841.000
368.376;   -9.425; -254.000; -302.000
368.508;  -25.600; -188.000; -263.000
368.639; -124.875;-1166.000;-1034.000
368.770;   -5.400; -670.000; -589.000
368.902;  -44.075; -836.000; -926.000
369.033;  -82.525; -906.000; -855.000
369.164;  -33.175; -720.000; -653.000
369.296; -114.075; -452.000; -601.000
369.427;    4.275; -209.000; -144.000
369.558;  -37.875; -593.000; -377.000
369.689;  -74.950; -721.000; -569.000
369.821; -136.300; -951.000; -845.000
369.952;  -13.500;   42.000; -108.000
370.083;  -46.975; -229.000; -108.000
370.214;  -76.450; -735.000; -650.000
370.345;   10.150;   65.000;   81.000
370.477;  -89.725; -810.000; -790.000
370.608;  276.050; -328.000; -264.000
370.739;  -31.875;-1233.000;-1292.000
370.870;  -21.800;-1102.000; -923.000
371.001;  116.350; -378.000; -467.000
371.132;  -53.075; -754.000; -735.000
371.263;  -14.900;  -42.000; -148.000
371.394; -123.300; -841.000; -748.000
371.525;   37.350;  345.000;  225.000
371.657;  -72.800; -808.000; -670.000
371.788;   74.525;  103.000;  199.000
371.919;  201.025; -384.000; -304.000
372.050; 3923.275;  -91.000; -156.000
372.181; 1248.975; -188.000; -294.000
372.311;  408.550;   42.000; -127.000
372.442;   62.175; -457.000; -451.000
372.573;  -15.125; -444.000; -340.000
372.704; -104.950;-1008.000; -980.000
372.835;   99.175; -228.000; -289.000
372.966;  -58.900; -646.000; -554.000
373.097;  -50.650; -575.000; -711.000
373.228;  -24.825; -717.000; -542.000
373.359;  169.700; -824.000; -536.000
373.490; 1068.475; -881.000; -727.000
373.620; 1350.475;-1001.000; -803.000
373.751; 1990.700; -332.000; -396.000
373.882;  950.900; -663.000; -733.000
374.013;  101.675; -449.000; -262.000
374.143;  -41.850; -581.000; -659.000
374.274;  -87.225; -987.000; -908.000
374.405;  200.425; -388.000; -276.000
374.536;  493.675; -526.000; -387.000
374.666; 1283.725; -759.000; -807.000
374.797;  283.450; -817.000; -868.000
374.928; 1010.275; -710.000; -560.000
375.058; 1027.375; -535.000; -500.000
375.189;  108.975;  -59.000;  -93.000
375.320;  -92.475; -928.000;-1034.000
375.450;  -33.350; -625.000; -616.000
375.581;  -37.075; -526.000; -436.000
375.712;  -25.350; -574.000; -250.000
375.842;  344.750; -438.000; -415.000
375.973;  294.500; -554.000; -513.000
376.103;  -21.025; -665.000; -648.000
376.234;  -69.050; -531.000; -552.000
376.364;  -25.950; -944.000; -867.000
376.495;  341.800;  925.000;  529.000
376.625;    8.675; -472.000; -485.000
376.756;   93.275; -709.000; -678.000
376.886;  -52.375;-1178.000;-1026.000
377.017;   66.250;-1048.000;-1061.000
377.147;  337.900; -786.000; -782.000
377.278;   77.050;  174.000;  228.000
377.408; -114.900; -801.000; -815.000
377.538;  -91.300; -707.000; -693.000
377.669;  -77.250; -537.000; -613.000
377.799;  -81.200; -645.000; -635.000
377.929;  -45.175; -610.000; -428.000
378.060; -119.675; -781.000; -847.000
378.190;  -44.425; -726.000; -531.000
378.320;  -42.225; -401.000; -406.000
378.451;  -15.225; -131.000;  -22.000
378.581;   -4.375;  -67.000; -110.000
378.711;  165.025; 1035.000;  866.000
378.841;    0.825; -533.000; -675.000
378.972;  -50.700; -871.000; -751.000
379.102;   16.900; -652.000; -579.000
379.232;   -0.625; -126.000;  -73.000
379.362;  -90.975;-1001.000; -885.000
379.492;   24.550; -373.000; -424.000
379.623;  135.075;    0.000;  111.000
379.753;  -90.450;-1107.000; -974.000
379.883;  240.925;   59.000;  156.000
380.013;   26.900;-1081.000;-1017.000
380.143;  -90.975;-1097.000;-1056.000
380.273;  -91.025; -985.000; -861.000
380.403;   10.700; -344.000; -257.000
380.533;  -15.525; -651.000; -664.000
380.663;  101.200;  173.000;  128.000
380.793;  -82.800;-1027.000;-1074.000
380.923;  -14.125; -103.000;  -34.000
381.053;  -81.150; -613.000; -623.000
381.183;  -16.750; -106.000; -248.000
381.313;   54.175; -656.000; -470.000
381.443;   66.750; -692.000; -473.000
381.573;  241.025; -402.000; -409.000
381.703;  358.900;-1249.000;-1095.000
381.833;  -99.750;-1454.000;-1336.000
381.963;  134.325; -134.000;  -87.000
382.093; 1527.375; -925.000; -909.000
382.223;  525.875; -713.000; -602.000
382.353;    3.475; -801.000; -608.000
382.482;  442.500;-1091.000; -964.000
382.612;  865.500; -872.000; -644.000
382.742;  519.925; -695.000; -622.000
382.872;  331.700; -565.000; -551.000
383.002;   82.325;  347.000; -132.000
383.131;   -7.725; -226.000; -160.000
383.261;  -27.950; -706.000; -768.000
383.391;  307.675; -552.000; -377.000
383.521; 3072.625;  451.000;  263.000
383.650;  765.875; -947.000; -904.000
383.780;    1.150; -783.000; -656.000
383.910;  109.925;  880.000;  802.000
384.039;   38.500; -794.000; -656.000
384.169;  287.225;-1205.000;-1017.000
384.299;    5.350; -650.000; -662.000
384.428;  -77.550; -764.000; -680.000
384.558;  -31.125; -308.000; -275.000
384.687;  -23.275; -414.000; -334.000
384.817;   25.100;   75.000;   -2.000
384.947;   34.750; -234.000; -141.000
385.076;  296.375;  982.000;  912.000
385.206;  103.575;  369.000;  480.000
385.335;  -26.725; -549.000; -417.000
385.465;  -55.750; -655.000; -663.000
385.594;  160.900;  -53.000;  -44.000
385.724;  521.725; -868.000; -838.000
385.853;  160.675; -296.000; -270.000
385.982; 1516.325; -743.000; -787.000
386.112; 2480.650;-1052.000; -871.000
386.241;  197.175; -307.000; -312.000
386.371;   28.200; -174.000;  -87.000
386.500;   27.700; -825.000; -789.000
386.629;   47.925; -874.000; -817.000
386.759;   71.075;  -43.000;   68.000
386.888;   13.625; -170.000; -250.000
387.017;  -72.950; -648.000; -620.000
387.147;  -66.275; -771.000; -798.000
387.276;   23.375; -410.000; -397.000
387.405;   25.600; -398.000; -342.000
387.535;  -25.600; -452.000; -361.000
387.664;  -63.050; -692.000; -620.000
387.793;   65.750; -198.000; -113.000
387.922;  595.250;  255.000;  200.000
388.052;   49.950; -576.000; -423.000
388.181;   44.125; -342.000; -472.000
388.310;   34.550; -889.000; -710.000
388.439;  -15.925; -749.000; -742.000
388.568;  188.025;  365.000;  244.000
388.697; 1187.975; -756.000; -653.000
388.826;  267.350; -768.000; -666.000
388.956;   63.175; -285.000; -307.000
389.085;  -20.175; -347.000; -287.000
389.214;  -94.725; -842.000; -872.000
389.343;  -66.025; -645.000; -413.000
389.472;  392.850;  126.000;  149.000
389.601;  541.600;   91.000;    0.000
389.730;   44.675; -568.000; -687.000
389.859;   78.200;  226.000;   46.000
389.988;  212.850; -423.000; -408.000
390.117;  178.025; -168.000; -146.000
390.246;   14.050; -331.000; -320.000
390.375;  140.550; -673.000; -626.000
390.504;  -50.725; -703.000; -621.000
390.633;  -85.875; -672.000; -726.000
390.761;  -55.050; -732.000; -645.000
390.890;   32.425;   -4.000; -130.000
391.019;   -4.525; -421.000; -441.000
391.148; -116.175; -826.000; -855.000
391.277;  -61.425; -576.000; -493.000
391.406;  -76.375; -821.000; -805.000
391.534;   30.525;  574.000; -301.000
391.663;  -56.000; -583.000; -645.000
391.792;  -73.500; -673.000; -701.000
391.921;  104.825;   -3.000;   15.000
392.050;  204.375; -287.000; -228.000
392.178;  -12.425;-1206.000;-1061.000
392.307;  159.075; -758.000; -712.000
392.436;   96.800; -427.000; -641.000
392.564;   17.550;  166.000;   -6.000
392.693;  -80.925; -860.000; -682.000
392.822;  229.250; -529.000; -534.000
392.950;  131.275; -880.000; -714.000
393.079;  365.500; -188.000; -328.000
393.208;   54.375; -488.000; -511.000
393.336;   -9.850; -170.000; -145.000
393.465;  -39.800; -317.000; -199.000
393.593;    4.850;   62.000;   79.000
393.722; -134.275;-1121.000; -916.000
393.850;  -32.550; -188.000;  -61.000
393.979; -147.150; -926.000; -805.000
394.107;  -59.150; -517.000; -537.000
394.236;  -21.125; -570.000; -507.000
394.364;  241.650;  383.000;  206.000
394.493;  450.200; -911.000; -767.000
394.621;   14.875; -955.000; -916.000
394.750;  674.025; -873.000; -923.000
394.878; 2819.575; -247.000; -149.000
395.007; 4025.450; -721.000; -807.000
395.135;  321.450; -790.000; -721.000
395.263;  -75.500;-1038.000;-1040.000
395.392;   14.475;  -25.000; -107.000
395.520; -109.975; -818.000; -679.000
395.648;  -64.800; -865.000; -915.000
395.777;   -1.300; -366.000; -405.000
395.905;  -34.925; -449.000; -564.000
396.033;   23.900;  217.000;  172.000
396.162;  692.425; -399.000; -453.000
396.290;  626.875;  -17.000;   -2.000
396.418;  146.075; -555.000; -514.000
396.546;  -60.350; -571.000; -466.000
396.674;  -75.300; -850.000; -878.000
396.803;    4.125;  -72.000;  -23.000
396.931;  115.775; -179.000; -199.000
397.059;   85.000;-1026.000; -989.000
397.187; -102.900;-1026.000; -975.000
397.315; -127.375; -884.000; -649.000
397.443;  -97.350; -592.000; -443.000
397.572;  -88.100; -578.000; -424.000
397.700;   -0.825; -607.000; -614.000
397.828;   28.650;  120.000;  -90.000
397.956;  -41.475; -508.000; -478.000
398.084;  -68.550; -767.000; -626.000
398.212;   57.525;  137.000;  124.000
398.340;   15.100;  -56.000;  159.000
398.468;   53.250; -390.000; -169.000
398.596; -131.400; -993.000; -953.000
398.724; -119.600; -762.000; -767.000
398.852; -153.225;-1024.000; -976.000
398.980;  -59.025; -560.000; -560.000
399.108;  -40.625; -982.000; -735.000
399.236;   34.875;   13.000;    8.000
399.363;   15.600;  222.000;  196.000
399.491;  -59.575; -404.000; -398.000
399.619; -118.625; -829.000; -800.000
399.747;  -96.475; -859.000; -771.000
399.875;   86.575;  220.000;  234.000
400.003;  -44.625; -359.000; -284.000
400.130;  -91.175; -421.000; -341.000
400.258;  -26.150;  -83.000;   38.000
400.386;  -62.175; -352.000; -168.000
400.514;  -39.550; -526.000; -587.000
400.641;  -63.175; -928.000; -802.000
400.769; -133.175; -979.000; -888.000
400.897;  -94.800; -838.000; -793.000
401.025;   -1.225; -166.000; -152.000
401.152;  -10.250;  220.000;   38.000
401.280;  -94.500; -430.000; -429.000
401.408; -114.550; -712.000; -576.000
401.535;  -97.900; -735.000; -758.000
401.663; -172.600;-1134.000;-1054.000
401.790;  -76.975; -514.000; -525.000
401.918;   39.250;  436.000;  405.000
402.046;  -12.150;  134.000;  122.000
402.173;  -26.350;  -18.000;    7.000
402.301;  -70.950; -519.000; -397.000
402.428;   45.525;  528.000;  383.000
402.556; -143.775;-1188.000; -913.000
402.683;  -29.175;  -20.000;   -1.000
402.811;  -27.400;  -37.000; -206.000
402.938;  -28.275;   20.000;   27.000
403.066;  224.675; -574.000; -558.000
403.193;  381.375;  299.000;  239.000
403.321;  303.625; -396.000; -574.000
403.448;  360.150;   83.000;   27.000
403.575;  168.350;  -90.000;  -46.000
403.703;  -93.625; -732.000; -557.000
403.830;  -42.650; -531.000; -496.000
403.957; -143.550;-1117.000;-1023.000
404.085;   17.250;  -61.000; -172.000
404.212;   96.550;  -50.000;   63.000
404.339;  254.600; -566.000; -306.000
404.467; 5471.925; -612.000; -524.000
404.594; 4001.925; -287.000; -227.000
404.721; 1026.925; -869.000; -764.000
404.848;  100.450; -113.000; -202.000
404.976;  -89.950; -856.000; -783.000
405.103;  -10.750;  -14.000;  -82.000
405.230;   -8.800;  190.000;  226.000
405.357;   20.475;  117.000;   44.000
405.484;  234.500;  -49.000;    5.000
405.612;   58.725; -548.000; -563.000
405.739;  -53.075; -488.000; -243.000
405.866;   87.700;  669.000;  385.000
405.993;  -44.800; -398.000; -102.000
406.120; -127.350; -801.000; -887.000
406.247;  -46.100; -323.000; -342.000
406.374;  495.175;  540.000;  629.000
406.501;  172.575; -632.000; -702.000
406.628;  -72.950; -621.000; -589.000
406.755;  -93.525; -803.000; -620.000
406.882;  -32.075; -228.000; -277.000
407.009; -117.725; -719.000; -628.000
407.136;   61.900; -480.000; -401.000
407.263;  188.150; -939.000; -829.000
407.390;  -53.675; -692.000; -614.000
407.517; -165.900;-1139.000;-1187.000
407.644;  -51.375; -332.000; -256.000
407.771;  -67.800; -249.000; -287.000
407.898;    4.525;  168.000;  328.000
408.025;  -62.375; -421.000; -313.000
408.151;   -9.125;   82.000;  153.000
408.278;  -79.125; -267.000; -216.000
408.405; -114.375; -931.000; -899.000
408.532;  -65.025; -549.000; -542.000
408.659; -107.250; -677.000; -648.000
408.785; -199.050;-1298.000;-1170.000
408.912;  -64.575; -412.000; -296.000
409.039; -109.275; -610.000; -686.000
409.166;  -97.125; -591.000; -555.000
409.292; -103.150; -571.000; -534.000
409.419; -117.700; -665.000; -649.000
409.546;  -93.125; -431.000; -192.000
409.672;  -98.000; -713.000; -545.000
409.799;  -24.950;  -36.000;   34.000
409.926;  -32.075; -180.000; -179.000
410.052; -174.450;-1127.000;-1091.000
410.179;  -48.350; -368.000; -392.000
410.305;  -96.225; -375.000; -493.000
410.432;  -45.575; -220.000; -333.000
410.558;  -84.350; -305.000; -380.000
410.685;  -94.975; -688.000; -431.000
410.812;  -94.925; -409.000; -588.000
410.938; -123.025; -964.000; -808.000
411.065;  -95.425; -671.000; -645.000
411.191;  -23.150; -189.000; -174.000
411.317; -105.875; -823.000; -742.000
411.444;  -56.825; -317.000; -246.000
411.570;  -77.550; -339.000; -294.000
411.697; -119.750; -758.000; -752.000
411.823; -161.350; -989.000; -999.000
411.949;  -25.475;  -56.000;   17.000
412.076; -126.100; -539.000; -519.000
412.202; -118.225; -758.000; -757.000
412.329; -117.725; -798.000; -752.000
412.455; -120.050; -821.000; -657.000
412.581;  -13.925;  -15.000;  172.000
412.707;  -49.400; -540.000; -457.000
412.834;   19.775;  156.000;  219.000
412.960;  -92.300; -785.000; -784.000
413.086; -107.875; -743.000; -701.000
413.212;  157.875;  604.000;  578.000
413.339;  -53.575; -685.000; -701.000
413.465;   13.500; -364.000; -310.000
413.591;  -83.275; -757.000; -474.000
413.717;  -49.825; -358.000; -366.000
413.843; -124.325; -839.000; -861.000
413.969;  -59.075;  -47.000; -292.000
414.096;  -99.775; -679.000; -679.000
414.222;   -0.650;  -33.000;   85.000
414.348;  -16.325; -652.000; -385.000
414.474;  121.925;   38.000;  -52.000
414.600;  -21.850; -126.000; -144.000
414.726;  -10.125;  -96.000;  -55.000
414.852;  -54.025; -365.000; -342.000
414.978;   40.275;  104.000;  -18.000
415.104;   44.425;   38.000;   80.000
415.230;   17.400; -329.000; -330.000
415.356;   42.975; -409.000; -514.000
415.482;  216.025;   13.000;  -35.000
415.608;  272.000; -247.000; -323.000
415.734;  951.125;   67.000;   38.000
415.860;19113.750; -875.000; -767.000
415.986;15322.950; -685.000; -607.000
416.111; 1361.150; -798.000; -652.000
416.237;  289.325; -424.000; -571.000
416.363; 1033.175; -765.000; -733.000
416.489; 4150.850; -324.000; -251.000
416.615;  502.450; -707.000; -742.000
416.741;  -15.250; -677.000; -784.000
416.866;  -91.775; -673.000; -736.000
416.992; -131.825; -801.000; -818.000
417.118;  -23.525;  -41.000;  -80.000
417.244;  -59.650; -798.000; -531.000
417.369;  -87.525; -801.000; -612.000
417.495;  -13.500; -325.000; -254.000
417.621;  -67.775;-1015.000; -803.000
417.746;    7.375; -579.000; -572.000
417.872;   53.825; -254.000; -144.000
417.998;   52.125; -515.000; -530.000
418.123;  944.625;-1073.000; -845.000
418.249; 5352.500; -512.000; -601.000
418.374;  848.925; -916.000; -824.000
418.500;  120.750; -383.000; -482.000
418.626;  108.550;   70.000;  -59.000
418.751;  132.000; -549.000; -448.000
418.877;  188.400; -637.000; -643.000
419.002; 1635.325; -688.000; -560.000
419.128;12330.850; -930.000; -721.000
419.253; 3332.900; -967.000; -837.000
419.379;  431.900; -391.000; -338.000
419.504;  401.375;  325.000;  415.000
419.629;  509.800; -393.000; -212.000
419.755; 3170.075; -317.000; -254.000
419.880;20382.450;  -98.000;   67.000
420.006;11170.925; -280.000; -221.000
420.131;29582.875; -662.000; -775.000
420.256; 4667.825; -315.000; -316.000
420.382;  613.900; -665.000; -687.000
420.507;   97.600; -649.000; -778.000
420.632;  160.100; -337.000; -339.000
420.758;  279.250; -251.000; -425.000
420.883;  -68.375; -876.000; -672.000
421.008;  -94.625; -775.000; -619.000
421.133;  -71.725; -509.000; -467.000
421.259;  -41.675; -325.000; -259.000
421.384; -104.925; -834.000; -693.000
421.509;  -20.375;-1052.000; -862.000
421.634; 1270.325; -936.000; -820.000
421.759;  636.575; -359.000; -327.000
421.885;  -23.425; -717.000; -656.000
422.010;  -66.800; -673.000; -542.000
422.135; -147.050; -695.000; -727.000
422.260;   37.475;  340.000;  280.000
422.385;  -41.975;   12.000;  -98.000
422.510;   20.975;  151.000;  -26.000
422.635;   27.250;  -87.000;  -43.000
422.760;  123.725; -766.000; -791.000
422.885;   73.875;  -57.000;  -80.000
423.010;  -14.225; -112.000; -169.000
423.135;  -94.300; -481.000; -561.000
423.260;   -1.875; -150.000; -245.000
423.385;   65.700;  476.000;  222.000
423.510;   38.900;   71.000;  -22.000
423.635;   89.950;  133.000;   45.000
423.760;   76.475;  383.000;  328.000
423.885;   50.050;  336.000;  391.000
424.010;    8.300;  -68.000;  -13.000
424.135;  -27.725;    5.000;  -33.000
424.259;  -77.700; -654.000; -457.000
424.384;  -63.825; -279.000; -272.000
424.509;  -24.600; -260.000; -186.000
424.634;  -83.875; -761.000; -623.000
424.759;  -18.775; -688.000; -544.000
424.883;  -14.050; -506.000; -527.000
425.008;  170.900; -502.000; -410.000
425.133; 1954.100; -679.000; -653.000
425.258; 1016.275; -517.000; -381.000
425.382; 1047.950; -867.000; -774.000
425.507; 2902.950; -487.000; -543.000
425.632;  519.875; -802.000; -663.000
425.756;  452.075; -256.000; -146.000
425.881; 5848.050; -831.000; -857.000
426.006;17203.550; -604.000; -355.000
426.130; 2940.650; -696.000; -508.000
426.255;  386.250; -611.000; -491.000
426.379;  170.050; -189.000; -577.000
426.504;  356.175;  660.000;  544.000
426.629; 3892.025; -519.000; -466.000
426.753; 2974.400;   64.000;  -46.000
426.878;  332.225; -252.000; -288.000
427.002;  200.500; -651.000; -668.000
427.127; 1462.650;  -35.000; -158.000
427.251;11081.975;  372.000;  401.000
427.375; 3523.300; -191.000; -173.000
427.500; 2495.350; -616.000; -610.000
427.624;  928.025; -234.000; -400.000
427.749;  112.175; -216.000; -225.000
427.873;  -30.000; -499.000; -412.000
427.997;  -24.225; -222.000; -230.000
428.122;   68.875;  795.000;  703.000
428.246;   74.700;  433.000;  434.000
428.371; -106.175; -869.000; -773.000
428.495;  -91.325; -624.000; -646.000
428.619;  -31.275; -186.000; -117.000
428.743;   32.525;   65.000;  132.000
428.868;   26.800; -732.000; -643.000
428.992; 1513.550; -219.000; -326.000
429.116;  682.125; -329.000; -357.000
429.240;  313.425;  419.000;  426.000
429.365;   -7.350; -454.000; -574.000
429.489;  -27.900; -638.000; -647.000
429.613;   23.075; -236.000; -177.000
429.737;   47.325; -563.000; -432.000
429.861;  238.575; -247.000; -133.000
429.985; 5183.250; -425.000; -305.000
430.109; 6322.275; -770.000; -908.000
430.234;  783.650;   76.000;  -50.000
430.358;   89.275; -250.000; -160.000
430.482;  -51.275; -672.000; -564.000
430.606;  -64.975; -655.000; -375.000
430.730;   30.150; -437.000; -388.000
430.854;  176.925; -909.000; -835.000
430.978;  -32.000; -795.000; -764.000
431.102;  -65.575; -499.000; -422.000
431.226; -103.150; -874.000; -815.000
431.350;   27.250;  345.000;  422.000
431.474;  -59.500; -661.000; -373.000
431.597; -140.700;-1060.000; -848.000
431.721;  -69.475; -276.000; -267.000
431.845; -140.725; -704.000; -472.000
431.969;  -73.925; -304.000; -349.000
432.093;  -96.225; -395.000; -317.000
432.217;  -22.375;   32.000;   82.000
432.341;  -96.325; -523.000; -518.000
432.464;   10.725;   96.000;   40.000
432.588;  235.550; -401.000; -329.000
432.712;  122.575;  -52.000;  -52.000
432.836;   39.575;  213.000;  263.000
432.959;  -29.125; -372.000; -311.000
433.083;   70.600;   11.000;    2.000
433.207;  361.700;  285.000;  930.000
433.330; 4704.800; -391.000; -200.000
433.454; 6296.075; -654.000; -638.000
433.578; 3612.625;  583.000;  278.000
433.701;  729.525; -623.000; -675.000
433.825;  162.400; -292.000; -299.000
433.949;  204.325;   28.000;  -72.000
434.072;  100.475; -410.000; -323.000
434.196;  -12.975; -309.000; -117.000
434.319; 3550.075;25482.000;25124.000
434.443;  678.725; -656.000; -603.000
434.566; 2680.900;  281.000;   62.000
434.690;  516.225; -637.000; -383.000
434.813;   55.725; -251.000; -173.000
434.937;  -59.000; -569.000; -696.000
435.060;  -38.675; -423.000; -332.000
435.184;  345.200; -492.000; -217.000
435.307;  204.200;  159.000;  102.000
435.431;  -14.100;  -40.000;   24.000
435.554;  -77.025; -399.000; -240.000
435.677;  -83.725; -350.000; -258.000
435.801;  -41.200;  -25.000;   49.000
435.924;  -17.425;    1.000;  -67.000
436.048; -103.850;-1019.000; -732.000
436.171;  -60.725; -240.000;  -66.000
436.294;  -25.650; -248.000; -229.000
436.417;   88.725; -963.000; -849.000
436.541;  -71.700; -814.000; -840.000
436.664;  -51.050; -242.000; -316.000
436.787;  -21.625;   13.000;  113.000
436.910; -113.975; -792.000; -422.000
437.034;    2.275;  142.000;  143.000
437.157;   53.700;  -11.000;    0.000
437.280;  -52.850; -392.000; -292.000
437.403;  -66.200; -982.000; -869.000
437.526;  652.625; -903.000; -865.000
437.649; 2580.350; -505.000; -332.000
437.772;  456.025; -692.000; -540.000
437.896;  134.675;  700.000;  544.000
438.019;  -97.725; -758.000; -503.000
438.142;  -81.125; -596.000; -506.000
438.265;   -8.550; -639.000; -670.000
438.388;  637.175; -520.000; -410.000
438.511;  167.175; -597.000; -394.000
438.634;  -29.100; -247.000; -125.000
438.757; -123.250; -693.000; -619.000
438.880;  -15.225;  -34.000;  -57.000
439.003;  -75.450; -417.000; -437.000
439.126;  -67.975; -287.000; -167.000
439.248;  -54.650;  -98.000; -139.000
439.371;  -48.600;    9.000;  -53.000
439.494;   31.675;  510.000;  439.000
439.617;  -48.375;   65.000;  -88.000
439.740; -172.200; -968.000; -816.000
439.863; -132.325; -755.000; -595.000
439.986; -123.150; -476.000; -431.000
440.108;  -39.125; -161.000; -112.000
440.231; -155.550; -950.000; -836.000
440.354;  -43.000;  -64.000; -150.000
440.477;   48.600; -566.000; -542.000
440.599;   40.600; -200.000; -225.000
440.722; -121.800; -709.000; -586.000
440.845;   71.150;  751.000;  928.000
440.968; -103.050; -415.000; -311.000
441.090;  -70.500; -199.000;  -33.000
441.213; -153.675;-1021.000; -825.000
441.336;  -41.950; -159.000;   -5.000
441.458;  -79.700; -549.000; -396.000
441.581;  -65.950; -628.000; -629.000
441.703;  -69.625; -152.000;   13.000
441.826; -103.725; -557.000; -400.000
441.948;  -55.500;   56.000;   51.000
442.071;   21.100;  555.000;  424.000
442.193; -116.725; -531.000; -485.000
442.316;   13.425;  152.000;   97.000
442.438;   40.125; -233.000;  -10.000
442.561;   86.950;  272.000;  262.000
442.683;  566.300; -809.000; -522.000
442.806; 1353.475;   -8.000;   74.000
442.928;   73.500; -859.000; -604.000
443.051;  -65.700; -577.000; -373.000
443.173;  -94.300; -341.000; -339.000
443.295;  -86.150; -263.000; -371.000
443.418;  -59.575; -321.000;  -29.000
443.540;    3.200; -106.000;   -4.000
443.662; -114.975; -563.000; -465.000
443.785;  -14.850;  335.000;  199.000
443.907; -113.500; -362.000; -208.000
444.029; -139.500; -767.000; -494.000
444.152; -145.575; -644.000; -554.000
444.274;  -21.925;  -18.000;  -24.000
444.396; -117.350; -461.000; -221.000
444.518; -122.225; -691.000; -454.000
444.640;  -98.925; -268.000; -111.000
444.763;  -18.975;  388.000;  249.000
444.885; -119.475; -432.000; -392.000
445.007;  -21.825;   35.000;   86.000
445.129; -100.600; -610.000; -515.000
445.251; -107.325; -372.000; -439.000
445.373; -127.600; -537.000; -386.000
445.495;   -7.000;  242.000;  350.000
445.617;   45.975;  853.000;  753.000
445.739;  -59.050; -215.000;  -97.000
445.861;  -38.700; -245.000; -112.000
445.984;  -29.450; -267.000; -101.000
446.105;  215.050; -418.000; -251.000
446.227;  686.400; -176.000;  -19.000
446.349;   46.900; -358.000; -249.000
446.471;  -81.525; -615.000; -448.000
446.593;  -76.725; -316.000;   19.000
446.715;    1.525;  -67.000;   41.000
446.837;   57.900;  697.000;  832.000
446.959;  -93.525; -457.000; -478.000
447.081; -131.575; -628.000; -518.000
447.203;   47.200;  862.000;  834.000
447.325;  -92.475; -270.000;   42.000
447.446;  -11.575;  286.000;  530.000
447.568; -163.025; -921.000; -803.000
447.690;  -70.300; -236.000; -245.000
447.812; -142.750; -798.000; -519.000
447.933;  -30.100;  155.000;  127.000
448.055;  -80.050; -306.000; -261.000
448.177;  148.250;   31.000;   79.000
448.299;  127.375; -935.000; -727.000
448.420;   38.250;  -25.000;  159.000
448.542;  -47.675;   -3.000;   33.000
448.664;  -29.825;  109.000;  322.000
448.785;  -27.025;  265.000;   83.000
448.907;  -74.900; -614.000; -353.000
449.028;  -10.175; -771.000; -471.000
449.150;   78.175;  492.000;  589.000
449.272; -174.150;-1044.000; -913.000
449.393;   31.875;  612.000;  694.000
449.515; -133.800; -634.000; -581.000
449.636;  -52.400; -264.000; -155.000
449.758;   69.275;  763.000;  622.000
449.879;  -89.550; -498.000; -396.000
450.001;  -80.125; -149.000;  -49.000
450.122;  -35.550;  -95.000;  162.000
450.244;  -28.450;   37.000;  364.000
450.365;  -93.975; -495.000; -301.000
450.486;  -38.150;   80.000;  268.000
450.608;    2.125;  393.000;  326.000
450.729;   74.775;  578.000;  645.000
450.850;    7.350; -574.000; -466.000
450.972;  662.200; -552.000; -389.000
451.093; 4617.600;  190.000;  588.000
451.214; 2279.650; -516.000; -337.000
451.336;  423.100;  773.000;  579.000
451.457;   65.700;  264.000;  393.000
451.578;  -37.525; -118.000;  -74.000
451.699; -115.425; -546.000; -540.000
451.821;  -56.050; -284.000;  -50.000
451.942;  -19.475;  278.000;  285.000
452.063;   24.600;  228.000;  419.000
452.184;  496.100;  -54.000;  -49.000
452.305; 1117.300;  103.000;  170.000
452.427;  166.075; -549.000; -301.000
452.548;   -0.300;   23.000;   79.000
452.669;  -41.600; -257.000;  -89.000
452.790;  -36.775;    3.000;  -18.000
452.911;   -5.425;  195.000;  259.000
453.032;  -53.650; -289.000;  -60.000
453.153;  -60.975;  -29.000;   81.000
453.274;   60.675;  737.000;  868.000
453.395;  -43.325;  -51.000;  175.000
453.516;  137.950; 1317.000; 1388.000
453.637;  -46.050; -205.000; -150.000
453.758;  -51.775;   15.000;   69.000
453.879; -117.125; -462.000; -250.000
454.000;   73.250; 1086.000;  948.000
454.121; -119.425; -554.000; -326.000
454.242; -103.675; -599.000; -383.000
454.362;  -53.950;  -99.000;  114.000
454.483;  -29.100; -309.000; -229.000
454.604;   53.775;  512.000;  580.000
454.725; -114.325; -627.000; -555.000
454.846; -123.825; -474.000; -406.000
454.967;  -20.275;  230.000;  539.000
455.087;  -33.250;  179.000;  153.000
455.208;   16.800;  554.000;  856.000
455.329;  -52.975;  -22.000;   82.000
455.450;   39.100;  473.000;  633.000
455.570;  -73.300; -234.000; -211.000
455.691;  -41.500;  201.000;  407.000
455.812; -106.725; -270.000;  -92.000
455.932;  -62.350;  107.000;  -97.000
456.053;  -83.600;   36.000;   24.000
456.173; -109.925; -433.000; -355.000
456.294; -137.100; -476.000; -303.000
456.415;  -68.600;  -73.000;   70.000
456.535;  -31.050;  297.000;  273.000
456.656;  -38.200;  132.000;  240.000
456.776;  -69.575;    3.000;  298.000
456.897;   10.300;  308.000;  513.000
457.017;  -72.525; -153.000;   -3.000
457.138; -105.325; -402.000; -249.000
457.258;  -38.775;  263.000;  224.000
457.379;    0.825;  509.000;  521.000
457.499;  -31.250;  443.000;  432.000
457.620; -110.050; -407.000; -231.000
457.740; -105.700; -132.000;  -11.000
457.860;  -48.975;   87.000;   44.000
457.981;  -39.275;  132.000;  124.000
458.101;  -66.950;  -89.000;   40.000
458.221;   -2.275;  336.000;  402.000
458.342;  -54.125;   -4.000;  -37.000
458.462;   -1.550;  617.000;  352.000
458.582;  -36.650; -302.000; -294.000
458.703;   18.175;  303.000;  154.000
458.823;  -21.100;   22.000;  163.000
458.943;   15.925;  341.000;  467.000
459.063;  -27.150; 1124.000;  192.000
459.183;  -23.000;  328.000;  313.000
459.304;   11.800;  315.000;  517.000
459.424;  -61.700; -246.000;  -89.000
459.544;  302.800;  388.000;  764.000
459.664;  810.750;  499.000;  506.000
459.784;  331.700; 1004.000; 1175.000
459.904;   67.050;  867.000;  744.000
460.024;   65.900;  867.000;  684.000
460.144;    2.400;  449.000;  554.000
460.264;  -11.775;  515.000;  327.000
460.385;  -99.300; -145.000; -119.000
460.505;   25.425;  905.000;  858.000
460.625; -100.550;  -17.000;  -68.000
460.745;  -24.650;  396.000;  541.000
460.864;  -46.525;  153.000;  469.000
460.984;   10.150;  499.000;  573.000
461.104;  139.575; 1656.000; 1775.000
461.224;   22.025;  657.000;  650.000
461.344;  -36.125;  431.000;  360.000
461.464;  -33.200;  258.000;  513.000
461.584;   -6.150;  283.000;  466.000
461.704;  -34.525;   58.000;  108.000
461.824;  -40.275;  238.000;  259.000
461.943;  -42.425;  191.000;  130.000
462.063;  -66.975;    2.000;  324.000
462.183;   31.450;  639.000;  717.000
462.303;  102.525; 1678.000; 1230.000
462.422;   35.750;  781.000;  840.000
462.542;  -47.275;  271.000;  391.000
462.662;   38.400;  353.000;  380.000
462.782;  206.825;  833.000;  572.000
462.901;  490.025;  545.000;  717.000
463.021;  297.225; 1702.000; 1638.000
463.141;   10.225;  337.000;  770.000
463.260;  -18.450;  614.000;  474.000
463.380;   15.700;  902.000;  884.000
463.499;  -45.525;  342.000;  332.000
463.619;  -32.700;  581.000;  559.000
463.738;  104.850; 1644.000;  903.000
463.858;   16.050;  657.000;  811.000
463.978;  -23.050;  542.000;  396.000
464.097;   54.675;  921.000; 1114.000
464.217;  111.500; 1196.000; 1143.000
464.336;  120.800; 1068.000; 1130.000
464.455;  -20.400;  328.000;  659.000
464.575;   41.925;  597.000;  602.000
464.694;  176.925; 1204.000; 1179.000
464.814;  117.125; 1190.000; 1138.000
464.933;   87.375; 1095.000; 1027.000
465.052;  102.425; 1412.000; 1054.000
465.172;   76.950;  922.000;  799.000
465.291;  143.975; 1376.000; 1320.000
465.410;   15.000;  462.000;  735.000
465.530;   81.350; 1355.000; 1310.000
465.649;   57.750; 1209.000; 1273.000
465.768;  140.500; 1673.000; 1508.000
465.888;   49.650;  941.000; 1174.000
466.007;  109.175; 1335.000; 1440.000
466.126;  -12.325;  721.000;  641.000
466.245;   45.400; 1176.000; 1187.000
466.364;   26.625;  950.000; 1060.000
466.484;   56.975; 1024.000; 1213.000
466.603;   40.875; 1101.000; 1222.000
466.722;  134.125; 1490.000; 1769.000
466.841;   87.075; 1151.000; 1401.000
466.960;   52.550; 1069.000;  972.000
467.079;  128.800; 1971.000; 1786.000
467.198;   45.475; 1238.000; 1181.000
467.317;   94.850; 1768.000; 1162.000
467.436;   64.325; 1709.000; 1261.000
467.555;  121.775; 1796.000; 1746.000
467.674;   78.200; 1227.000; 1329.000
467.793;   40.350; 1376.000; 1374.000
467.912;   86.450; 1658.000; 1539.000
468.031;  131.850; 2038.000; 1930.000
468.150;  130.950; 1842.000; 1837.000
468.269;  206.400; 2313.000; 2090.000
468.388;  183.600; 2168.000; 2339.000
468.507;  253.275; 2884.000; 2903.000
468.626;  270.325; 2555.000; 2541.000
468.744;  139.850; 2018.000; 2174.000
468.863;  193.650; 2312.000; 2523.000
468.982;   80.325; 1503.000; 1555.000
469.101;  230.100; 2788.000; 2692.000
469.220;  150.100; 2333.000; 2176.000
469.338;  262.850; 2935.000; 3051.000
469.457;  204.625; 2719.000; 2545.000
469.576;  344.275; 3953.000; 3784.000
469.695;  240.350; 2877.000; 3066.000
469.813;  439.300; 4148.000; 4192.000
469.932;  420.725; 4255.000; 4485.000
470.051;  413.025; 4075.000; 4161.000
470.169;  812.825; 4470.000; 4338.000
470.288; 1465.450; 4700.000; 4809.000
470.406;  898.550; 5059.000; 5194.000
470.525;  623.875; 6101.000; 5787.000
470.644;  645.775; 6847.000; 6794.000
470.762;  812.700; 8397.000; 7873.000
470.881;  905.075; 8651.000; 8464.000
470.999; 1042.900; 9685.000; 9151.000
471.118; 1116.750;11174.000;10711.000

