
Integration time [ms]: 200.000
Averaging Nr. [scans]: 10
Smoothing Nr. [pixels]: 0
Data measured with spectrometer [name]: 2101012U2
Wave   ;Sample   ;Dark     ;Reference
[nm]   ;[counts] ;[counts] ;[counts] 

197.733;  131.600;  516.000;  404.000
197.879; -183.200; -610.000; -634.000
198.025; -113.700; -475.000; -420.000
198.171; -156.300; -602.000; -612.000
198.317;  -59.100; -401.000; -316.000
198.463; -117.700; -655.000; -404.000
198.609;   40.300;  181.000; -137.000
198.755; -154.500; -644.000; -410.000
198.901; -127.500; -505.000; -424.000
199.047; -164.500; -615.000; -488.000
199.193;  -65.900; -230.000; -468.000
199.339;  -83.400; -222.000; -369.000
199.485;   80.700;  330.000;  271.000
199.631;   26.600;  227.000;  310.000
199.777; -109.800; -466.000; -398.000
199.923; -106.500; -610.000; -424.000
200.069;   15.000; -141.000;  -58.000
200.215;   99.500;  128.000;  453.000
200.361;  121.400;  243.000;  477.000
200.507; -142.700; -600.000; -373.000
200.653;  -33.700; -371.000; -194.000
200.798;  -92.000; -215.000; -125.000
200.944;   27.400; -146.000;  -41.000
201.090;   85.100;   61.000;  222.000
201.236;  -11.000; -116.000; -158.000
201.382;  243.200;  874.000;  903.000
201.528;   37.900;  -58.000;  -48.000
201.674; -116.500; -386.000; -293.000
201.819; -145.200; -540.000; -439.000
201.965; -164.700; -699.000; -447.000
202.111;  -68.600; -273.000; -226.000
202.257;  -95.300; -250.000; -238.000
202.402;   29.400;   13.000;  -36.000
202.548;  -59.400; -169.000; -116.000
202.694;  218.200;  410.000; -183.000
202.840; -179.600; -603.000; -531.000
202.985; -129.000; -681.000; -639.000
203.131; -230.700; -832.000; -666.000
203.277;  -55.000; -199.000; -262.000
203.423; -107.800; -434.000; -520.000
203.568;  -97.300; -462.000; -237.000
203.714; -125.400; -535.000; -542.000
203.860; -140.000; -682.000; -641.000
204.005;   37.500;  112.000;  167.000
204.151;  162.300;  561.000;  556.000
204.296;  -79.700; -354.000; -221.000
204.442; -140.600; -600.000; -547.000
204.588; -153.500; -592.000; -579.000
204.733;   47.000;  178.000;  168.000
204.879; -266.400;-1018.000; -822.000
205.025;    4.800;  -99.000;  126.000
205.170;   -9.700;  -17.000;   94.000
205.316;  170.900;  438.000;  661.000
205.461; -196.400; -698.000; -554.000
205.607;  199.300;  609.000;  665.000
205.752; -166.100; -626.000; -551.000
205.898; -115.700; -501.000; -391.000
206.043; -129.900; -578.000; -506.000
206.189;  -67.400; -243.000; -285.000
206.334;  164.000;  554.000;  606.000
206.480;  213.200;  409.000;  239.000
206.625; -175.500; -529.000; -552.000
206.771; -114.400; -451.000; -373.000
206.916;  -73.700; -210.000; -537.000
207.062; -176.800; -545.000; -591.000
207.207; -136.700; -546.000; -443.000
207.353;   97.100;  185.000;  460.000
207.498;   36.000;  196.000;   85.000
207.643;  -99.700; -501.000; -370.000
207.789; -264.500;-1069.000; -910.000
207.934; -207.300; -665.000; -713.000
208.080;  -71.100; -154.000;   66.000
208.225;   14.300;  -22.000;  -57.000
208.370; -171.400; -727.000; -619.000
208.516; -164.300; -741.000; -487.000
208.661;  -30.500; -127.000;  -69.000
208.806;  -48.000; -165.000; -171.000
208.952; -269.300;-1044.000; -731.000
209.097;  174.100;  378.000;  349.000
209.242;  -76.500; -307.000; -382.000
209.387;  138.100;  392.000;  350.000
209.533; -106.600; -321.000; -350.000
209.678;  185.100;  472.000;  543.000
209.823; -124.600; -408.000; -310.000
209.969; -219.200; -860.000; -757.000
210.114; -244.400; -907.000; -719.000
210.259; -213.500; -939.000; -889.000
210.404;  -25.200; -171.000;  103.000
210.549;   37.600;  108.000;    3.000
210.695;  -19.700;   -3.000;  -95.000
210.840;   74.600;   94.000;   67.000
210.985; -119.900; -484.000; -303.000
211.130;  158.500;  268.000;  406.000
211.275;   49.500;  207.000;  199.000
211.420;  -77.200; -300.000; -289.000
211.566; -163.200; -536.000; -489.000
211.711;   76.600;  218.000;  157.000
211.856; -119.700; -545.000; -519.000
212.001;   39.600;  151.000;   44.000
212.146;    8.100;  153.000;   49.000
212.291;  -31.400; -210.000; -186.000
212.436;  -34.200; -280.000;   -6.000
212.581; -159.000; -685.000; -653.000
212.726; -169.600; -487.000; -538.000
212.871;  -67.200; -552.000; -217.000
213.016; -312.200;-1172.000;-1029.000
213.161;  151.000;  406.000;  291.000
213.306; -139.800; -435.000; -577.000
213.451; -178.700; -778.000; -689.000
213.596;  -96.300; -455.000; -347.000
213.741; -108.200; -448.000; -538.000
213.886; -155.700; -498.000; -517.000
214.031;  -51.800; -294.000; -124.000
214.176; -102.200; -408.000; -341.000
214.321;  -24.800; -296.000; -157.000
214.466;  -68.200; -163.000;  -43.000
214.611;   11.900;  -61.000;  -10.000
214.756; -256.000; -948.000; -858.000
214.901;  -28.700; -388.000; -226.000
215.046; -242.800; -797.000; -825.000
215.191;   40.600;  128.000;   35.000
215.336;  -27.400; -157.000;  -19.000
215.480; -162.700; -684.000; -505.000
215.625;  -31.900; -175.000;  -19.000
215.770; -176.300; -757.000; -662.000
215.915;    3.300;   -5.000;  -97.000
216.060;    5.400; -113.000;  -21.000
216.205; -227.500; -731.000; -779.000
216.349; -134.400; -470.000; -533.000
216.494; -298.900; -939.000; -867.000
216.639; -249.300; -823.000; -888.000
216.784; -179.400; -577.000; -525.000
216.929;  145.600;  392.000;  281.000
217.073;  -43.100; -244.000;  -31.000
217.218;   24.900;   78.000;  -47.000
217.363; -186.700; -656.000; -618.000
217.507; -154.300; -623.000; -588.000
217.652; -270.500; -845.000; -874.000
217.797; -166.700; -708.000; -659.000
217.942; -222.300; -856.000; -720.000
218.086;  173.300;  608.000;  539.000
218.231;  -59.400; -174.000;  -26.000
218.376;  -65.600; -337.000; -229.000
218.520;   33.000;  -41.000;   96.000
218.665;  -54.900; -338.000; -204.000
218.810;  -84.000; -275.000; -233.000
218.954;   48.300;  201.000;   35.000
219.099; -232.700; -713.000; -963.000
219.243; -131.100; -589.000; -554.000
219.388;  -81.300; -264.000; -136.000
219.532;   -5.300; -116.000; -116.000
219.677; -153.400; -564.000; -521.000
219.822;   31.400;   33.000;   89.000
219.966;   18.100;   17.000;  -99.000
220.111;  -82.500; -328.000;  -40.000
220.255; -198.100; -797.000; -750.000
220.400;   -6.900; -180.000; -146.000
220.544; -126.000; -516.000; -450.000
220.689; -100.800; -422.000; -451.000
220.833;  -44.100; -123.000;  -58.000
220.978;  -83.600; -393.000; -563.000
221.122;   70.500;  319.000;  307.000
221.267; -220.200; -906.000; -837.000
221.411; -138.400; -478.000; -394.000
221.555;   -0.500; -104.000;  -23.000
221.700;  -60.600; -329.000; -222.000
221.844;   80.900;  255.000;  272.000
221.989;  -74.500; -328.000; -311.000
222.133;  -47.300; -289.000; -307.000
222.277;   -1.900;    5.000;   78.000
222.422;   72.100;  227.000;  113.000
222.566; -101.900; -381.000; -214.000
222.711; -107.800; -414.000; -479.000
222.855; -192.600; -643.000; -586.000
222.999; -181.700; -642.000; -717.000
223.144;  -31.700; -195.000; -194.000
223.288;  139.300;  423.000;  251.000
223.432;   52.600;  184.000;  230.000
223.576;   37.000;  152.000;  -21.000
223.721;  100.200;  364.000;  273.000
223.865; -105.100; -472.000; -475.000
224.009;  541.100; 1673.000; 1631.000
224.153; -157.800; -660.000; -671.000
224.298; -136.800; -531.000; -489.000
224.442;  -41.500;  -74.000;  -33.000
224.586;   -6.900; -169.000; -106.000
224.730; -180.400; -858.000; -670.000
224.875; -219.300; -739.000; -688.000
225.019;   70.100;  102.000;  188.000
225.163;  135.500;  208.000;  341.000
225.307;   59.300;   97.000;  -91.000
225.451;  138.700;  360.000;  481.000
225.595;   64.000;  264.000;  176.000
225.739;  -54.500; -170.000;  -94.000
225.884;    9.700;   86.000;    5.000
226.028; -177.800; -760.000; -626.000
226.172;  -74.800; -260.000; -273.000
226.316; -247.200; -941.000; -902.000
226.460; -142.900; -645.000; -493.000
226.604; -100.600; -406.000; -400.000
226.748; -205.300; -836.000; -733.000
226.892;  -54.600; -227.000; -181.000
227.036;  -83.300; -537.000; -447.000
227.180; -110.400; -551.000; -375.000
227.324; -121.800; -561.000; -580.000
227.468; -234.000; -819.000; -717.000
227.612;   43.800;  242.000;  -28.000
227.756; -225.200; -845.000; -698.000
227.900;  140.000;  342.000;  441.000
228.044; -118.900; -509.000; -290.000
228.188;  165.000;  448.000;  568.000
228.332; -160.600; -546.000; -472.000
228.476;  -55.400; -223.000; -149.000
228.620;  -51.900; -210.000; -150.000
228.764;  125.900;  431.000;  349.000
228.908;  -44.900; -155.000;   30.000
229.052; -108.000; -615.000; -528.000
229.195;    0.300; -172.000;   13.000
229.339;  -32.100; -235.000; -305.000
229.483;  -84.200;    5.000; -162.000
229.627;   34.500; -156.000;  139.000
229.771; -107.700; -218.000; -294.000
229.915;   36.300;  230.000;   79.000
230.059; -173.000; -648.000; -663.000
230.202;  -93.300; -370.000; -317.000
230.346;    1.800; -107.000;  107.000
230.490; -138.400; -489.000; -521.000
230.634; -249.000; -736.000; -553.000
230.777;  197.400;  478.000;  509.000
230.921;  -95.900; -450.000; -359.000
231.065;  -84.400; -246.000; -286.000
231.209;   63.800;  261.000;  265.000
231.352;   59.800;   54.000;   40.000
231.496;   30.500;  568.000;  188.000
231.640; -155.300; -693.000; -621.000
231.783;  131.400;  546.000;  525.000
231.927;  -69.900; -294.000; -365.000
232.071; -259.200; -962.000; -736.000
232.214; -205.700; -980.000; -764.000
232.358; -196.700; -683.000; -599.000
232.502;   61.400;  -19.000;    7.000
232.645; -292.500;-1090.000; -927.000
232.789;  -32.400; -257.000; -218.000
232.933;  -96.700; -407.000; -224.000
233.076; -266.900;-1038.000; -897.000
233.220; -222.200; -752.000; -777.000
233.363; -128.800; -669.000; -477.000
233.507;  113.000;  371.000;  129.000
233.650; -197.800; -764.000; -834.000
233.794;   75.800;  438.000;  461.000
233.938; -102.400; -530.000; -362.000
234.081;  -53.600;  -93.000;   31.000
234.225; -124.800; -631.000; -539.000
234.368; -250.500; -773.000; -723.000
234.512;  -68.900; -385.000; -299.000
234.655; -186.800; -582.000; -555.000
234.798; -138.500; -493.000; -466.000
234.942; -272.300; -884.000;-1002.000
235.085; -135.600; -651.000; -443.000
235.229; -175.800; -405.000; -410.000
235.372;  -86.900; -247.000; -191.000
235.516;  -77.500; -397.000; -321.000
235.659;   70.800;   92.000;  121.000
235.802;    7.900;  -38.000;  -22.000
235.946;   96.700;  335.000;  215.000
236.089;   52.400;  126.000;  250.000
236.233;  109.400;  275.000;  298.000
236.376;  -74.500; -235.000; -378.000
236.519;  -81.100; -297.000; -319.000
236.663;  -24.000; -215.000; -117.000
236.806; -255.800;-1029.000; -999.000
236.949;  134.700;  543.000;  431.000
237.092;  153.000;  412.000;  391.000
237.236; -195.300; -589.000; -502.000
237.379;  132.200;  352.000;  428.000
237.522; -240.200; -879.000; -768.000
237.666;  -18.300; -271.000;   18.000
237.809; -239.500; -851.000; -823.000
237.952;   79.800;  469.000;  271.000
238.095; -124.500; -447.000; -442.000
238.238;  192.800;  688.000;  700.000
238.382;    9.000;  166.000;  103.000
238.525;  -93.000; -598.000; -511.000
238.668; -296.800;-1060.000; -985.000
238.811; -159.600; -638.000; -643.000
238.954; -108.300; -483.000; -334.000
239.097;  208.200;  617.000;  664.000
239.241;   67.700;  394.000;  326.000
239.384;  -50.100; -254.000; -214.000
239.527;  -91.700; -424.000; -224.000
239.670; -304.100; -994.000;-1091.000
239.813; -221.500; -696.000; -658.000
239.956;  207.700;  579.000;  473.000
240.099; -242.100; -778.000; -725.000
240.242;  172.400;  428.000;  432.000
240.385;  124.200;  466.000;  450.000
240.528; -163.500; -706.000; -473.000
240.671;   34.700;  189.000;  134.000
240.814;  -57.400; -441.000; -158.000
240.957; -189.000; -767.000; -578.000
241.100; -198.000; -779.000; -755.000
241.243; -291.300;-1234.000; -893.000
241.386; -146.300; -508.000; -379.000
241.529; -191.700; -735.000; -547.000
241.672; -131.500; -566.000; -495.000
241.815; -251.100; -832.000; -808.000
241.958;  -24.800; -125.000; -182.000
242.101; -143.600; -545.000; -390.000
242.244;  -64.200; -270.000; -325.000
242.387; -103.200; -304.000; -246.000
242.530;  148.800;  470.000;  134.000
242.673;  -79.400; -381.000; -309.000
242.815; -257.400; -925.000; -899.000
242.958; -127.500; -482.000; -381.000
243.101;   49.200;  132.000;  187.000
243.244; -138.500; -564.000; -521.000
243.387;  -76.100; -313.000; -316.000
243.530; -172.600; -657.000; -674.000
243.672;   33.800;   43.000;  -92.000
243.815;  -80.800; -355.000; -283.000
243.958;   54.000;   98.000;  -26.000
244.101;   43.200;   59.000;  -16.000
244.243;  -37.900;  -47.000;  101.000
244.386; -213.600; -761.000; -630.000
244.529;  -24.700; -132.000; -139.000
244.672; -312.000;-1154.000; -951.000
244.814; -219.600; -621.000; -794.000
244.957; -113.500; -380.000; -304.000
245.100; -131.300; -489.000; -489.000
245.242; -107.200; -387.000; -374.000
245.385;    7.700;  -59.000;  -39.000
245.528; -234.300; -871.000; -705.000
245.670;  204.400;  612.000;  634.000
245.813; -174.500; -599.000; -547.000
245.956;  -45.200; -324.000; -275.000
246.098; -131.800; -508.000; -650.000
246.241;   30.000;  194.000;   48.000
246.383;  -10.200; -119.000;  -73.000
246.526; -164.200; -454.000; -525.000
246.669; -272.500; -889.000; -780.000
246.811;   32.500;  172.000;   -1.000
246.954; -116.000; -512.000; -426.000
247.096;  -58.800;  -84.000;   -6.000
247.239; -123.700; -482.000; -445.000
247.381; -164.700; -647.000; -488.000
247.524;  212.700;  645.000;  679.000
247.666;   22.300;   58.000;   11.000
247.809; -249.800; -887.000; -691.000
247.951;   -6.800;  -75.000;  138.000
248.094;   85.900;  432.000;  308.000
248.236; -357.900;-1262.000;-1238.000
248.378;  -79.900; -356.000;  -81.000
248.521;  -71.800; -334.000; -337.000
248.663;  -93.900; -236.000; -267.000
248.806;  -36.400; -300.000; -266.000
248.948; -269.100; -886.000; -763.000
249.090; -138.900; -428.000; -398.000
249.233; -153.900; -344.000; -381.000
249.375; -118.500; -474.000; -451.000
249.518;  -27.700;  -83.000; -133.000
249.660;  -20.800; -103.000;    3.000
249.802; -352.600;-1303.000;-1189.000
249.945; -125.300; -612.000; -540.000
250.087; -249.700; -834.000; -768.000
250.229; -112.700; -362.000; -480.000
250.371; -107.900; -494.000; -439.000
250.514; -120.300; -310.000; -244.000
250.656;  -17.600;   69.000;  102.000
250.798; -222.600; -849.000; -800.000
250.940;  -96.600; -322.000; -322.000
251.083;  -43.300; -335.000; -111.000
251.225;  146.100;  338.000;  310.000
251.367;  -65.900; -274.000; -373.000
251.509;  -65.000; -265.000; -210.000
251.651; -182.500; -731.000; -671.000
251.794;  127.700;  538.000;  632.000
251.936; -211.500; -821.000; -747.000
252.078; -146.600; -540.000; -461.000
252.220; -143.600; -645.000; -477.000
252.362;   79.800;  344.000;  462.000
252.504; -192.400; -677.000; -584.000
252.646; -226.700; -875.000; -722.000
252.788;  -15.500;   14.000; -128.000
252.931;  -88.400; -257.000; -253.000
253.073;  -96.000; -376.000; -317.000
253.215;    6.600;  141.000;  122.000
253.357;   -4.700;   82.000; -153.000
253.499;  -97.700; -374.000; -234.000
253.641; -191.800; -749.000; -594.000
253.783; -197.000; -609.000; -527.000
253.925; -172.500; -586.000; -591.000
254.067; -220.200; -744.000; -667.000
254.209;  -53.100; -391.000; -259.000
254.351; -273.400; -865.000; -883.000
254.493; -121.100; -441.000; -417.000
254.635; -246.200; -936.000; -818.000
254.777; -182.400; -752.000; -687.000
254.918; -147.100; -512.000; -430.000
255.060; -146.900; -551.000; -395.000
255.202; -137.800; -473.000; -261.000
255.344; -172.500; -658.000; -455.000
255.486; -170.400; -471.000; -406.000
255.628; -217.800; -780.000; -781.000
255.770; -216.600; -676.000; -536.000
255.912; -110.700; -559.000; -468.000
256.053; -195.300; -730.000; -508.000
256.195;  360.100; 1008.000;  903.000
256.337; -225.400; -861.000; -595.000
256.479;  156.100;  532.000;  416.000
256.621;  -80.800; -394.000; -212.000
256.762; -181.400; -789.000; -742.000
256.904;  116.000;  485.000;  487.000
257.046;  -72.400; -381.000; -271.000
257.188;  -57.100; -351.000; -264.000
257.329; -158.900; -525.000; -464.000
257.471; -248.600; -939.000; -807.000
257.613; -132.500; -584.000; -498.000
257.755; -310.400;-1073.000; -982.000
257.896;   99.800;  286.000;  392.000
258.038; -156.100; -403.000; -352.000
258.180;  -69.100; -354.000; -279.000
258.321; -170.500; -581.000; -457.000
258.463;   19.000;  -71.000;  133.000
258.605; -193.600; -562.000; -570.000
258.746; -203.800; -886.000; -772.000
258.888; -296.200;-1026.000;-1020.000
259.029;   78.300;  121.000;   -8.000
259.171; -190.800; -614.000; -550.000
259.313;    9.700;  -49.000;  -47.000
259.454; -159.400; -536.000; -414.000
259.596;  -88.200; -483.000; -390.000
259.737; -144.400; -590.000; -474.000
259.879;   67.000;  217.000;  311.000
260.020;  224.400;  901.000;  636.000
260.162;   -5.400; -146.000; -253.000
260.303; -221.400; -768.000; -687.000
260.445; -152.500; -609.000; -613.000
260.586;   72.900;  392.000;  157.000
260.728;  -66.200; -360.000; -248.000
260.869; -163.200; -350.000; -343.000
261.011;  212.600;  706.000;  537.000
261.152; -119.100; -479.000; -319.000
261.293; -160.700; -576.000; -595.000
261.435;  -74.600; -219.000; -184.000
261.576;  -78.500; -455.000; -325.000
261.718;  145.000;  420.000;  470.000
261.859; -255.500; -940.000; -949.000
262.000; -286.100; -951.000;-1016.000
262.142;  -17.900;  -52.000;  -60.000
262.283; -206.100; -808.000; -691.000
262.424; -170.900; -666.000; -625.000
262.566; -324.800;-1161.000; -983.000
262.707; -206.600; -840.000; -830.000
262.848; -247.000; -769.000; -726.000
262.990;  -60.800; -362.000; -345.000
263.131;  184.100;  650.000;  681.000
263.272;   10.600;  -61.000;  -41.000
263.413; -190.900; -589.000; -561.000
263.555; -139.700; -669.000; -143.000
263.696; -207.800; -550.000; -641.000
263.837; -126.600; -449.000; -551.000
263.978;   -2.400;   -5.000;  -77.000
264.119;  -79.300; -283.000; -264.000
264.261; -220.800; -847.000; -630.000
264.402;   17.100;   33.000;   40.000
264.543; -152.300; -509.000; -524.000
264.684;   12.000;   61.000;  -50.000
264.825; -152.800; -816.000; -538.000
264.966;  -14.900;  -84.000;  -67.000
265.107; -234.300; -646.000; -670.000
265.248; -216.900; -825.000; -812.000
265.390;    3.500;  152.000;   -9.000
265.531;  -34.600; -238.000; -107.000
265.672; -152.200; -557.000; -630.000
265.813;  129.700;  563.000;  439.000
265.954; -295.400; -959.000; -940.000
266.095;  -31.400; -372.000; -322.000
266.236; -210.400; -686.000; -548.000
266.377;  -73.200; -243.000; -297.000
266.518; -130.200; -619.000; -547.000
266.659;   72.000;  170.000;  268.000
266.800;    5.500;   83.000;   85.000
266.941; -151.900; -487.000; -478.000
267.082;   53.600;  354.000;   99.000
267.223; -101.100; -344.000; -273.000
267.364; -244.100; -892.000; -686.000
267.504;  -17.500;    3.000;  135.000
267.645;   11.700;  160.000;   67.000
267.786;  -46.600; -147.000;  -86.000
267.927; -154.000; -473.000; -379.000
268.068;  -14.200; -186.000;  -61.000
268.209; -102.000; -175.000; -413.000
268.350; -119.300; -388.000; -532.000
268.490; -158.100; -648.000; -521.000
268.631;   95.300;  127.000;  225.000
268.772; -212.800; -874.000; -647.000
268.913;  -83.200; -328.000; -476.000
269.054;  -31.500; -117.000;   12.000
269.194; -119.400; -418.000; -402.000
269.335; -306.600;-1137.000;-1074.000
269.476;  -11.600;   33.000;  -35.000
269.617;  -94.500; -347.000; -392.000
269.757; -185.200; -713.000; -646.000
269.898; -219.000; -856.000; -613.000
270.039;  -93.100; -415.000; -405.000
270.180; -278.900; -952.000; -816.000
270.320;   -5.800; -190.000; -250.000
270.461;  -84.500; -277.000; -249.000
270.602;   -6.100; -186.000; -156.000
270.742; -272.300; -868.000; -943.000
270.883; -114.500; -442.000; -390.000
271.023; -101.800; -358.000; -357.000
271.164; -151.300; -607.000; -528.000
271.305; -239.700; -666.000; -654.000
271.445; -167.500; -722.000; -683.000
271.586; -109.000; -462.000; -283.000
271.726;  -95.700; -397.000; -322.000
271.867; -169.400; -594.000; -534.000
272.008;  -63.100; -473.000; -285.000
272.148;  132.100;  462.000;  468.000
272.289;   -5.600; -113.000; -181.000
272.429;    8.900;   19.000;  185.000
272.570; -195.900; -633.000; -737.000
272.710; -235.800; -825.000; -775.000
272.851;  -48.600;  113.000; -130.000
272.991; -342.900;-1173.000;-1077.000
273.131; -147.600; -419.000; -459.000
273.272; -199.400; -683.000; -723.000
273.412;  -29.400; -143.000;  -31.000
273.553; -142.700; -488.000; -507.000
273.693;  270.600;  913.000;  858.000
273.834; -269.800; -894.000; -692.000
273.974; -181.800; -664.000; -615.000
274.114; -216.200; -772.000; -560.000
274.255;  109.600;  414.000;  373.000
274.395;  -50.100; -180.000; -125.000
274.535;   45.500;  199.000;  350.000
274.676;   36.000;  225.000;   94.000
274.816;   27.600;  110.000;   34.000
274.956; -179.600; -624.000; -690.000
275.097; -275.900;-1014.000; -922.000
275.237; -239.900; -913.000; -803.000
275.377; -201.000; -778.000; -689.000
275.517; -291.300; -878.000; -937.000
275.658; -152.000; -590.000; -555.000
275.798; -188.900; -606.000; -413.000
275.938;   47.100;  215.000;  323.000
276.078; -144.300; -626.000; -395.000
276.218;   -0.200;   99.000;  104.000
276.359; -271.300;-1026.000;-1024.000
276.499; -131.300; -605.000; -446.000
276.639;  -79.000; -305.000; -151.000
276.779; -111.200; -475.000; -357.000
276.919; -200.900; -783.000; -624.000
277.059;  -17.500; -261.000; -212.000
277.199; -109.900; -357.000; -259.000
277.340;   69.000;  287.000;  175.000
277.480; -226.600; -840.000; -693.000
277.620;   62.700;  192.000;   16.000
277.760; -392.500;-1533.000;-1294.000
277.900;  -19.100;  113.000;   33.000
278.040;   37.400;  137.000;  159.000
278.180;   73.900;  270.000;  170.000
278.320;  -15.000;   21.000;   56.000
278.460; -140.600; -443.000; -469.000
278.600; -168.100; -708.000; -598.000
278.740;  126.700;  448.000;  224.000
278.880; -241.600; -768.000; -791.000
279.020;   21.200; -194.000; -144.000
279.160; -174.400; -672.000; -595.000
279.300; -225.300; -926.000; -873.000
279.440; -174.700; -709.000; -622.000
279.579; -264.600;-1014.000; -929.000
279.719; -112.900; -410.000; -394.000
279.859;   59.500;   -4.000;   41.000
279.999;  -61.900; -208.000;  101.000
280.139;  -97.300; -435.000; -387.000
280.279; -229.200; -708.000; -745.000
280.419;  -34.700; -229.000; -147.000
280.559;  -65.800; -259.000; -180.000
280.698; -191.200; -790.000; -639.000
280.838; -210.000; -778.000; -800.000
280.978; -212.100; -846.000; -790.000
281.118; -236.200; -811.000; -704.000
281.257;   13.800;   24.000;    6.000
281.397; -316.800;-1094.000; -960.000
281.537; -209.000; -599.000; -712.000
281.677;  -25.100; -150.000; -101.000
281.816; -181.100; -700.000; -630.000
281.956;  -75.900; -193.000; -257.000
282.096;  -80.300; -539.000; -396.000
282.235; -218.800; -672.000; -638.000
282.375;  -48.300; -243.000;  -98.000
282.515; -243.000; -715.000; -707.000
282.654;   27.400;   29.000;  106.000
282.794;   52.100;  388.000;  244.000
282.934; -120.400; -530.000; -491.000
283.073; -292.800;-1030.000; -857.000
283.213; -138.400; -460.000; -467.000
283.353; -135.200; -408.000; -349.000
283.492;  -87.800; -264.000; -296.000
283.632;  -89.000; -254.000; -168.000
283.771; -214.600; -859.000; -730.000
283.911; -115.600; -369.000; -260.000
284.050; -214.100; -794.000; -748.000
284.190; -338.900;-1229.000;-1096.000
284.329; -292.600;-1055.000; -964.000
284.469; -190.200; -516.000; -591.000
284.608; -132.200; -559.000; -598.000
284.748; -165.000; -614.000; -570.000
284.887;   14.300;  -87.000;  -20.000
285.027; -247.600; -844.000; -892.000
285.166; -103.000; -192.000; -249.000
285.306;  -46.400; -116.000;  -33.000
285.445;  -74.600; -229.000; -343.000
285.584; -195.600; -630.000; -494.000
285.724;  -47.400; -282.000; -322.000
285.863; -237.900; -857.000; -507.000
286.002;  -98.800; -366.000; -276.000
286.142; -219.900; -715.000; -622.000
286.281; -129.300; -525.000; -493.000
286.420; -157.100; -554.000; -417.000
286.560;  209.200;  653.000;  623.000
286.699; -295.700; -958.000; -912.000
286.838; -162.800; -590.000; -591.000
286.978; -182.100; -533.000; -537.000
287.117; -285.300;-1085.000; -950.000
287.256;  -63.400; -228.000; -211.000
287.395;  -89.800; -197.000; -378.000
287.535;  -93.200; -370.000; -298.000
287.674; -175.300; -509.000; -484.000
287.813;  130.900;  661.000;  533.000
287.952; -253.700;-1010.000; -871.000
288.091; -324.100;-1049.000; -915.000
288.231;   -6.200;   13.000;   15.000
288.370; -365.600;-1217.000;-1200.000
288.509; -178.400; -728.000; -645.000
288.648; -187.500; -770.000; -548.000
288.787;  -62.000; -243.000;  -87.000
288.926; -132.600; -454.000; -475.000
289.065;  237.800;  859.000;  672.000
289.204; -103.000; -377.000; -217.000
289.344; -183.000; -791.000; -690.000
289.483;   49.400;  416.000;  304.000
289.622;  -69.900; -291.000; -149.000
289.761;  -15.300; -309.000; -166.000
289.900; -227.500; -785.000; -626.000
290.039;  -45.800;  -12.000;  -95.000
290.178;  -70.600; -274.000; -180.000
290.317; -150.700; -618.000; -479.000
290.456; -103.500; -463.000; -451.000
290.595; -265.400; -961.000; -833.000
290.734; -245.700; -904.000; -891.000
290.873; -142.600; -456.000; -420.000
291.011; -209.700; -833.000; -843.000
291.150; -223.900; -770.000; -682.000
291.289;  -46.100; -343.000; -110.000
291.428; -200.800; -599.000; -480.000
291.567; -109.900; -370.000; -442.000
291.706;  -13.200;  109.000;  154.000
291.845; -180.800; -597.000; -505.000
291.984; -340.500;-1234.000;-1061.000
292.122;  189.700;  602.000;  582.000
292.261;   96.900;  620.000;  463.000
292.400;   14.400; -144.000;  211.000
292.539; -278.700; -959.000; -813.000
292.678;  -62.900; -325.000; -300.000
292.816; -332.200;-1136.000; -965.000
292.955; -223.700; -844.000; -684.000
293.094;  -51.400; -173.000; -337.000
293.233;  -58.300; -556.000; -400.000
293.371;  -89.300; -225.000;  -84.000
293.510; -217.900; -866.000; -780.000
293.649; -300.300; -959.000; -924.000
293.787; -299.200;-1083.000;-1012.000
293.926;  -70.000; -113.000;  -32.000
294.065;  -98.700; -379.000; -290.000
294.203;   81.100;  298.000;  406.000
294.342;   30.300;   74.000;  156.000
294.481;15003.400;51180.000; -836.000
294.619;  -50.600; -425.000; -582.000
294.758; -351.200;-1230.000;-1137.000
294.896;  -26.200; -125.000;    5.000
295.035; -305.300;-1040.000;-1006.000
295.174; -284.700;-1082.000; -954.000
295.312;  -94.400; -323.000; -203.000
295.451;  -93.100; -307.000; -428.000
295.589; -165.100; -389.000; -518.000
295.728;   37.600; -292.000; -165.000
295.866;  -43.100;  -36.000;  -51.000
296.005; -148.400; -584.000; -341.000
296.143; -174.000; -558.000; -596.000
296.282; -240.100; -957.000; -881.000
296.420; -190.700; -657.000; -557.000
296.559; -217.500; -892.000; -633.000
296.697; -247.100; -847.000; -665.000
296.835; -319.500;-1141.000;-1002.000
296.974;   48.800;  -23.000;   39.000
297.112; -100.200; -443.000; -504.000
297.251; -222.400; -815.000; -755.000
297.389; -152.300; -576.000; -438.000
297.527;  -60.800; -145.000;  -83.000
297.666; -149.500; -486.000; -438.000
297.804; -117.200; -404.000; -264.000
297.942;   21.400; -136.000; -161.000
298.081;  -55.600; -183.000;   63.000
298.219;   22.500;  -17.000;  -19.000
298.357;  -66.700; -144.000;  -71.000
298.495; -257.600; -810.000; -812.000
298.634;   27.500;  245.000;  219.000
298.772;  -77.600; -220.000; -338.000
298.910; -105.700; -309.000; -182.000
299.048;  -33.700; -130.000; -153.000
299.187;  -85.100; -350.000; -250.000
299.325;   25.600;   52.000;  122.000
299.463; -124.600; -389.000; -299.000
299.601;  -80.900; -327.000; -271.000
299.739; -283.300; -908.000; -883.000
299.877; -182.200; -791.000; -703.000
300.016; -329.000;-1095.000; -935.000
300.154;   -7.100;  -19.000; -161.000
300.292; -145.000; -428.000; -348.000
300.430;  -81.900; -408.000; -291.000
300.568; -272.700; -940.000; -874.000
300.706; -120.700; -366.000; -469.000
300.844; -320.600;-1108.000; -979.000
300.982;  102.400;  246.000;  282.000
301.120; -294.600; -965.000; -866.000
301.258; -170.300; -812.000; -705.000
301.396;   13.600;  104.000;  -41.000
301.534;  -53.600; -218.000; -293.000
301.672; -184.100; -664.000; -521.000
301.810; -189.500; -613.000; -545.000
301.948;   16.200;   53.000;  149.000
302.086;  -25.200; -250.000;  -32.000
302.224; -189.000; -610.000; -585.000
302.362; -220.500; -558.000; -622.000
302.500; -258.600; -923.000; -893.000
302.638;    9.200;  128.000;  245.000
302.776;  -89.800; -352.000; -408.000
302.913;  133.200;  447.000;  236.000
303.051;  -78.200;  -86.000;  -23.000
303.189;   67.000;   90.000;  118.000
303.327;  -97.900; -341.000; -256.000
303.465; -196.300; -832.000; -588.000
303.603; -219.900; -805.000; -604.000
303.740;   81.300;  417.000;  241.000
303.878; -226.800; -800.000; -759.000
304.016; -239.700; -915.000; -790.000
304.154; -357.200;-1123.000;-1152.000
304.291; -141.300; -505.000; -554.000
304.429;   -5.700;  102.000;   74.000
304.567; -277.600; -908.000; -893.000
304.705; -156.300; -408.000; -515.000
304.842; -208.100; -616.000; -540.000
304.980;   29.500;  215.000;   35.000
305.118;  -67.100; -367.000; -365.000
305.255; -279.600; -945.000; -927.000
305.393;   70.900;  178.000;  239.000
305.531; -297.500;-1173.000; -956.000
305.668; -175.400; -663.000; -582.000
305.806; -133.000; -358.000; -439.000
305.943; -155.400; -629.000; -637.000
306.081; -108.900; -378.000; -267.000
306.219; -225.000; -863.000; -748.000
306.356;    6.800;  158.000;   27.000
306.494;  187.900;  981.000;  761.000
306.631;  -23.600;  -11.000;  -55.000
306.769;  -93.600; -613.000; -485.000
306.906; -119.600; -284.000; -258.000
307.044; -154.600; -473.000; -488.000
307.181; -137.000; -410.000; -332.000
307.319;   90.500;  112.000;   87.000
307.456; -378.100;-1191.000;-1153.000
307.594; -279.400; -980.000; -727.000
307.731;  -76.700; -371.000; -164.000
307.868;   27.800;  -15.000;   20.000
308.006; -313.000; -961.000; -847.000
308.143; -166.800; -618.000; -330.000
308.281;  -60.800;  -37.000; -254.000
308.418; -184.000; -748.000; -640.000
308.555; -172.500; -400.000; -250.000
308.693; -150.800; -577.000; -573.000
308.830; -225.400; -712.000; -657.000
308.967;  -35.700; -215.000;  -95.000
309.105; -152.200; -507.000; -396.000
309.242; -126.800; -468.000; -367.000
309.379; -183.900; -577.000; -655.000
309.517; -282.000; -936.000; -948.000
309.654; -286.100; -910.000; -734.000
309.791; -157.000; -662.000; -580.000
309.928; -279.600; -977.000; -914.000
310.065;  224.000;  819.000;  697.000
310.203; -294.100; -825.000; -850.000
310.340; -156.500; -465.000; -321.000
310.477; -169.200; -412.000; -516.000
310.614; -129.200; -383.000; -473.000
310.751; -150.100; -427.000; -518.000
310.889;  -40.900;    1.000;   11.000
311.026; -356.700;-1161.000; -939.000
311.163; -117.900; -386.000; -380.000
311.300; -178.500; -512.000; -479.000
311.437; -158.800; -658.000; -619.000
311.574; -352.000;-1226.000; -985.000
311.711; -138.800; -595.000; -433.000
311.848;  -83.500; -380.000; -388.000
311.985;   70.600;  270.000;   93.000
312.122; -296.300; -932.000; -762.000
312.259; -255.200; -941.000; -994.000
312.396; -198.500; -508.000; -551.000
312.533; -207.800; -812.000; -790.000
312.670; -344.000;-1070.000; -898.000
312.807;  -77.900; -352.000; -367.000
312.944; -198.300; -513.000; -611.000
313.081; -108.100; -150.000; -415.000
313.218; -293.000;-1111.000; -867.000
313.355; -124.300; -531.000; -449.000
313.492; -136.900; -455.000; -292.000
313.629;  195.100;  815.000;  735.000
313.766; -383.700;-1176.000;-1008.000
313.902;  -22.900; -186.000;   21.000
314.039; -118.800; -372.000; -289.000
314.176;   42.200;  286.000;  192.000
314.313; -181.700; -569.000; -473.000
314.450; -205.700; -788.000; -684.000
314.587; -177.000; -468.000; -480.000
314.723;   -3.700;  -78.000;  130.000
314.860;   31.400;  318.000;  332.000
314.997;   41.400;  223.000;  142.000
315.134; -117.000; -385.000; -368.000
315.270; -146.300; -480.000; -496.000
315.407; -337.800;-1094.000; -967.000
315.544; -165.300; -657.000; -538.000
315.681; -210.300; -681.000; -565.000
315.817;  -44.000; -133.000; -176.000
315.954; -165.200; -613.000; -392.000
316.091; -312.300;-1045.000;-1023.000
316.227;  -64.800;  -71.000; -179.000
316.364;    2.600;   23.000;    6.000
316.500; -100.500; -113.000; -300.000
316.637;  -73.100; -181.000; -302.000
316.774; -168.300; -625.000; -358.000
316.910; -181.600; -598.000; -629.000
317.047; -174.400; -487.000; -351.000
317.183; -167.500; -435.000; -566.000
317.320; -159.700; -367.000; -321.000
317.456; -213.300; -733.000; -805.000
317.593; -204.100; -598.000; -641.000
317.729;   27.400;  168.000;  -67.000
317.866; -401.800;-1434.000;-1285.000
318.002; -198.200; -708.000; -948.000
318.139; -250.600; -883.000; -867.000
318.275; -230.100;-1003.000; -738.000
318.412; -161.100; -517.000; -336.000
318.548; -201.300; -751.000; -720.000
318.685; -294.100; -985.000; -888.000
318.821; -221.200; -762.000; -735.000
318.957;  -53.200;   34.000;  -23.000
319.094;   76.600;  297.000;  154.000
319.230; -280.300; -756.000; -742.000
319.367; -109.000; -471.000; -520.000
319.503; -153.900; -538.000; -436.000
319.639; -237.900; -877.000; -793.000
319.775; -238.200; -750.000; -685.000
319.912; -109.300; -424.000; -519.000
320.048; -348.600;-1184.000;-1184.000
320.184;    2.400;   59.000;   70.000
320.321; -136.400; -497.000; -467.000
320.457;  114.300;  475.000;  662.000
320.593; -135.100; -375.000; -382.000
320.729; -208.900; -732.000; -734.000
320.866; -199.800; -577.000; -635.000
321.002; -227.500; -759.000; -809.000
321.138; -110.900; -135.000; -211.000
321.274;  -26.300; -148.000; -115.000
321.410; -178.400; -585.000; -353.000
321.546; -299.700;-1011.000; -911.000
321.683;   62.700;  400.000;  185.000
321.819;  -12.100;  -48.000; -117.000
321.955; -251.600; -743.000; -722.000
322.091; -129.500; -585.000; -540.000
322.227;  -60.800; -382.000; -202.000
322.363; -100.400; -320.000; -215.000
322.499; -107.400; -343.000; -331.000
322.635;  157.800;  636.000;  443.000
322.771;  -82.900; -139.000;   12.000
322.907;   92.600;  129.000;  327.000
323.043;  -82.600; -115.000; -206.000
323.179; -149.400; -394.000; -363.000
323.315; -142.600; -401.000; -371.000
323.451;  -87.300; -328.000; -236.000
323.587;  -57.200;  -60.000;  -77.000
323.723; -191.900; -682.000; -601.000
323.859; -100.000; -258.000;  -76.000
323.995; -100.600; -467.000; -409.000
324.131; -293.700; -967.000; -892.000
324.267;  -54.500; -254.000; -276.000
324.402; -296.000; -960.000; -983.000
324.538;  -55.600; -279.000; -104.000
324.674;   -7.900;  164.000;   77.000
324.810;   54.300;  226.000;  308.000
324.946; -137.400; -810.000; -658.000
325.082; -164.400; -568.000; -475.000
325.217;  -12.000;  -62.000;   16.000
325.353; -212.600; -764.000; -659.000
325.489; -177.400; -540.000; -506.000
325.625; -158.600; -579.000; -525.000
325.760;   65.400;  517.000;  376.000
325.896; -145.800; -515.000; -702.000
326.032; -112.100; -403.000; -352.000
326.168; -123.900; -462.000; -369.000
326.303; -138.500; -352.000; -461.000
326.439;  -54.700; -336.000; -276.000
326.575;  -24.900; -190.000;  -29.000
326.710;  -20.300; -156.000;  -30.000
326.846;  -26.600;  146.000;  103.000
326.982; -162.200; -530.000; -548.000
327.117; -145.100; -481.000; -442.000
327.253; -190.500; -745.000; -742.000
327.388; -318.300;-1137.000;-1153.000
327.524; -210.900; -811.000; -578.000
327.659;  -37.500;  -58.000;  -22.000
327.795;   -1.700;   69.000;   45.000
327.931; -202.300; -723.000; -499.000
328.066;  -93.900; -417.000; -276.000
328.202;  -31.400;   12.000; -129.000
328.337;  228.800;  957.000;  713.000
328.473;  -32.100;  -12.000;  -74.000
328.608;  -40.400; -256.000; -267.000
328.743; -226.500; -799.000; -664.000
328.879;   32.200;  214.000;  114.000
329.014; -133.200; -102.000; -122.000
329.150; -161.100; -358.000; -483.000
329.285; -189.200; -465.000; -466.000
329.421; -102.400; -548.000; -246.000
329.556;  -40.500;  -36.000;   85.000
329.691; -197.000; -633.000; -615.000
329.827; -161.400; -626.000; -480.000
329.962;  -72.900;  131.000; -301.000
330.097; -201.300; -673.000; -585.000
330.233;  -72.700; -410.000; -223.000
330.368; -244.800; -839.000; -628.000
330.503;  -24.000;    3.000;   98.000
330.638;  -40.300;  -93.000; -125.000
330.774; -157.600; -609.000; -530.000
330.909; -128.100; -434.000; -244.000
331.044; -196.200; -714.000; -708.000
331.179; -353.200;-1217.000;-1109.000
331.315;   29.300;   77.000;   20.000
331.450;   18.500;  157.000;  285.000
331.585; -221.800; -805.000; -706.000
331.720; -180.000; -510.000; -460.000
331.855;   -7.900;  -35.000; -102.000
331.990;  -24.900;   62.000;  138.000
332.126;   -5.000; -110.000;   71.000
332.261; -139.900; -379.000; -265.000
332.396;  -71.200; -135.000; -242.000
332.531; -339.500;-1074.000;-1031.000
332.666; -156.200; -519.000; -363.000
332.801; -240.300; -726.000; -807.000
332.936;    1.400; -192.000; -122.000
333.071; -317.200; -870.000; -817.000
333.206;   27.300;  307.000;  379.000
333.341;   76.200;  344.000;  418.000
333.476; -167.700; -627.000; -623.000
333.611;  -82.500; -251.000; -173.000
333.746; -101.600; -381.000; -464.000
333.881; -263.200; -973.000; -935.000
334.016; -289.700; -936.000; -917.000
334.151; -242.500; -746.000; -702.000
334.286;    5.000;  152.000;  186.000
334.421;  -48.000; -125.000; -178.000
334.556; -188.000; -611.000; -567.000
334.690; -215.400; -631.000; -577.000
334.825;  139.600;  381.000;   83.000
334.960; -156.000; -285.000; -413.000
335.095;  -14.400;  135.000;  -91.000
335.230; -210.500; -722.000; -738.000
335.365; -340.700;-1084.000; -990.000
335.499; -351.400;-1108.000;-1037.000
335.634;   23.500;    9.000;  534.000
335.769; -248.800; -755.000; -720.000
335.904; -207.900; -603.000; -561.000
336.038; -256.900; -735.000; -657.000
336.173; -359.000;-1206.000;-1194.000
336.308; -104.500; -116.000; -189.000
336.443; -133.500; -544.000; -634.000
336.577; -274.300; -936.000; -787.000
336.712;   33.600;   -4.000;  -12.000
336.847; -236.400; -724.000; -607.000
336.981;  -90.800; -272.000; -208.000
337.116;  116.400;  615.000;  501.000
337.250; -139.600; -434.000; -421.000
337.385;  -90.800; -297.000; -208.000
337.520; -221.900; -632.000; -603.000
337.654; -110.900; -215.000; -126.000
337.789; -251.600; -989.000; -933.000
337.923;  -94.900; -104.000; -205.000
338.058; -211.400; -673.000; -738.000
338.192; -198.600; -611.000; -488.000
338.327;  -60.300;  -18.000; -155.000
338.461; -204.900; -299.000; -469.000
338.596; -194.600; -780.000; -638.000
338.730; -224.000; -767.000; -803.000
338.865;  -26.700;  -46.000; -140.000
338.999; -275.500; -846.000; -702.000
339.134; -182.600; -634.000; -536.000
339.268; -214.700; -741.000; -603.000
339.403; -244.800; -740.000; -775.000
339.537; -247.200; -894.000; -820.000
339.671; -263.500; -829.000; -813.000
339.806; -197.400; -556.000; -512.000
339.940;  -55.700; -261.000; -235.000
340.074; -217.900; -685.000; -510.000
340.209;  -68.000; -351.000; -230.000
340.343; -193.900; -517.000; -573.000
340.477;  314.100;  998.000; 1036.000
340.612; -313.600;-1033.000; -900.000
340.746;  -90.000; -199.000; -243.000
340.880; -306.900; -924.000; -785.000
341.014;   -4.700;  -45.000; -154.000
341.149; -256.900; -756.000; -718.000
341.283; -226.400; -839.000; -754.000
341.417; -296.800;-1124.000; -938.000
341.551; -225.800; -768.000; -708.000
341.685; -211.400; -633.000; -611.000
341.820; -188.400; -562.000; -493.000
341.954; -134.200; -218.000; -349.000
342.088; -295.800;-1102.000;-1019.000
342.222;   77.900;  565.000;  618.000
342.356; -178.300; -395.000; -335.000
342.490; -240.100; -880.000; -841.000
342.624; -106.400; -339.000; -242.000
342.758; -123.300; -364.000; -312.000
342.892; -212.900; -710.000; -585.000
343.026;  -66.900;  -58.000; -116.000
343.160; -107.200; -426.000; -376.000
343.294; -168.100; -474.000; -337.000
343.428; -195.600; -488.000; -448.000
343.562;  -49.900; -172.000;  -23.000
343.696; -122.900; -385.000; -314.000
343.830; -134.900; -362.000; -356.000
343.964;  -83.500; -231.000; -168.000
344.098;  -23.800;  199.000;   70.000
344.232;  -96.700; -266.000; -127.000
344.366; -206.400; -567.000; -453.000
344.500; -201.500; -665.000; -744.000
344.634; -113.900; -324.000; -164.000
344.768; -159.000; -531.000; -341.000
344.902;   36.700;  278.000;  256.000
345.035; -166.200; -556.000; -496.000
345.169; -293.600; -933.000; -656.000
345.303; -132.500; -308.000; -482.000
345.437; -232.400; -826.000; -717.000
345.571; -200.700; -675.000; -594.000
345.704; -150.500; -309.000; -532.000
345.838;  -84.600; -331.000; -284.000
345.972; -186.400; -543.000; -495.000
346.106;   -6.100; -179.000; -190.000
346.239;  -80.700; -312.000; -243.000
346.373; -128.900; -343.000; -302.000
346.507; -317.600; -950.000; -962.000
346.640;   -8.200;  -30.000;   13.000
346.774; -202.800; -650.000; -797.000
346.908;  -56.400; -138.000;  -11.000
347.041; -221.400; -646.000; -593.000
347.175;   33.800;  259.000;   27.000
347.309; -232.400; -698.000; -628.000
347.442; -267.700; -883.000; -732.000
347.576;  156.300;  670.000;  668.000
347.709;  -39.600; -123.000;  -52.000
347.843; -303.700; -933.000; -825.000
347.976;   61.900;  235.000;  294.000
348.110; -393.700;-1268.000;-1186.000
348.243; -208.600; -679.000; -772.000
348.377;   19.500;  -26.000;   60.000
348.510;   82.300;  403.000;  540.000
348.644;  -76.700;  -37.000; -159.000
348.777;   26.200;  180.000;  191.000
348.911;  -77.600; -142.000; -112.000
349.044;   85.400;  471.000;  448.000
349.178; -330.400;-1069.000;-1006.000
349.311;   41.300;  141.000;  255.000
349.444; -259.000; -927.000; -813.000
349.578;  -78.700; -347.000; -200.000
349.711; -309.800; -959.000; -862.000
349.845; -197.800; -661.000; -591.000
349.978; -379.500;-1224.000;-1137.000
350.111; -172.600; -546.000; -612.000
350.244; -240.100; -596.000; -700.000
350.378; -129.100; -392.000; -393.000
350.511; -151.800; -393.000; -426.000
350.644; -240.400; -808.000; -806.000
350.778;  -31.900;  168.000;  104.000
350.911;   -1.000;  134.000;  140.000
351.044; -246.800; -685.000; -615.000
351.177;  -85.500; -321.000; -281.000
351.310;  -62.700;    3.000; -131.000
351.444; -270.400; -888.000; -788.000
351.577;  -27.400;  140.000;   90.000
351.710;  153.700;  593.000;  417.000
351.843;  -55.000; -165.000;  -77.000
351.976;   30.300;  149.000;  -79.000
352.109; -189.700; -621.000; -612.000
352.242; -135.900; -464.000; -419.000
352.376; -241.700; -580.000; -636.000
352.509; -102.700; -437.000; -356.000
352.642; -307.200; -654.000; -604.000
352.775;  -47.600; -141.000;  -98.000
352.908; -302.100; -933.000; -904.000
353.041; -244.400; -814.000; -824.000
353.174; -160.600; -551.000; -424.000
353.307; -216.600; -753.000; -764.000
353.440;   88.100;  541.000;  453.000
353.573; -306.300; -957.000;-1008.000
353.706; -175.100; -384.000; -558.000
353.839;  -95.000; -264.000; -220.000
353.971; -232.500; -657.000; -512.000
354.104; -275.200; -896.000; -835.000
354.237; -217.800; -627.000; -662.000
354.370; -242.000; -846.000; -879.000
354.503; -411.800;-1231.000;-1308.000
354.636; -112.200; -529.000; -348.000
354.769; -300.300; -937.000; -860.000
354.902;  -76.500; -230.000; -139.000
355.034;  -77.100; -164.000; -220.000
355.167;  -91.500; -262.000; -162.000
355.300; -307.300;-1061.000; -880.000
355.433;   -6.600;  -71.000;  -14.000
355.565; -171.400; -402.000; -384.000
355.698; -102.500; -356.000; -296.000
355.831; -273.700; -882.000; -801.000
355.964;  -63.800; -285.000; -170.000
356.096; -282.500; -856.000; -843.000
356.229; -164.300; -523.000; -530.000
356.362; -128.600; -373.000; -266.000
356.494;  -85.900; -229.000; -162.000
356.627;   61.600;  269.000;  377.000
356.760;   -6.700;  120.000;   53.000
356.892; -186.300; -286.000; -601.000
357.025;   97.700;  403.000;  389.000
357.157;  -56.700; -167.000; -179.000
357.290; -284.500; -856.000; -713.000
357.423; -213.100; -667.000; -556.000
357.555;  -44.000; -217.000; -228.000
357.688; -160.800; -483.000; -364.000
357.820; -249.500; -870.000; -877.000
357.953; -172.200; -563.000; -589.000
358.085; -212.600; -632.000; -612.000
358.218; -310.500;-1131.000; -932.000
358.350;   -1.100;  -58.000;  312.000
358.483; -388.200;-1300.000;-1187.000
358.615; -303.600;-1182.000;-1078.000
358.747; -368.400;-1187.000;-1058.000
358.880; -214.600; -810.000; -744.000
359.012; -135.700; -376.000; -202.000
359.145; -145.000; -480.000; -511.000
359.277; -304.300; -962.000; -913.000
359.409;  106.600;  536.000;  231.000
359.542; -230.400; -738.000; -688.000
359.674;  -17.300;   46.000;   13.000
359.806; -160.700; -565.000; -438.000
359.939; -136.900; -617.000; -516.000
360.071; -224.300; -583.000; -579.000
360.203; -108.400; -411.000; -364.000
360.335;  -30.900;  164.000;  -16.000
360.468;  -66.900; -249.000; -307.000
360.600; -213.000; -547.000; -454.000
360.732; -180.400; -546.000; -423.000
360.864; -356.700;-1216.000;-1044.000
360.996; -106.600; -516.000; -554.000
361.129; -181.700; -389.000; -598.000
361.261;  -23.100;  110.000; -113.000
361.393;  -93.300; -252.000; -214.000
361.525;  -17.100;   94.000;  244.000
361.657; -267.800; -821.000; -703.000
361.789;  -29.600; -139.000; -155.000
361.921; -200.800; -642.000; -593.000
362.053;   96.600;  524.000;  541.000
362.185;  -18.800;  288.000;   72.000
362.318; -225.900; -709.000; -705.000
362.450;   77.700;  294.000;  444.000
362.582; -292.800; -913.000; -870.000
362.714; -118.600; -353.000; -332.000
362.846; -164.100; -606.000; -490.000
362.978; -277.300; -941.000; -811.000
363.109; -121.300; -161.000; -260.000
363.241; -253.500; -739.000; -749.000
363.373; -164.400; -649.000; -564.000
363.505;  -77.100; -186.000;  -91.000
363.637; -188.300; -787.000; -601.000
363.769; -363.100;-1067.000;-1080.000
363.901; -180.000; -596.000; -654.000
364.033; -337.200;-1103.000;-1062.000
364.165;  -67.000; -283.000; -283.000
364.296; -121.400; -316.000; -177.000
364.428; -383.200;-1344.000;-1220.000
364.560; -223.200; -679.000; -661.000
364.692; -175.900; -738.000; -835.000
364.824; -190.800; -588.000; -456.000
364.955; -130.600; -402.000; -564.000
365.087; -300.300;-1097.000; -852.000
365.219; -245.700; -686.000; -816.000
365.351; -224.600; -526.000; -572.000
365.482;   42.600;  300.000;  240.000
365.614; -111.600; -402.000; -314.000
365.746; -220.000; -729.000; -752.000
365.877; -226.800; -706.000; -672.000
366.009;  -22.100;  -35.000;  -62.000
366.141; -369.700;-1249.000;-1134.000
366.272; -233.100; -803.000; -719.000
366.404; -279.700;-1005.000; -874.000
366.535;  -55.200; -139.000;  -12.000
366.667; -227.200; -644.000; -649.000
366.799;  121.700;  353.000;  203.000
366.930; -326.200; -862.000; -996.000
367.062; -173.500; -639.000; -613.000
367.193; -266.300; -872.000; -842.000
367.325; -166.800; -580.000; -684.000
367.456; -112.700; -246.000;   31.000
367.588; -114.900; -371.000; -318.000
367.719;  -80.700;  -44.000;  -45.000
367.851;  -57.800; -222.000; -241.000
367.982; -309.300; -875.000; -732.000
368.113; -140.500; -475.000; -358.000
368.245; -322.700; -960.000; -841.000
368.376; -106.700; -254.000; -302.000
368.508;  -96.600; -188.000; -263.000
368.639; -320.400;-1166.000;-1034.000
368.770; -228.500; -670.000; -589.000
368.902; -272.100; -836.000; -926.000
369.033; -293.000; -906.000; -855.000
369.164; -199.500; -720.000; -653.000
369.296; -237.500; -452.000; -601.000
369.427;  -72.300; -209.000; -144.000
369.558; -169.800; -593.000; -377.000
369.689; -191.600; -721.000; -569.000
369.821; -288.500; -951.000; -845.000
369.952;  -16.300;   42.000; -108.000
370.083; -104.500; -229.000; -108.000
370.214; -206.400; -735.000; -650.000
370.345;  -47.900;   65.000;   81.000
370.477; -263.400; -810.000; -790.000
370.608;  -96.800; -328.000; -264.000
370.739; -366.700;-1233.000;-1292.000
370.870; -311.100;-1102.000; -923.000
371.001; -127.000; -378.000; -467.000
371.132; -224.800; -754.000; -735.000
371.263;  -27.800;  -42.000; -148.000
371.394; -277.000; -841.000; -748.000
371.525;   51.100;  345.000;  225.000
371.657; -289.100; -808.000; -670.000
371.788;   14.100;  103.000;  199.000
371.919;  -95.500; -384.000; -304.000
372.050;  -10.200;  -91.000; -156.000
372.181;  -55.300; -188.000; -294.000
372.311;  -31.900;   42.000; -127.000
372.442; -167.400; -457.000; -451.000
372.573;  -63.500; -444.000; -340.000
372.704; -289.700;-1008.000; -980.000
372.835; -126.300; -228.000; -289.000
372.966; -211.400; -646.000; -554.000
373.097; -255.100; -575.000; -711.000
373.228; -219.700; -717.000; -542.000
373.359; -224.100; -824.000; -536.000
373.490; -277.700; -881.000; -727.000
373.620; -280.000;-1001.000; -803.000
373.751; -190.600; -332.000; -396.000
373.882; -184.200; -663.000; -733.000
374.013; -111.400; -449.000; -262.000
374.143; -179.100; -581.000; -659.000
374.274; -323.500; -987.000; -908.000
374.405;  -85.500; -388.000; -276.000
374.536; -184.000; -526.000; -387.000
374.666; -231.500; -759.000; -807.000
374.797; -262.100; -817.000; -868.000
374.928; -188.900; -710.000; -560.000
375.058; -169.100; -535.000; -500.000
375.189;  -57.800;  -59.000;  -93.000
375.320; -317.100; -928.000;-1034.000
375.450; -170.600; -625.000; -616.000
375.581; -158.700; -526.000; -436.000
375.712;  -91.300; -574.000; -250.000
375.842; -164.600; -438.000; -415.000
375.973; -172.000; -554.000; -513.000
376.103; -237.100; -665.000; -648.000
376.234; -201.100; -531.000; -552.000
376.364; -304.900; -944.000; -867.000
376.495;  165.900;  925.000;  529.000
376.625; -203.600; -472.000; -485.000
376.756; -207.500; -709.000; -678.000
376.886; -387.900;-1178.000;-1026.000
377.017; -295.500;-1048.000;-1061.000
377.147; -276.800; -786.000; -782.000
377.278;   60.300;  174.000;  228.000
377.408; -248.200; -801.000; -815.000
377.538; -250.400; -707.000; -693.000
377.669; -200.700; -537.000; -613.000
377.799; -213.700; -645.000; -635.000
377.929; -185.500; -610.000; -428.000
378.060; -278.500; -781.000; -847.000
378.190; -247.300; -726.000; -531.000
378.320; -161.700; -401.000; -406.000
378.451;  -50.400; -131.000;  -22.000
378.581;  -23.600;  -67.000; -110.000
378.711;  196.100; 1035.000;  866.000
378.841; -160.300; -533.000; -675.000
378.972; -293.100; -871.000; -751.000
379.102; -189.500; -652.000; -579.000
379.232; -118.600; -126.000;  -73.000
379.362; -297.000;-1001.000; -885.000
379.492; -193.600; -373.000; -424.000
379.623;  -17.000;    0.000;  111.000
379.753; -331.500;-1107.000; -974.000
379.883;   23.900;   59.000;  156.000
380.013; -347.600;-1081.000;-1017.000
380.143; -317.200;-1097.000;-1056.000
380.273; -315.200; -985.000; -861.000
380.403;  -90.200; -344.000; -257.000
380.533; -261.300; -651.000; -664.000
380.663;   50.300;  173.000;  128.000
380.793; -352.200;-1027.000;-1074.000
380.923;  -65.600; -103.000;  -34.000
381.053; -235.700; -613.000; -623.000
381.183;  -99.600; -106.000; -248.000
381.313; -229.000; -656.000; -470.000
381.443; -173.100; -692.000; -473.000
381.573; -157.100; -402.000; -409.000
381.703; -364.100;-1249.000;-1095.000
381.833; -429.600;-1454.000;-1336.000
381.963;  -36.000; -134.000;  -87.000
382.093; -303.800; -925.000; -909.000
382.223; -206.300; -713.000; -602.000
382.353; -254.200; -801.000; -608.000
382.482; -316.200;-1091.000; -964.000
382.612; -238.200; -872.000; -644.000
382.742; -172.100; -695.000; -622.000
382.872; -162.300; -565.000; -551.000
383.002;   24.300;  347.000; -132.000
383.131; -117.200; -226.000; -160.000
383.261; -215.600; -706.000; -768.000
383.391; -187.200; -552.000; -377.000
383.521;   99.700;  451.000;  263.000
383.650; -295.100; -947.000; -904.000
383.780; -223.100; -783.000; -656.000
383.910;  178.100;  880.000;  802.000
384.039; -247.400; -794.000; -656.000
384.169; -362.500;-1205.000;-1017.000
384.299; -193.400; -650.000; -662.000
384.428; -234.400; -764.000; -680.000
384.558; -129.500; -308.000; -275.000
384.687; -179.000; -414.000; -334.000
384.817;  -23.100;   75.000;   -2.000
384.947;  -74.200; -234.000; -141.000
385.076;  234.100;  982.000;  912.000
385.206;   70.900;  369.000;  480.000
385.335; -141.600; -549.000; -417.000
385.465; -263.000; -655.000; -663.000
385.594;  -31.300;  -53.000;  -44.000
385.724; -276.600; -868.000; -838.000
385.853; -110.100; -296.000; -270.000
385.982; -270.600; -743.000; -787.000
386.112; -302.700;-1052.000; -871.000
386.241; -155.600; -307.000; -312.000
386.371;  -62.700; -174.000;  -87.000
386.500; -305.200; -825.000; -789.000
386.629; -240.100; -874.000; -817.000
386.759;  -27.700;  -43.000;   68.000
386.888;  -45.500; -170.000; -250.000
387.017; -221.700; -648.000; -620.000
387.147; -262.300; -771.000; -798.000
387.276; -200.900; -410.000; -397.000
387.405; -106.800; -398.000; -342.000
387.535; -153.900; -452.000; -361.000
387.664; -200.100; -692.000; -620.000
387.793;  -94.000; -198.000; -113.000
387.922;   16.500;  255.000;  200.000
388.052; -207.700; -576.000; -423.000
388.181; -158.800; -342.000; -472.000
388.310; -255.200; -889.000; -710.000
388.439; -260.800; -749.000; -742.000
388.568;  -25.300;  365.000;  244.000
388.697; -207.900; -756.000; -653.000
388.826; -251.800; -768.000; -666.000
388.956;  -87.300; -285.000; -307.000
389.085; -114.600; -347.000; -287.000
389.214; -262.100; -842.000; -872.000
389.343; -183.000; -645.000; -413.000
389.472;   31.700;  126.000;  149.000
389.601;   -0.300;   91.000;    0.000
389.730; -186.100; -568.000; -687.000
389.859;   47.300;  226.000;   46.000
389.988; -128.600; -423.000; -408.000
390.117; -111.100; -168.000; -146.000
390.246; -112.300; -331.000; -320.000
390.375; -212.100; -673.000; -626.000
390.504; -227.200; -703.000; -621.000
390.633; -262.700; -672.000; -726.000
390.761; -234.000; -732.000; -645.000
390.890;  -66.300;   -4.000; -130.000
391.019; -150.600; -421.000; -441.000
391.148; -284.400; -826.000; -855.000
391.277; -169.700; -576.000; -493.000
391.406; -275.200; -821.000; -805.000
391.534;   20.900;  574.000; -301.000
391.663; -181.100; -583.000; -645.000
391.792; -219.600; -673.000; -701.000
391.921;  -51.800;   -3.000;   15.000
392.050; -134.900; -287.000; -228.000
392.178; -369.600;-1206.000;-1061.000
392.307; -256.900; -758.000; -712.000
392.436; -231.300; -427.000; -641.000
392.564;   16.900;  166.000;   -6.000
392.693; -264.300; -860.000; -682.000
392.822; -197.700; -529.000; -534.000
392.950; -255.100; -880.000; -714.000
393.079; -108.600; -188.000; -328.000
393.208; -161.800; -488.000; -511.000
393.336;  -59.300; -170.000; -145.000
393.465; -121.500; -317.000; -199.000
393.593;    7.500;   62.000;   79.000
393.722; -335.600;-1121.000; -916.000
393.850;  -61.100; -188.000;  -61.000
393.979; -324.500; -926.000; -805.000
394.107; -137.200; -517.000; -537.000
394.236; -202.100; -570.000; -507.000
394.364;   65.900;  383.000;  206.000
394.493; -275.900; -911.000; -767.000
394.621; -272.800; -955.000; -916.000
394.750; -304.400; -873.000; -923.000
394.878;  -78.200; -247.000; -149.000
395.007; -272.100; -721.000; -807.000
395.135; -229.300; -790.000; -721.000
395.263; -372.500;-1038.000;-1040.000
395.392;  -13.700;  -25.000; -107.000
395.520; -268.300; -818.000; -679.000
395.648; -287.400; -865.000; -915.000
395.777; -162.700; -366.000; -405.000
395.905; -168.500; -449.000; -564.000
396.033;  -20.800;  217.000;  172.000
396.162; -161.400; -399.000; -453.000
396.290;  -21.800;  -17.000;   -2.000
396.418; -194.900; -555.000; -514.000
396.546; -280.200; -571.000; -466.000
396.674; -280.800; -850.000; -878.000
396.803;  -32.900;  -72.000;  -23.000
396.931;  -80.200; -179.000; -199.000
397.059; -368.300;-1026.000; -989.000
397.187; -274.800;-1026.000; -975.000
397.315; -276.800; -884.000; -649.000
397.443; -184.900; -592.000; -443.000
397.572; -192.800; -578.000; -424.000
397.700; -231.500; -607.000; -614.000
397.828;  -72.200;  120.000;  -90.000
397.956; -181.300; -508.000; -478.000
398.084; -257.600; -767.000; -626.000
398.212;   20.800;  137.000;  124.000
398.340;  -33.100;  -56.000;  159.000
398.468; -156.300; -390.000; -169.000
398.596; -310.900; -993.000; -953.000
398.724; -255.800; -762.000; -767.000
398.852; -349.700;-1024.000; -976.000
398.980; -190.700; -560.000; -560.000
399.108; -228.800; -982.000; -735.000
399.236;  -26.300;   13.000;    8.000
399.363;  -13.500;  222.000;  196.000
399.491; -134.200; -404.000; -398.000
399.619; -281.100; -829.000; -800.000
399.747; -262.000; -859.000; -771.000
399.875;   23.400;  220.000;  234.000
400.003; -141.300; -359.000; -284.000
400.130; -189.700; -421.000; -341.000
400.258;  -26.800;  -83.000;   38.000
400.386; -118.300; -352.000; -168.000
400.514; -187.900; -526.000; -587.000
400.641; -299.800; -928.000; -802.000
400.769; -306.300; -979.000; -888.000
400.897; -288.000; -838.000; -793.000
401.025;  -52.800; -166.000; -152.000
401.152;   30.100;  220.000;   38.000
401.280; -130.700; -430.000; -429.000
401.408; -246.000; -712.000; -576.000
401.535; -212.100; -735.000; -758.000
401.663; -381.500;-1134.000;-1054.000
401.790; -155.000; -514.000; -525.000
401.918;  123.300;  436.000;  405.000
402.046;  -27.200;  134.000;  122.000
402.173;  -53.300;  -18.000;    7.000
402.301; -132.800; -519.000; -397.000
402.428;   86.300;  528.000;  383.000
402.556; -323.300;-1188.000; -913.000
402.683;  -72.700;  -20.000;   -1.000
402.811;  -30.600;  -37.000; -206.000
402.938;  -13.400;   20.000;   27.000
403.066; -202.000; -574.000; -558.000
403.193;  -35.500;  299.000;  239.000
403.321; -152.600; -396.000; -574.000
403.448;  -19.500;   83.000;   27.000
403.575;  -32.400;  -90.000;  -46.000
403.703; -275.000; -732.000; -557.000
403.830; -140.800; -531.000; -496.000
403.957; -340.500;-1117.000;-1023.000
404.085;  -79.500;  -61.000; -172.000
404.212;  -20.900;  -50.000;   63.000
404.339; -136.400; -566.000; -306.000
404.467; -180.500; -612.000; -524.000
404.594;  -89.800; -287.000; -227.000
404.721; -280.900; -869.000; -764.000
404.848;  -56.100; -113.000; -202.000
404.976; -291.000; -856.000; -783.000
405.103;  -29.300;  -14.000;  -82.000
405.230;  -17.000;  190.000;  226.000
405.357;   -7.400;  117.000;   44.000
405.484;  -53.800;  -49.000;    5.000
405.612; -188.300; -548.000; -563.000
405.739; -160.800; -488.000; -243.000
405.866;  119.900;  669.000;  385.000
405.993; -108.800; -398.000; -102.000
406.120; -282.000; -801.000; -887.000
406.247; -123.200; -323.000; -342.000
406.374;  140.700;  540.000;  629.000
406.501; -256.900; -632.000; -702.000
406.628; -183.100; -621.000; -589.000
406.755; -233.000; -803.000; -620.000
406.882;  -94.700; -228.000; -277.000
407.009; -213.400; -719.000; -628.000
407.136; -127.700; -480.000; -401.000
407.263; -310.500; -939.000; -829.000
407.390; -221.700; -692.000; -614.000
407.517; -373.000;-1139.000;-1187.000
407.644; -128.000; -332.000; -256.000
407.771; -163.300; -249.000; -287.000
407.898;   29.200;  168.000;  328.000
408.025; -168.000; -421.000; -313.000
408.151;  -10.000;   82.000;  153.000
408.278; -123.400; -267.000; -216.000
408.405; -271.100; -931.000; -899.000
408.532; -212.300; -549.000; -542.000
408.659; -229.100; -677.000; -648.000
408.785; -382.200;-1298.000;-1170.000
408.912;  -99.400; -412.000; -296.000
409.039; -224.000; -610.000; -686.000
409.166; -223.300; -591.000; -555.000
409.292; -227.800; -571.000; -534.000
409.419; -223.900; -665.000; -649.000
409.546; -166.800; -431.000; -192.000
409.672; -209.000; -713.000; -545.000
409.799;  -42.800;  -36.000;   34.000
409.926;  -60.900; -180.000; -179.000
410.052; -396.300;-1127.000;-1091.000
410.179; -153.900; -368.000; -392.000
410.305; -164.600; -375.000; -493.000
410.432;  -80.500; -220.000; -333.000
410.558; -197.300; -305.000; -380.000
410.685; -188.200; -688.000; -431.000
410.812; -190.300; -409.000; -588.000
410.938; -265.900; -964.000; -808.000
411.065; -236.700; -671.000; -645.000
411.191;  -83.100; -189.000; -174.000
411.317; -279.000; -823.000; -742.000
411.444; -115.100; -317.000; -246.000
411.570; -126.600; -339.000; -294.000
411.697; -223.100; -758.000; -752.000
411.823; -360.000; -989.000; -999.000
411.949;  -64.700;  -56.000;   17.000
412.076; -210.500; -539.000; -519.000
412.202; -260.900; -758.000; -757.000
412.329; -261.400; -798.000; -752.000
412.455; -253.400; -821.000; -657.000
412.581;  -31.200;  -15.000;  172.000
412.707; -161.500; -540.000; -457.000
412.834;  -10.600;  156.000;  219.000
412.960; -247.500; -785.000; -784.000
413.086; -259.400; -743.000; -701.000
413.212;  110.800;  604.000;  578.000
413.339; -270.300; -685.000; -701.000
413.465; -151.600; -364.000; -310.000
413.591; -246.700; -757.000; -474.000
413.717; -126.600; -358.000; -366.000
413.843; -316.200; -839.000; -861.000
413.969; -154.600;  -47.000; -292.000
414.096; -234.000; -679.000; -679.000
414.222;  -19.200;  -33.000;   85.000
414.348; -193.800; -652.000; -385.000
414.474;  -30.500;   38.000;  -52.000
414.600;  -82.400; -126.000; -144.000
414.726;  -88.300;  -96.000;  -55.000
414.852; -174.700; -365.000; -342.000
414.978;  -17.700;  104.000;  -18.000
415.104;  -38.800;   38.000;   80.000
415.230; -134.700; -329.000; -330.000
415.356; -207.200; -409.000; -514.000
415.482;  -35.500;   13.000;  -35.000
415.608; -124.300; -247.000; -323.000
415.734;  -20.500;   67.000;   38.000
415.860; -298.600; -875.000; -767.000
415.986; -235.200; -685.000; -607.000
416.111; -292.300; -798.000; -652.000
416.237; -162.800; -424.000; -571.000
416.363; -280.200; -765.000; -733.000
416.489; -136.900; -324.000; -251.000
416.615; -278.100; -707.000; -742.000
416.741; -205.700; -677.000; -784.000
416.866; -222.100; -673.000; -736.000
416.992; -289.600; -801.000; -818.000
417.118; -101.900;  -41.000;  -80.000
417.244; -255.100; -798.000; -531.000
417.369; -256.100; -801.000; -612.000
417.495; -145.900; -325.000; -254.000
417.621; -308.900;-1015.000; -803.000
417.746; -198.300; -579.000; -572.000
417.872;  -91.600; -254.000; -144.000
417.998; -177.800; -515.000; -530.000
418.123; -342.600;-1073.000; -845.000
418.249; -180.700; -512.000; -601.000
418.374; -303.100; -916.000; -824.000
418.500; -192.500; -383.000; -482.000
418.626;  -48.000;   70.000;  -59.000
418.751; -170.100; -549.000; -448.000
418.877; -277.500; -637.000; -643.000
419.002; -158.400; -688.000; -560.000
419.128; -292.500; -930.000; -721.000
419.253; -291.400; -967.000; -837.000
419.379; -198.000; -391.000; -338.000
419.504;   59.100;  325.000;  415.000
419.629; -123.500; -393.000; -212.000
419.755;  -93.500; -317.000; -254.000
419.880; -126.100;  -98.000;   67.000
420.006; -102.400; -280.000; -221.000
420.131; -249.800; -662.000; -775.000
420.256; -109.200; -315.000; -316.000
420.382; -238.500; -665.000; -687.000
420.507; -238.200; -649.000; -778.000
420.632; -194.800; -337.000; -339.000
420.758; -120.300; -251.000; -425.000
420.883; -269.200; -876.000; -672.000
421.008; -245.900; -775.000; -619.000
421.133; -192.800; -509.000; -467.000
421.259; -138.700; -325.000; -259.000
421.384; -276.800; -834.000; -693.000
421.509; -298.800;-1052.000; -862.000
421.634; -327.700; -936.000; -820.000
421.759; -138.000; -359.000; -327.000
421.885; -241.300; -717.000; -656.000
422.010; -176.900; -673.000; -542.000
422.135; -304.700; -695.000; -727.000
422.260;   58.400;  340.000;  280.000
422.385;  -64.400;   12.000;  -98.000
422.510;   13.300;  151.000;  -26.000
422.635;  -74.100;  -87.000;  -43.000
422.760; -243.500; -766.000; -791.000
422.885;  -37.200;  -57.000;  -80.000
423.010;  -94.700; -112.000; -169.000
423.135; -198.600; -481.000; -561.000
423.260;  -69.000; -150.000; -245.000
423.385;   28.500;  476.000;  222.000
423.510;   -9.200;   71.000;  -22.000
423.635;  -65.900;  133.000;   45.000
423.760;   25.300;  383.000;  328.000
423.885;   26.600;  336.000;  391.000
424.010;  -13.900;  -68.000;  -13.000
424.135;  -63.000;    5.000;  -33.000
424.259; -208.200; -654.000; -457.000
424.384; -167.100; -279.000; -272.000
424.509; -103.000; -260.000; -186.000
424.634; -253.000; -761.000; -623.000
424.759; -192.800; -688.000; -544.000
424.883; -171.600; -506.000; -527.000
425.008; -207.100; -502.000; -410.000
425.133; -234.000; -679.000; -653.000
425.258; -202.800; -517.000; -381.000
425.382; -264.400; -867.000; -774.000
425.507; -174.900; -487.000; -543.000
425.632; -302.200; -802.000; -663.000
425.756; -115.600; -256.000; -146.000
425.881; -293.000; -831.000; -857.000
426.006; -159.000; -604.000; -355.000
426.130; -258.900; -696.000; -508.000
426.255; -185.200; -611.000; -491.000
426.379;  -89.800; -189.000; -577.000
426.504;  134.000;  660.000;  544.000
426.629; -225.500; -519.000; -466.000
426.753;  -39.600;   64.000;  -46.000
426.878; -116.600; -252.000; -288.000
427.002; -201.000; -651.000; -668.000
427.127; -107.300;  -35.000; -158.000
427.251;   91.400;  372.000;  401.000
427.375; -141.500; -191.000; -173.000
427.500; -205.900; -616.000; -610.000
427.624; -135.700; -234.000; -400.000
427.749; -121.300; -216.000; -225.000
427.873; -201.300; -499.000; -412.000
427.997; -128.400; -222.000; -230.000
428.122;  107.800;  795.000;  703.000
428.246;   96.500;  433.000;  434.000
428.371; -309.300; -869.000; -773.000
428.495; -204.000; -624.000; -646.000
428.619; -114.000; -186.000; -117.000
428.743;    0.200;   65.000;  132.000
428.868; -269.400; -732.000; -643.000
428.992; -132.800; -219.000; -326.000
429.116; -149.500; -329.000; -357.000
429.240;   62.700;  419.000;  426.000
429.365; -194.400; -454.000; -574.000
429.489; -204.400; -638.000; -647.000
429.613;  -79.900; -236.000; -177.000
429.737; -209.500; -563.000; -432.000
429.861; -124.800; -247.000; -133.000
429.985; -160.600; -425.000; -305.000
430.109; -328.000; -770.000; -908.000
430.234;   13.600;   76.000;  -50.000
430.358; -131.800; -250.000; -160.000
430.482; -243.600; -672.000; -564.000
430.606; -212.500; -655.000; -375.000
430.730; -191.100; -437.000; -388.000
430.854; -317.800; -909.000; -835.000
430.978; -259.600; -795.000; -764.000
431.102; -212.400; -499.000; -422.000
431.226; -302.400; -874.000; -815.000
431.350;   32.200;  345.000;  422.000
431.474; -198.300; -661.000; -373.000
431.597; -358.700;-1060.000; -848.000
431.721; -156.000; -276.000; -267.000
431.845; -250.200; -704.000; -472.000
431.969; -129.700; -304.000; -349.000
432.093; -185.900; -395.000; -317.000
432.217;  -20.300;   32.000;   82.000
432.341; -210.500; -523.000; -518.000
432.464;  -68.900;   96.000;   40.000
432.588; -181.700; -401.000; -329.000
432.712;  -60.500;  -52.000;  -52.000
432.836;    2.400;  213.000;  263.000
432.959; -134.800; -372.000; -311.000
433.083;  -46.100;   11.000;    2.000
433.207;   82.200;  285.000;  930.000
433.330; -141.600; -391.000; -200.000
433.454; -218.300; -654.000; -638.000
433.578;   99.300;  583.000;  278.000
433.701; -249.700; -623.000; -675.000
433.825; -165.600; -292.000; -299.000
433.949;  -70.800;   28.000;  -72.000
434.072; -166.900; -410.000; -323.000
434.196;  -73.900; -309.000; -117.000
434.319; 8128.000;25482.000;25124.000
434.443; -210.000; -656.000; -603.000
434.566;  -42.400;  281.000;   62.000
434.690; -201.200; -637.000; -383.000
434.813; -140.800; -251.000; -173.000
434.937; -229.700; -569.000; -696.000
435.060; -182.900; -423.000; -332.000
435.184; -117.400; -492.000; -217.000
435.307;  -62.300;  159.000;  102.000
435.431;  -24.000;  -40.000;   24.000
435.554; -116.400; -399.000; -240.000
435.677; -155.900; -350.000; -258.000
435.801;  -36.700;  -25.000;   49.000
435.924;  -47.400;    1.000;  -67.000
436.048; -316.700;-1019.000; -732.000
436.171; -142.800; -240.000;  -66.000
436.294; -113.400; -248.000; -229.000
436.417; -349.900; -963.000; -849.000
436.541; -302.200; -814.000; -840.000
436.664;  -76.500; -242.000; -316.000
436.787;  -33.500;   13.000;  113.000
436.910; -245.700; -792.000; -422.000
437.034;  -30.100;  142.000;  143.000
437.157;  -30.300;  -11.000;    0.000
437.280; -163.400; -392.000; -292.000
437.403; -302.400; -982.000; -869.000
437.526; -337.700; -903.000; -865.000
437.649; -176.500; -505.000; -332.000
437.772; -269.400; -692.000; -540.000
437.896;  175.800;  700.000;  544.000
438.019; -248.500; -758.000; -503.000
438.142; -195.500; -596.000; -506.000
438.265; -276.100; -639.000; -670.000
438.388; -159.800; -520.000; -410.000
438.511; -225.200; -597.000; -394.000
438.634; -179.400; -247.000; -125.000
438.757; -248.500; -693.000; -619.000
438.880;  -60.300;  -34.000;  -57.000
439.003; -196.300; -417.000; -437.000
439.126; -107.200; -287.000; -167.000
439.248;  -92.500;  -98.000; -139.000
439.371;  -42.100;    9.000;  -53.000
439.494;  107.300;  510.000;  439.000
439.617;  -92.900;   65.000;  -88.000
439.740; -361.500; -968.000; -816.000
439.863; -236.400; -755.000; -595.000
439.986; -249.600; -476.000; -431.000
440.108;  -83.500; -161.000; -112.000
440.231; -345.700; -950.000; -836.000
440.354;  -78.300;  -64.000; -150.000
440.477; -258.500; -566.000; -542.000
440.599; -156.700; -200.000; -225.000
440.722; -245.300; -709.000; -586.000
440.845;  198.900;  751.000;  928.000
440.968; -203.800; -415.000; -311.000
441.090;  -89.100; -199.000;  -33.000
441.213; -301.400;-1021.000; -825.000
441.336;  -58.300; -159.000;   -5.000
441.458; -163.600; -549.000; -396.000
441.581; -239.100; -628.000; -629.000
441.703; -129.800; -152.000;   13.000
441.826; -199.500; -557.000; -400.000
441.948;  -90.100;   56.000;   51.000
442.071;  106.000;  555.000;  424.000
442.193; -224.200; -531.000; -485.000
442.316;  -22.600;  152.000;   97.000
442.438; -107.900; -233.000;  -10.000
442.561;   18.300;  272.000;  262.000
442.683; -286.200; -809.000; -522.000
442.806;  -45.400;   -8.000;   74.000
442.928; -313.000; -859.000; -604.000
443.051; -217.900; -577.000; -373.000
443.173; -162.500; -341.000; -339.000
443.295; -143.200; -263.000; -371.000
443.418; -143.500; -321.000;  -29.000
443.540;  -85.400; -106.000;   -4.000
443.662; -262.400; -563.000; -465.000
443.785;   26.000;  335.000;  199.000
443.907; -201.400; -362.000; -208.000
444.029; -228.900; -767.000; -494.000
444.152; -264.800; -644.000; -554.000
444.274;  -42.500;  -18.000;  -24.000
444.396; -210.600; -461.000; -221.000
444.518; -254.100; -691.000; -454.000
444.640; -194.700; -268.000; -111.000
444.763;    2.200;  388.000;  249.000
444.885; -196.800; -432.000; -392.000
445.007;  -46.300;   35.000;   86.000
445.129; -229.800; -610.000; -515.000
445.251; -198.900; -372.000; -439.000
445.373; -247.300; -537.000; -386.000
445.495;   25.700;  242.000;  350.000
445.617;  138.800;  853.000;  753.000
445.739; -130.500; -215.000;  -97.000
445.861; -107.400; -245.000; -112.000
445.984; -113.000; -267.000; -101.000
446.105; -182.100; -418.000; -251.000
446.227;  -68.900; -176.000;  -19.000
446.349; -222.900; -358.000; -249.000
446.471; -220.500; -615.000; -448.000
446.593; -163.100; -316.000;   19.000
446.715;  -88.500;  -67.000;   41.000
446.837;  208.500;  697.000;  832.000
446.959; -201.700; -457.000; -478.000
447.081; -258.600; -628.000; -518.000
447.203;  202.100;  862.000;  834.000
447.325; -138.900; -270.000;   42.000
447.446;   13.600;  286.000;  530.000
447.568; -338.800; -921.000; -803.000
447.690; -174.200; -236.000; -245.000
447.812; -271.300; -798.000; -519.000
447.933;  -16.500;  155.000;  127.000
448.055; -119.900; -306.000; -261.000
448.177;   -6.100;   31.000;   79.000
448.299; -355.200; -935.000; -727.000
448.420;  -32.200;  -25.000;  159.000
448.542;  -81.000;   -3.000;   33.000
448.664;    0.200;  109.000;  322.000
448.785;  -24.900;  265.000;   83.000
448.907; -192.100; -614.000; -353.000
449.028; -237.400; -771.000; -471.000
449.150;  125.000;  492.000;  589.000
449.272; -409.100;-1044.000; -913.000
449.393;  101.200;  612.000;  694.000
449.515; -273.700; -634.000; -581.000
449.636; -137.800; -264.000; -155.000
449.758;  136.800;  763.000;  622.000
449.879; -184.400; -498.000; -396.000
450.001; -152.900; -149.000;  -49.000
450.122;  -40.000;  -95.000;  162.000
450.244;  -41.400;   37.000;  364.000
450.365; -194.900; -495.000; -301.000
450.486;  -97.800;   80.000;  268.000
450.608;   30.100;  393.000;  326.000
450.729;   80.400;  578.000;  645.000
450.850; -206.400; -574.000; -466.000
450.972; -272.200; -552.000; -389.000
451.093;   31.300;  190.000;  588.000
451.214; -205.800; -516.000; -337.000
451.336;   93.400;  773.000;  579.000
451.457;   40.600;  264.000;  393.000
451.578; -119.500; -118.000;  -74.000
451.699; -235.700; -546.000; -540.000
451.821;  -88.300; -284.000;  -50.000
451.942;    8.100;  278.000;  285.000
452.063;   13.400;  228.000;  419.000
452.184; -142.000;  -54.000;  -49.000
452.305;   28.500;  103.000;  170.000
452.427; -236.900; -549.000; -301.000
452.548; -128.500;   23.000;   79.000
452.669; -133.200; -257.000;  -89.000
452.790;  -79.600;    3.000;  -18.000
452.911;   -7.900;  195.000;  259.000
453.032; -149.200; -289.000;  -60.000
453.153; -103.500;  -29.000;   81.000
453.274;  161.300;  737.000;  868.000
453.395; -114.000;  -51.000;  175.000
453.516;  250.200; 1317.000; 1388.000
453.637; -153.800; -205.000; -150.000
453.758;  -68.100;   15.000;   69.000
453.879; -221.900; -462.000; -250.000
454.000;  212.800; 1086.000;  948.000
454.121; -264.400; -554.000; -326.000
454.242; -242.300; -599.000; -383.000
454.362;  -93.000;  -99.000;  114.000
454.483; -167.700; -309.000; -229.000
454.604;    4.100;  512.000;  580.000
454.725; -271.700; -627.000; -555.000
454.846; -217.600; -474.000; -406.000
454.967;   11.400;  230.000;  539.000
455.087;  -81.800;  179.000;  153.000
455.208;  116.300;  554.000;  856.000
455.329;  -73.200;  -22.000;   82.000
455.450;  104.100;  473.000;  633.000
455.570; -155.700; -234.000; -211.000
455.691;  -66.000;  201.000;  407.000
455.812; -173.200; -270.000;  -92.000
455.932;  -91.400;  107.000;  -97.000
456.053; -113.500;   36.000;   24.000
456.173; -168.300; -433.000; -355.000
456.294; -239.200; -476.000; -303.000
456.415;  -67.100;  -73.000;   70.000
456.535;  -28.400;  297.000;  273.000
456.656;  -35.800;  132.000;  240.000
456.776; -106.400;    3.000;  298.000
456.897;   52.200;  308.000;  513.000
457.017; -158.300; -153.000;   -3.000
457.138; -227.300; -402.000; -249.000
457.258;  -12.900;  263.000;  224.000
457.379;   12.900;  509.000;  521.000
457.499;   -7.200;  443.000;  432.000
457.620; -194.700; -407.000; -231.000
457.740; -150.400; -132.000;  -11.000
457.860;  -86.900;   87.000;   44.000
457.981; -103.500;  132.000;  124.000
458.101; -150.700;  -89.000;   40.000
458.221;   29.500;  336.000;  402.000
458.342;  -88.800;   -4.000;  -37.000
458.462;   20.200;  617.000;  352.000
458.582; -149.300; -302.000; -294.000
458.703; -118.600;  303.000;  154.000
458.823;  -60.700;   22.000;  163.000
458.943;  -46.300;  341.000;  467.000
459.063;  -58.000; 1124.000;  192.000
459.183;  -28.600;  328.000;  313.000
459.304;   67.600;  315.000;  517.000
459.424; -163.600; -246.000;  -89.000
459.544;   64.000;  388.000;  764.000
459.664;   33.200;  499.000;  506.000
459.784;  167.700; 1004.000; 1175.000
459.904;   72.200;  867.000;  744.000
460.024;  123.000;  867.000;  684.000
460.144;   13.200;  449.000;  554.000
460.264;   24.600;  515.000;  327.000
460.385; -141.000; -145.000; -119.000
460.505;  144.900;  905.000;  858.000
460.625; -138.700;  -17.000;  -68.000
460.745;    1.700;  396.000;  541.000
460.864;  -80.300;  153.000;  469.000
460.984;   38.300;  499.000;  573.000
461.104;  325.400; 1656.000; 1775.000
461.224;   96.200;  657.000;  650.000
461.344;  -22.500;  431.000;  360.000
461.464;  -22.500;  258.000;  513.000
461.584;  -26.100;  283.000;  466.000
461.704; -106.800;   58.000;  108.000
461.824;  -78.400;  238.000;  259.000
461.943;  -47.500;  191.000;  130.000
462.063; -113.700;    2.000;  324.000
462.183;  117.400;  639.000;  717.000
462.303;  242.300; 1678.000; 1230.000
462.422;  106.900;  781.000;  840.000
462.542;  -31.900;  271.000;  391.000
462.662;   24.000;  353.000;  380.000
462.782;   32.400;  833.000;  572.000
462.901;   50.600;  545.000;  717.000
463.021;  328.700; 1702.000; 1638.000
463.141;    5.900;  337.000;  770.000
463.260;    9.400;  614.000;  474.000
463.380;   83.900;  902.000;  884.000
463.499;  -27.900;  342.000;  332.000
463.619;  -52.000;  581.000;  559.000
463.738;  298.400; 1644.000;  903.000
463.858;   93.300;  657.000;  811.000
463.978;  -11.300;  542.000;  396.000
464.097;  158.100;  921.000; 1114.000
464.217;  150.800; 1196.000; 1143.000
464.336;  197.900; 1068.000; 1130.000
464.455;  -46.000;  328.000;  659.000
464.575;    7.600;  597.000;  602.000
464.694;  176.600; 1204.000; 1179.000
464.814;  119.600; 1190.000; 1138.000
464.933;  125.700; 1095.000; 1027.000
465.052;  217.000; 1412.000; 1054.000
465.172;   73.400;  922.000;  799.000
465.291;  212.700; 1376.000; 1320.000
465.410;   57.000;  462.000;  735.000
465.530;  260.900; 1355.000; 1310.000
465.649;  173.200; 1209.000; 1273.000
465.768;  307.100; 1673.000; 1508.000
465.888;  141.100;  941.000; 1174.000
466.007;  244.800; 1335.000; 1440.000
466.126;   42.700;  721.000;  641.000
466.245;  136.000; 1176.000; 1187.000
466.364;   83.800;  950.000; 1060.000
466.484;  167.000; 1024.000; 1213.000
466.603;  119.400; 1101.000; 1222.000
466.722;  300.300; 1490.000; 1769.000
466.841;  138.800; 1151.000; 1401.000
466.960;  134.200; 1069.000;  972.000
467.079;  285.000; 1971.000; 1786.000
467.198;  144.400; 1238.000; 1181.000
467.317;  224.200; 1768.000; 1162.000
467.436;  219.800; 1709.000; 1261.000
467.555;  309.800; 1796.000; 1746.000
467.674;  200.000; 1227.000; 1329.000
467.793;  169.300; 1376.000; 1374.000
467.912;  241.600; 1658.000; 1539.000
468.031;  316.500; 2038.000; 1930.000
468.150;  341.300; 1842.000; 1837.000
468.269;  434.400; 2313.000; 2090.000
468.388;  435.300; 2168.000; 2339.000
468.507;  581.100; 2884.000; 2903.000
468.626;  631.400; 2555.000; 2541.000
468.744;  314.900; 2018.000; 2174.000
468.863;  471.900; 2312.000; 2523.000
468.982;  221.100; 1503.000; 1555.000
469.101;  531.900; 2788.000; 2692.000
469.220;  388.300; 2333.000; 2176.000
469.338;  569.500; 2935.000; 3051.000
469.457;  424.300; 2719.000; 2545.000
469.576;  799.600; 3953.000; 3784.000
469.695;  571.200; 2877.000; 3066.000
469.813;  940.000; 4148.000; 4192.000
469.932;  834.500; 4255.000; 4485.000
470.051;  758.200; 4075.000; 4161.000
470.169;  846.900; 4470.000; 4338.000
470.288;  952.800; 4700.000; 4809.000
470.406;  955.200; 5059.000; 5194.000
470.525; 1230.600; 6101.000; 5787.000
470.644; 1371.600; 6847.000; 6794.000
470.762; 1707.600; 8397.000; 7873.000
470.881; 1762.700; 8651.000; 8464.000
470.999; 2011.200; 9685.000; 9151.000
471.118; 2267.100;11174.000;10711.000

