
Integration time [ms]: 100.000
Averaging Nr. [scans]: 40
Smoothing Nr. [pixels]: 0
Data measured with spectrometer [name]: 2101012U2
Wave   ;Sample   ;Dark     ;Reference
[nm]   ;[counts] ;[counts] ;[counts] 

197.733;   53.525;  516.000;  404.000
197.879;  -72.000; -610.000; -634.000
198.025;  -49.600; -475.000; -420.000
198.171;  -78.025; -602.000; -612.000
198.317;  -39.675; -401.000; -316.000
198.463;  -59.775; -655.000; -404.000
198.609;   16.150;  181.000; -137.000
198.755;  -70.125; -644.000; -410.000
198.901;  -70.300; -505.000; -424.000
199.047;  -67.750; -615.000; -488.000
199.193;  -45.800; -230.000; -468.000
199.339;  -39.050; -222.000; -369.000
199.485;   34.750;  330.000;  271.000
199.631;   21.800;  227.000;  310.000
199.777;  -59.650; -466.000; -398.000
199.923;  -55.650; -610.000; -424.000
200.069;   -5.900; -141.000;  -58.000
200.215;   73.350;  128.000;  453.000
200.361;   41.450;  243.000;  477.000
200.507;  -46.425; -600.000; -373.000
200.653;  -29.400; -371.000; -194.000
200.798;  -36.175; -215.000; -125.000
200.944;   -2.950; -146.000;  -41.000
201.090;   34.425;   61.000;  222.000
201.236;  -14.900; -116.000; -158.000
201.382;  139.150;  874.000;  903.000
201.528;    3.425;  -58.000;  -48.000
201.674;  -45.875; -386.000; -293.000
201.819;  -60.525; -540.000; -439.000
201.965;  -77.650; -699.000; -447.000
202.111;  -20.125; -273.000; -226.000
202.257;  -38.000; -250.000; -238.000
202.402;    8.925;   13.000;  -36.000
202.548;  -20.800; -169.000; -116.000
202.694;   71.200;  410.000; -183.000
202.840;  -64.500; -603.000; -531.000
202.985;  -72.500; -681.000; -639.000
203.131; -111.300; -832.000; -666.000
203.277;  -39.100; -199.000; -262.000
203.423;  -38.150; -434.000; -520.000
203.568;  -44.650; -462.000; -237.000
203.714;  -60.975; -535.000; -542.000
203.860;  -88.000; -682.000; -641.000
204.005;   13.975;  112.000;  167.000
204.151;   68.125;  561.000;  556.000
204.296;  -30.225; -354.000; -221.000
204.442;  -76.825; -600.000; -547.000
204.588;  -60.400; -592.000; -579.000
204.733;    6.000;  178.000;  168.000
204.879; -124.775;-1018.000; -822.000
205.025;   10.325;  -99.000;  126.000
205.170;   -6.225;  -17.000;   94.000
205.316;   83.950;  438.000;  661.000
205.461;  -73.475; -698.000; -554.000
205.607;   72.175;  609.000;  665.000
205.752;  -82.725; -626.000; -551.000
205.898;  -61.800; -501.000; -391.000
206.043;  -50.925; -578.000; -506.000
206.189;  -49.350; -243.000; -285.000
206.334;   68.950;  554.000;  606.000
206.480;   83.750;  409.000;  239.000
206.625;  -80.550; -529.000; -552.000
206.771;  -52.500; -451.000; -373.000
206.916;  -26.275; -210.000; -537.000
207.062;  -83.700; -545.000; -591.000
207.207;  -61.175; -546.000; -443.000
207.353;   56.200;  185.000;  460.000
207.498;   15.975;  196.000;   85.000
207.643;  -61.300; -501.000; -370.000
207.789; -129.025;-1069.000; -910.000
207.934;  -96.525; -665.000; -713.000
208.080;  -25.200; -154.000;   66.000
208.225;  -19.275;  -22.000;  -57.000
208.370;  -76.325; -727.000; -619.000
208.516;  -77.125; -741.000; -487.000
208.661;  -41.850; -127.000;  -69.000
208.806;  -20.250; -165.000; -171.000
208.952; -125.875;-1044.000; -731.000
209.097;   67.425;  378.000;  349.000
209.242;  -48.200; -307.000; -382.000
209.387;   51.525;  392.000;  350.000
209.533;  -48.550; -321.000; -350.000
209.678;   65.775;  472.000;  543.000
209.823;  -57.200; -408.000; -310.000
209.969; -108.000; -860.000; -757.000
210.114; -107.675; -907.000; -719.000
210.259; -117.650; -939.000; -889.000
210.404;  -16.075; -171.000;  103.000
210.549;   -1.925;  108.000;    3.000
210.695;  -21.275;   -3.000;  -95.000
210.840;   38.275;   94.000;   67.000
210.985;  -56.725; -484.000; -303.000
211.130;   66.750;  268.000;  406.000
211.275;   12.000;  207.000;  199.000
211.420;  -59.200; -300.000; -289.000
211.566;  -74.300; -536.000; -489.000
211.711;   11.475;  218.000;  157.000
211.856;  -59.675; -545.000; -519.000
212.001;    6.975;  151.000;   44.000
212.146;   32.200;  153.000;   49.000
212.291;  -26.275; -210.000; -186.000
212.436;  -33.850; -280.000;   -6.000
212.581;  -82.650; -685.000; -653.000
212.726;  -81.675; -487.000; -538.000
212.871;  -39.975; -552.000; -217.000
213.016; -141.175;-1172.000;-1029.000
213.161;   50.650;  406.000;  291.000
213.306;  -68.350; -435.000; -577.000
213.451; -100.000; -778.000; -689.000
213.596;  -60.275; -455.000; -347.000
213.741;  -51.050; -448.000; -538.000
213.886;  -76.125; -498.000; -517.000
214.031;  -30.300; -294.000; -124.000
214.176;  -64.350; -408.000; -341.000
214.321;   -8.725; -296.000; -157.000
214.466;  -11.675; -163.000;  -43.000
214.611;  -11.375;  -61.000;  -10.000
214.756; -107.950; -948.000; -858.000
214.901;  -22.475; -388.000; -226.000
215.046; -119.625; -797.000; -825.000
215.191;   19.125;  128.000;   35.000
215.336;   -9.225; -157.000;  -19.000
215.480;  -59.550; -684.000; -505.000
215.625;  -11.625; -175.000;  -19.000
215.770;  -86.600; -757.000; -662.000
215.915;  -26.400;   -5.000;  -97.000
216.060;  -16.875; -113.000;  -21.000
216.205; -103.825; -731.000; -779.000
216.349;  -66.925; -470.000; -533.000
216.494; -117.375; -939.000; -867.000
216.639; -110.775; -823.000; -888.000
216.784;  -90.275; -577.000; -525.000
216.929;   51.100;  392.000;  281.000
217.073;  -18.075; -244.000;  -31.000
217.218;   11.775;   78.000;  -47.000
217.363;  -87.300; -656.000; -618.000
217.507;  -82.650; -623.000; -588.000
217.652; -130.925; -845.000; -874.000
217.797;  -93.825; -708.000; -659.000
217.942; -109.475; -856.000; -720.000
218.086;   69.750;  608.000;  539.000
218.231;  -23.400; -174.000;  -26.000
218.376;  -44.675; -337.000; -229.000
218.520;    6.750;  -41.000;   96.000
218.665;  -30.625; -338.000; -204.000
218.810;  -38.600; -275.000; -233.000
218.954;    5.325;  201.000;   35.000
219.099;  -98.550; -713.000; -963.000
219.243;  -64.200; -589.000; -554.000
219.388;  -27.375; -264.000; -136.000
219.532;  -20.475; -116.000; -116.000
219.677;  -73.450; -564.000; -521.000
219.822;    3.350;   33.000;   89.000
219.966;   17.350;   17.000;  -99.000
220.111;  -36.425; -328.000;  -40.000
220.255;  -99.050; -797.000; -750.000
220.400;   -7.300; -180.000; -146.000
220.544;  -66.650; -516.000; -450.000
220.689;  -53.625; -422.000; -451.000
220.833;  -21.150; -123.000;  -58.000
220.978;  -48.775; -393.000; -563.000
221.122;   26.575;  319.000;  307.000
221.267; -123.425; -906.000; -837.000
221.411;  -59.775; -478.000; -394.000
221.555;  -12.250; -104.000;  -23.000
221.700;  -43.550; -329.000; -222.000
221.844;   31.525;  255.000;  272.000
221.989;  -45.525; -328.000; -311.000
222.133;  -41.375; -289.000; -307.000
222.277;  -14.775;    5.000;   78.000
222.422;   27.100;  227.000;  113.000
222.566;  -44.550; -381.000; -214.000
222.711;  -49.975; -414.000; -479.000
222.855;  -71.000; -643.000; -586.000
222.999;  -79.825; -642.000; -717.000
223.144;  -31.525; -195.000; -194.000
223.288;   47.525;  423.000;  251.000
223.432;   24.000;  184.000;  230.000
223.576;    5.000;  152.000;  -21.000
223.721;   34.675;  364.000;  273.000
223.865;  -58.925; -472.000; -475.000
224.009;  227.750; 1673.000; 1631.000
224.153;  -88.575; -660.000; -671.000
224.298;  -67.200; -531.000; -489.000
224.442;  -25.775;  -74.000;  -33.000
224.586;   -8.650; -169.000; -106.000
224.730;  -92.575; -858.000; -670.000
224.875;  -99.775; -739.000; -688.000
225.019;   -7.700;  102.000;  188.000
225.163;   52.725;  208.000;  341.000
225.307;   14.525;   97.000;  -91.000
225.451;   46.400;  360.000;  481.000
225.595;   26.675;  264.000;  176.000
225.739;  -27.525; -170.000;  -94.000
225.884;   11.350;   86.000;    5.000
226.028;  -90.300; -760.000; -626.000
226.172;  -46.975; -260.000; -273.000
226.316; -114.750; -941.000; -902.000
226.460;  -74.225; -645.000; -493.000
226.604;  -54.225; -406.000; -400.000
226.748;  -99.025; -836.000; -733.000
226.892;  -46.300; -227.000; -181.000
227.036;  -58.925; -537.000; -447.000
227.180;  -43.650; -551.000; -375.000
227.324;  -50.400; -561.000; -580.000
227.468; -104.175; -819.000; -717.000
227.612;    6.575;  242.000;  -28.000
227.756; -101.725; -845.000; -698.000
227.900;   41.175;  342.000;  441.000
228.044;  -58.650; -509.000; -290.000
228.188;   60.700;  448.000;  568.000
228.332; -101.900; -546.000; -472.000
228.476;  -24.450; -223.000; -149.000
228.620;  -43.600; -210.000; -150.000
228.764;   55.850;  431.000;  349.000
228.908;  -27.050; -155.000;   30.000
229.052;  -76.000; -615.000; -528.000
229.195;  -21.325; -172.000;   13.000
229.339;  -31.200; -235.000; -305.000
229.483;  -19.550;    5.000; -162.000
229.627;  -12.625; -156.000;  139.000
229.771;  -41.650; -218.000; -294.000
229.915;   11.525;  230.000;   79.000
230.059; -100.275; -648.000; -663.000
230.202;  -44.200; -370.000; -317.000
230.346;   -8.375; -107.000;  107.000
230.490;  -72.750; -489.000; -521.000
230.634; -104.050; -736.000; -553.000
230.777;   67.225;  478.000;  509.000
230.921;  -56.275; -450.000; -359.000
231.065;  -44.950; -246.000; -286.000
231.209;   27.225;  261.000;  265.000
231.352;   11.325;   54.000;   40.000
231.496;    4.375;  568.000;  188.000
231.640;  -83.500; -693.000; -621.000
231.783;   55.450;  546.000;  525.000
231.927;  -41.000; -294.000; -365.000
232.071; -122.350; -962.000; -736.000
232.214; -111.850; -980.000; -764.000
232.358;  -92.225; -683.000; -599.000
232.502;    2.150;  -19.000;    7.000
232.645; -129.950;-1090.000; -927.000
232.789;  -25.500; -257.000; -218.000
232.933;  -43.150; -407.000; -224.000
233.076; -131.275;-1038.000; -897.000
233.220; -103.400; -752.000; -777.000
233.363;  -74.750; -669.000; -477.000
233.507;   48.600;  371.000;  129.000
233.650;  -95.325; -764.000; -834.000
233.794;   57.950;  438.000;  461.000
233.938;  -58.450; -530.000; -362.000
234.081;   -3.625;  -93.000;   31.000
234.225;  -82.650; -631.000; -539.000
234.368; -113.850; -773.000; -723.000
234.512;  -54.950; -385.000; -299.000
234.655;  -88.325; -582.000; -555.000
234.798;  -58.775; -493.000; -466.000
234.942; -123.675; -884.000;-1002.000
235.085;  -76.775; -651.000; -443.000
235.229;  -79.200; -405.000; -410.000
235.372;  -49.050; -247.000; -191.000
235.516;  -55.075; -397.000; -321.000
235.659;   27.550;   92.000;  121.000
235.802;  -20.950;  -38.000;  -22.000
235.946;   30.225;  335.000;  215.000
236.089;   26.450;  126.000;  250.000
236.233;   46.525;  275.000;  298.000
236.376;  -55.150; -235.000; -378.000
236.519;  -46.300; -297.000; -319.000
236.663;  -20.475; -215.000; -117.000
236.806; -137.875;-1029.000; -999.000
236.949;   56.150;  543.000;  431.000
237.092;   52.950;  412.000;  391.000
237.236;  -91.050; -589.000; -502.000
237.379;   55.500;  352.000;  428.000
237.522; -120.300; -879.000; -768.000
237.666;  -21.725; -271.000;   18.000
237.809; -112.625; -851.000; -823.000
237.952;   18.175;  469.000;  271.000
238.095;  -64.525; -447.000; -442.000
238.238;   73.050;  688.000;  700.000
238.382;   -2.775;  166.000;  103.000
238.525;  -77.675; -598.000; -511.000
238.668; -145.150;-1060.000; -985.000
238.811;  -86.650; -638.000; -643.000
238.954;  -63.400; -483.000; -334.000
239.097;   87.400;  617.000;  664.000
239.241;   20.350;  394.000;  326.000
239.384;  -34.075; -254.000; -214.000
239.527;  -62.125; -424.000; -224.000
239.670; -141.050; -994.000;-1091.000
239.813;  -96.650; -696.000; -658.000
239.956;   68.025;  579.000;  473.000
240.099; -110.200; -778.000; -725.000
240.242;   44.925;  428.000;  432.000
240.385;   37.475;  466.000;  450.000
240.528;  -78.000; -706.000; -473.000
240.671;    9.850;  189.000;  134.000
240.814;  -48.425; -441.000; -158.000
240.957;  -90.225; -767.000; -578.000
241.100;  -89.175; -779.000; -755.000
241.243; -139.400;-1234.000; -893.000
241.386;  -62.625; -508.000; -379.000
241.529;  -92.650; -735.000; -547.000
241.672;  -67.600; -566.000; -495.000
241.815; -115.650; -832.000; -808.000
241.958;  -33.275; -125.000; -182.000
242.101;  -65.875; -545.000; -390.000
242.244;  -33.900; -270.000; -325.000
242.387;  -46.750; -304.000; -246.000
242.530;   50.575;  470.000;  134.000
242.673;  -47.825; -381.000; -309.000
242.815; -122.150; -925.000; -899.000
242.958;  -58.975; -482.000; -381.000
243.101;    7.200;  132.000;  187.000
243.244;  -70.700; -564.000; -521.000
243.387;  -50.425; -313.000; -316.000
243.530;  -92.200; -657.000; -674.000
243.672;  -13.450;   43.000;  -92.000
243.815;  -55.475; -355.000; -283.000
243.958;   -6.250;   98.000;  -26.000
244.101;   -6.875;   59.000;  -16.000
244.243;   -5.325;  -47.000;  101.000
244.386; -107.275; -761.000; -630.000
244.529;  -21.450; -132.000; -139.000
244.672; -151.075;-1154.000; -951.000
244.814;  -84.300; -621.000; -794.000
244.957;  -42.425; -380.000; -304.000
245.100;  -86.525; -489.000; -489.000
245.242;  -55.325; -387.000; -374.000
245.385;  -14.900;  -59.000;  -39.000
245.528; -131.275; -871.000; -705.000
245.670;   77.000;  612.000;  634.000
245.813;  -83.625; -599.000; -547.000
245.956;  -27.350; -324.000; -275.000
246.098;  -79.850; -508.000; -650.000
246.241;   -2.875;  194.000;   48.000
246.383;  -13.000; -119.000;  -73.000
246.526;  -76.400; -454.000; -525.000
246.669; -106.400; -889.000; -780.000
246.811;    9.100;  172.000;   -1.000
246.954;  -56.200; -512.000; -426.000
247.096;  -27.150;  -84.000;   -6.000
247.239;  -66.675; -482.000; -445.000
247.381;  -63.450; -647.000; -488.000
247.524;   86.375;  645.000;  679.000
247.666;  -15.275;   58.000;   11.000
247.809; -116.500; -887.000; -691.000
247.951;   -8.225;  -75.000;  138.000
248.094;   27.975;  432.000;  308.000
248.236; -161.650;-1262.000;-1238.000
248.378;    5.425; -356.000;  -81.000
248.521;  -27.075; -334.000; -337.000
248.663;  -41.750; -236.000; -267.000
248.806;  -33.325; -300.000; -266.000
248.948;  -96.275; -886.000; -763.000
249.090;  -54.625; -428.000; -398.000
249.233;  -42.800; -344.000; -381.000
249.375;  -71.100; -474.000; -451.000
249.518;  -23.500;  -83.000; -133.000
249.660;  -14.650; -103.000;    3.000
249.802; -157.025;-1303.000;-1189.000
249.945;  -78.350; -612.000; -540.000
250.087; -112.900; -834.000; -768.000
250.229;  -51.650; -362.000; -480.000
250.371;  -64.525; -494.000; -439.000
250.514;  -56.950; -310.000; -244.000
250.656;  -32.025;   69.000;  102.000
250.798; -124.750; -849.000; -800.000
250.940;  -56.750; -322.000; -322.000
251.083;  -21.050; -335.000; -111.000
251.225;   50.050;  338.000;  310.000
251.367;  -61.450; -274.000; -373.000
251.509;  -38.150; -265.000; -210.000
251.651; -105.500; -731.000; -671.000
251.794;   48.700;  538.000;  632.000
251.936; -105.600; -821.000; -747.000
252.078;  -82.300; -540.000; -461.000
252.220;  -77.025; -645.000; -477.000
252.362;   73.525;  344.000;  462.000
252.504;  -77.125; -677.000; -584.000
252.646; -116.025; -875.000; -722.000
252.788;    0.350;   14.000; -128.000
252.931;  -24.025; -257.000; -253.000
253.073;  -36.700; -376.000; -317.000
253.215;   -4.350;  141.000;  122.000
253.357;   -3.925;   82.000; -153.000
253.499;  -54.425; -374.000; -234.000
253.641;  -83.750; -749.000; -594.000
253.783;  -90.875; -609.000; -527.000
253.925;  -97.825; -586.000; -591.000
254.067; -105.000; -744.000; -667.000
254.209;  -18.425; -391.000; -259.000
254.351; -137.450; -865.000; -883.000
254.493;  -69.700; -441.000; -417.000
254.635; -108.550; -936.000; -818.000
254.777;  -91.950; -752.000; -687.000
254.918;  -70.500; -512.000; -430.000
255.060;  -58.850; -551.000; -395.000
255.202;  -64.100; -473.000; -261.000
255.344;  -86.275; -658.000; -455.000
255.486;  -76.275; -471.000; -406.000
255.628; -102.925; -780.000; -781.000
255.770;  -96.300; -676.000; -536.000
255.912;  -65.775; -559.000; -468.000
256.053;  -84.950; -730.000; -508.000
256.195;  119.075; 1008.000;  903.000
256.337; -111.950; -861.000; -595.000
256.479;   56.450;  532.000;  416.000
256.621;  -48.425; -394.000; -212.000
256.762; -101.450; -789.000; -742.000
256.904;   37.150;  485.000;  487.000
257.046;  -39.600; -381.000; -271.000
257.188;  -35.700; -351.000; -264.000
257.329;  -73.700; -525.000; -464.000
257.471; -117.925; -939.000; -807.000
257.613;  -76.150; -584.000; -498.000
257.755; -143.975;-1073.000; -982.000
257.896;   18.900;  286.000;  392.000
258.038;  -61.750; -403.000; -352.000
258.180;  -51.450; -354.000; -279.000
258.321;  -93.000; -581.000; -457.000
258.463;   -5.425;  -71.000;  133.000
258.605;  -96.125; -562.000; -570.000
258.746; -110.525; -886.000; -772.000
258.888; -147.425;-1026.000;-1020.000
259.029;    4.150;  121.000;   -8.000
259.171;  -99.275; -614.000; -550.000
259.313;  -13.275;  -49.000;  -47.000
259.454;  -80.025; -536.000; -414.000
259.596;  -59.000; -483.000; -390.000
259.737;  -68.550; -590.000; -474.000
259.879;   10.750;  217.000;  311.000
260.020;   81.250;  901.000;  636.000
260.162;  -32.575; -146.000; -253.000
260.303; -110.100; -768.000; -687.000
260.445;  -86.800; -609.000; -613.000
260.586;   21.975;  392.000;  157.000
260.728;  -43.300; -360.000; -248.000
260.869;  -69.525; -350.000; -343.000
261.011;   75.425;  706.000;  537.000
261.152;  -63.050; -479.000; -319.000
261.293;  -72.825; -576.000; -595.000
261.435;  -33.350; -219.000; -184.000
261.576;  -56.225; -455.000; -325.000
261.718;   52.725;  420.000;  470.000
261.859; -127.425; -940.000; -949.000
262.000; -125.750; -951.000;-1016.000
262.142;  -29.875;  -52.000;  -60.000
262.283; -123.600; -808.000; -691.000
262.424;  -88.600; -666.000; -625.000
262.566; -147.075;-1161.000; -983.000
262.707; -112.275; -840.000; -830.000
262.848; -121.875; -769.000; -726.000
262.990;  -63.325; -362.000; -345.000
263.131;   72.750;  650.000;  681.000
263.272;  -12.275;  -61.000;  -41.000
263.413;  -86.850; -589.000; -561.000
263.555;  -61.000; -669.000; -143.000
263.696;  -81.700; -550.000; -641.000
263.837;  -69.000; -449.000; -551.000
263.978;   -8.475;   -5.000;  -77.000
264.119;  -34.600; -283.000; -264.000
264.261; -110.450; -847.000; -630.000
264.402;   -8.200;   33.000;   40.000
264.543;  -76.675; -509.000; -524.000
264.684;  -18.275;   61.000;  -50.000
264.825;  -77.250; -816.000; -538.000
264.966;   -5.275;  -84.000;  -67.000
265.107; -117.275; -646.000; -670.000
265.248; -118.050; -825.000; -812.000
265.390;  -20.225;  152.000;   -9.000
265.531;  -17.650; -238.000; -107.000
265.672;  -84.500; -557.000; -630.000
265.813;   64.575;  563.000;  439.000
265.954; -135.275; -959.000; -940.000
266.095;  -30.950; -372.000; -322.000
266.236; -102.175; -686.000; -548.000
266.377;  -45.650; -243.000; -297.000
266.518;  -70.975; -619.000; -547.000
266.659;   31.450;  170.000;  268.000
266.800;    5.275;   83.000;   85.000
266.941;  -91.600; -487.000; -478.000
267.082;   26.225;  354.000;   99.000
267.223;  -68.200; -344.000; -273.000
267.364; -121.200; -892.000; -686.000
267.504;  -18.525;    3.000;  135.000
267.645;    0.025;  160.000;   67.000
267.786;  -40.775; -147.000;  -86.000
267.927;  -68.650; -473.000; -379.000
268.068;  -18.850; -186.000;  -61.000
268.209;  -49.500; -175.000; -413.000
268.350;  -66.150; -388.000; -532.000
268.490;  -88.100; -648.000; -521.000
268.631;   19.525;  127.000;  225.000
268.772; -115.600; -874.000; -647.000
268.913;  -53.250; -328.000; -476.000
269.054;  -12.275; -117.000;   12.000
269.194;  -48.450; -418.000; -402.000
269.335; -158.600;-1137.000;-1074.000
269.476;  -34.075;   33.000;  -35.000
269.617;  -48.275; -347.000; -392.000
269.757;  -97.775; -713.000; -646.000
269.898; -103.275; -856.000; -613.000
270.039;  -77.175; -415.000; -405.000
270.180; -131.375; -952.000; -816.000
270.320;  -33.675; -190.000; -250.000
270.461;  -30.050; -277.000; -249.000
270.602;  -28.250; -186.000; -156.000
270.742; -131.025; -868.000; -943.000
270.883;  -72.525; -442.000; -390.000
271.023;  -53.325; -358.000; -357.000
271.164;  -81.425; -607.000; -528.000
271.305;  -98.125; -666.000; -654.000
271.445; -104.700; -722.000; -683.000
271.586;  -66.500; -462.000; -283.000
271.726;  -64.025; -397.000; -322.000
271.867;  -48.600; -594.000; -534.000
272.008;  152.500; -473.000; -285.000
272.148;  117.000;  462.000;  468.000
272.289;    5.200; -113.000; -181.000
272.429;   13.600;   19.000;  185.000
272.570;  -93.600; -633.000; -737.000
272.710; -101.775; -825.000; -775.000
272.851;  -31.525;  113.000; -130.000
272.991; -164.250;-1173.000;-1077.000
273.131;  -73.000; -419.000; -459.000
273.272;  -96.900; -683.000; -723.000
273.412;   -0.650; -143.000;  -31.000
273.553;  -48.125; -488.000; -507.000
273.693;  106.125;  913.000;  858.000
273.834;  -89.550; -894.000; -692.000
273.974;  -90.525; -664.000; -615.000
274.114; -103.925; -772.000; -560.000
274.255;   55.400;  414.000;  373.000
274.395;   -3.750; -180.000; -125.000
274.535;   20.725;  199.000;  350.000
274.676;   16.125;  225.000;   94.000
274.816;  -11.800;  110.000;   34.000
274.956;  -78.850; -624.000; -690.000
275.097;  -64.200;-1014.000; -922.000
275.237; -104.475; -913.000; -803.000
275.377;  -98.350; -778.000; -689.000
275.517; -137.900; -878.000; -937.000
275.658;  -74.500; -590.000; -555.000
275.798;  -62.025; -606.000; -413.000
275.938;    8.675;  215.000;  323.000
276.078; -100.250; -626.000; -395.000
276.218;   -2.375;   99.000;  104.000
276.359; -143.675;-1026.000;-1024.000
276.499;  -83.850; -605.000; -446.000
276.639;  -38.375; -305.000; -151.000
276.779;  -49.075; -475.000; -357.000
276.919;  -82.950; -783.000; -624.000
277.059;  -30.850; -261.000; -212.000
277.199;  -52.200; -357.000; -259.000
277.340;   31.550;  287.000;  175.000
277.480; -116.725; -840.000; -693.000
277.620;    1.500;  192.000;   16.000
277.760; -199.975;-1533.000;-1294.000
277.900;    2.850;  113.000;   33.000
278.040;    9.625;  137.000;  159.000
278.180;   29.725;  270.000;  170.000
278.320;    0.275;   21.000;   56.000
278.460;  -68.400; -443.000; -469.000
278.600;  -74.250; -708.000; -598.000
278.740;   56.825;  448.000;  224.000
278.880;  -69.175; -768.000; -791.000
279.020;  -15.425; -194.000; -144.000
279.160;  -95.650; -672.000; -595.000
279.300; -124.950; -926.000; -873.000
279.440; -109.300; -709.000; -622.000
279.579;  -27.400;-1014.000; -929.000
279.719;  -52.200; -410.000; -394.000
279.859;   64.500;   -4.000;   41.000
279.999;   20.000; -208.000;  101.000
280.139;  -26.475; -435.000; -387.000
280.279;  -74.625; -708.000; -745.000
280.419;  -28.850; -229.000; -147.000
280.559;  -37.475; -259.000; -180.000
280.698;  -75.900; -790.000; -639.000
280.838;  -76.125; -778.000; -800.000
280.978; -104.425; -846.000; -790.000
281.118; -114.225; -811.000; -704.000
281.257;   -0.700;   24.000;    6.000
281.397; -109.725;-1094.000; -960.000
281.537;  -89.525; -599.000; -712.000
281.677;  -26.325; -150.000; -101.000
281.816;  -86.200; -700.000; -630.000
281.956;  -39.825; -193.000; -257.000
282.096;  -73.975; -539.000; -396.000
282.235; -106.675; -672.000; -638.000
282.375;  -23.125; -243.000;  -98.000
282.515;  -94.675; -715.000; -707.000
282.654;   19.450;   29.000;  106.000
282.794;   26.300;  388.000;  244.000
282.934;  -74.650; -530.000; -491.000
283.073; -128.200;-1030.000; -857.000
283.213;  -60.775; -460.000; -467.000
283.353;  -41.225; -408.000; -349.000
283.492;  -32.600; -264.000; -296.000
283.632;  -57.950; -254.000; -168.000
283.771; -103.875; -859.000; -730.000
283.911;  -69.175; -369.000; -260.000
284.050; -110.650; -794.000; -748.000
284.190; -159.475;-1229.000;-1096.000
284.329; -157.075;-1055.000; -964.000
284.469;  -66.700; -516.000; -591.000
284.608;  -59.850; -559.000; -598.000
284.748;  -82.725; -614.000; -570.000
284.887;  -10.475;  -87.000;  -20.000
285.027; -113.750; -844.000; -892.000
285.166;  -44.550; -192.000; -249.000
285.306;   11.575; -116.000;  -33.000
285.445;  -50.550; -229.000; -343.000
285.584;  -98.500; -630.000; -494.000
285.724;  -46.425; -282.000; -322.000
285.863;  -99.125; -857.000; -507.000
286.002;  -67.425; -366.000; -276.000
286.142; -103.950; -715.000; -622.000
286.281;  -68.025; -525.000; -493.000
286.420;  -77.775; -554.000; -417.000
286.560;   80.400;  653.000;  623.000
286.699; -149.475; -958.000; -912.000
286.838;  -84.050; -590.000; -591.000
286.978;  -83.375; -533.000; -537.000
287.117; -144.050;-1085.000; -950.000
287.256;  -26.300; -228.000; -211.000
287.395;  -62.050; -197.000; -378.000
287.535;  -46.900; -370.000; -298.000
287.674;  -91.325; -509.000; -484.000
287.813;   58.500;  661.000;  533.000
287.952; -141.275;-1010.000; -871.000
288.091; -151.250;-1049.000; -915.000
288.231;   -0.725;   13.000;   15.000
288.370; -163.750;-1217.000;-1200.000
288.509;  -79.100; -728.000; -645.000
288.648;  -88.450; -770.000; -548.000
288.787;  -40.850; -243.000;  -87.000
288.926;  -70.075; -454.000; -475.000
289.065;  106.325;  859.000;  672.000
289.204;  -55.675; -377.000; -217.000
289.344; -104.750; -791.000; -690.000
289.483;   20.050;  416.000;  304.000
289.622;  -27.000; -291.000; -149.000
289.761;  -26.200; -309.000; -166.000
289.900; -113.975; -785.000; -626.000
290.039;  -25.175;  -12.000;  -95.000
290.178;  -45.725; -274.000; -180.000
290.317;  -82.700; -618.000; -479.000
290.456;  -69.025; -463.000; -451.000
290.595; -128.700; -961.000; -833.000
290.734; -140.225; -904.000; -891.000
290.873;  -68.200; -456.000; -420.000
291.011;  -98.125; -833.000; -843.000
291.150;  -98.675; -770.000; -682.000
291.289;  -36.775; -343.000; -110.000
291.428;  -87.825; -599.000; -480.000
291.567;  -63.900; -370.000; -442.000
291.706;   -2.175;  109.000;  154.000
291.845;  -97.550; -597.000; -505.000
291.984; -169.125;-1234.000;-1061.000
292.122;   58.575;  602.000;  582.000
292.261;   40.525;  620.000;  463.000
292.400;    6.175; -144.000;  211.000
292.539; -119.625; -959.000; -813.000
292.678;  -39.075; -325.000; -300.000
292.816; -150.450;-1136.000; -965.000
292.955;  -99.325; -844.000; -684.000
293.094;  -30.725; -173.000; -337.000
293.233;  -55.275; -556.000; -400.000
293.371;  -48.325; -225.000;  -84.000
293.510; -108.300; -866.000; -780.000
293.649; -121.575; -959.000; -924.000
293.787;  -66.325;-1083.000;-1012.000
293.926;  -12.125; -113.000;  -32.000
294.065;  -61.225; -379.000; -290.000
294.203;   35.200;  298.000;  406.000
294.342;   16.225;   74.000;  156.000
294.481; 6234.550;51180.000; -836.000
294.619;  -33.975; -425.000; -582.000
294.758; -138.850;-1230.000;-1137.000
294.896;   49.675; -125.000;    5.000
295.035; -132.775;-1040.000;-1006.000
295.174; -117.100;-1082.000; -954.000
295.312;  -52.525; -323.000; -203.000
295.451;  -18.100; -307.000; -428.000
295.589;  -50.150; -389.000; -518.000
295.728;   20.700; -292.000; -165.000
295.866;   -3.375;  -36.000;  -51.000
296.005;  -67.950; -584.000; -341.000
296.143;  -69.650; -558.000; -596.000
296.282; -113.325; -957.000; -881.000
296.420;  -84.800; -657.000; -557.000
296.559;  -79.725; -892.000; -633.000
296.697;   11.600; -847.000; -665.000
296.835;   22.850;-1141.000;-1002.000
296.974;   44.575;  -23.000;   39.000
297.112;   10.950; -443.000; -504.000
297.251;  -80.125; -815.000; -755.000
297.389;   70.850; -576.000; -438.000
297.527;   30.025; -145.000;  -83.000
297.666;  -53.125; -486.000; -438.000
297.804;  -48.075; -404.000; -264.000
297.942;  -14.975; -136.000; -161.000
298.081;  -25.000; -183.000;   63.000
298.219;   61.700;  -17.000;  -19.000
298.357;   50.500; -144.000;  -71.000
298.495;   14.175; -810.000; -812.000
298.634;   76.800;  245.000;  219.000
298.772;   36.575; -220.000; -338.000
298.910;  -46.775; -309.000; -182.000
299.048;   -5.700; -130.000; -153.000
299.187;  -35.000; -350.000; -250.000
299.325;    5.350;   52.000;  122.000
299.463;   36.550; -389.000; -299.000
299.601;   83.975; -327.000; -271.000
299.739; -105.075; -908.000; -883.000
299.877;  -84.750; -791.000; -703.000
300.016;  -50.050;-1095.000; -935.000
300.154;  123.400;  -19.000; -161.000
300.292;   26.475; -428.000; -348.000
300.430;   17.725; -408.000; -291.000
300.568; -104.775; -940.000; -874.000
300.706;  -55.150; -366.000; -469.000
300.844;  -80.375;-1108.000; -979.000
300.982;  101.650;  246.000;  282.000
301.120; -116.525; -965.000; -866.000
301.258;  -79.625; -812.000; -705.000
301.396;   27.075;  104.000;  -41.000
301.534;   77.575; -218.000; -293.000
301.672;  -25.150; -664.000; -521.000
301.810;   13.175; -613.000; -545.000
301.948;   92.350;   53.000;  149.000
302.086;  589.000; -250.000;  -32.000
302.224;  847.575; -610.000; -585.000
302.362;   32.675; -558.000; -622.000
302.500;  -33.900; -923.000; -893.000
302.638;   89.175;  128.000;  245.000
302.776;  -10.375; -352.000; -408.000
302.913;   31.550;  447.000;  236.000
303.051;  -18.125;  -86.000;  -23.000
303.189;   39.825;   90.000;  118.000
303.327;  -49.925; -341.000; -256.000
303.465;  -72.575; -832.000; -588.000
303.603;  -90.375; -805.000; -604.000
303.740;   85.925;  417.000;  241.000
303.878;    3.450; -800.000; -759.000
304.016;  -85.325; -915.000; -790.000
304.154; -121.775;-1123.000;-1152.000
304.291;  -48.150; -505.000; -554.000
304.429;    5.125;  102.000;   74.000
304.567; -123.600; -908.000; -893.000
304.705;  -58.475; -408.000; -515.000
304.842;   70.150; -616.000; -540.000
304.980;   44.975;  215.000;   35.000
305.118;   21.500; -367.000; -365.000
305.255;  -77.950; -945.000; -927.000
305.393;   42.075;  178.000;  239.000
305.531; -104.650;-1173.000; -956.000
305.668;  -73.750; -663.000; -582.000
305.806;   95.500; -358.000; -439.000
305.943;   88.550; -629.000; -637.000
306.081;   45.800; -378.000; -267.000
306.219; -105.650; -863.000; -748.000
306.356;   -2.025;  158.000;   27.000
306.494;   93.050;  981.000;  761.000
306.631;    0.100;  -11.000;  -55.000
306.769;   -8.100; -613.000; -485.000
306.906;  -25.625; -284.000; -258.000
307.044;  -64.200; -473.000; -488.000
307.181;  -66.950; -410.000; -332.000
307.319;   -1.950;  112.000;   87.000
307.456; -171.250;-1191.000;-1153.000
307.594;  -91.975; -980.000; -727.000
307.731;  -14.925; -371.000; -164.000
307.868;   -9.825;  -15.000;   20.000
308.006; -131.225; -961.000; -847.000
308.143;  -77.825; -618.000; -330.000
308.281;  174.600;  -37.000; -254.000
308.418;  -19.150; -748.000; -640.000
308.555;  -76.450; -400.000; -250.000
308.693;  -72.550; -577.000; -573.000
308.830; -102.775; -712.000; -657.000
308.967;  -26.300; -215.000;  -95.000
309.105;  -51.750; -507.000; -396.000
309.242;   36.150; -468.000; -367.000
309.379;  320.725; -577.000; -655.000
309.517;  -69.800; -936.000; -948.000
309.654; -105.500; -910.000; -734.000
309.791;  -77.825; -662.000; -580.000
309.928; -113.775; -977.000; -914.000
310.065;  177.450;  819.000;  697.000
310.203;  -17.850; -825.000; -850.000
310.340;  -20.775; -465.000; -321.000
310.477;  -77.550; -412.000; -516.000
310.614;  -59.075; -383.000; -473.000
310.751;  -80.475; -427.000; -518.000
310.889;  -21.825;    1.000;   11.000
311.026; -147.850;-1161.000; -939.000
311.163;  -50.750; -386.000; -380.000
311.300;  -73.525; -512.000; -479.000
311.437;  -72.125; -658.000; -619.000
311.574; -166.075;-1226.000; -985.000
311.711;  -76.700; -595.000; -433.000
311.848;  -54.375; -380.000; -388.000
311.985;    0.950;  270.000;   93.000
312.122; -112.500; -932.000; -762.000
312.259; -113.325; -941.000; -994.000
312.396;  -87.675; -508.000; -551.000
312.533;  -92.650; -812.000; -790.000
312.670; -137.300;-1070.000; -898.000
312.807;  -44.900; -352.000; -367.000
312.944;  -80.425; -513.000; -611.000
313.081;  -37.950; -150.000; -415.000
313.218; -101.425;-1111.000; -867.000
313.355;   -2.250; -531.000; -449.000
313.492;  -17.450; -455.000; -292.000
313.629;  115.225;  815.000;  735.000
313.766; -141.450;-1176.000;-1008.000
313.902;  -19.725; -186.000;   21.000
314.039;  -48.775; -372.000; -289.000
314.176;   11.875;  286.000;  192.000
314.313;  -76.600; -569.000; -473.000
314.450;  -82.525; -788.000; -684.000
314.587;  -58.525; -468.000; -480.000
314.723;    0.225;  -78.000;  130.000
314.860;   25.800;  318.000;  332.000
314.997;   16.525;  223.000;  142.000
315.134;  -53.300; -385.000; -368.000
315.270;  -38.200; -480.000; -496.000
315.407; -125.325;-1094.000; -967.000
315.544;  -65.250; -657.000; -538.000
315.681;  -70.875; -681.000; -565.000
315.817;    8.425; -133.000; -176.000
315.954;   13.525; -613.000; -392.000
316.091; -124.850;-1045.000;-1023.000
316.227;  -21.575;  -71.000; -179.000
316.364;   10.425;   23.000;    6.000
316.500;  -31.900; -113.000; -300.000
316.637;  -53.600; -181.000; -302.000
316.774;  -98.600; -625.000; -358.000
316.910;  -88.075; -598.000; -629.000
317.047;  -69.700; -487.000; -351.000
317.183;  -65.475; -435.000; -566.000
317.320;   -4.025; -367.000; -321.000
317.456;  -73.750; -733.000; -805.000
317.593;  -94.550; -598.000; -641.000
317.729;  -10.175;  168.000;  -67.000
317.866; -194.825;-1434.000;-1285.000
318.002;  -87.450; -708.000; -948.000
318.139; -102.325; -883.000; -867.000
318.275; -103.300;-1003.000; -738.000
318.412;  -70.850; -517.000; -336.000
318.548;  -27.650; -751.000; -720.000
318.685; -102.625; -985.000; -888.000
318.821;  -88.250; -762.000; -735.000
318.957;  -36.225;   34.000;  -23.000
319.094;   21.125;  297.000;  154.000
319.230;  -53.850; -756.000; -742.000
319.367;  113.300; -471.000; -520.000
319.503;   49.950; -538.000; -436.000
319.639; -104.275; -877.000; -793.000
319.775;  -71.825; -750.000; -685.000
319.912;  -61.475; -424.000; -519.000
320.048;  -88.550;-1184.000;-1184.000
320.184;   69.025;   59.000;   70.000
320.321;  -60.450; -497.000; -467.000
320.457;   52.300;  475.000;  662.000
320.593;  -65.525; -375.000; -382.000
320.729; -102.700; -732.000; -734.000
320.866;  -72.925; -577.000; -635.000
321.002;  -78.250; -759.000; -809.000
321.138;  -13.600; -135.000; -211.000
321.274;   66.775; -148.000; -115.000
321.410;  -20.550; -585.000; -353.000
321.546;  -34.275;-1011.000; -911.000
321.683;   39.075;  400.000;  185.000
321.819;    2.000;  -48.000; -117.000
321.955; -108.525; -743.000; -722.000
322.091;  -62.200; -585.000; -540.000
322.227;  -14.900; -382.000; -202.000
322.363;  -28.725; -320.000; -215.000
322.499;  -48.175; -343.000; -331.000
322.635;  144.125;  636.000;  443.000
322.771;   21.425; -139.000;   12.000
322.907;   86.225;  129.000;  327.000
323.043;  -19.525; -115.000; -206.000
323.179;  -39.400; -394.000; -363.000
323.315;    5.875; -401.000; -371.000
323.451;   60.300; -328.000; -236.000
323.587;   57.450;  -60.000;  -77.000
323.723;    6.150; -682.000; -601.000
323.859;   -8.275; -258.000;  -76.000
323.995;  -40.275; -467.000; -409.000
324.131; -120.650; -967.000; -892.000
324.267;  -53.500; -254.000; -276.000
324.402; -132.200; -960.000; -983.000
324.538;  -20.025; -279.000; -104.000
324.674;   11.450;  164.000;   77.000
324.810;  100.400;  226.000;  308.000
324.946;    4.350; -810.000; -658.000
325.082;  -77.625; -568.000; -475.000
325.217;  -25.600;  -62.000;   16.000
325.353; -107.250; -764.000; -659.000
325.489;  -83.075; -540.000; -506.000
325.625;  -78.775; -579.000; -525.000
325.760;   63.350;  517.000;  376.000
325.896;  -11.550; -515.000; -702.000
326.032;  -61.250; -403.000; -352.000
326.168;  -64.075; -462.000; -369.000
326.303;  -67.600; -352.000; -461.000
326.439;  -34.725; -336.000; -276.000
326.575;   -6.950; -190.000;  -29.000
326.710;  -10.975; -156.000;  -30.000
326.846;  -19.425;  146.000;  103.000
326.982;  -94.475; -530.000; -548.000
327.117;  -89.250; -481.000; -442.000
327.253;  -98.625; -745.000; -742.000
327.388; -131.275;-1137.000;-1153.000
327.524;  -72.825; -811.000; -578.000
327.659;  -28.900;  -58.000;  -22.000
327.795;  -18.150;   69.000;   45.000
327.931;  -75.475; -723.000; -499.000
328.066;  -32.775; -417.000; -276.000
328.202;  -13.800;   12.000; -129.000
328.337;   98.600;  957.000;  713.000
328.473;   31.100;  -12.000;  -74.000
328.608;  -39.475; -256.000; -267.000
328.743;  -89.000; -799.000; -664.000
328.879;    3.525;  214.000;  114.000
329.014;  -42.175; -102.000; -122.000
329.150;  -90.325; -358.000; -483.000
329.285;  -75.450; -465.000; -466.000
329.421;  -61.075; -548.000; -246.000
329.556;  -32.425;  -36.000;   85.000
329.691;  -93.475; -633.000; -615.000
329.827;  -74.050; -626.000; -480.000
329.962;  -49.075;  131.000; -301.000
330.097;  -91.975; -673.000; -585.000
330.233;  -62.150; -410.000; -223.000
330.368; -122.600; -839.000; -628.000
330.503;  -20.525;    3.000;   98.000
330.638;   -6.175;  -93.000; -125.000
330.774;  -56.675; -609.000; -530.000
330.909;  -44.100; -434.000; -244.000
331.044; -110.125; -714.000; -708.000
331.179; -188.350;-1217.000;-1109.000
331.315;   -1.525;   77.000;   20.000
331.450;    1.325;  157.000;  285.000
331.585;  -98.975; -805.000; -706.000
331.720;  -91.700; -510.000; -460.000
331.855;  -13.075;  -35.000; -102.000
331.990;  257.700;   62.000;  138.000
332.126;  126.725; -110.000;   71.000
332.261;   -7.075; -379.000; -265.000
332.396;   -3.000; -135.000; -242.000
332.531;  -90.250;-1074.000;-1031.000
332.666;   54.825; -519.000; -363.000
332.801; -109.575; -726.000; -807.000
332.936;  -31.500; -192.000; -122.000
333.071; -135.250; -870.000; -817.000
333.206;   13.900;  307.000;  379.000
333.341;    4.725;  344.000;  418.000
333.476;  -89.000; -627.000; -623.000
333.611;  -34.825; -251.000; -173.000
333.746;  -67.425; -381.000; -464.000
333.881; -118.725; -973.000; -935.000
334.016; -127.600; -936.000; -917.000
334.151; -122.475; -746.000; -702.000
334.286;    9.675;  152.000;  186.000
334.421;  -22.350; -125.000; -178.000
334.556;  -89.525; -611.000; -567.000
334.690;  -97.625; -631.000; -577.000
334.825;   37.800;  381.000;   83.000
334.960;  -61.775; -285.000; -413.000
335.095;    1.775;  135.000;  -91.000
335.230; -103.250; -722.000; -738.000
335.365; -140.850;-1084.000; -990.000
335.499; -122.125;-1108.000;-1037.000
335.634;   13.150;    9.000;  534.000
335.769; -112.575; -755.000; -720.000
335.904;  -69.250; -603.000; -561.000
336.038;  -50.925; -735.000; -657.000
336.173; -137.925;-1206.000;-1194.000
336.308;    1.275; -116.000; -189.000
336.443;   -3.200; -544.000; -634.000
336.577;  -70.925; -936.000; -787.000
336.712;   60.450;   -4.000;  -12.000
336.847;  -43.325; -724.000; -607.000
336.981;   44.825; -272.000; -208.000
337.116;  245.850;  615.000;  501.000
337.250;  123.150; -434.000; -421.000
337.385;  262.850; -297.000; -208.000
337.520;  103.700; -632.000; -603.000
337.654;  -41.900; -215.000; -126.000
337.789; -126.300; -989.000; -933.000
337.923;  -38.250; -104.000; -205.000
338.058; -103.500; -673.000; -738.000
338.192;  -27.750; -611.000; -488.000
338.327;  -19.375;  -18.000; -155.000
338.461;  -62.550; -299.000; -469.000
338.596;  -99.950; -780.000; -638.000
338.730;  -98.925; -767.000; -803.000
338.865;   87.375;  -46.000; -140.000
338.999;  -33.175; -846.000; -702.000
339.134;  -35.100; -634.000; -536.000
339.268;   11.375; -741.000; -603.000
339.403;  364.375; -740.000; -775.000
339.537;  131.850; -894.000; -820.000
339.671; -119.525; -829.000; -813.000
339.806;  -53.575; -556.000; -512.000
339.940;   15.500; -261.000; -235.000
340.074;  -98.200; -685.000; -510.000
340.209;  -58.475; -351.000; -230.000
340.343;  -94.675; -517.000; -573.000
340.477;  130.900;  998.000; 1036.000
340.612;  -47.450;-1033.000; -900.000
340.746;  146.400; -199.000; -243.000
340.880;  -70.550; -924.000; -785.000
341.014;  -28.500;  -45.000; -154.000
341.149; -121.900; -756.000; -718.000
341.283; -108.625; -839.000; -754.000
341.417;  -99.150;-1124.000; -938.000
341.551;   83.900; -768.000; -708.000
341.685;  -33.250; -633.000; -611.000
341.820;  -57.425; -562.000; -493.000
341.954;  -44.275; -218.000; -349.000
342.088; -156.275;-1102.000;-1019.000
342.222;   59.800;  565.000;  618.000
342.356;  -63.300; -395.000; -335.000
342.490;  -92.650; -880.000; -841.000
342.624;  -48.450; -339.000; -242.000
342.758;  -20.900; -364.000; -312.000
342.892;  -64.700; -710.000; -585.000
343.026;  -40.575;  -58.000; -116.000
343.160;  -67.550; -426.000; -376.000
343.294;  -89.375; -474.000; -337.000
343.428;  -23.100; -488.000; -448.000
343.562;  -14.525; -172.000;  -23.000
343.696;  -33.475; -385.000; -314.000
343.830;  -28.700; -362.000; -356.000
343.964;   15.650; -231.000; -168.000
344.098;  834.950;  199.000;   70.000
344.232;  673.675; -266.000; -127.000
344.366;   88.700; -567.000; -453.000
344.500;   31.150; -665.000; -744.000
344.634;   27.375; -324.000; -164.000
344.768;  -32.175; -531.000; -341.000
344.902;   13.625;  278.000;  256.000
345.035;  -79.825; -556.000; -496.000
345.169; -125.925; -933.000; -656.000
345.303;  -22.075; -308.000; -482.000
345.437;  -65.475; -826.000; -717.000
345.571;  -71.050; -675.000; -594.000
345.704;  -66.500; -309.000; -532.000
345.838;  -24.000; -331.000; -284.000
345.972;  -38.225; -543.000; -495.000
346.106;  154.250; -179.000; -190.000
346.239;  415.525; -312.000; -243.000
346.373;  -21.675; -343.000; -302.000
346.507; -137.725; -950.000; -962.000
346.640;  110.150;  -30.000;   13.000
346.774;  -46.650; -650.000; -797.000
346.908;  -29.825; -138.000;  -11.000
347.041; -104.325; -646.000; -593.000
347.175;    9.175;  259.000;   27.000
347.309;  -82.050; -698.000; -628.000
347.442; -109.050; -883.000; -732.000
347.576;  255.650;  670.000;  668.000
347.709;  155.925; -123.000;  -52.000
347.843;  -88.575; -933.000; -825.000
347.976;   21.650;  235.000;  294.000
348.110; -176.700;-1268.000;-1186.000
348.243; -117.350; -679.000; -772.000
348.377;   -5.850;  -26.000;   60.000
348.510;   40.225;  403.000;  540.000
348.644;  -54.875;  -37.000; -159.000
348.777;  -13.875;  180.000;  191.000
348.911;  -55.025; -142.000; -112.000
349.044;  145.050;  471.000;  448.000
349.178;  119.275;-1069.000;-1006.000
349.311;   96.100;  141.000;  255.000
349.444;  -10.625; -927.000; -813.000
349.578;  -28.625; -347.000; -200.000
349.711; -101.825; -959.000; -862.000
349.845;  -14.250; -661.000; -591.000
349.978; -151.475;-1224.000;-1137.000
350.111;  -94.825; -546.000; -612.000
350.244;  -80.675; -596.000; -700.000
350.378;   -9.825; -392.000; -393.000
350.511;  -82.225; -393.000; -426.000
350.644; -111.325; -808.000; -806.000
350.778;    1.375;  168.000;  104.000
350.911;  -23.700;  134.000;  140.000
351.044;  -91.175; -685.000; -615.000
351.177;  -44.375; -321.000; -281.000
351.310;  -41.200;    3.000; -131.000
351.444;  -87.075; -888.000; -788.000
351.577;  103.975;  140.000;   90.000
351.710;   67.875;  593.000;  417.000
351.843;  -34.150; -165.000;  -77.000
351.976;  -15.575;  149.000;  -79.000
352.109;  -89.550; -621.000; -612.000
352.242;  -41.175; -464.000; -419.000
352.376;  -81.675; -580.000; -636.000
352.509;  140.800; -437.000; -356.000
352.642;  -15.775; -654.000; -604.000
352.775;   44.025; -141.000;  -98.000
352.908; -131.250; -933.000; -904.000
353.041; -109.050; -814.000; -824.000
353.174;  -72.275; -551.000; -424.000
353.307;  -83.300; -753.000; -764.000
353.440;   57.050;  541.000;  453.000
353.573; -125.300; -957.000;-1008.000
353.706;  -60.350; -384.000; -558.000
353.839;  -33.025; -264.000; -220.000
353.971;  -99.100; -657.000; -512.000
354.104; -100.500; -896.000; -835.000
354.237;  -38.750; -627.000; -662.000
354.370;  -91.550; -846.000; -879.000
354.503; -172.600;-1231.000;-1308.000
354.636;  -47.675; -529.000; -348.000
354.769; -121.525; -937.000; -860.000
354.902;  -27.500; -230.000; -139.000
355.034;  -18.825; -164.000; -220.000
355.167;  -30.175; -262.000; -162.000
355.300;  -85.100;-1061.000; -880.000
355.433;  999.950;  -71.000;  -14.000
355.565; 1605.800; -402.000; -384.000
355.698;  405.500; -356.000; -296.000
355.831;    4.100; -882.000; -801.000
355.964;   76.075; -285.000; -170.000
356.096;  -90.850; -856.000; -843.000
356.229;  -13.800; -523.000; -530.000
356.362;  332.250; -373.000; -266.000
356.494;  615.275; -229.000; -162.000
356.627;  443.450;  269.000;  377.000
356.760;  659.425;  120.000;   53.000
356.892; 1005.200; -286.000; -601.000
357.025;  616.500;  403.000;  389.000
357.157;  563.525; -167.000; -179.000
357.290;  683.900; -856.000; -713.000
357.423;  202.750; -667.000; -556.000
357.555;   90.625; -217.000; -228.000
357.688;  116.975; -483.000; -364.000
357.820;  419.550; -870.000; -877.000
357.953; 3487.650; -563.000; -589.000
358.085;  752.300; -632.000; -612.000
358.218;  988.800;-1131.000; -932.000
358.350;  191.075;  -58.000;  312.000
358.483; -118.425;-1300.000;-1187.000
358.615;  -36.650;-1182.000;-1078.000
358.747;  -73.300;-1187.000;-1058.000
358.880;    1.225; -810.000; -744.000
359.012;  -15.350; -376.000; -202.000
359.145;  -38.200; -480.000; -511.000
359.277;   41.775; -962.000; -913.000
359.409; 2850.075;  536.000;  231.000
359.542;  776.100; -738.000; -688.000
359.674;   57.075;   46.000;   13.000
359.806;  -66.625; -565.000; -438.000
359.939;  -45.300; -617.000; -516.000
360.071;    3.600; -583.000; -579.000
360.203;  -37.600; -411.000; -364.000
360.335;   48.450;  164.000;  -16.000
360.468;  169.700; -249.000; -307.000
360.600; 2350.075; -547.000; -454.000
360.732; 2980.150; -546.000; -423.000
360.864;  414.425;-1216.000;-1044.000
360.996;  245.825; -516.000; -554.000
361.129;   29.800; -389.000; -598.000
361.261;   21.625;  110.000; -113.000
361.393;  -32.875; -252.000; -214.000
361.525;   17.700;   94.000;  244.000
361.657;  -47.225; -821.000; -703.000
361.789;    2.400; -139.000; -155.000
361.921;  207.350; -642.000; -593.000
362.053;  233.450;  524.000;  541.000
362.185;   38.700;  288.000;   72.000
362.318;  -80.875; -709.000; -705.000
362.450;   80.850;  294.000;  444.000
362.582;   62.300; -913.000; -870.000
362.714;  -33.650; -353.000; -332.000
362.846;  -90.800; -606.000; -490.000
362.978; -147.875; -941.000; -811.000
363.109;   40.825; -161.000; -260.000
363.241;  395.000; -739.000; -749.000
363.373;  461.650; -649.000; -564.000
363.505;  719.475; -186.000;  -91.000
363.637;  150.200; -787.000; -601.000
363.769; -101.925;-1067.000;-1080.000
363.901;  -60.100; -596.000; -654.000
364.033; -124.550;-1103.000;-1062.000
364.165;   -8.200; -283.000; -283.000
364.296;   85.500; -316.000; -177.000
364.428;   84.100;-1344.000;-1220.000
364.560;  -65.450; -679.000; -661.000
364.692;  -63.975; -738.000; -835.000
364.824;  222.450; -588.000; -456.000
364.955;  443.775; -402.000; -564.000
365.087;  992.750;-1097.000; -852.000
365.219;   35.675; -686.000; -816.000
365.351;  -62.650; -526.000; -572.000
365.482;   51.450;  300.000;  240.000
365.614;  -60.375; -402.000; -314.000
365.746;  -95.350; -729.000; -752.000
365.877;  -93.075; -706.000; -672.000
366.009;  279.875;  -35.000;  -62.000
366.141;  -79.650;-1249.000;-1134.000
366.272; -107.625; -803.000; -719.000
366.404; -116.200;-1005.000; -874.000
366.535;  -22.550; -139.000;  -12.000
366.667; -111.625; -644.000; -649.000
366.799;   14.475;  353.000;  203.000
366.930; -119.300; -862.000; -996.000
367.062;  109.025; -639.000; -613.000
367.193;  167.250; -872.000; -842.000
367.325;  -64.450; -580.000; -684.000
367.456;   21.950; -246.000;   31.000
367.588;  162.625; -371.000; -318.000
367.719;   14.500;  -44.000;  -45.000
367.851;  -34.625; -222.000; -241.000
367.982;  -53.425; -875.000; -732.000
368.113;   71.375; -475.000; -358.000
368.245; -117.725; -960.000; -841.000
368.376;  -18.050; -254.000; -302.000
368.508;  -34.700; -188.000; -263.000
368.639; -144.850;-1166.000;-1034.000
368.770;  -39.675; -670.000; -589.000
368.902;  -69.550; -836.000; -926.000
369.033; -122.600; -906.000; -855.000
369.164;  -55.900; -720.000; -653.000
369.296; -109.425; -452.000; -601.000
369.427;  -10.650; -209.000; -144.000
369.558;  -58.150; -593.000; -377.000
369.689; -101.175; -721.000; -569.000
369.821; -123.600; -951.000; -845.000
369.952;   -9.400;   42.000; -108.000
370.083;  -42.325; -229.000; -108.000
370.214;  -91.500; -735.000; -650.000
370.345;   -6.225;   65.000;   81.000
370.477;  -90.525; -810.000; -790.000
370.608;  185.850; -328.000; -264.000
370.739;  -69.425;-1233.000;-1292.000
370.870;  -51.200;-1102.000; -923.000
371.001;   77.825; -378.000; -467.000
371.132;  -75.500; -754.000; -735.000
371.263;  -26.775;  -42.000; -148.000
371.394; -129.375; -841.000; -748.000
371.525;   20.675;  345.000;  225.000
371.657;  -83.925; -808.000; -670.000
371.788;   51.850;  103.000;  199.000
371.919;  149.350; -384.000; -304.000
372.050; 3286.725;  -91.000; -156.000
372.181;  987.325; -188.000; -294.000
372.311;  322.900;   42.000; -127.000
372.442;   26.100; -457.000; -451.000
372.573;  -24.100; -444.000; -340.000
372.704; -129.050;-1008.000; -980.000
372.835;   66.650; -228.000; -289.000
372.966;  -76.650; -646.000; -554.000
373.097;  -70.150; -575.000; -711.000
373.228;  -52.125; -717.000; -542.000
373.359;  105.850; -824.000; -536.000
373.490;  819.500; -881.000; -727.000
373.620; 1071.700;-1001.000; -803.000
373.751; 1581.275; -332.000; -396.000
373.882;  725.975; -663.000; -733.000
374.013;   42.075; -449.000; -262.000
374.143;  -49.875; -581.000; -659.000
374.274; -110.650; -987.000; -908.000
374.405;  147.775; -388.000; -276.000
374.536;  391.650; -526.000; -387.000
374.666; 1002.425; -759.000; -807.000
374.797;  194.125; -817.000; -868.000
374.928;  753.900; -710.000; -560.000
375.058;  818.075; -535.000; -500.000
375.189;   63.100;  -59.000;  -93.000
375.320; -104.625; -928.000;-1034.000
375.450;  -62.575; -625.000; -616.000
375.581;  -48.050; -526.000; -436.000
375.712;  -53.950; -574.000; -250.000
375.842;  243.550; -438.000; -415.000
375.973;  193.500; -554.000; -513.000
376.103;  -54.025; -665.000; -648.000
376.234;  -83.700; -531.000; -552.000
376.364;  -60.900; -944.000; -867.000
376.495;  288.725;  925.000;  529.000
376.625;  -15.375; -472.000; -485.000
376.756;   35.725; -709.000; -678.000
376.886;  -93.175;-1178.000;-1026.000
377.017;   54.650;-1048.000;-1061.000
377.147;  371.375; -786.000; -782.000
377.278;   57.600;  174.000;  228.000
377.408; -132.675; -801.000; -815.000
377.538;  -98.175; -707.000; -693.000
377.669;  -87.650; -537.000; -613.000
377.799;  -91.000; -645.000; -635.000
377.929;  -63.950; -610.000; -428.000
378.060; -130.225; -781.000; -847.000
378.190;  -67.875; -726.000; -531.000
378.320;  -63.050; -401.000; -406.000
378.451;  -23.300; -131.000;  -22.000
378.581;  -21.325;  -67.000; -110.000
378.711;  125.525; 1035.000;  866.000
378.841;  -26.650; -533.000; -675.000
378.972;  -93.725; -871.000; -751.000
379.102;   -3.400; -652.000; -579.000
379.232;  -31.350; -126.000;  -73.000
379.362; -109.500;-1001.000; -885.000
379.492;    4.625; -373.000; -424.000
379.623;   78.975;    0.000;  111.000
379.753;  -92.650;-1107.000; -974.000
379.883;  175.375;   59.000;  156.000
380.013;   -7.200;-1081.000;-1017.000
380.143; -100.875;-1097.000;-1056.000
380.273; -105.125; -985.000; -861.000
380.403;   -8.250; -344.000; -257.000
380.533;  -34.300; -651.000; -664.000
380.663;   55.125;  173.000;  128.000
380.793;  -93.425;-1027.000;-1074.000
380.923;  -36.275; -103.000;  -34.000
381.053; -100.425; -613.000; -623.000
381.183;  -48.050; -106.000; -248.000
381.313;   12.375; -656.000; -470.000
381.443;   11.800; -692.000; -473.000
381.573;  175.625; -402.000; -409.000
381.703;  249.550;-1249.000;-1095.000
381.833; -141.200;-1454.000;-1336.000
381.963;   85.675; -134.000;  -87.000
382.093; 1304.400; -925.000; -909.000
382.223;  414.475; -713.000; -602.000
382.353;  -23.575; -801.000; -608.000
382.482;  298.425;-1091.000; -964.000
382.612;  685.150; -872.000; -644.000
382.742;  394.750; -695.000; -622.000
382.872;  233.875; -565.000; -551.000
383.002;   51.325;  347.000; -132.000
383.131;  -36.150; -226.000; -160.000
383.261;  -43.100; -706.000; -768.000
383.391;  262.275; -552.000; -377.000
383.521; 3381.900;  451.000;  263.000
383.650;  891.225; -947.000; -904.000
383.780;   -4.375; -783.000; -656.000
383.910;  100.850;  880.000;  802.000
384.039;   -1.025; -794.000; -656.000
384.169;  175.150;-1205.000;-1017.000
384.299;  -38.775; -650.000; -662.000
384.428;  -92.725; -764.000; -680.000
384.558;  -55.575; -308.000; -275.000
384.687;  -45.350; -414.000; -334.000
384.817;    0.350;   75.000;   -2.000
384.947;   17.400; -234.000; -141.000
385.076;  264.425;  982.000;  912.000
385.206;   82.000;  369.000;  480.000
385.335;  -44.425; -549.000; -417.000
385.465;  -83.175; -655.000; -663.000
385.594;   99.125;  -53.000;  -44.000
385.724;  368.350; -868.000; -838.000
385.853;  107.475; -296.000; -270.000
385.982; 1181.150; -743.000; -787.000
386.112; 1978.375;-1052.000; -871.000
386.241;  148.400; -307.000; -312.000
386.371;    5.650; -174.000;  -87.000
386.500;    6.625; -825.000; -789.000
386.629;   20.400; -874.000; -817.000
386.759;   62.900;  -43.000;   68.000
386.888;  -15.300; -170.000; -250.000
387.017;  -89.925; -648.000; -620.000
387.147;  -96.175; -771.000; -798.000
387.276;   -7.100; -410.000; -397.000
387.405;   -6.825; -398.000; -342.000
387.535;  -40.325; -452.000; -361.000
387.664;  -69.125; -692.000; -620.000
387.793;   52.125; -198.000; -113.000
387.922;  460.925;  255.000;  200.000
388.052;   28.650; -576.000; -423.000
388.181;  -11.425; -342.000; -472.000
388.310;  -11.400; -889.000; -710.000
388.439;  -64.875; -749.000; -742.000
388.568;  159.175;  365.000;  244.000
388.697;  924.050; -756.000; -653.000
388.826;  195.225; -768.000; -666.000
388.956;   37.725; -285.000; -307.000
389.085;  -45.275; -347.000; -287.000
389.214; -113.850; -842.000; -872.000
389.343;  -65.000; -645.000; -413.000
389.472;  398.550;  126.000;  149.000
389.601;  516.800;   91.000;    0.000
389.730;   14.475; -568.000; -687.000
389.859;   45.025;  226.000;   46.000
389.988;  152.975; -423.000; -408.000
390.117;  124.100; -168.000; -146.000
390.246;  -25.150; -331.000; -320.000
390.375;   79.800; -673.000; -626.000
390.504;  -59.425; -703.000; -621.000
390.633; -100.950; -672.000; -726.000
390.761;  -74.900; -732.000; -645.000
390.890;   -6.825;   -4.000; -130.000
391.019;  -51.150; -421.000; -441.000
391.148; -126.875; -826.000; -855.000
391.277;  -81.825; -576.000; -493.000
391.406;  -95.300; -821.000; -805.000
391.534;   28.400;  574.000; -301.000
391.663;  -77.900; -583.000; -645.000
391.792;  -98.950; -673.000; -701.000
391.921;   67.775;   -3.000;   15.000
392.050;  135.725; -287.000; -228.000
392.178;  -49.875;-1206.000;-1061.000
392.307;  117.225; -758.000; -712.000
392.436;   66.300; -427.000; -641.000
392.564;    3.375;  166.000;   -6.000
392.693;  -96.475; -860.000; -682.000
392.822;  158.175; -529.000; -534.000
392.950;   86.675; -880.000; -714.000
393.079;  257.325; -188.000; -328.000
393.208;   16.025; -488.000; -511.000
393.336;  -17.575; -170.000; -145.000
393.465;  -38.700; -317.000; -199.000
393.593;  -11.400;   62.000;   79.000
393.722; -149.400;-1121.000; -916.000
393.850;  -53.950; -188.000;  -61.000
393.979; -147.375; -926.000; -805.000
394.107;  -66.050; -517.000; -537.000
394.236;  -25.850; -570.000; -507.000
394.364;  204.325;  383.000;  206.000
394.493;  366.975; -911.000; -767.000
394.621;    8.400; -955.000; -916.000
394.750;  756.325; -873.000; -923.000
394.878; 3065.275; -247.000; -149.000
395.007; 4350.225; -721.000; -807.000
395.135;  361.300; -790.000; -721.000
395.263;  -90.325;-1038.000;-1040.000
395.392;   -4.350;  -25.000; -107.000
395.520; -133.200; -818.000; -679.000
395.648; -110.625; -865.000; -915.000
395.777;  -30.100; -366.000; -405.000
395.905;  -41.700; -449.000; -564.000
396.033;   16.900;  217.000;  172.000
396.162;  571.000; -399.000; -453.000
396.290;  549.625;  -17.000;   -2.000
396.418;   89.875; -555.000; -514.000
396.546;  -79.825; -571.000; -466.000
396.674; -102.100; -850.000; -878.000
396.803;   -9.525;  -72.000;  -23.000
396.931;   70.400; -179.000; -199.000
397.059;   27.800;-1026.000; -989.000
397.187; -123.150;-1026.000; -975.000
397.315; -140.875; -884.000; -649.000
397.443;  -99.650; -592.000; -443.000
397.572;  -85.350; -578.000; -424.000
397.700;  -29.450; -607.000; -614.000
397.828;    3.775;  120.000;  -90.000
397.956;  -52.325; -508.000; -478.000
398.084;  -61.550; -767.000; -626.000
398.212;   13.875;  137.000;  124.000
398.340;   13.100;  -56.000;  159.000
398.468;    5.050; -390.000; -169.000
398.596; -133.100; -993.000; -953.000
398.724; -136.900; -762.000; -767.000
398.852; -160.425;-1024.000; -976.000
398.980;  -69.200; -560.000; -560.000
399.108;  -52.825; -982.000; -735.000
399.236;   15.625;   13.000;    8.000
399.363;   13.625;  222.000;  196.000
399.491;  -86.075; -404.000; -398.000
399.619; -132.950; -829.000; -800.000
399.747; -103.575; -859.000; -771.000
399.875;   63.150;  220.000;  234.000
400.003;  -57.425; -359.000; -284.000
400.130;  -90.675; -421.000; -341.000
400.258;  -37.100;  -83.000;   38.000
400.386;  -60.350; -352.000; -168.000
400.514;  -53.025; -526.000; -587.000
400.641;  -96.975; -928.000; -802.000
400.769; -139.625; -979.000; -888.000
400.897; -120.400; -838.000; -793.000
401.025;  -26.000; -166.000; -152.000
401.152;  -18.975;  220.000;   38.000
401.280;  -84.250; -430.000; -429.000
401.408; -121.625; -712.000; -576.000
401.535; -104.600; -735.000; -758.000
401.663; -198.375;-1134.000;-1054.000
401.790;  -83.600; -514.000; -525.000
401.918;   27.425;  436.000;  405.000
402.046;  -22.250;  134.000;  122.000
402.173;  -49.175;  -18.000;    7.000
402.301;  -87.550; -519.000; -397.000
402.428;   24.925;  528.000;  383.000
402.556; -143.100;-1188.000; -913.000
402.683;  -45.025;  -20.000;   -1.000
402.811;  -46.375;  -37.000; -206.000
402.938;  -20.950;   20.000;   27.000
403.066;  152.850; -574.000; -558.000
403.193;  290.425;  299.000;  239.000
403.321;  207.350; -396.000; -574.000
403.448;  282.975;   83.000;   27.000
403.575;  121.975;  -90.000;  -46.000
403.703; -106.925; -732.000; -557.000
403.830;  -68.425; -531.000; -496.000
403.957; -131.250;-1117.000;-1023.000
404.085;    2.600;  -61.000; -172.000
404.212;  101.675;  -50.000;   63.000
404.339;  261.775; -566.000; -306.000
404.467; 5936.475; -612.000; -524.000
404.594; 4106.775; -287.000; -227.000
404.721;  956.475; -869.000; -764.000
404.848;   85.225; -113.000; -202.000
404.976; -100.775; -856.000; -783.000
405.103;   11.175;  -14.000;  -82.000
405.230;   -9.425;  190.000;  226.000
405.357;   31.375;  117.000;   44.000
405.484;  271.875;  -49.000;    5.000
405.612;   49.150; -548.000; -563.000
405.739;  -67.000; -488.000; -243.000
405.866;   66.175;  669.000;  385.000
405.993;  -49.950; -398.000; -102.000
406.120; -135.450; -801.000; -887.000
406.247;  -66.925; -323.000; -342.000
406.374;  374.200;  540.000;  629.000
406.501;   85.175; -632.000; -702.000
406.628;  -76.300; -621.000; -589.000
406.755; -114.525; -803.000; -620.000
406.882;  -53.875; -228.000; -277.000
407.009; -107.400; -719.000; -628.000
407.136;   35.325; -480.000; -401.000
407.263;  109.325; -939.000; -829.000
407.390;  -81.850; -692.000; -614.000
407.517; -170.350;-1139.000;-1187.000
407.644;  -72.350; -332.000; -256.000
407.771;  -66.350; -249.000; -287.000
407.898;   -6.150;  168.000;  328.000
408.025;  -62.400; -421.000; -313.000
408.151;   -4.800;   82.000;  153.000
408.278;  -84.100; -267.000; -216.000
408.405; -121.975; -931.000; -899.000
408.532;  -69.825; -549.000; -542.000
408.659; -124.300; -677.000; -648.000
408.785; -197.000;-1298.000;-1170.000
408.912;  -75.850; -412.000; -296.000
409.039; -110.600; -610.000; -686.000
409.166; -105.550; -591.000; -555.000
409.292; -116.925; -571.000; -534.000
409.419; -111.725; -665.000; -649.000
409.546;  -88.625; -431.000; -192.000
409.672; -113.450; -713.000; -545.000
409.799;  -16.750;  -36.000;   34.000
409.926;  -48.750; -180.000; -179.000
410.052; -167.100;-1127.000;-1091.000
410.179;  -54.750; -368.000; -392.000
410.305;  -84.175; -375.000; -493.000
410.432;  -52.325; -220.000; -333.000
410.558;  -92.900; -305.000; -380.000
410.685; -109.900; -688.000; -431.000
410.812; -101.650; -409.000; -588.000
410.938; -150.150; -964.000; -808.000
411.065;  -92.300; -671.000; -645.000
411.191;  -32.925; -189.000; -174.000
411.317; -119.475; -823.000; -742.000
411.444;  -60.050; -317.000; -246.000
411.570;  -71.225; -339.000; -294.000
411.697; -145.475; -758.000; -752.000
411.823; -172.750; -989.000; -999.000
411.949;  -30.750;  -56.000;   17.000
412.076; -108.125; -539.000; -519.000
412.202; -113.925; -758.000; -757.000
412.329; -130.575; -798.000; -752.000
412.455; -122.725; -821.000; -657.000
412.581;  -23.025;  -15.000;  172.000
412.707;  -72.025; -540.000; -457.000
412.834;   -0.900;  156.000;  219.000
412.960;  -98.700; -785.000; -784.000
413.086; -103.425; -743.000; -701.000
413.212;  126.375;  604.000;  578.000
413.339;  -71.250; -685.000; -701.000
413.465;  -22.275; -364.000; -310.000
413.591;  -89.475; -757.000; -474.000
413.717;  -57.600; -358.000; -366.000
413.843; -136.150; -839.000; -861.000
413.969;  -64.225;  -47.000; -292.000
414.096;  -97.025; -679.000; -679.000
414.222;   -8.250;  -33.000;   85.000
414.348;  -48.150; -652.000; -385.000
414.474;   88.550;   38.000;  -52.000
414.600;  -15.800; -126.000; -144.000
414.726;  -16.725;  -96.000;  -55.000
414.852;  -57.400; -365.000; -342.000
414.978;   37.175;  104.000;  -18.000
415.104;   22.975;   38.000;   80.000
415.230;   12.100; -329.000; -330.000
415.356;   36.200; -409.000; -514.000
415.482;  203.350;   13.000;  -35.000
415.608;  281.325; -247.000; -323.000
415.734;  999.025;   67.000;   38.000
415.860;20307.600; -875.000; -767.000
415.986;16327.475; -685.000; -607.000
416.111; 1478.350; -798.000; -652.000
416.237;  297.950; -424.000; -571.000
416.363; 1118.700; -765.000; -733.000
416.489; 4572.800; -324.000; -251.000
416.615;  583.325; -707.000; -742.000
416.741;   -8.050; -677.000; -784.000
416.866;  -94.575; -673.000; -736.000
416.992; -119.200; -801.000; -818.000
417.118;  -36.725;  -41.000;  -80.000
417.244;  -85.125; -798.000; -531.000
417.369;  -81.400; -801.000; -612.000
417.495;  -24.525; -325.000; -254.000
417.621;  -74.350;-1015.000; -803.000
417.746;    8.275; -579.000; -572.000
417.872;   45.450; -254.000; -144.000
417.998;   54.850; -515.000; -530.000
418.123; 1016.725;-1073.000; -845.000
418.249; 5811.725; -512.000; -601.000
418.374;  924.125; -916.000; -824.000
418.500;  109.575; -383.000; -482.000
418.626;  116.900;   70.000;  -59.000
418.751;  106.900; -549.000; -448.000
418.877;  232.175; -637.000; -643.000
419.002; 1791.450; -688.000; -560.000
419.128;13318.675; -930.000; -721.000
419.253; 3649.050; -967.000; -837.000
419.379;  474.975; -391.000; -338.000
419.504;  399.200;  325.000;  415.000
419.629;  546.025; -393.000; -212.000
419.755; 3519.725; -317.000; -254.000
419.880;22657.225;  -98.000;   67.000
420.006;12073.650; -280.000; -221.000
420.131;31837.850; -662.000; -775.000
420.256; 5091.550; -315.000; -316.000
420.382;  667.725; -665.000; -687.000
420.507;   79.875; -649.000; -778.000
420.632;  114.075; -337.000; -339.000
420.758;  192.600; -251.000; -425.000
420.883;  -79.900; -876.000; -672.000
421.008; -104.125; -775.000; -619.000
421.133;  -81.775; -509.000; -467.000
421.259;  -56.350; -325.000; -259.000
421.384; -113.225; -834.000; -693.000
421.509;  -65.975;-1052.000; -862.000
421.634;  902.650; -936.000; -820.000
421.759;  452.200; -359.000; -327.000
421.885;  -68.225; -717.000; -656.000
422.010;  -81.875; -673.000; -542.000
422.135; -149.725; -695.000; -727.000
422.260;   16.775;  340.000;  280.000
422.385;  -45.475;   12.000;  -98.000
422.510;   -0.950;  151.000;  -26.000
422.635;   10.825;  -87.000;  -43.000
422.760;  103.475; -766.000; -791.000
422.885;   51.675;  -57.000;  -80.000
423.010;  -41.675; -112.000; -169.000
423.135;  -88.225; -481.000; -561.000
423.260;  -36.825; -150.000; -245.000
423.385;   58.275;  476.000;  222.000
423.510;   22.525;   71.000;  -22.000
423.635;   69.475;  133.000;   45.000
423.760;   62.650;  383.000;  328.000
423.885;   48.625;  336.000;  391.000
424.010;   11.850;  -68.000;  -13.000
424.135;  -23.200;    5.000;  -33.000
424.259;  -93.450; -654.000; -457.000
424.384;  -59.800; -279.000; -272.000
424.509;  -22.725; -260.000; -186.000
424.634; -100.100; -761.000; -623.000
424.759;  -31.925; -688.000; -544.000
424.883;    3.675; -506.000; -527.000
425.008;  154.000; -502.000; -410.000
425.133; 2037.800; -679.000; -653.000
425.258; 1084.325; -517.000; -381.000
425.382;  909.650; -867.000; -774.000
425.507; 2490.600; -487.000; -543.000
425.632;  471.125; -802.000; -663.000
425.756;  484.350; -256.000; -146.000
425.881; 6555.100; -831.000; -857.000
426.006;19574.400; -604.000; -355.000
426.130; 3327.650; -696.000; -508.000
426.255;  423.400; -611.000; -491.000
426.379;  201.550; -189.000; -577.000
426.504;  371.875;  660.000;  544.000
426.629; 4086.850; -519.000; -466.000
426.753; 3178.525;   64.000;  -46.000
426.878;  386.250; -252.000; -288.000
427.002;  196.725; -651.000; -668.000
427.127; 1549.450;  -35.000; -158.000
427.251;11926.925;  372.000;  401.000
427.375; 3852.650; -191.000; -173.000
427.500; 2125.375; -616.000; -610.000
427.624;  803.100; -234.000; -400.000
427.749;   89.200; -216.000; -225.000
427.873;  -33.425; -499.000; -412.000
427.997;  -43.300; -222.000; -230.000
428.122;   54.400;  795.000;  703.000
428.246;   56.250;  433.000;  434.000
428.371; -135.000; -869.000; -773.000
428.495; -111.650; -624.000; -646.000
428.619;  -30.550; -186.000; -117.000
428.743;   11.775;   65.000;  132.000
428.868;   -9.550; -732.000; -643.000
428.992; 1240.100; -219.000; -326.000
429.116;  552.550; -329.000; -357.000
429.240;  244.275;  419.000;  426.000
429.365;  -16.250; -454.000; -574.000
429.489;  -58.125; -638.000; -647.000
429.613;   26.825; -236.000; -177.000
429.737;   35.025; -563.000; -432.000
429.861;  272.475; -247.000; -133.000
429.985; 5587.175; -425.000; -305.000
430.109; 6886.975; -770.000; -908.000
430.234;  835.125;   76.000;  -50.000
430.358;   77.275; -250.000; -160.000
430.482;  -58.750; -672.000; -564.000
430.606;  -58.750; -655.000; -375.000
430.730;  -22.650; -437.000; -388.000
430.854;   94.550; -909.000; -835.000
430.978;  -66.175; -795.000; -764.000
431.102;  -79.850; -499.000; -422.000
431.226; -112.900; -874.000; -815.000
431.350;   32.550;  345.000;  422.000
431.474;  -83.225; -661.000; -373.000
431.597; -147.800;-1060.000; -848.000
431.721;  -88.200; -276.000; -267.000
431.845; -125.175; -704.000; -472.000
431.969;  -84.575; -304.000; -349.000
432.093;  -99.800; -395.000; -317.000
432.217;  -38.125;   32.000;   82.000
432.341;  -92.850; -523.000; -518.000
432.464;   -3.275;   96.000;   40.000
432.588;  151.000; -401.000; -329.000
432.712;   94.300;  -52.000;  -52.000
432.836;   45.300;  213.000;  263.000
432.959;  -23.850; -372.000; -311.000
433.083;   97.150;   11.000;    2.000
433.207;  360.125;  285.000;  930.000
433.330; 5124.875; -391.000; -200.000
433.454; 6887.675; -654.000; -638.000
433.578; 3921.700;  583.000;  278.000
433.701;  816.725; -623.000; -675.000
433.825;  148.200; -292.000; -299.000
433.949;  129.350;   28.000;  -72.000
434.072;   36.975; -410.000; -323.000
434.196;  -26.175; -309.000; -117.000
434.319; 3553.150;25482.000;25124.000
434.443;  666.150; -656.000; -603.000
434.566; 2861.850;  281.000;   62.000
434.690;  549.425; -637.000; -383.000
434.813;   68.950; -251.000; -173.000
434.937;  -84.650; -569.000; -696.000
435.060;  -53.275; -423.000; -332.000
435.184;  237.075; -492.000; -217.000
435.307;  136.325;  159.000;  102.000
435.431;  -10.700;  -40.000;   24.000
435.554;  -69.975; -399.000; -240.000
435.677;  -90.550; -350.000; -258.000
435.801;  -51.200;  -25.000;   49.000
435.924;  -27.025;    1.000;  -67.000
436.048; -130.425;-1019.000; -732.000
436.171;  -74.625; -240.000;  -66.000
436.294;  -20.475; -248.000; -229.000
436.417;  100.150; -963.000; -849.000
436.541;  -63.875; -814.000; -840.000
436.664;  -63.750; -242.000; -316.000
436.787;  -25.550;   13.000;  113.000
436.910; -116.125; -792.000; -422.000
437.034;  -13.250;  142.000;  143.000
437.157;    6.175;  -11.000;    0.000
437.280;  -59.875; -392.000; -292.000
437.403; -110.875; -982.000; -869.000
437.526;  434.800; -903.000; -865.000
437.649; 1851.200; -505.000; -332.000
437.772;  303.000; -692.000; -540.000
437.896;   90.725;  700.000;  544.000
438.019;  -98.925; -758.000; -503.000
438.142;  -81.525; -596.000; -506.000
438.265;  -38.650; -639.000; -670.000
438.388;  466.425; -520.000; -410.000
438.511;   80.150; -597.000; -394.000
438.634;  -51.550; -247.000; -125.000
438.757; -128.325; -693.000; -619.000
438.880;  -42.375;  -34.000;  -57.000
439.003;  -76.250; -417.000; -437.000
439.126;  -84.825; -287.000; -167.000
439.248;  -69.050;  -98.000; -139.000
439.371;  -45.475;    9.000;  -53.000
439.494;   30.800;  510.000;  439.000
439.617;  -67.950;   65.000;  -88.000
439.740; -170.050; -968.000; -816.000
439.863; -144.725; -755.000; -595.000
439.986; -120.000; -476.000; -431.000
440.108;  -65.725; -161.000; -112.000
440.231; -165.975; -950.000; -836.000
440.354;  -33.075;  -64.000; -150.000
440.477;   -0.925; -566.000; -542.000
440.599;  -10.725; -200.000; -225.000
440.722; -107.425; -709.000; -586.000
440.845;   59.625;  751.000;  928.000
440.968;  -99.525; -415.000; -311.000
441.090;  -69.500; -199.000;  -33.000
441.213; -172.025;-1021.000; -825.000
441.336;  -59.700; -159.000;   -5.000
441.458;  -94.400; -549.000; -396.000
441.581;  -98.325; -628.000; -629.000
441.703;  -71.100; -152.000;   13.000
441.826; -111.550; -557.000; -400.000
441.948;  -53.325;   56.000;   51.000
442.071;   -3.925;  555.000;  424.000
442.193; -113.075; -531.000; -485.000
442.316;    8.200;  152.000;   97.000
442.438;   54.425; -233.000;  -10.000
442.561;   51.275;  272.000;  262.000
442.683;  376.150; -809.000; -522.000
442.806;  973.725;   -8.000;   74.000
442.928;   23.600; -859.000; -604.000
443.051;  -72.825; -577.000; -373.000
443.173;  -97.950; -341.000; -339.000
443.295;  -98.050; -263.000; -371.000
443.418;  -83.800; -321.000;  -29.000
443.540;  -23.000; -106.000;   -4.000
443.662; -117.550; -563.000; -465.000
443.785;  -29.175;  335.000;  199.000
443.907;  -91.350; -362.000; -208.000
444.029; -143.325; -767.000; -494.000
444.152; -140.050; -644.000; -554.000
444.274;  -33.400;  -18.000;  -24.000
444.396; -119.300; -461.000; -221.000
444.518; -133.650; -691.000; -454.000
444.640; -101.850; -268.000; -111.000
444.763;  -21.575;  388.000;  249.000
444.885; -133.025; -432.000; -392.000
445.007;  -40.725;   35.000;   86.000
445.129; -121.300; -610.000; -515.000
445.251; -107.800; -372.000; -439.000
445.373; -128.350; -537.000; -386.000
445.495;  -15.650;  242.000;  350.000
445.617;   42.525;  853.000;  753.000
445.739;  -77.625; -215.000;  -97.000
445.861;  -51.875; -245.000; -112.000
445.984;  -48.700; -267.000; -101.000
446.105;  137.775; -418.000; -251.000
446.227;  504.750; -176.000;  -19.000
446.349;   -7.200; -358.000; -249.000
446.471;  -96.225; -615.000; -448.000
446.593;  -64.250; -316.000;   19.000
446.715;  -21.025;  -67.000;   41.000
446.837;   62.025;  697.000;  832.000
446.959;  -95.200; -457.000; -478.000
447.081; -129.125; -628.000; -518.000
447.203;   41.450;  862.000;  834.000
447.325;  -69.000; -270.000;   42.000
447.446;  -17.975;  286.000;  530.000
447.568; -146.125; -921.000; -803.000
447.690;  -79.475; -236.000; -245.000
447.812; -153.425; -798.000; -519.000
447.933;  -35.075;  155.000;  127.000
448.055;  -68.925; -306.000; -261.000
448.177;   98.300;   31.000;   79.000
448.299;   63.875; -935.000; -727.000
448.420;   19.175;  -25.000;  159.000
448.542;  -63.425;   -3.000;   33.000
448.664;  -31.825;  109.000;  322.000
448.785;  -32.050;  265.000;   83.000
448.907; -100.475; -614.000; -353.000
449.028;  -52.100; -771.000; -471.000
449.150;   51.800;  492.000;  589.000
449.272; -182.150;-1044.000; -913.000
449.393;   31.575;  612.000;  694.000
449.515; -144.050; -634.000; -581.000
449.636;  -65.600; -264.000; -155.000
449.758;   70.650;  763.000;  622.000
449.879; -104.425; -498.000; -396.000
450.001;  -74.600; -149.000;  -49.000
450.122;  -39.800;  -95.000;  162.000
450.244;  -27.025;   37.000;  364.000
450.365;  -89.125; -495.000; -301.000
450.486;  -23.550;   80.000;  268.000
450.608;   12.050;  393.000;  326.000
450.729;   54.450;  578.000;  645.000
450.850;   10.625; -574.000; -466.000
450.972;  757.650; -552.000; -389.000
451.093; 5138.800;  190.000;  588.000
451.214; 2553.375; -516.000; -337.000
451.336;  464.650;  773.000;  579.000
451.457;   68.925;  264.000;  393.000
451.578;  -41.400; -118.000;  -74.000
451.699; -121.125; -546.000; -540.000
451.821;  -74.150; -284.000;  -50.000
451.942;  -18.675;  278.000;  285.000
452.063;   28.175;  228.000;  419.000
452.184;  546.750;  -54.000;  -49.000
452.305; 1196.350;  103.000;  170.000
452.427;  192.025; -549.000; -301.000
452.548;  -16.625;   23.000;   79.000
452.669;  -59.750; -257.000;  -89.000
452.790;  -59.600;    3.000;  -18.000
452.911;  -10.300;  195.000;  259.000
453.032;  -74.975; -289.000;  -60.000
453.153;  -40.150;  -29.000;   81.000
453.274;   51.175;  737.000;  868.000
453.395;  -75.475;  -51.000;  175.000
453.516;  111.725; 1317.000; 1388.000
453.637;  -65.750; -205.000; -150.000
453.758;  -54.550;   15.000;   69.000
453.879; -124.300; -462.000; -250.000
454.000;   66.650; 1086.000;  948.000
454.121; -122.525; -554.000; -326.000
454.242; -114.025; -599.000; -383.000
454.362;  -54.625;  -99.000;  114.000
454.483;  -43.875; -309.000; -229.000
454.604;   44.925;  512.000;  580.000
454.725; -133.600; -627.000; -555.000
454.846; -145.750; -474.000; -406.000
454.967;  -44.275;  230.000;  539.000
455.087;  -40.350;  179.000;  153.000
455.208;   11.475;  554.000;  856.000
455.329;  -65.600;  -22.000;   82.000
455.450;   35.575;  473.000;  633.000
455.570;  -86.125; -234.000; -211.000
455.691;  -58.175;  201.000;  407.000
455.812; -117.650; -270.000;  -92.000
455.932;  -65.475;  107.000;  -97.000
456.053;  -77.350;   36.000;   24.000
456.173; -114.525; -433.000; -355.000
456.294; -117.425; -476.000; -303.000
456.415;  -72.175;  -73.000;   70.000
456.535;  -48.075;  297.000;  273.000
456.656;  -41.550;  132.000;  240.000
456.776;  -70.775;    3.000;  298.000
456.897;  -20.625;  308.000;  513.000
457.017;  -67.775; -153.000;   -3.000
457.138; -100.850; -402.000; -249.000
457.258;  -36.850;  263.000;  224.000
457.379;  -29.525;  509.000;  521.000
457.499;  -39.875;  443.000;  432.000
457.620; -116.150; -407.000; -231.000
457.740; -101.600; -132.000;  -11.000
457.860;  -61.225;   87.000;   44.000
457.981;  -57.175;  132.000;  124.000
458.101;  -70.675;  -89.000;   40.000
458.221;  -27.000;  336.000;  402.000
458.342;  -68.475;   -4.000;  -37.000
458.462;   22.975;  617.000;  352.000
458.582;  -39.700; -302.000; -294.000
458.703;    4.575;  303.000;  154.000
458.823;  -32.875;   22.000;  163.000
458.943;   25.200;  341.000;  467.000
459.063;  -11.225; 1124.000;  192.000
459.183;  -23.450;  328.000;  313.000
459.304;  -11.675;  315.000;  517.000
459.424;  -63.450; -246.000;  -89.000
459.544;  311.900;  388.000;  764.000
459.664;  890.375;  499.000;  506.000
459.784;  354.225; 1004.000; 1175.000
459.904;   54.075;  867.000;  744.000
460.024;   65.250;  867.000;  684.000
460.144;   11.375;  449.000;  554.000
460.264;  -20.600;  515.000;  327.000
460.385;  -86.825; -145.000; -119.000
460.505;   22.800;  905.000;  858.000
460.625;  -88.325;  -17.000;  -68.000
460.745;  -28.925;  396.000;  541.000
460.864;  -47.425;  153.000;  469.000
460.984;    4.450;  499.000;  573.000
461.104;  143.350; 1656.000; 1775.000
461.224;   13.850;  657.000;  650.000
461.344;  -32.600;  431.000;  360.000
461.464;  -50.300;  258.000;  513.000
461.584;   -2.850;  283.000;  466.000
461.704;  -54.650;   58.000;  108.000
461.824;  -60.275;  238.000;  259.000
461.943;  -46.625;  191.000;  130.000
462.063;  -70.675;    2.000;  324.000
462.183;   24.650;  639.000;  717.000
462.303;  102.700; 1678.000; 1230.000
462.422;    8.025;  781.000;  840.000
462.542;  -42.275;  271.000;  391.000
462.662;   15.075;  353.000;  380.000
462.782;  242.150;  833.000;  572.000
462.901;  499.725;  545.000;  717.000
463.021;  312.325; 1702.000; 1638.000
463.141;    3.725;  337.000;  770.000
463.260;  -19.375;  614.000;  474.000
463.380;    5.700;  902.000;  884.000
463.499;  -51.825;  342.000;  332.000
463.619;  -34.475;  581.000;  559.000
463.738;   97.975; 1644.000;  903.000
463.858;   19.275;  657.000;  811.000
463.978;  -32.750;  542.000;  396.000
464.097;   56.950;  921.000; 1114.000
464.217;  117.450; 1196.000; 1143.000
464.336;  122.900; 1068.000; 1130.000
464.455;  -27.075;  328.000;  659.000
464.575;   19.475;  597.000;  602.000
464.694;  159.375; 1204.000; 1179.000
464.814;  126.575; 1190.000; 1138.000
464.933;   83.075; 1095.000; 1027.000
465.052;   81.800; 1412.000; 1054.000
465.172;   92.675;  922.000;  799.000
465.291;  123.225; 1376.000; 1320.000
465.410;    8.125;  462.000;  735.000
465.530;   76.900; 1355.000; 1310.000
465.649;   34.750; 1209.000; 1273.000
465.768;  124.575; 1673.000; 1508.000
465.888;   51.700;  941.000; 1174.000
466.007;   82.475; 1335.000; 1440.000
466.126;   -4.050;  721.000;  641.000
466.245;   36.850; 1176.000; 1187.000
466.364;   10.975;  950.000; 1060.000
466.484;   51.550; 1024.000; 1213.000
466.603;   26.675; 1101.000; 1222.000
466.722;  114.175; 1490.000; 1769.000
466.841;   75.525; 1151.000; 1401.000
466.960;   29.000; 1069.000;  972.000
467.079;  133.475; 1971.000; 1786.000
467.198;   45.475; 1238.000; 1181.000
467.317;   76.725; 1768.000; 1162.000
467.436;   70.700; 1709.000; 1261.000
467.555;  129.000; 1796.000; 1746.000
467.674;   76.475; 1227.000; 1329.000
467.793;   66.950; 1376.000; 1374.000
467.912;   80.050; 1658.000; 1539.000
468.031;  124.675; 2038.000; 1930.000
468.150;  136.275; 1842.000; 1837.000
468.269;  174.875; 2313.000; 2090.000
468.388;  185.000; 2168.000; 2339.000
468.507;  255.350; 2884.000; 2903.000
468.626;  250.775; 2555.000; 2541.000
468.744;  142.225; 2018.000; 2174.000
468.863;  189.400; 2312.000; 2523.000
468.982;   84.300; 1503.000; 1555.000
469.101;  220.350; 2788.000; 2692.000
469.220;  168.725; 2333.000; 2176.000
469.338;  242.900; 2935.000; 3051.000
469.457;  197.125; 2719.000; 2545.000
469.576;  322.875; 3953.000; 3784.000
469.695;  241.750; 2877.000; 3066.000
469.813;  409.550; 4148.000; 4192.000
469.932;  400.225; 4255.000; 4485.000
470.051;  425.175; 4075.000; 4161.000
470.169;  865.725; 4470.000; 4338.000
470.288; 1542.450; 4700.000; 4809.000
470.406;  943.550; 5059.000; 5194.000
470.525;  624.550; 6101.000; 5787.000
470.644;  630.800; 6847.000; 6794.000
470.762;  797.975; 8397.000; 7873.000
470.881;  897.725; 8651.000; 8464.000
470.999; 1037.775; 9685.000; 9151.000
471.118; 1088.975;11174.000;10711.000

