
Integration time [ms]: 100.000
Averaging Nr. [scans]: 40
Smoothing Nr. [pixels]: 0
Data measured with spectrometer [name]: 2101012U2
Wave   ;Sample   ;Dark     ;Reference
[nm]   ;[counts] ;[counts] ;[counts] 

197.733;   47.275;  516.000;  404.000
197.879;  -82.450; -610.000; -634.000
198.025;  -51.700; -475.000; -420.000
198.171;  -68.550; -602.000; -612.000
198.317;  -15.225; -401.000; -316.000
198.463;  -81.125; -655.000; -404.000
198.609;   31.900;  181.000; -137.000
198.755;  -76.225; -644.000; -410.000
198.901;  -74.475; -505.000; -424.000
199.047;  -78.125; -615.000; -488.000
199.193;  -42.900; -230.000; -468.000
199.339;  -32.400; -222.000; -369.000
199.485;   44.425;  330.000;  271.000
199.631;   24.775;  227.000;  310.000
199.777;  -49.825; -466.000; -398.000
199.923;  -68.975; -610.000; -424.000
200.069;   -4.575; -141.000;  -58.000
200.215;   55.525;  128.000;  453.000
200.361;   46.175;  243.000;  477.000
200.507;  -57.300; -600.000; -373.000
200.653;  -35.550; -371.000; -194.000
200.798;  -30.550; -215.000; -125.000
200.944;    0.300; -146.000;  -41.000
201.090;   20.650;   61.000;  222.000
201.236;   -3.500; -116.000; -158.000
201.382;  118.425;  874.000;  903.000
201.528;    3.600;  -58.000;  -48.000
201.674;  -58.125; -386.000; -293.000
201.819;  -51.725; -540.000; -439.000
201.965;  -82.400; -699.000; -447.000
202.111;  -14.775; -273.000; -226.000
202.257;  -33.175; -250.000; -238.000
202.402;    1.050;   13.000;  -36.000
202.548;  -31.225; -169.000; -116.000
202.694;   78.925;  410.000; -183.000
202.840;  -73.725; -603.000; -531.000
202.985;  -75.750; -681.000; -639.000
203.131; -120.200; -832.000; -666.000
203.277;  -18.525; -199.000; -262.000
203.423;  -62.750; -434.000; -520.000
203.568;  -46.275; -462.000; -237.000
203.714;  -63.425; -535.000; -542.000
203.860;  -79.950; -682.000; -641.000
204.005;   12.125;  112.000;  167.000
204.151;   58.575;  561.000;  556.000
204.296;  -51.450; -354.000; -221.000
204.442;  -67.525; -600.000; -547.000
204.588;  -77.775; -592.000; -579.000
204.733;   18.575;  178.000;  168.000
204.879; -122.925;-1018.000; -822.000
205.025;    6.675;  -99.000;  126.000
205.170;  -18.150;  -17.000;   94.000
205.316;   79.525;  438.000;  661.000
205.461;  -80.450; -698.000; -554.000
205.607;   81.125;  609.000;  665.000
205.752;  -83.250; -626.000; -551.000
205.898;  -58.425; -501.000; -391.000
206.043;  -70.275; -578.000; -506.000
206.189;  -29.800; -243.000; -285.000
206.334;   53.125;  554.000;  606.000
206.480;   87.075;  409.000;  239.000
206.625;  -80.850; -529.000; -552.000
206.771;  -47.750; -451.000; -373.000
206.916;  -35.750; -210.000; -537.000
207.062;  -68.025; -545.000; -591.000
207.207;  -66.750; -546.000; -443.000
207.353;   40.725;  185.000;  460.000
207.498;    8.500;  196.000;   85.000
207.643;  -48.575; -501.000; -370.000
207.789; -131.900;-1069.000; -910.000
207.934; -100.500; -665.000; -713.000
208.080;  -28.350; -154.000;   66.000
208.225;   -7.675;  -22.000;  -57.000
208.370;  -86.525; -727.000; -619.000
208.516;  -72.175; -741.000; -487.000
208.661;  -27.225; -127.000;  -69.000
208.806;  -18.350; -165.000; -171.000
208.952; -116.375;-1044.000; -731.000
209.097;   80.650;  378.000;  349.000
209.242;  -40.400; -307.000; -382.000
209.387;   59.875;  392.000;  350.000
209.533;  -57.100; -321.000; -350.000
209.678;   69.525;  472.000;  543.000
209.823;  -63.750; -408.000; -310.000
209.969; -113.800; -860.000; -757.000
210.114; -107.175; -907.000; -719.000
210.259; -125.300; -939.000; -889.000
210.404;  -10.900; -171.000;  103.000
210.549;   16.200;  108.000;    3.000
210.695;  -28.275;   -3.000;  -95.000
210.840;   28.700;   94.000;   67.000
210.985;  -72.225; -484.000; -303.000
211.130;   67.575;  268.000;  406.000
211.275;   13.225;  207.000;  199.000
211.420;  -55.250; -300.000; -289.000
211.566;  -79.225; -536.000; -489.000
211.711;   18.300;  218.000;  157.000
211.856;  -60.050; -545.000; -519.000
212.001;   12.450;  151.000;   44.000
212.146;   18.150;  153.000;   49.000
212.291;  -13.750; -210.000; -186.000
212.436;  -15.900; -280.000;   -6.000
212.581;  -85.375; -685.000; -653.000
212.726;  -63.500; -487.000; -538.000
212.871;  -42.900; -552.000; -217.000
213.016; -147.075;-1172.000;-1029.000
213.161;   54.475;  406.000;  291.000
213.306;  -69.500; -435.000; -577.000
213.451; -103.125; -778.000; -689.000
213.596;  -68.650; -455.000; -347.000
213.741;  -63.400; -448.000; -538.000
213.886;  -72.825; -498.000; -517.000
214.031;  -28.125; -294.000; -124.000
214.176;  -64.075; -408.000; -341.000
214.321;   -9.725; -296.000; -157.000
214.466;  -26.075; -163.000;  -43.000
214.611;   -5.150;  -61.000;  -10.000
214.756; -123.500; -948.000; -858.000
214.901;  -20.200; -388.000; -226.000
215.046; -126.050; -797.000; -825.000
215.191;   20.150;  128.000;   35.000
215.336;   -3.350; -157.000;  -19.000
215.480;  -62.425; -684.000; -505.000
215.625;   -4.850; -175.000;  -19.000
215.770;  -84.250; -757.000; -662.000
215.915;  -11.500;   -5.000;  -97.000
216.060;  -16.425; -113.000;  -21.000
216.205; -113.850; -731.000; -779.000
216.349;  -54.200; -470.000; -533.000
216.494; -135.550; -939.000; -867.000
216.639; -122.525; -823.000; -888.000
216.784;  -88.625; -577.000; -525.000
216.929;   40.625;  392.000;  281.000
217.073;  -12.600; -244.000;  -31.000
217.218;   -1.050;   78.000;  -47.000
217.363;  -92.025; -656.000; -618.000
217.507;  -79.975; -623.000; -588.000
217.652; -127.850; -845.000; -874.000
217.797;  -89.050; -708.000; -659.000
217.942; -111.975; -856.000; -720.000
218.086;   75.050;  608.000;  539.000
218.231;  -18.600; -174.000;  -26.000
218.376;  -25.575; -337.000; -229.000
218.520;   -2.400;  -41.000;   96.000
218.665;  -32.200; -338.000; -204.000
218.810;  -49.750; -275.000; -233.000
218.954;   15.025;  201.000;   35.000
219.099; -129.675; -713.000; -963.000
219.243;  -68.350; -589.000; -554.000
219.388;  -16.550; -264.000; -136.000
219.532;    4.875; -116.000; -116.000
219.677;  -81.225; -564.000; -521.000
219.822;   -1.600;   33.000;   89.000
219.966;    0.425;   17.000;  -99.000
220.111;  -23.400; -328.000;  -40.000
220.255; -104.825; -797.000; -750.000
220.400;  -21.500; -180.000; -146.000
220.544;  -76.600; -516.000; -450.000
220.689;  -47.300; -422.000; -451.000
220.833;  -26.350; -123.000;  -58.000
220.978;  -49.100; -393.000; -563.000
221.122;   25.350;  319.000;  307.000
221.267; -122.375; -906.000; -837.000
221.411;  -70.700; -478.000; -394.000
221.555;   -5.325; -104.000;  -23.000
221.700;  -51.300; -329.000; -222.000
221.844;   35.975;  255.000;  272.000
221.989;  -50.975; -328.000; -311.000
222.133;  -42.350; -289.000; -307.000
222.277;   -5.575;    5.000;   78.000
222.422;   16.575;  227.000;  113.000
222.566;  -28.125; -381.000; -214.000
222.711;  -59.075; -414.000; -479.000
222.855;  -73.675; -643.000; -586.000
222.999;  -91.425; -642.000; -717.000
223.144;  -40.500; -195.000; -194.000
223.288;   42.850;  423.000;  251.000
223.432;   35.225;  184.000;  230.000
223.576;   16.300;  152.000;  -21.000
223.721;   47.450;  364.000;  273.000
223.865;  -61.850; -472.000; -475.000
224.009;  207.800; 1673.000; 1631.000
224.153;  -89.425; -660.000; -671.000
224.298;  -77.750; -531.000; -489.000
224.442;   -4.450;  -74.000;  -33.000
224.586;  -25.450; -169.000; -106.000
224.730;  -87.100; -858.000; -670.000
224.875; -109.525; -739.000; -688.000
225.019;   -6.350;  102.000;  188.000
225.163;   51.300;  208.000;  341.000
225.307;   17.975;   97.000;  -91.000
225.451;   49.150;  360.000;  481.000
225.595;   25.275;  264.000;  176.000
225.739;  -14.975; -170.000;  -94.000
225.884;    9.475;   86.000;    5.000
226.028; -105.550; -760.000; -626.000
226.172;  -32.575; -260.000; -273.000
226.316; -127.975; -941.000; -902.000
226.460;  -60.250; -645.000; -493.000
226.604;  -58.150; -406.000; -400.000
226.748;  -99.375; -836.000; -733.000
226.892;  -42.450; -227.000; -181.000
227.036;  -47.400; -537.000; -447.000
227.180;  -61.750; -551.000; -375.000
227.324;  -75.500; -561.000; -580.000
227.468; -121.900; -819.000; -717.000
227.612;   16.025;  242.000;  -28.000
227.756; -106.275; -845.000; -698.000
227.900;   62.275;  342.000;  441.000
228.044;  -72.125; -509.000; -290.000
228.188;   63.925;  448.000;  568.000
228.332; -102.450; -546.000; -472.000
228.476;  -30.525; -223.000; -149.000
228.620;  -25.000; -210.000; -150.000
228.764;   55.750;  431.000;  349.000
228.908;  -20.500; -155.000;   30.000
229.052;  -66.050; -615.000; -528.000
229.195;  -15.125; -172.000;   13.000
229.339;  -48.075; -235.000; -305.000
229.483;  -30.600;    5.000; -162.000
229.627;   -2.725; -156.000;  139.000
229.771;  -42.375; -218.000; -294.000
229.915;    4.275;  230.000;   79.000
230.059;  -97.550; -648.000; -663.000
230.202;  -29.275; -370.000; -317.000
230.346;  -17.375; -107.000;  107.000
230.490;  -64.775; -489.000; -521.000
230.634; -119.250; -736.000; -553.000
230.777;   89.250;  478.000;  509.000
230.921;  -62.975; -450.000; -359.000
231.065;  -25.950; -246.000; -286.000
231.209;   29.000;  261.000;  265.000
231.352;   27.425;   54.000;   40.000
231.496;   16.675;  568.000;  188.000
231.640;  -86.025; -693.000; -621.000
231.783;   50.725;  546.000;  525.000
231.927;  -55.725; -294.000; -365.000
232.071; -124.975; -962.000; -736.000
232.214; -118.875; -980.000; -764.000
232.358; -101.425; -683.000; -599.000
232.502;   -5.150;  -19.000;    7.000
232.645; -145.550;-1090.000; -927.000
232.789;  -25.775; -257.000; -218.000
232.933;  -44.600; -407.000; -224.000
233.076; -118.350;-1038.000; -897.000
233.220;  -99.225; -752.000; -777.000
233.363;  -77.275; -669.000; -477.000
233.507;   46.950;  371.000;  129.000
233.650; -104.200; -764.000; -834.000
233.794;   50.675;  438.000;  461.000
233.938;  -55.000; -530.000; -362.000
234.081;  -12.400;  -93.000;   31.000
234.225;  -68.325; -631.000; -539.000
234.368; -107.200; -773.000; -723.000
234.512;  -38.775; -385.000; -299.000
234.655; -101.475; -582.000; -555.000
234.798;  -58.700; -493.000; -466.000
234.942; -129.350; -884.000;-1002.000
235.085;  -75.475; -651.000; -443.000
235.229;  -83.200; -405.000; -410.000
235.372;  -34.925; -247.000; -191.000
235.516;  -61.550; -397.000; -321.000
235.659;   19.050;   92.000;  121.000
235.802;  -12.125;  -38.000;  -22.000
235.946;   28.175;  335.000;  215.000
236.089;   17.850;  126.000;  250.000
236.233;   52.575;  275.000;  298.000
236.376;  -46.650; -235.000; -378.000
236.519;  -57.250; -297.000; -319.000
236.663;  -34.600; -215.000; -117.000
236.806; -127.200;-1029.000; -999.000
236.949;   73.400;  543.000;  431.000
237.092;   69.825;  412.000;  391.000
237.236;  -81.750; -589.000; -502.000
237.379;   61.725;  352.000;  428.000
237.522; -128.750; -879.000; -768.000
237.666;  -13.500; -271.000;   18.000
237.809; -121.300; -851.000; -823.000
237.952;   35.775;  469.000;  271.000
238.095;  -63.975; -447.000; -442.000
238.238;   78.925;  688.000;  700.000
238.382;   -4.250;  166.000;  103.000
238.525;  -77.400; -598.000; -511.000
238.668; -156.575;-1060.000; -985.000
238.811;  -78.925; -638.000; -643.000
238.954;  -75.900; -483.000; -334.000
239.097;   83.700;  617.000;  664.000
239.241;    8.350;  394.000;  326.000
239.384;  -37.825; -254.000; -214.000
239.527;  -68.975; -424.000; -224.000
239.670; -142.025; -994.000;-1091.000
239.813; -118.025; -696.000; -658.000
239.956;   83.075;  579.000;  473.000
240.099; -118.550; -778.000; -725.000
240.242;   63.950;  428.000;  432.000
240.385;   36.800;  466.000;  450.000
240.528;  -80.900; -706.000; -473.000
240.671;   11.025;  189.000;  134.000
240.814;  -41.725; -441.000; -158.000
240.957; -101.175; -767.000; -578.000
241.100; -100.950; -779.000; -755.000
241.243; -151.875;-1234.000; -893.000
241.386;  -67.800; -508.000; -379.000
241.529;  -92.325; -735.000; -547.000
241.672;  -65.800; -566.000; -495.000
241.815; -110.750; -832.000; -808.000
241.958;  -22.600; -125.000; -182.000
242.101;  -87.000; -545.000; -390.000
242.244;  -37.800; -270.000; -325.000
242.387;  -47.275; -304.000; -246.000
242.530;   67.200;  470.000;  134.000
242.673;  -55.775; -381.000; -309.000
242.815; -119.100; -925.000; -899.000
242.958;  -67.550; -482.000; -381.000
243.101;    8.325;  132.000;  187.000
243.244;  -83.025; -564.000; -521.000
243.387;  -47.000; -313.000; -316.000
243.530; -103.325; -657.000; -674.000
243.672;   -1.125;   43.000;  -92.000
243.815;  -49.475; -355.000; -283.000
243.958;   -0.450;   98.000;  -26.000
244.101;   -7.275;   59.000;  -16.000
244.243;  -19.450;  -47.000;  101.000
244.386; -115.100; -761.000; -630.000
244.529;  -35.300; -132.000; -139.000
244.672; -148.725;-1154.000; -951.000
244.814;  -97.500; -621.000; -794.000
244.957;  -61.600; -380.000; -304.000
245.100;  -71.350; -489.000; -489.000
245.242;  -56.150; -387.000; -374.000
245.385;    2.475;  -59.000;  -39.000
245.528; -125.975; -871.000; -705.000
245.670;  101.925;  612.000;  634.000
245.813;  -74.675; -599.000; -547.000
245.956;  -33.900; -324.000; -275.000
246.098;  -72.650; -508.000; -650.000
246.241;   10.575;  194.000;   48.000
246.383;  -16.025; -119.000;  -73.000
246.526;  -74.075; -454.000; -525.000
246.669; -116.550; -889.000; -780.000
246.811;   11.975;  172.000;   -1.000
246.954;  -70.175; -512.000; -426.000
247.096;  -12.450;  -84.000;   -6.000
247.239;  -78.150; -482.000; -445.000
247.381;  -77.650; -647.000; -488.000
247.524;   84.700;  645.000;  679.000
247.666;  -12.750;   58.000;   11.000
247.809; -126.025; -887.000; -691.000
247.951;  -11.325;  -75.000;  138.000
248.094;   28.200;  432.000;  308.000
248.236; -154.950;-1262.000;-1238.000
248.378;    6.400; -356.000;  -81.000
248.521;  -19.300; -334.000; -337.000
248.663;  -51.625; -236.000; -267.000
248.806;  -13.800; -300.000; -266.000
248.948; -107.650; -886.000; -763.000
249.090;  -62.150; -428.000; -398.000
249.233;  -62.225; -344.000; -381.000
249.375;  -61.675; -474.000; -451.000
249.518;  -31.175;  -83.000; -133.000
249.660;  -12.450; -103.000;    3.000
249.802; -174.675;-1303.000;-1189.000
249.945;  -83.625; -612.000; -540.000
250.087; -110.300; -834.000; -768.000
250.229;  -46.325; -362.000; -480.000
250.371;  -78.625; -494.000; -439.000
250.514;  -55.000; -310.000; -244.000
250.656;  -18.350;   69.000;  102.000
250.798; -127.225; -849.000; -800.000
250.940;  -65.375; -322.000; -322.000
251.083;  -25.350; -335.000; -111.000
251.225;   43.450;  338.000;  310.000
251.367;  -42.700; -274.000; -373.000
251.509;  -38.625; -265.000; -210.000
251.651;  -95.625; -731.000; -671.000
251.794;   41.525;  538.000;  632.000
251.936; -118.575; -821.000; -747.000
252.078;  -86.300; -540.000; -461.000
252.220;  -69.700; -645.000; -477.000
252.362;   77.975;  344.000;  462.000
252.504;  -70.400; -677.000; -584.000
252.646; -117.825; -875.000; -722.000
252.788;  -11.450;   14.000; -128.000
252.931;  -42.750; -257.000; -253.000
253.073;  -47.825; -376.000; -317.000
253.215;   -1.850;  141.000;  122.000
253.357;  -10.325;   82.000; -153.000
253.499;  -65.300; -374.000; -234.000
253.641;  -82.125; -749.000; -594.000
253.783;  -90.125; -609.000; -527.000
253.925;  -97.475; -586.000; -591.000
254.067; -123.125; -744.000; -667.000
254.209;  -31.025; -391.000; -259.000
254.351; -144.475; -865.000; -883.000
254.493;  -58.350; -441.000; -417.000
254.635; -141.825; -936.000; -818.000
254.777;  -84.950; -752.000; -687.000
254.918;  -66.775; -512.000; -430.000
255.060;  -52.525; -551.000; -395.000
255.202;  -75.925; -473.000; -261.000
255.344;  -82.500; -658.000; -455.000
255.486;  -75.800; -471.000; -406.000
255.628; -122.225; -780.000; -781.000
255.770;  -91.775; -676.000; -536.000
255.912;  -58.950; -559.000; -468.000
256.053;  -93.000; -730.000; -508.000
256.195;  143.675; 1008.000;  903.000
256.337; -115.600; -861.000; -595.000
256.479;   64.150;  532.000;  416.000
256.621;  -58.825; -394.000; -212.000
256.762; -102.100; -789.000; -742.000
256.904;   61.400;  485.000;  487.000
257.046;  -49.150; -381.000; -271.000
257.188;  -40.700; -351.000; -264.000
257.329;  -76.475; -525.000; -464.000
257.471; -117.750; -939.000; -807.000
257.613;  -62.050; -584.000; -498.000
257.755; -153.350;-1073.000; -982.000
257.896;   29.150;  286.000;  392.000
258.038;  -71.175; -403.000; -352.000
258.180;  -47.875; -354.000; -279.000
258.321;  -90.175; -581.000; -457.000
258.463;    9.500;  -71.000;  133.000
258.605; -103.275; -562.000; -570.000
258.746; -103.575; -886.000; -772.000
258.888; -151.975;-1026.000;-1020.000
259.029;   31.925;  121.000;   -8.000
259.171;  -97.125; -614.000; -550.000
259.313;   -7.975;  -49.000;  -47.000
259.454;  -85.300; -536.000; -414.000
259.596;  -55.425; -483.000; -390.000
259.737;  -73.950; -590.000; -474.000
259.879;   36.625;  217.000;  311.000
260.020;   91.650;  901.000;  636.000
260.162;  -29.300; -146.000; -253.000
260.303; -122.550; -768.000; -687.000
260.445;  -87.500; -609.000; -613.000
260.586;   18.700;  392.000;  157.000
260.728;  -52.125; -360.000; -248.000
260.869; -120.375; -350.000; -343.000
261.011;   70.175;  706.000;  537.000
261.152;  -72.225; -479.000; -319.000
261.293;  -73.150; -576.000; -595.000
261.435;  -49.225; -219.000; -184.000
261.576;  -43.850; -455.000; -325.000
261.718;   38.650;  420.000;  470.000
261.859; -130.625; -940.000; -949.000
262.000; -145.625; -951.000;-1016.000
262.142;  -18.225;  -52.000;  -60.000
262.283; -119.500; -808.000; -691.000
262.424;  -87.625; -666.000; -625.000
262.566; -154.525;-1161.000; -983.000
262.707; -134.825; -840.000; -830.000
262.848; -126.625; -769.000; -726.000
262.990;  -34.800; -362.000; -345.000
263.131;   63.525;  650.000;  681.000
263.272;   -8.675;  -61.000;  -41.000
263.413; -113.075; -589.000; -561.000
263.555;  -71.175; -669.000; -143.000
263.696;  -98.250; -550.000; -641.000
263.837;  -58.900; -449.000; -551.000
263.978;   -9.025;   -5.000;  -77.000
264.119;  -39.100; -283.000; -264.000
264.261; -111.300; -847.000; -630.000
264.402;   -7.100;   33.000;   40.000
264.543;  -73.500; -509.000; -524.000
264.684;  -16.350;   61.000;  -50.000
264.825;  -86.350; -816.000; -538.000
264.966;   -4.025;  -84.000;  -67.000
265.107; -120.875; -646.000; -670.000
265.248; -123.900; -825.000; -812.000
265.390;  -23.325;  152.000;   -9.000
265.531;  -21.375; -238.000; -107.000
265.672;  -84.400; -557.000; -630.000
265.813;   72.900;  563.000;  439.000
265.954; -154.100; -959.000; -940.000
266.095;  -21.900; -372.000; -322.000
266.236;  -96.050; -686.000; -548.000
266.377;  -41.525; -243.000; -297.000
266.518;  -80.525; -619.000; -547.000
266.659;   22.475;  170.000;  268.000
266.800;   -3.125;   83.000;   85.000
266.941;  -77.900; -487.000; -478.000
267.082;    7.450;  354.000;   99.000
267.223;  -58.275; -344.000; -273.000
267.364; -112.050; -892.000; -686.000
267.504;  -26.300;    3.000;  135.000
267.645;  -12.300;  160.000;   67.000
267.786;  -45.125; -147.000;  -86.000
267.927;  -81.650; -473.000; -379.000
268.068;  -24.800; -186.000;  -61.000
268.209;  -48.125; -175.000; -413.000
268.350;  -62.675; -388.000; -532.000
268.490;  -79.800; -648.000; -521.000
268.631;   31.875;  127.000;  225.000
268.772; -119.150; -874.000; -647.000
268.913;  -42.000; -328.000; -476.000
269.054;  -18.825; -117.000;   12.000
269.194;  -64.125; -418.000; -402.000
269.335; -155.850;-1137.000;-1074.000
269.476;  -16.500;   33.000;  -35.000
269.617;  -49.075; -347.000; -392.000
269.757;  -88.200; -713.000; -646.000
269.898; -112.050; -856.000; -613.000
270.039;  -56.950; -415.000; -405.000
270.180; -143.825; -952.000; -816.000
270.320;  -29.825; -190.000; -250.000
270.461;  -48.900; -277.000; -249.000
270.602;   -9.525; -186.000; -156.000
270.742; -137.275; -868.000; -943.000
270.883;  -68.150; -442.000; -390.000
271.023;  -61.250; -358.000; -357.000
271.164;  -70.125; -607.000; -528.000
271.305;  -99.750; -666.000; -654.000
271.445;  -83.800; -722.000; -683.000
271.586;  -83.250; -462.000; -283.000
271.726;  -55.125; -397.000; -322.000
271.867;  -69.725; -594.000; -534.000
272.008;  165.425; -473.000; -285.000
272.148;  110.000;  462.000;  468.000
272.289;    7.450; -113.000; -181.000
272.429;    8.350;   19.000;  185.000
272.570;  -94.550; -633.000; -737.000
272.710;  -99.300; -825.000; -775.000
272.851;  -19.325;  113.000; -130.000
272.991; -178.800;-1173.000;-1077.000
273.131;  -68.650; -419.000; -459.000
273.272;  -97.475; -683.000; -723.000
273.412;   -1.300; -143.000;  -31.000
273.553;  -70.150; -488.000; -507.000
273.693;  135.025;  913.000;  858.000
273.834; -110.250; -894.000; -692.000
273.974;  -85.925; -664.000; -615.000
274.114; -102.525; -772.000; -560.000
274.255;   66.175;  414.000;  373.000
274.395;   -2.300; -180.000; -125.000
274.535;   35.025;  199.000;  350.000
274.676;   15.325;  225.000;   94.000
274.816;   -7.600;  110.000;   34.000
274.956;  -90.025; -624.000; -690.000
275.097;  -69.750;-1014.000; -922.000
275.237; -124.425; -913.000; -803.000
275.377; -104.950; -778.000; -689.000
275.517; -140.275; -878.000; -937.000
275.658;  -51.025; -590.000; -555.000
275.798;  -77.200; -606.000; -413.000
275.938;   12.450;  215.000;  323.000
276.078;  -97.050; -626.000; -395.000
276.218;    8.525;   99.000;  104.000
276.359; -143.000;-1026.000;-1024.000
276.499;  -67.125; -605.000; -446.000
276.639;  -39.900; -305.000; -151.000
276.779;  -47.425; -475.000; -357.000
276.919; -115.550; -783.000; -624.000
277.059;  -29.850; -261.000; -212.000
277.199;  -48.350; -357.000; -259.000
277.340;   47.850;  287.000;  175.000
277.480; -114.025; -840.000; -693.000
277.620;   13.725;  192.000;   16.000
277.760; -203.200;-1533.000;-1294.000
277.900;   18.775;  113.000;   33.000
278.040;   -9.950;  137.000;  159.000
278.180;   45.750;  270.000;  170.000
278.320;  -11.575;   21.000;   56.000
278.460;  -78.650; -443.000; -469.000
278.600;  -86.375; -708.000; -598.000
278.740;   52.425;  448.000;  224.000
278.880;  -58.700; -768.000; -791.000
279.020;  -18.650; -194.000; -144.000
279.160; -102.625; -672.000; -595.000
279.300; -118.350; -926.000; -873.000
279.440;  -90.700; -709.000; -622.000
279.579;  -32.450;-1014.000; -929.000
279.719;  -56.725; -410.000; -394.000
279.859;   56.000;   -4.000;   41.000
279.999;    6.725; -208.000;  101.000
280.139;  -40.975; -435.000; -387.000
280.279;  -75.525; -708.000; -745.000
280.419;  -21.025; -229.000; -147.000
280.559;  -34.925; -259.000; -180.000
280.698;  -95.350; -790.000; -639.000
280.838;  -97.100; -778.000; -800.000
280.978;  -97.225; -846.000; -790.000
281.118; -117.075; -811.000; -704.000
281.257;    0.825;   24.000;    6.000
281.397; -134.850;-1094.000; -960.000
281.537;  -94.675; -599.000; -712.000
281.677;  -36.725; -150.000; -101.000
281.816;  -96.425; -700.000; -630.000
281.956;  -38.100; -193.000; -257.000
282.096;  -70.650; -539.000; -396.000
282.235; -115.500; -672.000; -638.000
282.375;  -18.725; -243.000;  -98.000
282.515; -112.100; -715.000; -707.000
282.654;   18.050;   29.000;  106.000
282.794;   28.925;  388.000;  244.000
282.934;  -50.775; -530.000; -491.000
283.073; -134.575;-1030.000; -857.000
283.213;  -51.125; -460.000; -467.000
283.353;  -39.275; -408.000; -349.000
283.492;  -47.725; -264.000; -296.000
283.632;  -50.000; -254.000; -168.000
283.771; -118.050; -859.000; -730.000
283.911;  -61.325; -369.000; -260.000
284.050; -107.175; -794.000; -748.000
284.190; -169.025;-1229.000;-1096.000
284.329; -140.150;-1055.000; -964.000
284.469;  -80.975; -516.000; -591.000
284.608;  -48.925; -559.000; -598.000
284.748;  -90.500; -614.000; -570.000
284.887;  -13.000;  -87.000;  -20.000
285.027; -129.175; -844.000; -892.000
285.166;  -47.300; -192.000; -249.000
285.306;  -10.625; -116.000;  -33.000
285.445;  -57.950; -229.000; -343.000
285.584;  -96.200; -630.000; -494.000
285.724;  -53.925; -282.000; -322.000
285.863; -116.000; -857.000; -507.000
286.002;  -59.950; -366.000; -276.000
286.142; -121.575; -715.000; -622.000
286.281;  -65.975; -525.000; -493.000
286.420;  -82.150; -554.000; -417.000
286.560;   99.525;  653.000;  623.000
286.699; -150.775; -958.000; -912.000
286.838;  -86.100; -590.000; -591.000
286.978;  -80.950; -533.000; -537.000
287.117; -131.800;-1085.000; -950.000
287.256;  -42.175; -228.000; -211.000
287.395;  -49.800; -197.000; -378.000
287.535;  -63.500; -370.000; -298.000
287.674;  -82.825; -509.000; -484.000
287.813;   48.900;  661.000;  533.000
287.952; -133.850;-1010.000; -871.000
288.091; -156.700;-1049.000; -915.000
288.231;    9.125;   13.000;   15.000
288.370; -177.725;-1217.000;-1200.000
288.509;  -92.900; -728.000; -645.000
288.648;  -88.350; -770.000; -548.000
288.787;  -40.775; -243.000;  -87.000
288.926;  -71.750; -454.000; -475.000
289.065;   97.625;  859.000;  672.000
289.204;  -46.550; -377.000; -217.000
289.344; -104.950; -791.000; -690.000
289.483;   15.250;  416.000;  304.000
289.622;  -41.275; -291.000; -149.000
289.761;  -13.850; -309.000; -166.000
289.900; -121.825; -785.000; -626.000
290.039;  -22.175;  -12.000;  -95.000
290.178;  -45.300; -274.000; -180.000
290.317;  -82.225; -618.000; -479.000
290.456;  -74.275; -463.000; -451.000
290.595; -135.250; -961.000; -833.000
290.734; -148.225; -904.000; -891.000
290.873;  -71.850; -456.000; -420.000
291.011; -115.175; -833.000; -843.000
291.150; -122.775; -770.000; -682.000
291.289;  -21.050; -343.000; -110.000
291.428; -103.625; -599.000; -480.000
291.567;  -64.175; -370.000; -442.000
291.706;  -21.125;  109.000;  154.000
291.845; -103.975; -597.000; -505.000
291.984; -167.600;-1234.000;-1061.000
292.122;   65.000;  602.000;  582.000
292.261;   50.175;  620.000;  463.000
292.400;    5.475; -144.000;  211.000
292.539; -127.975; -959.000; -813.000
292.678;  -25.150; -325.000; -300.000
292.816; -156.550;-1136.000; -965.000
292.955;  -93.800; -844.000; -684.000
293.094;  -39.650; -173.000; -337.000
293.233;  -62.525; -556.000; -400.000
293.371;  -38.300; -225.000;  -84.000
293.510; -110.575; -866.000; -780.000
293.649; -131.900; -959.000; -924.000
293.787;  -77.225;-1083.000;-1012.000
293.926;  -14.225; -113.000;  -32.000
294.065;  -54.650; -379.000; -290.000
294.203;   35.550;  298.000;  406.000
294.342;    6.975;   74.000;  156.000
294.481; 6242.500;51180.000; -836.000
294.619;  -46.275; -425.000; -582.000
294.758; -153.675;-1230.000;-1137.000
294.896;   59.725; -125.000;    5.000
295.035; -132.025;-1040.000;-1006.000
295.174; -120.100;-1082.000; -954.000
295.312;  -51.250; -323.000; -203.000
295.451;  -23.400; -307.000; -428.000
295.589;  -65.725; -389.000; -518.000
295.728;   13.050; -292.000; -165.000
295.866;    2.125;  -36.000;  -51.000
296.005;  -67.500; -584.000; -341.000
296.143;  -89.050; -558.000; -596.000
296.282; -115.000; -957.000; -881.000
296.420;  -92.050; -657.000; -557.000
296.559;  -88.100; -892.000; -633.000
296.697;   -4.675; -847.000; -665.000
296.835;   23.400;-1141.000;-1002.000
296.974;   40.600;  -23.000;   39.000
297.112;  -12.475; -443.000; -504.000
297.251;  -87.475; -815.000; -755.000
297.389;   69.525; -576.000; -438.000
297.527;   24.650; -145.000;  -83.000
297.666;  -53.750; -486.000; -438.000
297.804;  -63.950; -404.000; -264.000
297.942;  -19.000; -136.000; -161.000
298.081;   -5.600; -183.000;   63.000
298.219;   54.350;  -17.000;  -19.000
298.357;   34.025; -144.000;  -71.000
298.495;   12.000; -810.000; -812.000
298.634;   62.525;  245.000;  219.000
298.772;   32.025; -220.000; -338.000
298.910;  -27.275; -309.000; -182.000
299.048;  -16.450; -130.000; -153.000
299.187;  -34.950; -350.000; -250.000
299.325;   13.750;   52.000;  122.000
299.463;   41.350; -389.000; -299.000
299.601;   67.075; -327.000; -271.000
299.739; -111.775; -908.000; -883.000
299.877;  -83.475; -791.000; -703.000
300.016;  -57.250;-1095.000; -935.000
300.154;  138.675;  -19.000; -161.000
300.292;   23.325; -428.000; -348.000
300.430;   11.050; -408.000; -291.000
300.568; -118.425; -940.000; -874.000
300.706;  -55.200; -366.000; -469.000
300.844;  -87.575;-1108.000; -979.000
300.982;  108.525;  246.000;  282.000
301.120; -122.700; -965.000; -866.000
301.258;  -87.875; -812.000; -705.000
301.396;   15.825;  104.000;  -41.000
301.534;   60.075; -218.000; -293.000
301.672;  -23.375; -664.000; -521.000
301.810;   12.275; -613.000; -545.000
301.948;   89.725;   53.000;  149.000
302.086;  570.250; -250.000;  -32.000
302.224;  830.025; -610.000; -585.000
302.362;   23.000; -558.000; -622.000
302.500;  -35.700; -923.000; -893.000
302.638;   87.750;  128.000;  245.000
302.776;  -22.175; -352.000; -408.000
302.913;   36.250;  447.000;  236.000
303.051;  -14.975;  -86.000;  -23.000
303.189;   49.825;   90.000;  118.000
303.327;  -41.600; -341.000; -256.000
303.465;  -85.975; -832.000; -588.000
303.603;  -99.950; -805.000; -604.000
303.740;   99.600;  417.000;  241.000
303.878;    0.125; -800.000; -759.000
304.016; -103.325; -915.000; -790.000
304.154; -129.850;-1123.000;-1152.000
304.291;  -38.175; -505.000; -554.000
304.429;   -7.100;  102.000;   74.000
304.567; -135.450; -908.000; -893.000
304.705;  -58.700; -408.000; -515.000
304.842;   63.225; -616.000; -540.000
304.980;   39.400;  215.000;   35.000
305.118;   23.800; -367.000; -365.000
305.255;  -94.550; -945.000; -927.000
305.393;   54.600;  178.000;  239.000
305.531; -116.950;-1173.000; -956.000
305.668;  -84.200; -663.000; -582.000
305.806;   92.225; -358.000; -439.000
305.943;   82.975; -629.000; -637.000
306.081;   34.825; -378.000; -267.000
306.219; -111.625; -863.000; -748.000
306.356;  -11.050;  158.000;   27.000
306.494;  106.825;  981.000;  761.000
306.631;   -8.675;  -11.000;  -55.000
306.769;  -14.575; -613.000; -485.000
306.906;  -30.400; -284.000; -258.000
307.044;  -69.900; -473.000; -488.000
307.181;  -70.750; -410.000; -332.000
307.319;   -0.175;  112.000;   87.000
307.456; -168.025;-1191.000;-1153.000
307.594;  -95.225; -980.000; -727.000
307.731;  -39.525; -371.000; -164.000
307.868;  -21.650;  -15.000;   20.000
308.006; -139.450; -961.000; -847.000
308.143;  -88.625; -618.000; -330.000
308.281;  150.525;  -37.000; -254.000
308.418;  -26.925; -748.000; -640.000
308.555;  -80.250; -400.000; -250.000
308.693;  -77.675; -577.000; -573.000
308.830; -116.225; -712.000; -657.000
308.967;  -10.700; -215.000;  -95.000
309.105;  -64.225; -507.000; -396.000
309.242;   21.875; -468.000; -367.000
309.379;  251.275; -577.000; -655.000
309.517;  -96.075; -936.000; -948.000
309.654; -118.000; -910.000; -734.000
309.791;  -81.600; -662.000; -580.000
309.928; -127.025; -977.000; -914.000
310.065;  154.800;  819.000;  697.000
310.203;  -28.125; -825.000; -850.000
310.340;  -26.950; -465.000; -321.000
310.477;  -97.975; -412.000; -516.000
310.614;  -67.550; -383.000; -473.000
310.751;  -89.200; -427.000; -518.000
310.889;  -22.500;    1.000;   11.000
311.026; -169.575;-1161.000; -939.000
311.163;  -58.325; -386.000; -380.000
311.300;  -84.275; -512.000; -479.000
311.437;  -86.300; -658.000; -619.000
311.574; -165.225;-1226.000; -985.000
311.711;  -60.875; -595.000; -433.000
311.848;  -52.100; -380.000; -388.000
311.985;   -0.225;  270.000;   93.000
312.122; -130.350; -932.000; -762.000
312.259; -127.625; -941.000; -994.000
312.396;  -91.225; -508.000; -551.000
312.533;  -98.725; -812.000; -790.000
312.670; -140.175;-1070.000; -898.000
312.807;  -55.900; -352.000; -367.000
312.944;  -88.200; -513.000; -611.000
313.081;  -40.025; -150.000; -415.000
313.218; -114.625;-1111.000; -867.000
313.355;  -13.700; -531.000; -449.000
313.492;  -17.625; -455.000; -292.000
313.629;  124.700;  815.000;  735.000
313.766; -175.600;-1176.000;-1008.000
313.902;  -18.250; -186.000;   21.000
314.039;  -61.425; -372.000; -289.000
314.176;   16.600;  286.000;  192.000
314.313;  -71.775; -569.000; -473.000
314.450;  -76.350; -788.000; -684.000
314.587;  -70.000; -468.000; -480.000
314.723;  -24.025;  -78.000;  130.000
314.860;   27.800;  318.000;  332.000
314.997;   17.575;  223.000;  142.000
315.134;  -64.125; -385.000; -368.000
315.270;  -52.700; -480.000; -496.000
315.407; -132.300;-1094.000; -967.000
315.544;  -55.350; -657.000; -538.000
315.681;  -82.200; -681.000; -565.000
315.817;   11.000; -133.000; -176.000
315.954;   -2.975; -613.000; -392.000
316.091; -125.075;-1045.000;-1023.000
316.227;  -43.625;  -71.000; -179.000
316.364;  -11.625;   23.000;    6.000
316.500;  -41.300; -113.000; -300.000
316.637;  -56.600; -181.000; -302.000
316.774;  -94.100; -625.000; -358.000
316.910;  -94.500; -598.000; -629.000
317.047;  -82.225; -487.000; -351.000
317.183;  -61.125; -435.000; -566.000
317.320;  -15.925; -367.000; -321.000
317.456;  -68.100; -733.000; -805.000
317.593;  -96.400; -598.000; -641.000
317.729;  -10.625;  168.000;  -67.000
317.866; -213.450;-1434.000;-1285.000
318.002; -105.500; -708.000; -948.000
318.139; -115.600; -883.000; -867.000
318.275; -112.625;-1003.000; -738.000
318.412;  -67.975; -517.000; -336.000
318.548;  -37.700; -751.000; -720.000
318.685; -102.250; -985.000; -888.000
318.821; -104.575; -762.000; -735.000
318.957;  -22.725;   34.000;  -23.000
319.094;   12.850;  297.000;  154.000
319.230;  -73.875; -756.000; -742.000
319.367;  104.225; -471.000; -520.000
319.503;   39.725; -538.000; -436.000
319.639; -101.000; -877.000; -793.000
319.775;  -75.275; -750.000; -685.000
319.912;  -53.225; -424.000; -519.000
320.048; -100.975;-1184.000;-1184.000
320.184;   68.100;   59.000;   70.000
320.321;  -72.425; -497.000; -467.000
320.457;   70.700;  475.000;  662.000
320.593;  -60.675; -375.000; -382.000
320.729; -112.275; -732.000; -734.000
320.866;  -86.750; -577.000; -635.000
321.002;  -82.575; -759.000; -809.000
321.138;  -21.025; -135.000; -211.000
321.274;   67.400; -148.000; -115.000
321.410;  -36.675; -585.000; -353.000
321.546;  -40.075;-1011.000; -911.000
321.683;   31.125;  400.000;  185.000
321.819;   -0.325;  -48.000; -117.000
321.955; -110.925; -743.000; -722.000
322.091;  -56.175; -585.000; -540.000
322.227;  -35.550; -382.000; -202.000
322.363;  -21.325; -320.000; -215.000
322.499;  -49.025; -343.000; -331.000
322.635;  147.700;  636.000;  443.000
322.771;    4.350; -139.000;   12.000
322.907;   68.125;  129.000;  327.000
323.043;  -32.325; -115.000; -206.000
323.179;  -38.900; -394.000; -363.000
323.315;   -8.000; -401.000; -371.000
323.451;   68.800; -328.000; -236.000
323.587;   47.025;  -60.000;  -77.000
323.723;    4.525; -682.000; -601.000
323.859;  -24.050; -258.000;  -76.000
323.995;  -39.625; -467.000; -409.000
324.131; -129.300; -967.000; -892.000
324.267;  -43.875; -254.000; -276.000
324.402; -137.000; -960.000; -983.000
324.538;  -12.525; -279.000; -104.000
324.674;    2.625;  164.000;   77.000
324.810;  105.775;  226.000;  308.000
324.946;  -11.750; -810.000; -658.000
325.082;  -69.025; -568.000; -475.000
325.217;  -26.425;  -62.000;   16.000
325.353; -112.625; -764.000; -659.000
325.489;  -93.450; -540.000; -506.000
325.625;  -74.225; -579.000; -525.000
325.760;   43.925;  517.000;  376.000
325.896;  -23.925; -515.000; -702.000
326.032;  -61.825; -403.000; -352.000
326.168;  -66.275; -462.000; -369.000
326.303;  -68.725; -352.000; -461.000
326.439;  -31.700; -336.000; -276.000
326.575;  -15.325; -190.000;  -29.000
326.710;   -6.800; -156.000;  -30.000
326.846;  -21.500;  146.000;  103.000
326.982;  -94.925; -530.000; -548.000
327.117;  -86.025; -481.000; -442.000
327.253;  -96.100; -745.000; -742.000
327.388; -163.075;-1137.000;-1153.000
327.524;  -65.400; -811.000; -578.000
327.659;  -25.950;  -58.000;  -22.000
327.795;  -20.650;   69.000;   45.000
327.931; -104.625; -723.000; -499.000
328.066;  -37.425; -417.000; -276.000
328.202;  -16.050;   12.000; -129.000
328.337;   94.600;  957.000;  713.000
328.473;   16.825;  -12.000;  -74.000
328.608;  -33.725; -256.000; -267.000
328.743;  -99.850; -799.000; -664.000
328.879;    2.500;  214.000;  114.000
329.014;  -42.450; -102.000; -122.000
329.150;  -97.325; -358.000; -483.000
329.285;  -84.000; -465.000; -466.000
329.421;  -53.100; -548.000; -246.000
329.556;  -21.850;  -36.000;   85.000
329.691; -102.200; -633.000; -615.000
329.827; -107.850; -626.000; -480.000
329.962;  -52.325;  131.000; -301.000
330.097; -109.625; -673.000; -585.000
330.233;  -59.475; -410.000; -223.000
330.368; -136.750; -839.000; -628.000
330.503;  -21.900;    3.000;   98.000
330.638;   -9.700;  -93.000; -125.000
330.774;  -71.350; -609.000; -530.000
330.909;  -58.575; -434.000; -244.000
331.044;  -94.150; -714.000; -708.000
331.179; -183.400;-1217.000;-1109.000
331.315;  -12.850;   77.000;   20.000
331.450;    5.200;  157.000;  285.000
331.585;  -94.000; -805.000; -706.000
331.720;  -96.950; -510.000; -460.000
331.855;  -10.600;  -35.000; -102.000
331.990;  241.125;   62.000;  138.000
332.126;  126.250; -110.000;   71.000
332.261;  -15.400; -379.000; -265.000
332.396;   -5.825; -135.000; -242.000
332.531; -101.775;-1074.000;-1031.000
332.666;   35.975; -519.000; -363.000
332.801; -112.400; -726.000; -807.000
332.936;  -34.150; -192.000; -122.000
333.071; -158.975; -870.000; -817.000
333.206;    2.400;  307.000;  379.000
333.341;   18.825;  344.000;  418.000
333.476;  -95.000; -627.000; -623.000
333.611;  -50.575; -251.000; -173.000
333.746;  -52.925; -381.000; -464.000
333.881; -124.775; -973.000; -935.000
334.016; -139.925; -936.000; -917.000
334.151; -138.300; -746.000; -702.000
334.286;    7.000;  152.000;  186.000
334.421;  -23.900; -125.000; -178.000
334.556;  -80.875; -611.000; -567.000
334.690; -103.150; -631.000; -577.000
334.825;   42.525;  381.000;   83.000
334.960;  -65.175; -285.000; -413.000
335.095;   -7.125;  135.000;  -91.000
335.230; -121.550; -722.000; -738.000
335.365; -138.975;-1084.000; -990.000
335.499; -145.125;-1108.000;-1037.000
335.634;    9.600;    9.000;  534.000
335.769; -111.125; -755.000; -720.000
335.904;  -62.100; -603.000; -561.000
336.038;  -79.300; -735.000; -657.000
336.173; -120.725;-1206.000;-1194.000
336.308;   -0.725; -116.000; -189.000
336.443;   10.300; -544.000; -634.000
336.577;  -85.575; -936.000; -787.000
336.712;   51.475;   -4.000;  -12.000
336.847;  -47.275; -724.000; -607.000
336.981;   57.775; -272.000; -208.000
337.116;  251.975;  615.000;  501.000
337.250;  115.600; -434.000; -421.000
337.385;  276.625; -297.000; -208.000
337.520;   95.800; -632.000; -603.000
337.654;  -47.700; -215.000; -126.000
337.789; -145.250; -989.000; -933.000
337.923;  -25.400; -104.000; -205.000
338.058;  -95.700; -673.000; -738.000
338.192;  -35.875; -611.000; -488.000
338.327;  -28.825;  -18.000; -155.000
338.461;  -74.900; -299.000; -469.000
338.596;  -89.425; -780.000; -638.000
338.730; -108.350; -767.000; -803.000
338.865;   75.650;  -46.000; -140.000
338.999;  -55.050; -846.000; -702.000
339.134;  -25.675; -634.000; -536.000
339.268;    7.275; -741.000; -603.000
339.403;  366.075; -740.000; -775.000
339.537;  111.200; -894.000; -820.000
339.671; -108.075; -829.000; -813.000
339.806;  -73.125; -556.000; -512.000
339.940;   18.875; -261.000; -235.000
340.074; -103.250; -685.000; -510.000
340.209;  -61.100; -351.000; -230.000
340.343; -106.400; -517.000; -573.000
340.477;  138.350;  998.000; 1036.000
340.612;  -48.000;-1033.000; -900.000
340.746;  141.000; -199.000; -243.000
340.880;  -86.800; -924.000; -785.000
341.014;  -34.725;  -45.000; -154.000
341.149; -122.025; -756.000; -718.000
341.283; -115.750; -839.000; -754.000
341.417; -123.950;-1124.000; -938.000
341.551;  102.925; -768.000; -708.000
341.685;  -55.775; -633.000; -611.000
341.820;  -55.475; -562.000; -493.000
341.954;  -55.225; -218.000; -349.000
342.088; -163.850;-1102.000;-1019.000
342.222;   38.675;  565.000;  618.000
342.356;  -65.050; -395.000; -335.000
342.490; -103.225; -880.000; -841.000
342.624;  -59.275; -339.000; -242.000
342.758;  -21.400; -364.000; -312.000
342.892;  -77.000; -710.000; -585.000
343.026;  -39.525;  -58.000; -116.000
343.160;  -73.650; -426.000; -376.000
343.294;  -91.975; -474.000; -337.000
343.428;  -32.075; -488.000; -448.000
343.562;  -28.750; -172.000;  -23.000
343.696;  -51.775; -385.000; -314.000
343.830;  -43.950; -362.000; -356.000
343.964;  -10.150; -231.000; -168.000
344.098;  792.975;  199.000;   70.000
344.232;  664.175; -266.000; -127.000
344.366;   61.725; -567.000; -453.000
344.500;   33.175; -665.000; -744.000
344.634;   14.825; -324.000; -164.000
344.768;  -21.150; -531.000; -341.000
344.902;    0.050;  278.000;  256.000
345.035;  -88.150; -556.000; -496.000
345.169; -146.850; -933.000; -656.000
345.303;  -35.050; -308.000; -482.000
345.437;  -87.525; -826.000; -717.000
345.571;  -71.525; -675.000; -594.000
345.704;  -77.300; -309.000; -532.000
345.838;  -21.350; -331.000; -284.000
345.972;  -63.500; -543.000; -495.000
346.106;  164.425; -179.000; -190.000
346.239;  397.625; -312.000; -243.000
346.373;   -5.775; -343.000; -302.000
346.507; -149.000; -950.000; -962.000
346.640;  123.275;  -30.000;   13.000
346.774;  -66.525; -650.000; -797.000
346.908;  -31.625; -138.000;  -11.000
347.041; -118.100; -646.000; -593.000
347.175;  -10.400;  259.000;   27.000
347.309;  -97.825; -698.000; -628.000
347.442; -103.625; -883.000; -732.000
347.576;  229.900;  670.000;  668.000
347.709;  163.550; -123.000;  -52.000
347.843; -115.025; -933.000; -825.000
347.976;    8.450;  235.000;  294.000
348.110; -185.800;-1268.000;-1186.000
348.243; -106.525; -679.000; -772.000
348.377;  -12.825;  -26.000;   60.000
348.510;   53.000;  403.000;  540.000
348.644;  -47.700;  -37.000; -159.000
348.777;   -5.350;  180.000;  191.000
348.911;  -53.925; -142.000; -112.000
349.044;  143.350;  471.000;  448.000
349.178;  120.975;-1069.000;-1006.000
349.311;   95.800;  141.000;  255.000
349.444;  -15.725; -927.000; -813.000
349.578;  -23.725; -347.000; -200.000
349.711; -116.550; -959.000; -862.000
349.845;  -21.900; -661.000; -591.000
349.978; -159.725;-1224.000;-1137.000
350.111; -100.800; -546.000; -612.000
350.244;  -93.300; -596.000; -700.000
350.378;  -21.850; -392.000; -393.000
350.511;  -74.100; -393.000; -426.000
350.644; -121.150; -808.000; -806.000
350.778;  -11.350;  168.000;  104.000
350.911;  -13.475;  134.000;  140.000
351.044;  -97.150; -685.000; -615.000
351.177;  -35.675; -321.000; -281.000
351.310;  -30.225;    3.000; -131.000
351.444; -104.625; -888.000; -788.000
351.577;   96.375;  140.000;   90.000
351.710;   89.250;  593.000;  417.000
351.843;  -45.475; -165.000;  -77.000
351.976;  -13.975;  149.000;  -79.000
352.109;  -96.675; -621.000; -612.000
352.242;  -44.150; -464.000; -419.000
352.376;  -64.725; -580.000; -636.000
352.509;  132.125; -437.000; -356.000
352.642;  -21.400; -654.000; -604.000
352.775;   50.600; -141.000;  -98.000
352.908; -123.950; -933.000; -904.000
353.041; -107.125; -814.000; -824.000
353.174;  -71.800; -551.000; -424.000
353.307;  -93.550; -753.000; -764.000
353.440;   52.200;  541.000;  453.000
353.573; -105.575; -957.000;-1008.000
353.706;  -65.550; -384.000; -558.000
353.839;  -24.700; -264.000; -220.000
353.971; -111.850; -657.000; -512.000
354.104;  -97.500; -896.000; -835.000
354.237;  -41.350; -627.000; -662.000
354.370; -101.050; -846.000; -879.000
354.503; -187.450;-1231.000;-1308.000
354.636;  -63.600; -529.000; -348.000
354.769; -127.650; -937.000; -860.000
354.902;  -21.425; -230.000; -139.000
355.034;  -31.925; -164.000; -220.000
355.167;  -31.850; -262.000; -162.000
355.300; -103.600;-1061.000; -880.000
355.433;  958.625;  -71.000;  -14.000
355.565; 1546.900; -402.000; -384.000
355.698;  402.250; -356.000; -296.000
355.831;  -18.925; -882.000; -801.000
355.964;   56.300; -285.000; -170.000
356.096;  -94.350; -856.000; -843.000
356.229;   -0.075; -523.000; -530.000
356.362;  330.075; -373.000; -266.000
356.494;  611.750; -229.000; -162.000
356.627;  436.800;  269.000;  377.000
356.760;  667.675;  120.000;   53.000
356.892;  957.075; -286.000; -601.000
357.025;  573.475;  403.000;  389.000
357.157;  509.200; -167.000; -179.000
357.290;  707.175; -856.000; -713.000
357.423;  185.350; -667.000; -556.000
357.555;  116.675; -217.000; -228.000
357.688;  110.700; -483.000; -364.000
357.820;  417.950; -870.000; -877.000
357.953; 3414.275; -563.000; -589.000
358.085;  713.275; -632.000; -612.000
358.218;  917.775;-1131.000; -932.000
358.350;  156.525;  -58.000;  312.000
358.483; -143.500;-1300.000;-1187.000
358.615;  -46.925;-1182.000;-1078.000
358.747;  -82.400;-1187.000;-1058.000
358.880;   -9.475; -810.000; -744.000
359.012;  -30.000; -376.000; -202.000
359.145;  -51.925; -480.000; -511.000
359.277;   31.325; -962.000; -913.000
359.409; 2855.825;  536.000;  231.000
359.542;  726.175; -738.000; -688.000
359.674;   56.325;   46.000;   13.000
359.806;  -57.425; -565.000; -438.000
359.939;  -56.100; -617.000; -516.000
360.071;   -7.425; -583.000; -579.000
360.203;  -24.675; -411.000; -364.000
360.335;   46.475;  164.000;  -16.000
360.468;  178.700; -249.000; -307.000
360.600; 2318.225; -547.000; -454.000
360.732; 2948.675; -546.000; -423.000
360.864;  400.950;-1216.000;-1044.000
360.996;  227.550; -516.000; -554.000
361.129;   17.475; -389.000; -598.000
361.261;   13.125;  110.000; -113.000
361.393;  -51.875; -252.000; -214.000
361.525;   17.575;   94.000;  244.000
361.657;  -55.475; -821.000; -703.000
361.789;   -8.300; -139.000; -155.000
361.921;  158.425; -642.000; -593.000
362.053;  225.700;  524.000;  541.000
362.185;   45.600;  288.000;   72.000
362.318;  -91.700; -709.000; -705.000
362.450;   76.300;  294.000;  444.000
362.582;   35.925; -913.000; -870.000
362.714;  -38.350; -353.000; -332.000
362.846;  -93.000; -606.000; -490.000
362.978; -146.700; -941.000; -811.000
363.109;   19.175; -161.000; -260.000
363.241;  347.475; -739.000; -749.000
363.373;  435.550; -649.000; -564.000
363.505;  689.900; -186.000;  -91.000
363.637;  129.925; -787.000; -601.000
363.769; -140.400;-1067.000;-1080.000
363.901;  -73.450; -596.000; -654.000
364.033; -127.450;-1103.000;-1062.000
364.165;   -3.650; -283.000; -283.000
364.296;   57.375; -316.000; -177.000
364.428;   78.975;-1344.000;-1220.000
364.560;  -75.800; -679.000; -661.000
364.692;  -83.850; -738.000; -835.000
364.824;  199.250; -588.000; -456.000
364.955;  411.000; -402.000; -564.000
365.087;  977.700;-1097.000; -852.000
365.219;   23.700; -686.000; -816.000
365.351;  -86.200; -526.000; -572.000
365.482;   37.650;  300.000;  240.000
365.614;  -65.000; -402.000; -314.000
365.746;  -99.125; -729.000; -752.000
365.877; -104.525; -706.000; -672.000
366.009;  272.450;  -35.000;  -62.000
366.141;  -96.275;-1249.000;-1134.000
366.272; -107.975; -803.000; -719.000
366.404; -114.225;-1005.000; -874.000
366.535;  -20.525; -139.000;  -12.000
366.667; -128.550; -644.000; -649.000
366.799;   26.825;  353.000;  203.000
366.930; -141.275; -862.000; -996.000
367.062;  104.375; -639.000; -613.000
367.193;  154.925; -872.000; -842.000
367.325;  -59.300; -580.000; -684.000
367.456;   32.000; -246.000;   31.000
367.588;  158.550; -371.000; -318.000
367.719;   24.175;  -44.000;  -45.000
367.851;  -31.075; -222.000; -241.000
367.982;  -72.450; -875.000; -732.000
368.113;   77.175; -475.000; -358.000
368.245; -137.850; -960.000; -841.000
368.376;  -39.125; -254.000; -302.000
368.508;  -60.150; -188.000; -263.000
368.639; -157.200;-1166.000;-1034.000
368.770;  -42.025; -670.000; -589.000
368.902;  -75.075; -836.000; -926.000
369.033; -117.250; -906.000; -855.000
369.164;  -46.825; -720.000; -653.000
369.296; -118.575; -452.000; -601.000
369.427;  -25.175; -209.000; -144.000
369.558;  -52.525; -593.000; -377.000
369.689;  -93.575; -721.000; -569.000
369.821; -136.800; -951.000; -845.000
369.952;  -20.650;   42.000; -108.000
370.083;  -56.600; -229.000; -108.000
370.214;  -87.700; -735.000; -650.000
370.345;  -28.075;   65.000;   81.000
370.477; -108.650; -810.000; -790.000
370.608;  184.475; -328.000; -264.000
370.739;  -58.650;-1233.000;-1292.000
370.870;  -64.700;-1102.000; -923.000
371.001;   55.625; -378.000; -467.000
371.132;  -92.625; -754.000; -735.000
371.263;  -29.200;  -42.000; -148.000
371.394; -140.475; -841.000; -748.000
371.525;   17.325;  345.000;  225.000
371.657;  -97.300; -808.000; -670.000
371.788;   56.300;  103.000;  199.000
371.919;  134.500; -384.000; -304.000
372.050; 3265.075;  -91.000; -156.000
372.181;  955.000; -188.000; -294.000
372.311;  304.000;   42.000; -127.000
372.442;    1.350; -457.000; -451.000
372.573;  -28.525; -444.000; -340.000
372.704; -131.975;-1008.000; -980.000
372.835;   50.300; -228.000; -289.000
372.966;  -70.325; -646.000; -554.000
373.097;  -72.825; -575.000; -711.000
373.228;  -53.625; -717.000; -542.000
373.359;   83.175; -824.000; -536.000
373.490;  785.625; -881.000; -727.000
373.620; 1006.050;-1001.000; -803.000
373.751; 1521.250; -332.000; -396.000
373.882;  684.825; -663.000; -733.000
374.013;   35.675; -449.000; -262.000
374.143;  -56.225; -581.000; -659.000
374.274; -124.100; -987.000; -908.000
374.405;  140.875; -388.000; -276.000
374.536;  363.700; -526.000; -387.000
374.666;  944.750; -759.000; -807.000
374.797;  167.925; -817.000; -868.000
374.928;  737.400; -710.000; -560.000
375.058;  761.350; -535.000; -500.000
375.189;   57.225;  -59.000;  -93.000
375.320; -112.175; -928.000;-1034.000
375.450;  -53.650; -625.000; -616.000
375.581;  -66.825; -526.000; -436.000
375.712;  -37.025; -574.000; -250.000
375.842;  242.750; -438.000; -415.000
375.973;  175.025; -554.000; -513.000
376.103;  -69.375; -665.000; -648.000
376.234;  -93.475; -531.000; -552.000
376.364;  -65.500; -944.000; -867.000
376.495;  289.300;  925.000;  529.000
376.625;  -44.375; -472.000; -485.000
376.756;   26.325; -709.000; -678.000
376.886;  -89.225;-1178.000;-1026.000
377.017;   42.500;-1048.000;-1061.000
377.147;  375.075; -786.000; -782.000
377.278;   52.975;  174.000;  228.000
377.408; -143.175; -801.000; -815.000
377.538; -113.025; -707.000; -693.000
377.669;  -93.900; -537.000; -613.000
377.799;  -95.525; -645.000; -635.000
377.929;  -66.550; -610.000; -428.000
378.060; -125.975; -781.000; -847.000
378.190;  -66.075; -726.000; -531.000
378.320;  -77.575; -401.000; -406.000
378.451;  -31.350; -131.000;  -22.000
378.581;  -14.175;  -67.000; -110.000
378.711;  126.300; 1035.000;  866.000
378.841;  -34.625; -533.000; -675.000
378.972;  -98.900; -871.000; -751.000
379.102;  -32.450; -652.000; -579.000
379.232;  -39.475; -126.000;  -73.000
379.362; -113.600;-1001.000; -885.000
379.492;   -5.100; -373.000; -424.000
379.623;   78.000;    0.000;  111.000
379.753; -124.825;-1107.000; -974.000
379.883;  160.650;   59.000;  156.000
380.013;  -16.550;-1081.000;-1017.000
380.143; -116.775;-1097.000;-1056.000
380.273; -110.925; -985.000; -861.000
380.403;  -11.875; -344.000; -257.000
380.533;  -44.575; -651.000; -664.000
380.663;   40.875;  173.000;  128.000
380.793; -110.275;-1027.000;-1074.000
380.923;  -33.800; -103.000;  -34.000
381.053; -109.850; -613.000; -623.000
381.183;  -27.400; -106.000; -248.000
381.313;   -2.025; -656.000; -470.000
381.443;   29.125; -692.000; -473.000
381.573;  149.875; -402.000; -409.000
381.703;  207.050;-1249.000;-1095.000
381.833; -151.225;-1454.000;-1336.000
381.963;   93.525; -134.000;  -87.000
382.093; 1237.500; -925.000; -909.000
382.223;  373.825; -713.000; -602.000
382.353;  -37.700; -801.000; -608.000
382.482;  279.000;-1091.000; -964.000
382.612;  671.425; -872.000; -644.000
382.742;  360.875; -695.000; -622.000
382.872;  198.950; -565.000; -551.000
383.002;   50.275;  347.000; -132.000
383.131;  -32.975; -226.000; -160.000
383.261;  -50.450; -706.000; -768.000
383.391;  273.350; -552.000; -377.000
383.521; 3343.125;  451.000;  263.000
383.650;  822.950; -947.000; -904.000
383.780;  -25.600; -783.000; -656.000
383.910;   92.125;  880.000;  802.000
384.039;    1.500; -794.000; -656.000
384.169;  151.925;-1205.000;-1017.000
384.299;  -36.900; -650.000; -662.000
384.428; -122.375; -764.000; -680.000
384.558;  -37.100; -308.000; -275.000
384.687;  -58.700; -414.000; -334.000
384.817;  -18.775;   75.000;   -2.000
384.947;  -11.600; -234.000; -141.000
385.076;  245.175;  982.000;  912.000
385.206;   73.175;  369.000;  480.000
385.335;  -51.375; -549.000; -417.000
385.465; -107.750; -655.000; -663.000
385.594;  101.700;  -53.000;  -44.000
385.724;  344.650; -868.000; -838.000
385.853;   88.625; -296.000; -270.000
385.982; 1167.100; -743.000; -787.000
386.112; 1925.625;-1052.000; -871.000
386.241;  106.675; -307.000; -312.000
386.371;   10.025; -174.000;  -87.000
386.500;  -16.200; -825.000; -789.000
386.629;    6.175; -874.000; -817.000
386.759;   37.800;  -43.000;   68.000
386.888;  -26.975; -170.000; -250.000
387.017;  -95.175; -648.000; -620.000
387.147;  -97.750; -771.000; -798.000
387.276;  -23.225; -410.000; -397.000
387.405;  -15.450; -398.000; -342.000
387.535;  -68.650; -452.000; -361.000
387.664;  -77.175; -692.000; -620.000
387.793;   38.750; -198.000; -113.000
387.922;  437.550;  255.000;  200.000
388.052;   -7.400; -576.000; -423.000
388.181;  -21.050; -342.000; -472.000
388.310;  -46.125; -889.000; -710.000
388.439;  -78.950; -749.000; -742.000
388.568;  147.825;  365.000;  244.000
388.697;  903.900; -756.000; -653.000
388.826;  169.800; -768.000; -666.000
388.956;   19.700; -285.000; -307.000
389.085;  -44.850; -347.000; -287.000
389.214; -115.750; -842.000; -872.000
389.343;  -82.975; -645.000; -413.000
389.472;  396.675;  126.000;  149.000
389.601;  505.875;   91.000;    0.000
389.730;    0.950; -568.000; -687.000
389.859;   42.350;  226.000;   46.000
389.988;  146.075; -423.000; -408.000
390.117;  116.300; -168.000; -146.000
390.246;  -11.150; -331.000; -320.000
390.375;   61.950; -673.000; -626.000
390.504;  -70.025; -703.000; -621.000
390.633; -107.050; -672.000; -726.000
390.761;  -77.725; -732.000; -645.000
390.890;   -6.425;   -4.000; -130.000
391.019;  -45.925; -421.000; -441.000
391.148; -130.575; -826.000; -855.000
391.277;  -74.375; -576.000; -493.000
391.406; -108.875; -821.000; -805.000
391.534;    1.050;  574.000; -301.000
391.663;  -81.800; -583.000; -645.000
391.792;  -97.900; -673.000; -701.000
391.921;   69.400;   -3.000;   15.000
392.050;  132.525; -287.000; -228.000
392.178;  -65.625;-1206.000;-1061.000
392.307;  103.550; -758.000; -712.000
392.436;   47.025; -427.000; -641.000
392.564;   14.200;  166.000;   -6.000
392.693; -114.575; -860.000; -682.000
392.822;  166.925; -529.000; -534.000
392.950;   63.300; -880.000; -714.000
393.079;  270.475; -188.000; -328.000
393.208;    3.425; -488.000; -511.000
393.336;  -46.900; -170.000; -145.000
393.465;  -63.800; -317.000; -199.000
393.593;  -11.100;   62.000;   79.000
393.722; -159.950;-1121.000; -916.000
393.850;  -44.950; -188.000;  -61.000
393.979; -153.950; -926.000; -805.000
394.107;  -75.625; -517.000; -537.000
394.236;  -36.150; -570.000; -507.000
394.364;  181.300;  383.000;  206.000
394.493;  286.275; -911.000; -767.000
394.621;  -30.900; -955.000; -916.000
394.750;  717.550; -873.000; -923.000
394.878; 3012.200; -247.000; -149.000
395.007; 4146.625; -721.000; -807.000
395.135;  302.925; -790.000; -721.000
395.263;  -92.300;-1038.000;-1040.000
395.392;    7.800;  -25.000; -107.000
395.520; -159.975; -818.000; -679.000
395.648; -111.275; -865.000; -915.000
395.777;  -36.200; -366.000; -405.000
395.905;  -60.425; -449.000; -564.000
396.033;  -12.500;  217.000;  172.000
396.162;  458.225; -399.000; -453.000
396.290;  419.975;  -17.000;   -2.000
396.418;   64.150; -555.000; -514.000
396.546;  -94.750; -571.000; -466.000
396.674;  -98.575; -850.000; -878.000
396.803;  -18.600;  -72.000;  -23.000
396.931;   68.650; -179.000; -199.000
397.059;   -2.150;-1026.000; -989.000
397.187; -125.825;-1026.000; -975.000
397.315; -139.100; -884.000; -649.000
397.443; -116.225; -592.000; -443.000
397.572; -102.450; -578.000; -424.000
397.700;  -31.150; -607.000; -614.000
397.828;  -15.075;  120.000;  -90.000
397.956;  -43.150; -508.000; -478.000
398.084;  -68.750; -767.000; -626.000
398.212;   11.450;  137.000;  124.000
398.340;  -19.700;  -56.000;  159.000
398.468;   -4.150; -390.000; -169.000
398.596; -141.050; -993.000; -953.000
398.724; -130.575; -762.000; -767.000
398.852; -170.425;-1024.000; -976.000
398.980;  -83.800; -560.000; -560.000
399.108;  -68.300; -982.000; -735.000
399.236;   19.475;   13.000;    8.000
399.363;    5.525;  222.000;  196.000
399.491;  -79.375; -404.000; -398.000
399.619; -124.800; -829.000; -800.000
399.747; -120.175; -859.000; -771.000
399.875;   59.675;  220.000;  234.000
400.003;  -61.300; -359.000; -284.000
400.130; -108.850; -421.000; -341.000
400.258;  -31.550;  -83.000;   38.000
400.386;  -76.825; -352.000; -168.000
400.514;  -43.075; -526.000; -587.000
400.641; -116.200; -928.000; -802.000
400.769; -153.025; -979.000; -888.000
400.897; -136.350; -838.000; -793.000
401.025;  -32.250; -166.000; -152.000
401.152;  -16.000;  220.000;   38.000
401.280;  -79.525; -430.000; -429.000
401.408; -123.650; -712.000; -576.000
401.535; -105.250; -735.000; -758.000
401.663; -192.225;-1134.000;-1054.000
401.790;  -91.075; -514.000; -525.000
401.918;   31.125;  436.000;  405.000
402.046;  -28.675;  134.000;  122.000
402.173;  -40.375;  -18.000;    7.000
402.301;  -82.200; -519.000; -397.000
402.428;   20.925;  528.000;  383.000
402.556; -153.125;-1188.000; -913.000
402.683;  -37.850;  -20.000;   -1.000
402.811;  -12.075;  -37.000; -206.000
402.938;  -22.475;   20.000;   27.000
403.066;  173.050; -574.000; -558.000
403.193;  289.675;  299.000;  239.000
403.321;  212.450; -396.000; -574.000
403.448;  290.250;   83.000;   27.000
403.575;  124.075;  -90.000;  -46.000
403.703; -104.125; -732.000; -557.000
403.830;  -81.525; -531.000; -496.000
403.957; -139.825;-1117.000;-1023.000
404.085;   -8.650;  -61.000; -172.000
404.212;   91.950;  -50.000;   63.000
404.339;  276.375; -566.000; -306.000
404.467; 5991.750; -612.000; -524.000
404.594; 3873.500; -287.000; -227.000
404.721;  843.325; -869.000; -764.000
404.848;   82.275; -113.000; -202.000
404.976; -113.450; -856.000; -783.000
405.103;  -29.150;  -14.000;  -82.000
405.230;  -19.300;  190.000;  226.000
405.357;   18.525;  117.000;   44.000
405.484;  265.950;  -49.000;    5.000
405.612;   38.825; -548.000; -563.000
405.739;  -77.400; -488.000; -243.000
405.866;   78.875;  669.000;  385.000
405.993;  -64.050; -398.000; -102.000
406.120; -130.900; -801.000; -887.000
406.247;  -61.150; -323.000; -342.000
406.374;  370.525;  540.000;  629.000
406.501;   50.825; -632.000; -702.000
406.628;  -88.550; -621.000; -589.000
406.755; -109.400; -803.000; -620.000
406.882;  -51.350; -228.000; -277.000
407.009; -127.975; -719.000; -628.000
407.136;   16.525; -480.000; -401.000
407.263;   74.550; -939.000; -829.000
407.390;  -74.425; -692.000; -614.000
407.517; -192.600;-1139.000;-1187.000
407.644;  -72.850; -332.000; -256.000
407.771;  -70.500; -249.000; -287.000
407.898;    4.300;  168.000;  328.000
408.025;  -91.525; -421.000; -313.000
408.151;  -26.050;   82.000;  153.000
408.278;  -73.650; -267.000; -216.000
408.405; -137.500; -931.000; -899.000
408.532;  -74.475; -549.000; -542.000
408.659; -129.500; -677.000; -648.000
408.785; -203.275;-1298.000;-1170.000
408.912;  -78.125; -412.000; -296.000
409.039; -122.375; -610.000; -686.000
409.166; -103.500; -591.000; -555.000
409.292; -126.725; -571.000; -534.000
409.419; -127.125; -665.000; -649.000
409.546;  -95.325; -431.000; -192.000
409.672; -110.350; -713.000; -545.000
409.799;  -33.825;  -36.000;   34.000
409.926;  -63.050; -180.000; -179.000
410.052; -181.000;-1127.000;-1091.000
410.179;  -80.775; -368.000; -392.000
410.305; -108.225; -375.000; -493.000
410.432;  -43.675; -220.000; -333.000
410.558; -116.325; -305.000; -380.000
410.685; -109.575; -688.000; -431.000
410.812; -102.975; -409.000; -588.000
410.938; -143.775; -964.000; -808.000
411.065; -124.350; -671.000; -645.000
411.191;  -40.950; -189.000; -174.000
411.317; -130.025; -823.000; -742.000
411.444;  -70.025; -317.000; -246.000
411.570;  -75.575; -339.000; -294.000
411.697; -136.275; -758.000; -752.000
411.823; -174.725; -989.000; -999.000
411.949;  -48.800;  -56.000;   17.000
412.076; -119.300; -539.000; -519.000
412.202; -127.775; -758.000; -757.000
412.329; -141.175; -798.000; -752.000
412.455; -117.600; -821.000; -657.000
412.581;  -29.600;  -15.000;  172.000
412.707;  -83.900; -540.000; -457.000
412.834;   -5.500;  156.000;  219.000
412.960;  -92.875; -785.000; -784.000
413.086; -107.175; -743.000; -701.000
413.212;  122.900;  604.000;  578.000
413.339;  -84.700; -685.000; -701.000
413.465;  -11.275; -364.000; -310.000
413.591;  -97.150; -757.000; -474.000
413.717;  -69.125; -358.000; -366.000
413.843; -157.925; -839.000; -861.000
413.969;  -63.050;  -47.000; -292.000
414.096; -114.550; -679.000; -679.000
414.222;  -17.150;  -33.000;   85.000
414.348;  -59.625; -652.000; -385.000
414.474;   72.025;   38.000;  -52.000
414.600;  -28.150; -126.000; -144.000
414.726;  -38.250;  -96.000;  -55.000
414.852;  -76.275; -365.000; -342.000
414.978;   17.575;  104.000;  -18.000
415.104;   28.475;   38.000;   80.000
415.230;   17.325; -329.000; -330.000
415.356;   30.925; -409.000; -514.000
415.482;  187.900;   13.000;  -35.000
415.608;  255.500; -247.000; -323.000
415.734;  958.050;   67.000;   38.000
415.860;20019.575; -875.000; -767.000
415.986;14967.825; -685.000; -607.000
416.111; 1269.925; -798.000; -652.000
416.237;  277.175; -424.000; -571.000
416.363; 1124.400; -765.000; -733.000
416.489; 4380.650; -324.000; -251.000
416.615;  485.800; -707.000; -742.000
416.741;  -20.925; -677.000; -784.000
416.866;  -99.725; -673.000; -736.000
416.992; -121.400; -801.000; -818.000
417.118;  -43.875;  -41.000;  -80.000
417.244;  -77.400; -798.000; -531.000
417.369;  -98.450; -801.000; -612.000
417.495;  -27.000; -325.000; -254.000
417.621;  -92.400;-1015.000; -803.000
417.746;    2.350; -579.000; -572.000
417.872;   47.475; -254.000; -144.000
417.998;   43.875; -515.000; -530.000
418.123; 1050.350;-1073.000; -845.000
418.249; 5551.300; -512.000; -601.000
418.374;  815.975; -916.000; -824.000
418.500;  116.050; -383.000; -482.000
418.626;  114.525;   70.000;  -59.000
418.751;   95.500; -549.000; -448.000
418.877;  197.875; -637.000; -643.000
419.002; 1790.425; -688.000; -560.000
419.128;12989.975; -930.000; -721.000
419.253; 3280.050; -967.000; -837.000
419.379;  414.675; -391.000; -338.000
419.504;  387.650;  325.000;  415.000
419.629;  516.075; -393.000; -212.000
419.755; 3654.225; -317.000; -254.000
419.880;22111.450;  -98.000;   67.000
420.006;11808.300; -280.000; -221.000
420.131;30337.450; -662.000; -775.000
420.256; 4503.000; -315.000; -316.000
420.382;  558.750; -665.000; -687.000
420.507;   70.125; -649.000; -778.000
420.632;   95.975; -337.000; -339.000
420.758;  202.500; -251.000; -425.000
420.883;  -97.450; -876.000; -672.000
421.008; -109.350; -775.000; -619.000
421.133; -103.450; -509.000; -467.000
421.259;  -66.025; -325.000; -259.000
421.384; -135.975; -834.000; -693.000
421.509;  -69.300;-1052.000; -862.000
421.634;  915.225; -936.000; -820.000
421.759;  405.475; -359.000; -327.000
421.885;  -68.325; -717.000; -656.000
422.010;  -92.850; -673.000; -542.000
422.135; -167.050; -695.000; -727.000
422.260;   23.550;  340.000;  280.000
422.385;  -49.725;   12.000;  -98.000
422.510;    2.275;  151.000;  -26.000
422.635;   -4.300;  -87.000;  -43.000
422.760;   77.000; -766.000; -791.000
422.885;   58.375;  -57.000;  -80.000
423.010;  -33.275; -112.000; -169.000
423.135; -101.700; -481.000; -561.000
423.260;  -37.050; -150.000; -245.000
423.385;   63.175;  476.000;  222.000
423.510;   12.375;   71.000;  -22.000
423.635;   56.875;  133.000;   45.000
423.760;   45.650;  383.000;  328.000
423.885;   30.400;  336.000;  391.000
424.010;   -6.200;  -68.000;  -13.000
424.135;  -42.625;    5.000;  -33.000
424.259;  -83.175; -654.000; -457.000
424.384;  -73.150; -279.000; -272.000
424.509;  -43.325; -260.000; -186.000
424.634; -116.575; -761.000; -623.000
424.759;  -40.300; -688.000; -544.000
424.883;  -18.525; -506.000; -527.000
425.008;  159.950; -502.000; -410.000
425.133; 2012.675; -679.000; -653.000
425.258;  980.600; -517.000; -381.000
425.382;  911.250; -867.000; -774.000
425.507; 2375.400; -487.000; -543.000
425.632;  398.150; -802.000; -663.000
425.756;  481.750; -256.000; -146.000
425.881; 6805.850; -831.000; -857.000
426.006;19003.650; -604.000; -355.000
426.130; 2998.700; -696.000; -508.000
426.255;  381.300; -611.000; -491.000
426.379;  158.925; -189.000; -577.000
426.504;  377.350;  660.000;  544.000
426.629; 4081.975; -519.000; -466.000
426.753; 2870.100;   64.000;  -46.000
426.878;  324.025; -252.000; -288.000
427.002;  152.300; -651.000; -668.000
427.127; 1573.650;  -35.000; -158.000
427.251;11763.425;  372.000;  401.000
427.375; 3478.100; -191.000; -173.000
427.500; 2128.175; -616.000; -610.000
427.624;  702.150; -234.000; -400.000
427.749;   70.000; -216.000; -225.000
427.873;  -40.225; -499.000; -412.000
427.997;  -43.050; -222.000; -230.000
428.122;   64.250;  795.000;  703.000
428.246;   61.100;  433.000;  434.000
428.371; -133.350; -869.000; -773.000
428.495; -120.075; -624.000; -646.000
428.619;  -53.650; -186.000; -117.000
428.743;   11.075;   65.000;  132.000
428.868;  -11.900; -732.000; -643.000
428.992; 1241.825; -219.000; -326.000
429.116;  497.825; -329.000; -357.000
429.240;  238.775;  419.000;  426.000
429.365;  -44.175; -454.000; -574.000
429.489;  -55.350; -638.000; -647.000
429.613;    4.775; -236.000; -177.000
429.737;   20.500; -563.000; -432.000
429.861;  263.650; -247.000; -133.000
429.985; 5625.175; -425.000; -305.000
430.109; 6406.100; -770.000; -908.000
430.234;  725.350;   76.000;  -50.000
430.358;   54.775; -250.000; -160.000
430.482;  -72.275; -672.000; -564.000
430.606;  -83.150; -655.000; -375.000
430.730;   -9.925; -437.000; -388.000
430.854;   62.250; -909.000; -835.000
430.978;  -79.450; -795.000; -764.000
431.102; -109.300; -499.000; -422.000
431.226; -137.500; -874.000; -815.000
431.350;    7.800;  345.000;  422.000
431.474;  -99.650; -661.000; -373.000
431.597; -170.075;-1060.000; -848.000
431.721;  -80.250; -276.000; -267.000
431.845; -142.150; -704.000; -472.000
431.969;  -96.250; -304.000; -349.000
432.093; -103.050; -395.000; -317.000
432.217;  -34.100;   32.000;   82.000
432.341; -100.450; -523.000; -518.000
432.464;   -3.700;   96.000;   40.000
432.588;  136.300; -401.000; -329.000
432.712;   67.475;  -52.000;  -52.000
432.836;   25.450;  213.000;  263.000
432.959;  -31.425; -372.000; -311.000
433.083;   61.350;   11.000;    2.000
433.207;  374.100;  285.000;  930.000
433.330; 5184.500; -391.000; -200.000
433.454; 6589.475; -654.000; -638.000
433.578; 3742.875;  583.000;  278.000
433.701;  689.275; -623.000; -675.000
433.825;  117.475; -292.000; -299.000
433.949;  120.775;   28.000;  -72.000
434.072;   15.500; -410.000; -323.000
434.196;  -38.675; -309.000; -117.000
434.319; 3699.025;25482.000;25124.000
434.443;  676.625; -656.000; -603.000
434.566; 2733.300;  281.000;   62.000
434.690;  478.100; -637.000; -383.000
434.813;   41.850; -251.000; -173.000
434.937;  -83.475; -569.000; -696.000
435.060;  -61.750; -423.000; -332.000
435.184;  203.725; -492.000; -217.000
435.307;  107.300;  159.000;  102.000
435.431;  -28.800;  -40.000;   24.000
435.554;  -87.600; -399.000; -240.000
435.677;  -88.250; -350.000; -258.000
435.801;  -52.925;  -25.000;   49.000
435.924;  -22.925;    1.000;  -67.000
436.048; -136.275;-1019.000; -732.000
436.171;  -84.850; -240.000;  -66.000
436.294;  -40.475; -248.000; -229.000
436.417;   90.000; -963.000; -849.000
436.541; -101.500; -814.000; -840.000
436.664;  -42.975; -242.000; -316.000
436.787;  -33.075;   13.000;  113.000
436.910; -114.075; -792.000; -422.000
437.034;  -11.200;  142.000;  143.000
437.157;   24.750;  -11.000;    0.000
437.280;  -71.425; -392.000; -292.000
437.403; -101.050; -982.000; -869.000
437.526;  463.175; -903.000; -865.000
437.649; 1819.350; -505.000; -332.000
437.772;  238.850; -692.000; -540.000
437.896;  100.850;  700.000;  544.000
438.019; -111.875; -758.000; -503.000
438.142; -110.375; -596.000; -506.000
438.265;  -50.425; -639.000; -670.000
438.388;  439.425; -520.000; -410.000
438.511;   53.125; -597.000; -394.000
438.634;  -73.050; -247.000; -125.000
438.757; -153.575; -693.000; -619.000
438.880;  -48.050;  -34.000;  -57.000
439.003; -103.650; -417.000; -437.000
439.126;  -78.900; -287.000; -167.000
439.248;  -70.400;  -98.000; -139.000
439.371;  -45.925;    9.000;  -53.000
439.494;   12.525;  510.000;  439.000
439.617;  -52.050;   65.000;  -88.000
439.740; -193.175; -968.000; -816.000
439.863; -144.250; -755.000; -595.000
439.986; -129.750; -476.000; -431.000
440.108;  -64.375; -161.000; -112.000
440.231; -172.725; -950.000; -836.000
440.354;  -56.500;  -64.000; -150.000
440.477;  -10.050; -566.000; -542.000
440.599;  -33.650; -200.000; -225.000
440.722; -133.525; -709.000; -586.000
440.845;   59.600;  751.000;  928.000
440.968; -121.975; -415.000; -311.000
441.090;  -76.075; -199.000;  -33.000
441.213; -180.700;-1021.000; -825.000
441.336;  -59.150; -159.000;   -5.000
441.458;  -97.050; -549.000; -396.000
441.581; -102.500; -628.000; -629.000
441.703;  -80.100; -152.000;   13.000
441.826; -113.250; -557.000; -400.000
441.948;  -56.500;   56.000;   51.000
442.071;   16.150;  555.000;  424.000
442.193; -117.925; -531.000; -485.000
442.316;    6.775;  152.000;   97.000
442.438;   24.600; -233.000;  -10.000
442.561;   66.700;  272.000;  262.000
442.683;  372.250; -809.000; -522.000
442.806;  953.525;   -8.000;   74.000
442.928;    1.025; -859.000; -604.000
443.051;  -77.475; -577.000; -373.000
443.173;  -96.925; -341.000; -339.000
443.295;  -88.800; -263.000; -371.000
443.418;  -93.025; -321.000;  -29.000
443.540;  -24.225; -106.000;   -4.000
443.662; -131.625; -563.000; -465.000
443.785;  -24.625;  335.000;  199.000
443.907; -113.150; -362.000; -208.000
444.029; -147.150; -767.000; -494.000
444.152; -151.975; -644.000; -554.000
444.274;  -44.875;  -18.000;  -24.000
444.396; -121.800; -461.000; -221.000
444.518; -139.425; -691.000; -454.000
444.640; -109.800; -268.000; -111.000
444.763;  -36.825;  388.000;  249.000
444.885; -142.025; -432.000; -392.000
445.007;  -45.350;   35.000;   86.000
445.129; -133.550; -610.000; -515.000
445.251; -116.100; -372.000; -439.000
445.373; -147.925; -537.000; -386.000
445.495;  -13.550;  242.000;  350.000
445.617;   53.225;  853.000;  753.000
445.739;  -68.100; -215.000;  -97.000
445.861;  -45.900; -245.000; -112.000
445.984;  -44.950; -267.000; -101.000
446.105;  142.250; -418.000; -251.000
446.227;  504.275; -176.000;  -19.000
446.349;  -21.725; -358.000; -249.000
446.471; -109.425; -615.000; -448.000
446.593;  -74.325; -316.000;   19.000
446.715;  -22.200;  -67.000;   41.000
446.837;   26.850;  697.000;  832.000
446.959; -114.200; -457.000; -478.000
447.081; -139.350; -628.000; -518.000
447.203;   35.275;  862.000;  834.000
447.325;  -99.025; -270.000;   42.000
447.446;  -14.100;  286.000;  530.000
447.568; -160.750; -921.000; -803.000
447.690;  -90.825; -236.000; -245.000
447.812; -159.425; -798.000; -519.000
447.933;  -49.450;  155.000;  127.000
448.055;  -88.075; -306.000; -261.000
448.177;  103.625;   31.000;   79.000
448.299;   35.675; -935.000; -727.000
448.420;   11.600;  -25.000;  159.000
448.542;  -61.950;   -3.000;   33.000
448.664;  -33.100;  109.000;  322.000
448.785;  -48.300;  265.000;   83.000
448.907;  -93.700; -614.000; -353.000
449.028;  -51.925; -771.000; -471.000
449.150;   47.550;  492.000;  589.000
449.272; -200.950;-1044.000; -913.000
449.393;   12.900;  612.000;  694.000
449.515; -156.325; -634.000; -581.000
449.636;  -66.550; -264.000; -155.000
449.758;   44.300;  763.000;  622.000
449.879; -102.250; -498.000; -396.000
450.001;  -84.025; -149.000;  -49.000
450.122;  -50.325;  -95.000;  162.000
450.244;  -16.175;   37.000;  364.000
450.365; -102.025; -495.000; -301.000
450.486;  -50.725;   80.000;  268.000
450.608;   13.075;  393.000;  326.000
450.729;   52.850;  578.000;  645.000
450.850;   12.375; -574.000; -466.000
450.972;  745.875; -552.000; -389.000
451.093; 5158.300;  190.000;  588.000
451.214; 2304.125; -516.000; -337.000
451.336;  408.600;  773.000;  579.000
451.457;   58.150;  264.000;  393.000
451.578;  -45.025; -118.000;  -74.000
451.699; -125.375; -546.000; -540.000
451.821;  -79.475; -284.000;  -50.000
451.942;   -9.000;  278.000;  285.000
452.063;   34.550;  228.000;  419.000
452.184;  536.925;  -54.000;  -49.000
452.305; 1137.625;  103.000;  170.000
452.427;  125.700; -549.000; -301.000
452.548;  -29.650;   23.000;   79.000
452.669;  -61.975; -257.000;  -89.000
452.790;  -49.500;    3.000;  -18.000
452.911;  -16.575;  195.000;  259.000
453.032;  -82.175; -289.000;  -60.000
453.153;  -60.600;  -29.000;   81.000
453.274;   57.775;  737.000;  868.000
453.395;  -57.675;  -51.000;  175.000
453.516;  113.725; 1317.000; 1388.000
453.637;  -78.650; -205.000; -150.000
453.758;  -68.225;   15.000;   69.000
453.879; -123.750; -462.000; -250.000
454.000;   78.550; 1086.000;  948.000
454.121; -125.150; -554.000; -326.000
454.242; -128.625; -599.000; -383.000
454.362;  -71.125;  -99.000;  114.000
454.483;  -60.100; -309.000; -229.000
454.604;   46.075;  512.000;  580.000
454.725; -132.400; -627.000; -555.000
454.846; -126.350; -474.000; -406.000
454.967;  -31.900;  230.000;  539.000
455.087;  -50.250;  179.000;  153.000
455.208;   16.950;  554.000;  856.000
455.329;  -74.450;  -22.000;   82.000
455.450;   24.225;  473.000;  633.000
455.570;  -86.375; -234.000; -211.000
455.691;  -49.475;  201.000;  407.000
455.812; -102.450; -270.000;  -92.000
455.932;  -73.125;  107.000;  -97.000
456.053;  -81.500;   36.000;   24.000
456.173; -135.250; -433.000; -355.000
456.294; -130.675; -476.000; -303.000
456.415;  -82.925;  -73.000;   70.000
456.535;  -48.775;  297.000;  273.000
456.656;  -56.275;  132.000;  240.000
456.776;  -84.625;    3.000;  298.000
456.897;  -11.800;  308.000;  513.000
457.017;  -83.075; -153.000;   -3.000
457.138; -131.125; -402.000; -249.000
457.258;  -43.650;  263.000;  224.000
457.379;  -17.350;  509.000;  521.000
457.499;  -41.950;  443.000;  432.000
457.620; -123.800; -407.000; -231.000
457.740; -103.850; -132.000;  -11.000
457.860;  -53.625;   87.000;   44.000
457.981;  -63.700;  132.000;  124.000
458.101;  -71.950;  -89.000;   40.000
458.221;  -24.475;  336.000;  402.000
458.342;  -73.550;   -4.000;  -37.000
458.462;   14.025;  617.000;  352.000
458.582;  -31.825; -302.000; -294.000
458.703;   25.075;  303.000;  154.000
458.823;  -22.125;   22.000;  163.000
458.943;   20.200;  341.000;  467.000
459.063;  -15.550; 1124.000;  192.000
459.183;  -36.725;  328.000;  313.000
459.304;   14.225;  315.000;  517.000
459.424;  -69.800; -246.000;  -89.000
459.544;  330.450;  388.000;  764.000
459.664;  860.250;  499.000;  506.000
459.784;  312.925; 1004.000; 1175.000
459.904;   55.200;  867.000;  744.000
460.024;   50.100;  867.000;  684.000
460.144;  -16.025;  449.000;  554.000
460.264;  -11.525;  515.000;  327.000
460.385;  -94.000; -145.000; -119.000
460.505;   24.750;  905.000;  858.000
460.625;  -96.850;  -17.000;  -68.000
460.745;  -33.525;  396.000;  541.000
460.864;  -57.500;  153.000;  469.000
460.984;  -11.075;  499.000;  573.000
461.104;  132.075; 1656.000; 1775.000
461.224;   19.125;  657.000;  650.000
461.344;  -40.975;  431.000;  360.000
461.464;  -46.075;  258.000;  513.000
461.584;  -39.075;  283.000;  466.000
461.704;  -56.600;   58.000;  108.000
461.824;  -74.500;  238.000;  259.000
461.943;  -47.050;  191.000;  130.000
462.063;  -87.650;    2.000;  324.000
462.183;   29.900;  639.000;  717.000
462.303;   92.875; 1678.000; 1230.000
462.422;    1.050;  781.000;  840.000
462.542;  -42.900;  271.000;  391.000
462.662;   20.525;  353.000;  380.000
462.782;  221.750;  833.000;  572.000
462.901;  471.550;  545.000;  717.000
463.021;  262.150; 1702.000; 1638.000
463.141;   -3.000;  337.000;  770.000
463.260;  -37.325;  614.000;  474.000
463.380;   14.850;  902.000;  884.000
463.499;  -45.700;  342.000;  332.000
463.619;  -30.650;  581.000;  559.000
463.738;   94.950; 1644.000;  903.000
463.858;    5.550;  657.000;  811.000
463.978;  -28.250;  542.000;  396.000
464.097;   46.975;  921.000; 1114.000
464.217;   99.050; 1196.000; 1143.000
464.336;   98.700; 1068.000; 1130.000
464.455;  -46.325;  328.000;  659.000
464.575;   19.450;  597.000;  602.000
464.694;  148.700; 1204.000; 1179.000
464.814;  119.875; 1190.000; 1138.000
464.933;   64.225; 1095.000; 1027.000
465.052;   87.375; 1412.000; 1054.000
465.172;   59.100;  922.000;  799.000
465.291;  127.425; 1376.000; 1320.000
465.410;    3.900;  462.000;  735.000
465.530;   77.475; 1355.000; 1310.000
465.649;   60.775; 1209.000; 1273.000
465.768;  104.275; 1673.000; 1508.000
465.888;   38.925;  941.000; 1174.000
466.007;   88.625; 1335.000; 1440.000
466.126;  -18.800;  721.000;  641.000
466.245;   41.600; 1176.000; 1187.000
466.364;    4.400;  950.000; 1060.000
466.484;   45.725; 1024.000; 1213.000
466.603;   26.700; 1101.000; 1222.000
466.722;  113.500; 1490.000; 1769.000
466.841;   51.650; 1151.000; 1401.000
466.960;   41.175; 1069.000;  972.000
467.079;  111.450; 1971.000; 1786.000
467.198;   47.525; 1238.000; 1181.000
467.317;   73.950; 1768.000; 1162.000
467.436;   59.675; 1709.000; 1261.000
467.555;  110.625; 1796.000; 1746.000
467.674;   47.900; 1227.000; 1329.000
467.793;   36.025; 1376.000; 1374.000
467.912;   88.475; 1658.000; 1539.000
468.031;  116.425; 2038.000; 1930.000
468.150;  122.500; 1842.000; 1837.000
468.269;  189.700; 2313.000; 2090.000
468.388;  181.150; 2168.000; 2339.000
468.507;  238.350; 2884.000; 2903.000
468.626;  268.575; 2555.000; 2541.000
468.744;  133.725; 2018.000; 2174.000
468.863;  201.800; 2312.000; 2523.000
468.982;  108.525; 1503.000; 1555.000
469.101;  223.900; 2788.000; 2692.000
469.220;  146.150; 2333.000; 2176.000
469.338;  245.075; 2935.000; 3051.000
469.457;  176.975; 2719.000; 2545.000
469.576;  331.700; 3953.000; 3784.000
469.695;  229.300; 2877.000; 3066.000
469.813;  416.850; 4148.000; 4192.000
469.932;  374.625; 4255.000; 4485.000
470.051;  419.650; 4075.000; 4161.000
470.169;  834.150; 4470.000; 4338.000
470.288; 1505.675; 4700.000; 4809.000
470.406;  891.350; 5059.000; 5194.000
470.525;  616.275; 6101.000; 5787.000
470.644;  642.875; 6847.000; 6794.000
470.762;  830.050; 8397.000; 7873.000
470.881;  900.775; 8651.000; 8464.000
470.999; 1040.350; 9685.000; 9151.000
471.118; 1106.050;11174.000;10711.000

