
Integration time [ms]: 200.000
Averaging Nr. [scans]: 10
Smoothing Nr. [pixels]: 0
Data measured with spectrometer [name]: 2101012U2
Wave   ;Sample   ;Dark     ;Reference
[nm]   ;[counts] ;[counts] ;[counts] 

197.733;  143.300;  516.000;  404.000
197.879; -199.300; -610.000; -634.000
198.025;  -75.200; -475.000; -420.000
198.171; -183.700; -602.000; -612.000
198.317;  -51.000; -401.000; -316.000
198.463; -150.700; -655.000; -404.000
198.609;   75.800;  181.000; -137.000
198.755; -147.700; -644.000; -410.000
198.901; -144.700; -505.000; -424.000
199.047; -123.800; -615.000; -488.000
199.193;  -69.700; -230.000; -468.000
199.339; -125.900; -222.000; -369.000
199.485;   98.500;  330.000;  271.000
199.631;   22.500;  227.000;  310.000
199.777; -102.800; -466.000; -398.000
199.923; -142.800; -610.000; -424.000
200.069;   -3.800; -141.000;  -58.000
200.215;   87.800;  128.000;  453.000
200.361;  124.600;  243.000;  477.000
200.507; -149.100; -600.000; -373.000
200.653;  -54.000; -371.000; -194.000
200.798;  -86.500; -215.000; -125.000
200.944;    6.500; -146.000;  -41.000
201.090;   79.400;   61.000;  222.000
201.236;   29.900; -116.000; -158.000
201.382;  243.700;  874.000;  903.000
201.528;   31.400;  -58.000;  -48.000
201.674;  -96.200; -386.000; -293.000
201.819; -111.600; -540.000; -439.000
201.965; -198.800; -699.000; -447.000
202.111;  -41.100; -273.000; -226.000
202.257;  -71.300; -250.000; -238.000
202.402;   43.100;   13.000;  -36.000
202.548;  -42.500; -169.000; -116.000
202.694;  166.600;  410.000; -183.000
202.840; -164.300; -603.000; -531.000
202.985; -132.600; -681.000; -639.000
203.131; -216.600; -832.000; -666.000
203.277;  -25.400; -199.000; -262.000
203.423; -113.700; -434.000; -520.000
203.568;  -85.700; -462.000; -237.000
203.714; -140.200; -535.000; -542.000
203.860; -185.500; -682.000; -641.000
204.005;   87.600;  112.000;  167.000
204.151;  178.700;  561.000;  556.000
204.296; -100.500; -354.000; -221.000
204.442; -143.500; -600.000; -547.000
204.588; -169.100; -592.000; -579.000
204.733;   28.900;  178.000;  168.000
204.879; -270.000;-1018.000; -822.000
205.025;   16.200;  -99.000;  126.000
205.170;    8.300;  -17.000;   94.000
205.316;  179.600;  438.000;  661.000
205.461; -151.000; -698.000; -554.000
205.607;  158.600;  609.000;  665.000
205.752; -168.100; -626.000; -551.000
205.898; -104.600; -501.000; -391.000
206.043; -125.500; -578.000; -506.000
206.189;  -79.800; -243.000; -285.000
206.334;  135.900;  554.000;  606.000
206.480;  164.200;  409.000;  239.000
206.625; -156.400; -529.000; -552.000
206.771; -110.000; -451.000; -373.000
206.916;  -60.300; -210.000; -537.000
207.062; -169.300; -545.000; -591.000
207.207; -133.800; -546.000; -443.000
207.353;  119.800;  185.000;  460.000
207.498;   20.500;  196.000;   85.000
207.643; -109.400; -501.000; -370.000
207.789; -252.900;-1069.000; -910.000
207.934; -190.100; -665.000; -713.000
208.080;  -43.200; -154.000;   66.000
208.225;  -23.000;  -22.000;  -57.000
208.370; -176.100; -727.000; -619.000
208.516; -151.500; -741.000; -487.000
208.661;  -64.900; -127.000;  -69.000
208.806;  -25.000; -165.000; -171.000
208.952; -236.600;-1044.000; -731.000
209.097;  149.300;  378.000;  349.000
209.242; -100.400; -307.000; -382.000
209.387;  107.600;  392.000;  350.000
209.533; -127.200; -321.000; -350.000
209.678;  177.200;  472.000;  543.000
209.823; -106.100; -408.000; -310.000
209.969; -209.400; -860.000; -757.000
210.114; -218.600; -907.000; -719.000
210.259; -233.800; -939.000; -889.000
210.404;  -15.100; -171.000;  103.000
210.549;    7.400;  108.000;    3.000
210.695;  -21.500;   -3.000;  -95.000
210.840;   77.300;   94.000;   67.000
210.985; -128.800; -484.000; -303.000
211.130;  167.500;  268.000;  406.000
211.275;   52.500;  207.000;  199.000
211.420; -138.600; -300.000; -289.000
211.566; -131.100; -536.000; -489.000
211.711;   42.600;  218.000;  157.000
211.856; -122.600; -545.000; -519.000
212.001;   30.400;  151.000;   44.000
212.146;   11.400;  153.000;   49.000
212.291;  -69.100; -210.000; -186.000
212.436;  -63.700; -280.000;   -6.000
212.581; -188.300; -685.000; -653.000
212.726; -139.400; -487.000; -538.000
212.871;  -74.900; -552.000; -217.000
213.016; -309.200;-1172.000;-1029.000
213.161;  147.700;  406.000;  291.000
213.306; -154.100; -435.000; -577.000
213.451; -208.200; -778.000; -689.000
213.596; -113.400; -455.000; -347.000
213.741; -129.900; -448.000; -538.000
213.886; -158.000; -498.000; -517.000
214.031;  -41.900; -294.000; -124.000
214.176; -111.500; -408.000; -341.000
214.321;  -18.500; -296.000; -157.000
214.466;  -56.300; -163.000;  -43.000
214.611;   32.300;  -61.000;  -10.000
214.756; -246.700; -948.000; -858.000
214.901;  -21.400; -388.000; -226.000
215.046; -267.700; -797.000; -825.000
215.191;   60.200;  128.000;   35.000
215.336;  -14.700; -157.000;  -19.000
215.480; -113.600; -684.000; -505.000
215.625;  -58.000; -175.000;  -19.000
215.770; -159.000; -757.000; -662.000
215.915;  -30.400;   -5.000;  -97.000
216.060;  -20.900; -113.000;  -21.000
216.205; -259.400; -731.000; -779.000
216.349; -132.200; -470.000; -533.000
216.494; -289.300; -939.000; -867.000
216.639; -221.100; -823.000; -888.000
216.784; -184.600; -577.000; -525.000
216.929;  118.300;  392.000;  281.000
217.073;    0.300; -244.000;  -31.000
217.218;   32.000;   78.000;  -47.000
217.363; -181.900; -656.000; -618.000
217.507; -157.600; -623.000; -588.000
217.652; -266.900; -845.000; -874.000
217.797; -184.500; -708.000; -659.000
217.942; -233.900; -856.000; -720.000
218.086;  157.000;  608.000;  539.000
218.231;   -8.300; -174.000;  -26.000
218.376;  -55.800; -337.000; -229.000
218.520;   41.000;  -41.000;   96.000
218.665;  -42.800; -338.000; -204.000
218.810;  -93.700; -275.000; -233.000
218.954;   36.000;  201.000;   35.000
219.099; -232.300; -713.000; -963.000
219.243; -143.400; -589.000; -554.000
219.388;  -59.900; -264.000; -136.000
219.532;    6.300; -116.000; -116.000
219.677; -152.300; -564.000; -521.000
219.822;   36.200;   33.000;   89.000
219.966;   35.500;   17.000;  -99.000
220.111;  -57.500; -328.000;  -40.000
220.255; -188.100; -797.000; -750.000
220.400;  -17.900; -180.000; -146.000
220.544; -114.100; -516.000; -450.000
220.689;  -77.600; -422.000; -451.000
220.833;  -24.600; -123.000;  -58.000
220.978;  -86.300; -393.000; -563.000
221.122;   33.200;  319.000;  307.000
221.267; -238.800; -906.000; -837.000
221.411; -138.700; -478.000; -394.000
221.555;  -19.800; -104.000;  -23.000
221.700;  -93.500; -329.000; -222.000
221.844;  113.200;  255.000;  272.000
221.989;  -79.000; -328.000; -311.000
222.133;  -63.700; -289.000; -307.000
222.277;   -8.000;    5.000;   78.000
222.422;   90.000;  227.000;  113.000
222.566; -101.800; -381.000; -214.000
222.711; -108.500; -414.000; -479.000
222.855; -161.200; -643.000; -586.000
222.999; -173.800; -642.000; -717.000
223.144;  -52.900; -195.000; -194.000
223.288;  116.300;  423.000;  251.000
223.432;    6.600;  184.000;  230.000
223.576;   42.700;  152.000;  -21.000
223.721;   77.100;  364.000;  273.000
223.865; -108.400; -472.000; -475.000
224.009;  465.400; 1673.000; 1631.000
224.153; -130.300; -660.000; -671.000
224.298; -153.700; -531.000; -489.000
224.442;   -3.300;  -74.000;  -33.000
224.586;  -14.700; -169.000; -106.000
224.730; -203.900; -858.000; -670.000
224.875; -195.000; -739.000; -688.000
225.019;   33.400;  102.000;  188.000
225.163;  127.300;  208.000;  341.000
225.307;   48.900;   97.000;  -91.000
225.451;  111.100;  360.000;  481.000
225.595;   77.300;  264.000;  176.000
225.739;  -33.400; -170.000;  -94.000
225.884;   28.600;   86.000;    5.000
226.028; -197.900; -760.000; -626.000
226.172;  -57.700; -260.000; -273.000
226.316; -239.700; -941.000; -902.000
226.460; -144.800; -645.000; -493.000
226.604;  -87.500; -406.000; -400.000
226.748; -187.500; -836.000; -733.000
226.892;  -63.300; -227.000; -181.000
227.036;  -90.700; -537.000; -447.000
227.180; -122.200; -551.000; -375.000
227.324; -133.700; -561.000; -580.000
227.468; -238.800; -819.000; -717.000
227.612;   49.000;  242.000;  -28.000
227.756; -214.300; -845.000; -698.000
227.900;   85.300;  342.000;  441.000
228.044;  -95.600; -509.000; -290.000
228.188;  125.200;  448.000;  568.000
228.332; -175.300; -546.000; -472.000
228.476;  -36.200; -223.000; -149.000
228.620;  -37.200; -210.000; -150.000
228.764;  132.300;  431.000;  349.000
228.908;  -18.400; -155.000;   30.000
229.052; -121.800; -615.000; -528.000
229.195;  -25.100; -172.000;   13.000
229.339;  -69.200; -235.000; -305.000
229.483;  -31.600;    5.000; -162.000
229.627;   -8.000; -156.000;  139.000
229.771;  -97.500; -218.000; -294.000
229.915;   63.500;  230.000;   79.000
230.059; -175.800; -648.000; -663.000
230.202;  -77.700; -370.000; -317.000
230.346;  -30.400; -107.000;  107.000
230.490; -105.900; -489.000; -521.000
230.634; -213.000; -736.000; -553.000
230.777;  194.700;  478.000;  509.000
230.921; -117.900; -450.000; -359.000
231.065;  -51.200; -246.000; -286.000
231.209;   43.700;  261.000;  265.000
231.352;   35.600;   54.000;   40.000
231.496;   25.500;  568.000;  188.000
231.640; -107.300; -693.000; -621.000
231.783;  141.500;  546.000;  525.000
231.927;  -72.700; -294.000; -365.000
232.071; -269.700; -962.000; -736.000
232.214; -194.100; -980.000; -764.000
232.358; -207.900; -683.000; -599.000
232.502;   45.300;  -19.000;    7.000
232.645; -284.300;-1090.000; -927.000
232.789;  -23.400; -257.000; -218.000
232.933;  -87.400; -407.000; -224.000
233.076; -232.000;-1038.000; -897.000
233.220; -211.300; -752.000; -777.000
233.363; -150.900; -669.000; -477.000
233.507;  133.600;  371.000;  129.000
233.650; -177.000; -764.000; -834.000
233.794;   63.000;  438.000;  461.000
233.938; -121.800; -530.000; -362.000
234.081;  -48.700;  -93.000;   31.000
234.225; -125.900; -631.000; -539.000
234.368; -243.700; -773.000; -723.000
234.512;  -43.400; -385.000; -299.000
234.655; -165.200; -582.000; -555.000
234.798; -129.300; -493.000; -466.000
234.942; -242.200; -884.000;-1002.000
235.085; -122.500; -651.000; -443.000
235.229; -167.700; -405.000; -410.000
235.372;  -99.700; -247.000; -191.000
235.516; -125.700; -397.000; -321.000
235.659;   45.100;   92.000;  121.000
235.802;  -13.700;  -38.000;  -22.000
235.946;   93.400;  335.000;  215.000
236.089;   51.600;  126.000;  250.000
236.233;  136.800;  275.000;  298.000
236.376; -101.200; -235.000; -378.000
236.519;  -65.600; -297.000; -319.000
236.663;  -75.700; -215.000; -117.000
236.806; -263.800;-1029.000; -999.000
236.949;  131.600;  543.000;  431.000
237.092;  148.500;  412.000;  391.000
237.236; -156.600; -589.000; -502.000
237.379;  125.400;  352.000;  428.000
237.522; -222.800; -879.000; -768.000
237.666;    0.800; -271.000;   18.000
237.809; -231.600; -851.000; -823.000
237.952;   75.900;  469.000;  271.000
238.095; -128.100; -447.000; -442.000
238.238;  198.000;  688.000;  700.000
238.382;  -18.300;  166.000;  103.000
238.525; -137.000; -598.000; -511.000
238.668; -264.500;-1060.000; -985.000
238.811; -116.100; -638.000; -643.000
238.954; -109.100; -483.000; -334.000
239.097;  181.400;  617.000;  664.000
239.241;   56.800;  394.000;  326.000
239.384;  -71.600; -254.000; -214.000
239.527; -107.500; -424.000; -224.000
239.670; -253.300; -994.000;-1091.000
239.813; -248.000; -696.000; -658.000
239.956;  217.100;  579.000;  473.000
240.099; -229.100; -778.000; -725.000
240.242;  125.900;  428.000;  432.000
240.385;   91.900;  466.000;  450.000
240.528; -131.500; -706.000; -473.000
240.671;   21.800;  189.000;  134.000
240.814;  -46.900; -441.000; -158.000
240.957; -218.100; -767.000; -578.000
241.100; -183.400; -779.000; -755.000
241.243; -268.200;-1234.000; -893.000
241.386; -103.100; -508.000; -379.000
241.529; -199.100; -735.000; -547.000
241.672; -109.200; -566.000; -495.000
241.815; -203.000; -832.000; -808.000
241.958;  -12.100; -125.000; -182.000
242.101; -171.600; -545.000; -390.000
242.244;  -49.000; -270.000; -325.000
242.387;  -63.600; -304.000; -246.000
242.530;  153.400;  470.000;  134.000
242.673;  -55.600; -381.000; -309.000
242.815; -228.200; -925.000; -899.000
242.958; -121.300; -482.000; -381.000
243.101;   34.100;  132.000;  187.000
243.244; -189.300; -564.000; -521.000
243.387;  -85.400; -313.000; -316.000
243.530; -180.900; -657.000; -674.000
243.672;   30.900;   43.000;  -92.000
243.815;  -90.800; -355.000; -283.000
243.958;   49.100;   98.000;  -26.000
244.101;   -3.900;   59.000;  -16.000
244.243;  -13.100;  -47.000;  101.000
244.386; -218.400; -761.000; -630.000
244.529;  -49.700; -132.000; -139.000
244.672; -310.400;-1154.000; -951.000
244.814; -182.500; -621.000; -794.000
244.957; -110.600; -380.000; -304.000
245.100; -136.300; -489.000; -489.000
245.242; -130.900; -387.000; -374.000
245.385;  -25.500;  -59.000;  -39.000
245.528; -202.000; -871.000; -705.000
245.670;  195.900;  612.000;  634.000
245.813; -149.500; -599.000; -547.000
245.956;  -14.700; -324.000; -275.000
246.098; -139.400; -508.000; -650.000
246.241;   40.200;  194.000;   48.000
246.383;   -4.200; -119.000;  -73.000
246.526; -135.600; -454.000; -525.000
246.669; -236.100; -889.000; -780.000
246.811;   35.700;  172.000;   -1.000
246.954; -113.700; -512.000; -426.000
247.096;  -19.500;  -84.000;   -6.000
247.239; -143.700; -482.000; -445.000
247.381; -154.400; -647.000; -488.000
247.524;  177.400;  645.000;  679.000
247.666;   33.900;   58.000;   11.000
247.809; -229.200; -887.000; -691.000
247.951;    1.200;  -75.000;  138.000
248.094;   64.200;  432.000;  308.000
248.236; -314.800;-1262.000;-1238.000
248.378;  -49.700; -356.000;  -81.000
248.521;  -46.000; -334.000; -337.000
248.663;  -90.600; -236.000; -267.000
248.806;  -36.900; -300.000; -266.000
248.948; -217.100; -886.000; -763.000
249.090; -118.600; -428.000; -398.000
249.233;  -92.000; -344.000; -381.000
249.375;  -93.000; -474.000; -451.000
249.518;  -25.400;  -83.000; -133.000
249.660;   -2.900; -103.000;    3.000
249.802; -362.000;-1303.000;-1189.000
249.945; -142.800; -612.000; -540.000
250.087; -225.800; -834.000; -768.000
250.229; -102.500; -362.000; -480.000
250.371; -111.500; -494.000; -439.000
250.514;  -94.800; -310.000; -244.000
250.656; -109.400;   69.000;  102.000
250.798; -232.900; -849.000; -800.000
250.940; -138.100; -322.000; -322.000
251.083;  -44.500; -335.000; -111.000
251.225;   99.600;  338.000;  310.000
251.367;  -75.900; -274.000; -373.000
251.509;  -68.200; -265.000; -210.000
251.651; -183.500; -731.000; -671.000
251.794;   90.100;  538.000;  632.000
251.936; -199.300; -821.000; -747.000
252.078; -168.600; -540.000; -461.000
252.220; -144.700; -645.000; -477.000
252.362;  146.200;  344.000;  462.000
252.504; -128.000; -677.000; -584.000
252.646; -211.900; -875.000; -722.000
252.788;   10.200;   14.000; -128.000
252.931;  -52.500; -257.000; -253.000
253.073;  -77.300; -376.000; -317.000
253.215;   -3.000;  141.000;  122.000
253.357;   -1.800;   82.000; -153.000
253.499; -106.200; -374.000; -234.000
253.641; -180.700; -749.000; -594.000
253.783; -207.600; -609.000; -527.000
253.925; -167.700; -586.000; -591.000
254.067; -223.400; -744.000; -667.000
254.209;  -30.800; -391.000; -259.000
254.351; -293.200; -865.000; -883.000
254.493; -131.300; -441.000; -417.000
254.635; -228.600; -936.000; -818.000
254.777; -183.200; -752.000; -687.000
254.918; -143.100; -512.000; -430.000
255.060;  -80.600; -551.000; -395.000
255.202; -110.600; -473.000; -261.000
255.344; -139.700; -658.000; -455.000
255.486; -146.600; -471.000; -406.000
255.628; -195.300; -780.000; -781.000
255.770; -167.100; -676.000; -536.000
255.912; -120.300; -559.000; -468.000
256.053; -149.400; -730.000; -508.000
256.195;  312.100; 1008.000;  903.000
256.337; -204.500; -861.000; -595.000
256.479;  158.000;  532.000;  416.000
256.621;  -87.000; -394.000; -212.000
256.762; -206.800; -789.000; -742.000
256.904;  107.900;  485.000;  487.000
257.046;  -74.800; -381.000; -271.000
257.188;  -57.200; -351.000; -264.000
257.329; -136.500; -525.000; -464.000
257.471; -254.000; -939.000; -807.000
257.613; -128.600; -584.000; -498.000
257.755; -307.300;-1073.000; -982.000
257.896;   71.900;  286.000;  392.000
258.038; -153.500; -403.000; -352.000
258.180;  -77.500; -354.000; -279.000
258.321; -169.300; -581.000; -457.000
258.463;   -2.900;  -71.000;  133.000
258.605; -199.700; -562.000; -570.000
258.746; -200.400; -886.000; -772.000
258.888; -308.300;-1026.000;-1020.000
259.029;   52.000;  121.000;   -8.000
259.171; -177.600; -614.000; -550.000
259.313;    8.500;  -49.000;  -47.000
259.454; -154.900; -536.000; -414.000
259.596; -114.300; -483.000; -390.000
259.737; -161.200; -590.000; -474.000
259.879;   97.600;  217.000;  311.000
260.020;  179.000;  901.000;  636.000
260.162;  -73.500; -146.000; -253.000
260.303; -250.500; -768.000; -687.000
260.445; -150.500; -609.000; -613.000
260.586;   73.300;  392.000;  157.000
260.728;  -64.700; -360.000; -248.000
260.869; -147.700; -350.000; -343.000
261.011;  220.400;  706.000;  537.000
261.152; -119.800; -479.000; -319.000
261.293; -121.700; -576.000; -595.000
261.435;  -64.300; -219.000; -184.000
261.576;  -72.900; -455.000; -325.000
261.718;  152.700;  420.000;  470.000
261.859; -241.000; -940.000; -949.000
262.000; -274.100; -951.000;-1016.000
262.142;  -12.200;  -52.000;  -60.000
262.283; -204.900; -808.000; -691.000
262.424; -156.900; -666.000; -625.000
262.566; -324.400;-1161.000; -983.000
262.707; -214.000; -840.000; -830.000
262.848; -230.400; -769.000; -726.000
262.990;  -96.600; -362.000; -345.000
263.131;  179.800;  650.000;  681.000
263.272;  -17.000;  -61.000;  -41.000
263.413; -168.000; -589.000; -561.000
263.555;  -86.800; -669.000; -143.000
263.696; -153.100; -550.000; -641.000
263.837;  -77.700; -449.000; -551.000
263.978;   12.500;   -5.000;  -77.000
264.119;  -59.800; -283.000; -264.000
264.261; -227.600; -847.000; -630.000
264.402;   18.300;   33.000;   40.000
264.543; -144.400; -509.000; -524.000
264.684;  -11.800;   61.000;  -50.000
264.825; -137.700; -816.000; -538.000
264.966;   19.400;  -84.000;  -67.000
265.107; -231.500; -646.000; -670.000
265.248; -205.200; -825.000; -812.000
265.390;  -23.600;  152.000;   -9.000
265.531;  -13.100; -238.000; -107.000
265.672; -183.300; -557.000; -630.000
265.813;  158.400;  563.000;  439.000
265.954; -316.600; -959.000; -940.000
266.095;   -8.500; -372.000; -322.000
266.236; -210.500; -686.000; -548.000
266.377;  -75.900; -243.000; -297.000
266.518; -160.500; -619.000; -547.000
266.659;   86.900;  170.000;  268.000
266.800;   39.000;   83.000;   85.000
266.941; -116.400; -487.000; -478.000
267.082;   41.600;  354.000;   99.000
267.223;  -86.400; -344.000; -273.000
267.364; -235.800; -892.000; -686.000
267.504;   -3.900;    3.000;  135.000
267.645;    1.300;  160.000;   67.000
267.786;  -72.700; -147.000;  -86.000
267.927; -141.300; -473.000; -379.000
268.068;   -1.900; -186.000;  -61.000
268.209; -112.800; -175.000; -413.000
268.350; -100.200; -388.000; -532.000
268.490; -120.900; -648.000; -521.000
268.631;   88.500;  127.000;  225.000
268.772; -216.600; -874.000; -647.000
268.913;  -71.500; -328.000; -476.000
269.054;   -6.600; -117.000;   12.000
269.194;  -54.500; -418.000; -402.000
269.335; -310.800;-1137.000;-1074.000
269.476;  -13.800;   33.000;  -35.000
269.617; -118.300; -347.000; -392.000
269.757; -162.100; -713.000; -646.000
269.898; -202.800; -856.000; -613.000
270.039; -115.200; -415.000; -405.000
270.180; -275.000; -952.000; -816.000
270.320;  -12.900; -190.000; -250.000
270.461;  -86.300; -277.000; -249.000
270.602;  -48.200; -186.000; -156.000
270.742; -209.800; -868.000; -943.000
270.883;  -82.600; -442.000; -390.000
271.023; -100.700; -358.000; -357.000
271.164; -135.500; -607.000; -528.000
271.305; -192.400; -666.000; -654.000
271.445; -186.200; -722.000; -683.000
271.586; -120.900; -462.000; -283.000
271.726;  -84.000; -397.000; -322.000
271.867; -126.300; -594.000; -534.000
272.008;  188.900; -473.000; -285.000
272.148;  205.200;  462.000;  468.000
272.289;   19.000; -113.000; -181.000
272.429;   21.600;   19.000;  185.000
272.570; -166.500; -633.000; -737.000
272.710; -190.900; -825.000; -775.000
272.851;  -29.600;  113.000; -130.000
272.991; -327.900;-1173.000;-1077.000
273.131; -101.600; -419.000; -459.000
273.272; -193.600; -683.000; -723.000
273.412;   13.000; -143.000;  -31.000
273.553; -114.600; -488.000; -507.000
273.693;  275.900;  913.000;  858.000
273.834; -202.800; -894.000; -692.000
273.974; -119.400; -664.000; -615.000
274.114; -203.400; -772.000; -560.000
274.255;  191.000;  414.000;  373.000
274.395;  -13.500; -180.000; -125.000
274.535;   75.600;  199.000;  350.000
274.676;   59.700;  225.000;   94.000
274.816;   11.700;  110.000;   34.000
274.956; -171.800; -624.000; -690.000
275.097; -172.700;-1014.000; -922.000
275.237; -241.700; -913.000; -803.000
275.377; -176.400; -778.000; -689.000
275.517; -303.600; -878.000; -937.000
275.658; -107.000; -590.000; -555.000
275.798; -143.400; -606.000; -413.000
275.938;   71.900;  215.000;  323.000
276.078; -210.500; -626.000; -395.000
276.218;   15.400;   99.000;  104.000
276.359; -254.100;-1026.000;-1024.000
276.499; -132.000; -605.000; -446.000
276.639;  -51.300; -305.000; -151.000
276.779;  -72.200; -475.000; -357.000
276.919; -185.100; -783.000; -624.000
277.059;  -41.700; -261.000; -212.000
277.199;  -80.000; -357.000; -259.000
277.340;  101.100;  287.000;  175.000
277.480; -242.400; -840.000; -693.000
277.620;   80.700;  192.000;   16.000
277.760; -412.200;-1533.000;-1294.000
277.900;   39.900;  113.000;   33.000
278.040;   36.900;  137.000;  159.000
278.180;   92.900;  270.000;  170.000
278.320;   27.100;   21.000;   56.000
278.460; -113.700; -443.000; -469.000
278.600; -172.800; -708.000; -598.000
278.740;  114.800;  448.000;  224.000
278.880; -175.500; -768.000; -791.000
279.020;   18.800; -194.000; -144.000
279.160; -169.000; -672.000; -595.000
279.300; -221.100; -926.000; -873.000
279.440; -201.900; -709.000; -622.000
279.579; -125.000;-1014.000; -929.000
279.719; -109.400; -410.000; -394.000
279.859;  135.200;   -4.000;   41.000
279.999;   20.600; -208.000;  101.000
280.139;  -32.900; -435.000; -387.000
280.279; -168.100; -708.000; -745.000
280.419;  -36.300; -229.000; -147.000
280.559;  -58.000; -259.000; -180.000
280.698; -151.800; -790.000; -639.000
280.838; -206.600; -778.000; -800.000
280.978; -160.600; -846.000; -790.000
281.118; -218.300; -811.000; -704.000
281.257;   45.200;   24.000;    6.000
281.397; -229.900;-1094.000; -960.000
281.537; -173.300; -599.000; -712.000
281.677;  -14.800; -150.000; -101.000
281.816; -145.600; -700.000; -630.000
281.956;  -28.300; -193.000; -257.000
282.096; -113.500; -539.000; -396.000
282.235; -206.100; -672.000; -638.000
282.375;  -12.100; -243.000;  -98.000
282.515; -191.200; -715.000; -707.000
282.654;   81.500;   29.000;  106.000
282.794;   82.600;  388.000;  244.000
282.934;  -81.000; -530.000; -491.000
283.073; -237.900;-1030.000; -857.000
283.213;  -97.400; -460.000; -467.000
283.353;  -73.400; -408.000; -349.000
283.492;  -30.600; -264.000; -296.000
283.632;  -71.200; -254.000; -168.000
283.771; -185.800; -859.000; -730.000
283.911;  -80.000; -369.000; -260.000
284.050; -168.900; -794.000; -748.000
284.190; -331.600;-1229.000;-1096.000
284.329; -280.100;-1055.000; -964.000
284.469; -150.800; -516.000; -591.000
284.608; -102.700; -559.000; -598.000
284.748; -138.300; -614.000; -570.000
284.887;   19.400;  -87.000;  -20.000
285.027; -231.300; -844.000; -892.000
285.166;  -59.400; -192.000; -249.000
285.306;    3.200; -116.000;  -33.000
285.445;  -46.700; -229.000; -343.000
285.584; -155.800; -630.000; -494.000
285.724;  -97.900; -282.000; -322.000
285.863; -208.800; -857.000; -507.000
286.002;  -71.900; -366.000; -276.000
286.142; -202.900; -715.000; -622.000
286.281; -122.700; -525.000; -493.000
286.420; -172.100; -554.000; -417.000
286.560;  251.800;  653.000;  623.000
286.699; -289.900; -958.000; -912.000
286.838; -166.500; -590.000; -591.000
286.978; -167.300; -533.000; -537.000
287.117; -238.800;-1085.000; -950.000
287.256;  -77.300; -228.000; -211.000
287.395;  -52.800; -197.000; -378.000
287.535;  -99.800; -370.000; -298.000
287.674; -139.600; -509.000; -484.000
287.813;  135.900;  661.000;  533.000
287.952; -217.100;-1010.000; -871.000
288.091; -298.700;-1049.000; -915.000
288.231;   54.400;   13.000;   15.000
288.370; -320.300;-1217.000;-1200.000
288.509; -151.900; -728.000; -645.000
288.648; -170.300; -770.000; -548.000
288.787;  -57.000; -243.000;  -87.000
288.926; -127.000; -454.000; -475.000
289.065;  256.200;  859.000;  672.000
289.204; -110.700; -377.000; -217.000
289.344; -184.800; -791.000; -690.000
289.483;   42.300;  416.000;  304.000
289.622;  -30.800; -291.000; -149.000
289.761;  -28.500; -309.000; -166.000
289.900; -207.900; -785.000; -626.000
290.039;   -4.200;  -12.000;  -95.000
290.178;  -71.400; -274.000; -180.000
290.317; -170.900; -618.000; -479.000
290.456;  -92.200; -463.000; -451.000
290.595; -277.500; -961.000; -833.000
290.734; -277.000; -904.000; -891.000
290.873; -150.800; -456.000; -420.000
291.011; -213.800; -833.000; -843.000
291.150; -199.600; -770.000; -682.000
291.289;  -72.400; -343.000; -110.000
291.428; -182.900; -599.000; -480.000
291.567; -106.300; -370.000; -442.000
291.706;    1.400;  109.000;  154.000
291.845; -157.200; -597.000; -505.000
291.984; -329.800;-1234.000;-1061.000
292.122;  158.600;  602.000;  582.000
292.261;  104.800;  620.000;  463.000
292.400;   33.900; -144.000;  211.000
292.539; -246.800; -959.000; -813.000
292.678;  -32.800; -325.000; -300.000
292.816; -323.600;-1136.000; -965.000
292.955; -161.100; -844.000; -684.000
293.094;  -51.500; -173.000; -337.000
293.233;  -80.000; -556.000; -400.000
293.371;  -44.300; -225.000;  -84.000
293.510; -179.500; -866.000; -780.000
293.649; -229.000; -959.000; -924.000
293.787; -167.200;-1083.000;-1012.000
293.926;  -10.300; -113.000;  -32.000
294.065;  -54.200; -379.000; -290.000
294.203;   95.500;  298.000;  406.000
294.342;   54.300;   74.000;  156.000
294.481;10997.600;51180.000; -836.000
294.619;  -23.400; -425.000; -582.000
294.758; -301.100;-1230.000;-1137.000
294.896;  104.600; -125.000;    5.000
295.035; -263.400;-1040.000;-1006.000
295.174; -252.300;-1082.000; -954.000
295.312;  -60.900; -323.000; -203.000
295.451;  -45.000; -307.000; -428.000
295.589;  -94.900; -389.000; -518.000
295.728;   56.500; -292.000; -165.000
295.866;  -11.200;  -36.000;  -51.000
296.005; -138.600; -584.000; -341.000
296.143; -143.400; -558.000; -596.000
296.282; -194.500; -957.000; -881.000
296.420; -174.500; -657.000; -557.000
296.559; -171.300; -892.000; -633.000
296.697;  -58.700; -847.000; -665.000
296.835;  -31.200;-1141.000;-1002.000
296.974;   75.300;  -23.000;   39.000
297.112;    4.700; -443.000; -504.000
297.251; -151.400; -815.000; -755.000
297.389;  106.500; -576.000; -438.000
297.527;   63.100; -145.000;  -83.000
297.666; -104.600; -486.000; -438.000
297.804; -101.500; -404.000; -264.000
297.942;   21.500; -136.000; -161.000
298.081;   17.500; -183.000;   63.000
298.219;   98.500;  -17.000;  -19.000
298.357;   45.000; -144.000;  -71.000
298.495;  -29.100; -810.000; -812.000
298.634;  117.900;  245.000;  219.000
298.772;   37.300; -220.000; -338.000
298.910;  -64.300; -309.000; -182.000
299.048;   -3.600; -130.000; -153.000
299.187;  -77.000; -350.000; -250.000
299.325;   53.600;   52.000;  122.000
299.463;   28.200; -389.000; -299.000
299.601;  134.400; -327.000; -271.000
299.739; -179.300; -908.000; -883.000
299.877; -163.800; -791.000; -703.000
300.016; -213.500;-1095.000; -935.000
300.154;  185.300;  -19.000; -161.000
300.292;   15.500; -428.000; -348.000
300.430;   19.900; -408.000; -291.000
300.568; -230.900; -940.000; -874.000
300.706; -103.500; -366.000; -469.000
300.844; -209.100;-1108.000; -979.000
300.982;  176.100;  246.000;  282.000
301.120; -231.800; -965.000; -866.000
301.258; -142.300; -812.000; -705.000
301.396;   62.800;  104.000;  -41.000
301.534;   71.300; -218.000; -293.000
301.672;  -49.500; -664.000; -521.000
301.810;  -10.200; -613.000; -545.000
301.948;  196.300;   53.000;  149.000
302.086;  736.200; -250.000;  -32.000
302.224; 1059.800; -610.000; -585.000
302.362;   23.400; -558.000; -622.000
302.500; -144.300; -923.000; -893.000
302.638;  158.300;  128.000;  245.000
302.776;  -15.400; -352.000; -408.000
302.913;  103.700;  447.000;  236.000
303.051;   -8.400;  -86.000;  -23.000
303.189;   94.700;   90.000;  118.000
303.327;  -64.800; -341.000; -256.000
303.465; -160.700; -832.000; -588.000
303.603; -182.100; -805.000; -604.000
303.740;  203.700;  417.000;  241.000
303.878;  -81.100; -800.000; -759.000
304.016; -171.900; -915.000; -790.000
304.154; -254.000;-1123.000;-1152.000
304.291;  -54.700; -505.000; -554.000
304.429;   49.000;  102.000;   74.000
304.567; -267.400; -908.000; -893.000
304.705;  -86.100; -408.000; -515.000
304.842;   56.900; -616.000; -540.000
304.980;  107.300;  215.000;   35.000
305.118;   29.200; -367.000; -365.000
305.255; -173.700; -945.000; -927.000
305.393;  102.000;  178.000;  239.000
305.531; -223.600;-1173.000; -956.000
305.668; -121.800; -663.000; -582.000
305.806;   53.900; -358.000; -439.000
305.943;   65.900; -629.000; -637.000
306.081;   64.800; -378.000; -267.000
306.219; -187.800; -863.000; -748.000
306.356;   37.600;  158.000;   27.000
306.494;  273.200;  981.000;  761.000
306.631;   -0.700;  -11.000;  -55.000
306.769;    2.600; -613.000; -485.000
306.906;  -11.700; -284.000; -258.000
307.044;  -63.100; -473.000; -488.000
307.181;  -87.200; -410.000; -332.000
307.319;   72.100;  112.000;   87.000
307.456; -317.800;-1191.000;-1153.000
307.594; -181.700; -980.000; -727.000
307.731;  -10.700; -371.000; -164.000
307.868;   43.200;  -15.000;   20.000
308.006; -228.600; -961.000; -847.000
308.143;  -97.400; -618.000; -330.000
308.281;  254.500;  -37.000; -254.000
308.418;  -23.800; -748.000; -640.000
308.555; -143.300; -400.000; -250.000
308.693; -118.000; -577.000; -573.000
308.830; -188.200; -712.000; -657.000
308.967;   26.600; -215.000;  -95.000
309.105;  -32.100; -507.000; -396.000
309.242;   89.400; -468.000; -367.000
309.379;  482.200; -577.000; -655.000
309.517; -114.900; -936.000; -948.000
309.654; -197.800; -910.000; -734.000
309.791;  -75.900; -662.000; -580.000
309.928; -219.800; -977.000; -914.000
310.065;  335.300;  819.000;  697.000
310.203;  -73.900; -825.000; -850.000
310.340;  -26.700; -465.000; -321.000
310.477; -135.400; -412.000; -516.000
310.614;  -60.600; -383.000; -473.000
310.751; -106.900; -427.000; -518.000
310.889;   -7.300;    1.000;   11.000
311.026; -264.200;-1161.000; -939.000
311.163;  -74.000; -386.000; -380.000
311.300; -101.200; -512.000; -479.000
311.437; -130.100; -658.000; -619.000
311.574; -293.600;-1226.000; -985.000
311.711;  -92.800; -595.000; -433.000
311.848;  -49.300; -380.000; -388.000
311.985;   23.200;  270.000;   93.000
312.122; -207.600; -932.000; -762.000
312.259; -205.500; -941.000; -994.000
312.396; -116.300; -508.000; -551.000
312.533; -147.900; -812.000; -790.000
312.670; -272.100;-1070.000; -898.000
312.807;   -1.600; -352.000; -367.000
312.944; -120.000; -513.000; -611.000
313.081;  -11.800; -150.000; -415.000
313.218; -216.900;-1111.000; -867.000
313.355;    6.800; -531.000; -449.000
313.492;  -12.600; -455.000; -292.000
313.629;  249.800;  815.000;  735.000
313.766; -300.300;-1176.000;-1008.000
313.902;   -6.400; -186.000;   21.000
314.039;  -97.100; -372.000; -289.000
314.176;  120.400;  286.000;  192.000
314.313; -148.200; -569.000; -473.000
314.450; -126.000; -788.000; -684.000
314.587;  -95.500; -468.000; -480.000
314.723;   48.500;  -78.000;  130.000
314.860;   98.100;  318.000;  332.000
314.997;   73.300;  223.000;  142.000
315.134;  -98.500; -385.000; -368.000
315.270;  -76.100; -480.000; -496.000
315.407; -267.600;-1094.000; -967.000
315.544; -101.800; -657.000; -538.000
315.681; -143.100; -681.000; -565.000
315.817;   -0.800; -133.000; -176.000
315.954;  -19.400; -613.000; -392.000
316.091; -246.600;-1045.000;-1023.000
316.227;  -16.400;  -71.000; -179.000
316.364;   22.500;   23.000;    6.000
316.500;  -53.900; -113.000; -300.000
316.637;  -52.400; -181.000; -302.000
316.774; -159.000; -625.000; -358.000
316.910; -132.500; -598.000; -629.000
317.047; -141.000; -487.000; -351.000
317.183;  -56.000; -435.000; -566.000
317.320;  -39.500; -367.000; -321.000
317.456; -127.600; -733.000; -805.000
317.593; -159.400; -598.000; -641.000
317.729;   16.200;  168.000;  -67.000
317.866; -396.800;-1434.000;-1285.000
318.002; -194.900; -708.000; -948.000
318.139; -209.900; -883.000; -867.000
318.275; -200.100;-1003.000; -738.000
318.412; -120.400; -517.000; -336.000
318.548;  -86.200; -751.000; -720.000
318.685; -203.900; -985.000; -888.000
318.821; -179.500; -762.000; -735.000
318.957;    2.700;   34.000;  -23.000
319.094;  103.000;  297.000;  154.000
319.230; -139.700; -756.000; -742.000
319.367;  149.600; -471.000; -520.000
319.503;   94.800; -538.000; -436.000
319.639; -209.500; -877.000; -793.000
319.775; -160.200; -750.000; -685.000
319.912;  -66.500; -424.000; -519.000
320.048; -239.300;-1184.000;-1184.000
320.184;  122.700;   59.000;   70.000
320.321; -104.100; -497.000; -467.000
320.457;  168.100;  475.000;  662.000
320.593; -132.300; -375.000; -382.000
320.729; -170.800; -732.000; -734.000
320.866; -134.100; -577.000; -635.000
321.002; -144.000; -759.000; -809.000
321.138;  -54.400; -135.000; -211.000
321.274;   83.000; -148.000; -115.000
321.410; -100.000; -585.000; -353.000
321.546; -106.800;-1011.000; -911.000
321.683;   89.700;  400.000;  185.000
321.819;   22.800;  -48.000; -117.000
321.955; -217.000; -743.000; -722.000
322.091;  -87.800; -585.000; -540.000
322.227;  -37.100; -382.000; -202.000
322.363;  -57.000; -320.000; -215.000
322.499;  -76.900; -343.000; -331.000
322.635;  265.700;  636.000;  443.000
322.771;   16.900; -139.000;   12.000
322.907;  165.400;  129.000;  327.000
323.043;  -63.100; -115.000; -206.000
323.179;  -87.000; -394.000; -363.000
323.315;   -2.300; -401.000; -371.000
323.451;  100.700; -328.000; -236.000
323.587;   68.900;  -60.000;  -77.000
323.723;  -25.400; -682.000; -601.000
323.859;  -55.900; -258.000;  -76.000
323.995;  -53.200; -467.000; -409.000
324.131; -235.900; -967.000; -892.000
324.267;  -55.600; -254.000; -276.000
324.402; -288.700; -960.000; -983.000
324.538;  -13.900; -279.000; -104.000
324.674;   57.000;  164.000;   77.000
324.810;  275.100;  226.000;  308.000
324.946;    8.100; -810.000; -658.000
325.082; -100.000; -568.000; -475.000
325.217;   10.600;  -62.000;   16.000
325.353; -164.300; -764.000; -659.000
325.489; -138.800; -540.000; -506.000
325.625; -121.900; -579.000; -525.000
325.760;  110.000;  517.000;  376.000
325.896;  -82.200; -515.000; -702.000
326.032;  -92.700; -403.000; -352.000
326.168; -118.600; -462.000; -369.000
326.303;  -95.600; -352.000; -461.000
326.439;  -10.700; -336.000; -276.000
326.575;   -4.800; -190.000;  -29.000
326.710;    9.000; -156.000;  -30.000
326.846;  -12.300;  146.000;  103.000
326.982; -147.600; -530.000; -548.000
327.117; -138.600; -481.000; -442.000
327.253; -185.200; -745.000; -742.000
327.388; -343.600;-1137.000;-1153.000
327.524;  -57.700; -811.000; -578.000
327.659;  -35.100;  -58.000;  -22.000
327.795;    7.900;   69.000;   45.000
327.931; -168.500; -723.000; -499.000
328.066;  -26.300; -417.000; -276.000
328.202;  -37.200;   12.000; -129.000
328.337;  236.500;  957.000;  713.000
328.473;  -11.100;  -12.000;  -74.000
328.608;  -14.200; -256.000; -267.000
328.743; -159.600; -799.000; -664.000
328.879;   61.300;  214.000;  114.000
329.014; -104.100; -102.000; -122.000
329.150; -112.500; -358.000; -483.000
329.285; -110.500; -465.000; -466.000
329.421;  -86.100; -548.000; -246.000
329.556;  -30.500;  -36.000;   85.000
329.691; -160.900; -633.000; -615.000
329.827; -136.500; -626.000; -480.000
329.962;  -68.300;  131.000; -301.000
330.097; -182.900; -673.000; -585.000
330.233;  -58.200; -410.000; -223.000
330.368; -250.500; -839.000; -628.000
330.503;    8.600;    3.000;   98.000
330.638;   22.000;  -93.000; -125.000
330.774; -112.000; -609.000; -530.000
330.909;  -82.100; -434.000; -244.000
331.044; -172.900; -714.000; -708.000
331.179; -333.200;-1217.000;-1109.000
331.315;   81.300;   77.000;   20.000
331.450;   48.500;  157.000;  285.000
331.585; -143.700; -805.000; -706.000
331.720; -166.600; -510.000; -460.000
331.855;  -24.500;  -35.000; -102.000
331.990;  198.200;   62.000;  138.000
332.126;  136.800; -110.000;   71.000
332.261;  -47.300; -379.000; -265.000
332.396;  -24.500; -135.000; -242.000
332.531; -260.300;-1074.000;-1031.000
332.666;    7.700; -519.000; -363.000
332.801; -203.700; -726.000; -807.000
332.936;    7.500; -192.000; -122.000
333.071; -306.100; -870.000; -817.000
333.206;   61.000;  307.000;  379.000
333.341;   71.100;  344.000;  418.000
333.476; -166.800; -627.000; -623.000
333.611;  -46.300; -251.000; -173.000
333.746;  -71.400; -381.000; -464.000
333.881; -235.600; -973.000; -935.000
334.016; -231.400; -936.000; -917.000
334.151; -231.700; -746.000; -702.000
334.286;   63.500;  152.000;  186.000
334.421;  -16.700; -125.000; -178.000
334.556; -146.400; -611.000; -567.000
334.690; -176.600; -631.000; -577.000
334.825;  123.300;  381.000;   83.000
334.960; -116.200; -285.000; -413.000
335.095;   19.300;  135.000;  -91.000
335.230; -222.100; -722.000; -738.000
335.365; -283.400;-1084.000; -990.000
335.499; -297.600;-1108.000;-1037.000
335.634;   36.700;    9.000;  534.000
335.769; -198.300; -755.000; -720.000
335.904; -130.500; -603.000; -561.000
336.038; -175.100; -735.000; -657.000
336.173; -270.400;-1206.000;-1194.000
336.308;  -42.900; -116.000; -189.000
336.443;  -43.000; -544.000; -634.000
336.577; -222.400; -936.000; -787.000
336.712;  101.800;   -4.000;  -12.000
336.847; -152.300; -724.000; -607.000
336.981;   29.400; -272.000; -208.000
337.116;  336.800;  615.000;  501.000
337.250;  108.600; -434.000; -421.000
337.385;  189.600; -297.000; -208.000
337.520;   11.200; -632.000; -603.000
337.654;  -86.200; -215.000; -126.000
337.789; -218.900; -989.000; -933.000
337.923;  -52.100; -104.000; -205.000
338.058; -168.400; -673.000; -738.000
338.192;  -89.100; -611.000; -488.000
338.327;  -17.900;  -18.000; -155.000
338.461; -120.000; -299.000; -469.000
338.596; -171.100; -780.000; -638.000
338.730; -197.200; -767.000; -803.000
338.865;   87.600;  -46.000; -140.000
338.999; -156.500; -846.000; -702.000
339.134; -100.400; -634.000; -536.000
339.268;  -86.100; -741.000; -603.000
339.403;  206.800; -740.000; -775.000
339.537;   -6.700; -894.000; -820.000
339.671; -182.400; -829.000; -813.000
339.806; -166.400; -556.000; -512.000
339.940;   36.900; -261.000; -235.000
340.074; -176.700; -685.000; -510.000
340.209;  -69.800; -351.000; -230.000
340.343; -166.500; -517.000; -573.000
340.477;  324.900;  998.000; 1036.000
340.612; -195.900;-1033.000; -900.000
340.746;   87.000; -199.000; -243.000
340.880; -184.600; -924.000; -785.000
341.014;   -3.100;  -45.000; -154.000
341.149; -215.300; -756.000; -718.000
341.283; -199.100; -839.000; -754.000
341.417; -197.100;-1124.000; -938.000
341.551;   96.700; -768.000; -708.000
341.685;  -98.000; -633.000; -611.000
341.820;  -96.300; -562.000; -493.000
341.954;  -67.500; -218.000; -349.000
342.088; -257.100;-1102.000;-1019.000
342.222;   94.400;  565.000;  618.000
342.356; -113.400; -395.000; -335.000
342.490; -222.600; -880.000; -841.000
342.624;  -69.200; -339.000; -242.000
342.758;  -27.500; -364.000; -312.000
342.892; -152.500; -710.000; -585.000
343.026;  -53.400;  -58.000; -116.000
343.160;  -73.500; -426.000; -376.000
343.294; -115.500; -474.000; -337.000
343.428;  -77.700; -488.000; -448.000
343.562;  -38.400; -172.000;  -23.000
343.696;  -53.600; -385.000; -314.000
343.830;  -19.000; -362.000; -356.000
343.964;   28.700; -231.000; -168.000
344.098; 1162.200;  199.000;   70.000
344.232;  962.400; -266.000; -127.000
344.366;   54.100; -567.000; -453.000
344.500;   32.500; -665.000; -744.000
344.634;    2.800; -324.000; -164.000
344.768;  -35.900; -531.000; -341.000
344.902;   73.300;  278.000;  256.000
345.035; -116.400; -556.000; -496.000
345.169; -249.200; -933.000; -656.000
345.303;  -61.200; -308.000; -482.000
345.437; -115.400; -826.000; -717.000
345.571; -143.900; -675.000; -594.000
345.704; -105.800; -309.000; -532.000
345.838;  -10.800; -331.000; -284.000
345.972; -110.100; -543.000; -495.000
346.106;  113.700; -179.000; -190.000
346.239;  398.700; -312.000; -243.000
346.373;  -20.600; -343.000; -302.000
346.507; -236.800; -950.000; -962.000
346.640;  197.600;  -30.000;   13.000
346.774; -116.600; -650.000; -797.000
346.908;   -2.600; -138.000;  -11.000
347.041; -184.100; -646.000; -593.000
347.175;   32.100;  259.000;   27.000
347.309; -173.900; -698.000; -628.000
347.442; -184.800; -883.000; -732.000
347.576;  419.900;  670.000;  668.000
347.709;  278.300; -123.000;  -52.000
347.843; -199.500; -933.000; -825.000
347.976;  123.100;  235.000;  294.000
348.110; -343.200;-1268.000;-1186.000
348.243; -162.000; -679.000; -772.000
348.377;   23.100;  -26.000;   60.000
348.510;  121.000;  403.000;  540.000
348.644;  -43.100;  -37.000; -159.000
348.777;   54.300;  180.000;  191.000
348.911;  -64.900; -142.000; -112.000
349.044;  276.600;  471.000;  448.000
349.178;   84.000;-1069.000;-1006.000
349.311;  197.800;  141.000;  255.000
349.444; -143.800; -927.000; -813.000
349.578;  -27.600; -347.000; -200.000
349.711; -203.500; -959.000; -862.000
349.845;  -75.700; -661.000; -591.000
349.978; -307.800;-1224.000;-1137.000
350.111; -161.600; -546.000; -612.000
350.244; -153.800; -596.000; -700.000
350.378;   -5.000; -392.000; -393.000
350.511; -101.500; -393.000; -426.000
350.644; -202.300; -808.000; -806.000
350.778;   38.400;  168.000;  104.000
350.911;   47.900;  134.000;  140.000
351.044; -184.400; -685.000; -615.000
351.177;  -40.200; -321.000; -281.000
351.310;  -13.100;    3.000; -131.000
351.444; -163.500; -888.000; -788.000
351.577;  159.400;  140.000;   90.000
351.710;  212.100;  593.000;  417.000
351.843;  -54.200; -165.000;  -77.000
351.976;   33.000;  149.000;  -79.000
352.109; -169.200; -621.000; -612.000
352.242;  -53.200; -464.000; -419.000
352.376; -151.100; -580.000; -636.000
352.509;  156.100; -437.000; -356.000
352.642; -111.000; -654.000; -604.000
352.775;   70.400; -141.000;  -98.000
352.908; -246.500; -933.000; -904.000
353.041; -174.600; -814.000; -824.000
353.174; -101.400; -551.000; -424.000
353.307; -171.700; -753.000; -764.000
353.440;  130.200;  541.000;  453.000
353.573; -211.600; -957.000;-1008.000
353.706; -153.300; -384.000; -558.000
353.839;  -29.700; -264.000; -220.000
353.971; -176.200; -657.000; -512.000
354.104; -182.100; -896.000; -835.000
354.237; -119.300; -627.000; -662.000
354.370; -172.000; -846.000; -879.000
354.503; -366.100;-1231.000;-1308.000
354.636;  -55.700; -529.000; -348.000
354.769; -238.800; -937.000; -860.000
354.902;  -36.100; -230.000; -139.000
355.034;  -28.200; -164.000; -220.000
355.167;  -73.100; -262.000; -162.000
355.300; -211.800;-1061.000; -880.000
355.433;  839.200;  -71.000;  -14.000
355.565; 1124.500; -402.000; -384.000
355.698;  289.200; -356.000; -296.000
355.831; -138.700; -882.000; -801.000
355.964;   22.300; -285.000; -170.000
356.096; -213.700; -856.000; -843.000
356.229;  -51.500; -523.000; -530.000
356.362;  206.300; -373.000; -266.000
356.494;  444.100; -229.000; -162.000
356.627;  495.700;  269.000;  377.000
356.760;  562.400;  120.000;   53.000
356.892;  647.900; -286.000; -601.000
357.025;  780.100;  403.000;  389.000
357.157;  636.500; -167.000; -179.000
357.290;  463.900; -856.000; -713.000
357.423;   65.300; -667.000; -556.000
357.555;   82.300; -217.000; -228.000
357.688;   54.300; -483.000; -364.000
357.820;  413.700; -870.000; -877.000
357.953; 4333.400; -563.000; -589.000
358.085;  857.400; -632.000; -612.000
358.218; 1236.600;-1131.000; -932.000
358.350;  275.700;  -58.000;  312.000
358.483; -296.700;-1300.000;-1187.000
358.615; -119.900;-1182.000;-1078.000
358.747; -196.400;-1187.000;-1058.000
358.880;  -47.100; -810.000; -744.000
359.012;  -29.200; -376.000; -202.000
359.145;  -92.900; -480.000; -511.000
359.277;  -37.100; -962.000; -913.000
359.409; 3692.500;  536.000;  231.000
359.542;  856.700; -738.000; -688.000
359.674;  111.400;   46.000;   13.000
359.806; -117.100; -565.000; -438.000
359.939;  -91.700; -617.000; -516.000
360.071; -113.400; -583.000; -579.000
360.203;  -44.500; -411.000; -364.000
360.335;   34.100;  164.000;  -16.000
360.468;  169.900; -249.000; -307.000
360.600; 2722.900; -547.000; -454.000
360.732; 2306.300; -546.000; -423.000
360.864;  130.000;-1216.000;-1044.000
360.996;  310.200; -516.000; -554.000
361.129;   14.400; -389.000; -598.000
361.261;   35.800;  110.000; -113.000
361.393;  -41.600; -252.000; -214.000
361.525;  108.400;   94.000;  244.000
361.657; -102.000; -821.000; -703.000
361.789;   42.300; -139.000; -155.000
361.921;  212.600; -642.000; -593.000
362.053;  405.200;  524.000;  541.000
362.185;  103.300;  288.000;   72.000
362.318; -156.200; -709.000; -705.000
362.450;  212.900;  294.000;  444.000
362.582;   56.600; -913.000; -870.000
362.714;  -48.700; -353.000; -332.000
362.846; -131.300; -606.000; -490.000
362.978; -272.300; -941.000; -811.000
363.109;   31.500; -161.000; -260.000
363.241;  387.900; -739.000; -749.000
363.373;  283.200; -649.000; -564.000
363.505;  536.300; -186.000;  -91.000
363.637;   68.700; -787.000; -601.000
363.769; -270.800;-1067.000;-1080.000
363.901; -135.000; -596.000; -654.000
364.033; -246.400;-1103.000;-1062.000
364.165;  -22.900; -283.000; -283.000
364.296;   33.900; -316.000; -177.000
364.428; -130.300;-1344.000;-1220.000
364.560; -169.100; -679.000; -661.000
364.692; -140.200; -738.000; -835.000
364.824;  292.100; -588.000; -456.000
364.955;  369.900; -402.000; -564.000
365.087;  559.900;-1097.000; -852.000
365.219;  -70.900; -686.000; -816.000
365.351; -155.000; -526.000; -572.000
365.482;  120.400;  300.000;  240.000
365.614;  -34.200; -402.000; -314.000
365.746; -195.700; -729.000; -752.000
365.877; -190.800; -706.000; -672.000
366.009;  241.300;  -35.000;  -62.000
366.141; -286.300;-1249.000;-1134.000
366.272; -198.000; -803.000; -719.000
366.404; -230.700;-1005.000; -874.000
366.535;   34.900; -139.000;  -12.000
366.667; -160.700; -644.000; -649.000
366.799;  112.000;  353.000;  203.000
366.930; -254.200; -862.000; -996.000
367.062;   49.400; -639.000; -613.000
367.193;   -7.000; -872.000; -842.000
367.325; -126.000; -580.000; -684.000
367.456;   53.100; -246.000;   31.000
367.588;  119.000; -371.000; -318.000
367.719;    5.100;  -44.000;  -45.000
367.851;  -14.500; -222.000; -241.000
367.982; -149.000; -875.000; -732.000
368.113;  142.100; -475.000; -358.000
368.245; -216.800; -960.000; -841.000
368.376;  -18.200; -254.000; -302.000
368.508;  -34.200; -188.000; -263.000
368.639; -250.800;-1166.000;-1034.000
368.770; -101.900; -670.000; -589.000
368.902; -146.400; -836.000; -926.000
369.033; -229.700; -906.000; -855.000
369.164; -128.900; -720.000; -653.000
369.296; -205.700; -452.000; -601.000
369.427;   18.300; -209.000; -144.000
369.558; -109.000; -593.000; -377.000
369.689; -141.200; -721.000; -569.000
369.821; -252.800; -951.000; -845.000
369.952;   -7.400;   42.000; -108.000
370.083;  -76.100; -229.000; -108.000
370.214; -123.700; -735.000; -650.000
370.345;    1.200;   65.000;   81.000
370.477; -167.500; -810.000; -790.000
370.608;  288.600; -328.000; -264.000
370.739; -166.100;-1233.000;-1292.000
370.870; -138.900;-1102.000; -923.000
371.001;   89.300; -378.000; -467.000
371.132; -171.800; -754.000; -735.000
371.263;   22.700;  -42.000; -148.000
371.394; -249.800; -841.000; -748.000
371.525;  110.700;  345.000;  225.000
371.657; -199.400; -808.000; -670.000
371.788;  137.100;  103.000;  199.000
371.919;  168.400; -384.000; -304.000
372.050; 4704.500;  -91.000; -156.000
372.181; 1294.000; -188.000; -294.000
372.311;  502.500;   42.000; -127.000
372.442;   48.200; -457.000; -451.000
372.573;    6.400; -444.000; -340.000
372.704; -244.400;-1008.000; -980.000
372.835;   80.700; -228.000; -289.000
372.966; -162.400; -646.000; -554.000
373.097; -145.800; -575.000; -711.000
373.228; -129.900; -717.000; -542.000
373.359;  139.500; -824.000; -536.000
373.490;  997.000; -881.000; -727.000
373.620; 1275.800;-1001.000; -803.000
373.751; 2281.700; -332.000; -396.000
373.882;  953.400; -663.000; -733.000
374.013;   42.000; -449.000; -262.000
374.143;  -58.500; -581.000; -659.000
374.274; -214.000; -987.000; -908.000
374.405;  153.800; -388.000; -276.000
374.536;  470.400; -526.000; -387.000
374.666; 1345.200; -759.000; -807.000
374.797;  208.600; -817.000; -868.000
374.928; 1039.000; -710.000; -560.000
375.058;  984.000; -535.000; -500.000
375.189;   75.400;  -59.000;  -93.000
375.320; -241.800; -928.000;-1034.000
375.450;  -74.700; -625.000; -616.000
375.581; -125.400; -526.000; -436.000
375.712;  -23.000; -574.000; -250.000
375.842;  298.900; -438.000; -415.000
375.973;  185.900; -554.000; -513.000
376.103;  -98.900; -665.000; -648.000
376.234; -158.600; -531.000; -552.000
376.364; -143.500; -944.000; -867.000
376.495;  519.200;  925.000;  529.000
376.625;  -85.300; -472.000; -485.000
376.756;   28.100; -709.000; -678.000
376.886; -213.500;-1178.000;-1026.000
377.017; -115.900;-1048.000;-1061.000
377.147;  122.700; -786.000; -782.000
377.278;  127.100;  174.000;  228.000
377.408; -246.800; -801.000; -815.000
377.538; -174.900; -707.000; -693.000
377.669; -134.100; -537.000; -613.000
377.799; -170.100; -645.000; -635.000
377.929; -117.100; -610.000; -428.000
378.060; -231.100; -781.000; -847.000
378.190; -154.300; -726.000; -531.000
378.320; -112.800; -401.000; -406.000
378.451;    8.300; -131.000;  -22.000
378.581;   12.700;  -67.000; -110.000
378.711;  282.100; 1035.000;  866.000
378.841;  -51.400; -533.000; -675.000
378.972; -202.600; -871.000; -751.000
379.102;  -43.200; -652.000; -579.000
379.232;  -37.500; -126.000;  -73.000
379.362; -193.400;-1001.000; -885.000
379.492;  -28.600; -373.000; -424.000
379.623;  184.900;    0.000;  111.000
379.753; -224.000;-1107.000; -974.000
379.883;  291.700;   59.000;  156.000
380.013; -112.900;-1081.000;-1017.000
380.143; -216.100;-1097.000;-1056.000
380.273; -210.600; -985.000; -861.000
380.403;  -17.100; -344.000; -257.000
380.533; -109.500; -651.000; -664.000
380.663;  120.400;  173.000;  128.000
380.793; -221.900;-1027.000;-1074.000
380.923;  -12.500; -103.000;  -34.000
381.053; -166.900; -613.000; -623.000
381.183;  -25.400; -106.000; -248.000
381.313;   27.100; -656.000; -470.000
381.443;   14.900; -692.000; -473.000
381.573;  180.600; -402.000; -409.000
381.703;  218.000;-1249.000;-1095.000
381.833; -277.400;-1454.000;-1336.000
381.963;  155.600; -134.000;  -87.000
382.093; 1522.600; -925.000; -909.000
382.223;  413.900; -713.000; -602.000
382.353;  -67.100; -801.000; -608.000
382.482;  432.500;-1091.000; -964.000
382.612;  856.300; -872.000; -644.000
382.742;  450.600; -695.000; -622.000
382.872;  220.100; -565.000; -551.000
383.002;  105.400;  347.000; -132.000
383.131;  -48.200; -226.000; -160.000
383.261; -107.700; -706.000; -768.000
383.391;  213.900; -552.000; -377.000
383.521; 2684.100;  451.000;  263.000
383.650;  374.100; -947.000; -904.000
383.780;  -80.700; -783.000; -656.000
383.910;  243.000;  880.000;  802.000
384.039;  -20.800; -794.000; -656.000
384.169;  139.100;-1205.000;-1017.000
384.299;  -71.100; -650.000; -662.000
384.428; -140.700; -764.000; -680.000
384.558;  -45.400; -308.000; -275.000
384.687;  -87.000; -414.000; -334.000
384.817;   62.500;   75.000;   -2.000
384.947;   12.500; -234.000; -141.000
385.076;  479.400;  982.000;  912.000
385.206;  200.000;  369.000;  480.000
385.335;  -66.600; -549.000; -417.000
385.465; -175.700; -655.000; -663.000
385.594;  214.400;  -53.000;  -44.000
385.724;  457.300; -868.000; -838.000
385.853;  156.200; -296.000; -270.000
385.982; 1735.700; -743.000; -787.000
386.112; 2658.900;-1052.000; -871.000
386.241;  152.800; -307.000; -312.000
386.371;    4.000; -174.000;  -87.000
386.500;  -44.100; -825.000; -789.000
386.629;  -37.700; -874.000; -817.000
386.759;   59.000;  -43.000;   68.000
386.888;   36.200; -170.000; -250.000
387.017; -122.500; -648.000; -620.000
387.147; -181.600; -771.000; -798.000
387.276;  -28.400; -410.000; -397.000
387.405;   32.400; -398.000; -342.000
387.535;  -82.000; -452.000; -361.000
387.664; -126.300; -692.000; -620.000
387.793;   93.400; -198.000; -113.000
387.922;  695.100;  255.000;  200.000
388.052;  -10.800; -576.000; -423.000
388.181;   13.600; -342.000; -472.000
388.310;  -51.800; -889.000; -710.000
388.439; -157.500; -749.000; -742.000
388.568;  286.200;  365.000;  244.000
388.697; 1316.200; -756.000; -653.000
388.826;  148.000; -768.000; -666.000
388.956;   79.300; -285.000; -307.000
389.085;  -57.300; -347.000; -287.000
389.214; -207.800; -842.000; -872.000
389.343; -120.300; -645.000; -413.000
389.472;  422.800;  126.000;  149.000
389.601;  518.300;   91.000;    0.000
389.730;  -10.000; -568.000; -687.000
389.859;  120.100;  226.000;   46.000
389.988;  253.100; -423.000; -408.000
390.117;  193.700; -168.000; -146.000
390.246;  -11.800; -331.000; -320.000
390.375;  102.100; -673.000; -626.000
390.504; -118.800; -703.000; -621.000
390.633; -171.900; -672.000; -726.000
390.761; -150.800; -732.000; -645.000
390.890;   19.000;   -4.000; -130.000
391.019;  -56.500; -421.000; -441.000
391.148; -214.200; -826.000; -855.000
391.277;  -89.400; -576.000; -493.000
391.406; -131.900; -821.000; -805.000
391.534;   97.500;  574.000; -301.000
391.663; -130.800; -583.000; -645.000
391.792; -143.400; -673.000; -701.000
391.921;  162.800;   -3.000;   15.000
392.050;  250.500; -287.000; -228.000
392.178; -137.900;-1206.000;-1061.000
392.307;  165.200; -758.000; -712.000
392.436;   23.800; -427.000; -641.000
392.564;   44.800;  166.000;   -6.000
392.693; -172.800; -860.000; -682.000
392.822;  239.900; -529.000; -534.000
392.950;   38.400; -880.000; -714.000
393.079;  419.000; -188.000; -328.000
393.208;  -16.500; -488.000; -511.000
393.336;    4.400; -170.000; -145.000
393.465;  -42.200; -317.000; -199.000
393.593;   39.000;   62.000;   79.000
393.722; -295.700;-1121.000; -916.000
393.850;    1.700; -188.000;  -61.000
393.979; -265.100; -926.000; -805.000
394.107;  -95.100; -517.000; -537.000
394.236;  -70.100; -570.000; -507.000
394.364;  357.000;  383.000;  206.000
394.493;  466.100; -911.000; -767.000
394.621;  -84.600; -955.000; -916.000
394.750;  383.800; -873.000; -923.000
394.878; 2286.000; -247.000; -149.000
395.007; 2819.400; -721.000; -807.000
395.135;  111.700; -790.000; -721.000
395.263; -270.200;-1038.000;-1040.000
395.392;   69.800;  -25.000; -107.000
395.520; -176.100; -818.000; -679.000
395.648; -180.200; -865.000; -915.000
395.777;  -55.100; -366.000; -405.000
395.905;  -85.500; -449.000; -564.000
396.033;   68.500;  217.000;  172.000
396.162;  904.700; -399.000; -453.000
396.290;  801.100;  -17.000;   -2.000
396.418;  101.800; -555.000; -514.000
396.546; -153.400; -571.000; -466.000
396.674; -189.400; -850.000; -878.000
396.803;   19.600;  -72.000;  -23.000
396.931;  107.500; -179.000; -199.000
397.059;  -74.300;-1026.000; -989.000
397.187; -195.800;-1026.000; -975.000
397.315; -225.700; -884.000; -649.000
397.443; -149.000; -592.000; -443.000
397.572; -133.500; -578.000; -424.000
397.700;  -62.400; -607.000; -614.000
397.828;  -27.700;  120.000;  -90.000
397.956;  -82.000; -508.000; -478.000
398.084; -187.900; -767.000; -626.000
398.212;   92.500;  137.000;  124.000
398.340;   40.700;  -56.000;  159.000
398.468;   14.700; -390.000; -169.000
398.596; -261.000; -993.000; -953.000
398.724; -207.100; -762.000; -767.000
398.852; -285.200;-1024.000; -976.000
398.980;  -99.500; -560.000; -560.000
399.108; -133.100; -982.000; -735.000
399.236;   59.600;   13.000;    8.000
399.363;   40.800;  222.000;  196.000
399.491; -101.000; -404.000; -398.000
399.619; -220.900; -829.000; -800.000
399.747; -191.200; -859.000; -771.000
399.875;  157.400;  220.000;  234.000
400.003;  -71.900; -359.000; -284.000
400.130; -149.900; -421.000; -341.000
400.258;    9.600;  -83.000;   38.000
400.386;  -49.800; -352.000; -168.000
400.514;  -68.200; -526.000; -587.000
400.641; -187.200; -928.000; -802.000
400.769; -239.600; -979.000; -888.000
400.897; -209.600; -838.000; -793.000
401.025;   24.500; -166.000; -152.000
401.152;   35.200;  220.000;   38.000
401.280; -107.500; -430.000; -429.000
401.408; -163.600; -712.000; -576.000
401.535; -170.900; -735.000; -758.000
401.663; -381.200;-1134.000;-1054.000
401.790; -122.000; -514.000; -525.000
401.918;  104.700;  436.000;  405.000
402.046;   17.100;  134.000;  122.000
402.173;  -12.600;  -18.000;    7.000
402.301;  -99.200; -519.000; -397.000
402.428;  119.200;  528.000;  383.000
402.556; -255.900;-1188.000; -913.000
402.683;  -42.300;  -20.000;   -1.000
402.811;   -8.700;  -37.000; -206.000
402.938;   19.800;   20.000;   27.000
403.066;  183.900; -574.000; -558.000
403.193;  404.200;  299.000;  239.000
403.321;  276.600; -396.000; -574.000
403.448;  418.700;   83.000;   27.000
403.575;  211.500;  -90.000;  -46.000
403.703; -170.100; -732.000; -557.000
403.830; -113.000; -531.000; -496.000
403.957; -288.100;-1117.000;-1023.000
404.085;  -10.200;  -61.000; -172.000
404.212;   91.800;  -50.000;   63.000
404.339;  183.000; -566.000; -306.000
404.467; 4378.000; -612.000; -524.000
404.594; 3061.900; -287.000; -227.000
404.721;  722.300; -869.000; -764.000
404.848;   87.800; -113.000; -202.000
404.976; -220.500; -856.000; -783.000
405.103;   -2.600;  -14.000;  -82.000
405.230;   25.400;  190.000;  226.000
405.357;   64.200;  117.000;   44.000
405.484;  217.000;  -49.000;    5.000
405.612;  -20.800; -548.000; -563.000
405.739;  -99.000; -488.000; -243.000
405.866;  223.100;  669.000;  385.000
405.993;  -57.600; -398.000; -102.000
406.120; -209.300; -801.000; -887.000
406.247;  -77.500; -323.000; -342.000
406.374;  608.600;  540.000;  629.000
406.501;   40.800; -632.000; -702.000
406.628; -103.000; -621.000; -589.000
406.755; -201.300; -803.000; -620.000
406.882;  -45.400; -228.000; -277.000
407.009; -212.900; -719.000; -628.000
407.136;   52.600; -480.000; -401.000
407.263;   27.300; -939.000; -829.000
407.390; -147.000; -692.000; -614.000
407.517; -307.800;-1139.000;-1187.000
407.644;  -71.700; -332.000; -256.000
407.771; -119.100; -249.000; -287.000
407.898;   65.200;  168.000;  328.000
408.025; -117.900; -421.000; -313.000
408.151;   30.200;   82.000;  153.000
408.278;  -78.300; -267.000; -216.000
408.405; -205.900; -931.000; -899.000
408.532; -131.900; -549.000; -542.000
408.659; -180.200; -677.000; -648.000
408.785; -353.500;-1298.000;-1170.000
408.912;  -62.200; -412.000; -296.000
409.039; -174.100; -610.000; -686.000
409.166; -160.500; -591.000; -555.000
409.292; -175.000; -571.000; -534.000
409.419; -197.000; -665.000; -649.000
409.546; -109.800; -431.000; -192.000
409.672; -170.900; -713.000; -545.000
409.799;  -41.600;  -36.000;   34.000
409.926;  -40.200; -180.000; -179.000
410.052; -328.600;-1127.000;-1091.000
410.179;  -78.800; -368.000; -392.000
410.305; -110.100; -375.000; -493.000
410.432;  -43.700; -220.000; -333.000
410.558; -125.800; -305.000; -380.000
410.685; -122.500; -688.000; -431.000
410.812; -156.500; -409.000; -588.000
410.938; -246.400; -964.000; -808.000
411.065; -145.000; -671.000; -645.000
411.191;  -39.100; -189.000; -174.000
411.317; -223.200; -823.000; -742.000
411.444;  -74.400; -317.000; -246.000
411.570; -120.700; -339.000; -294.000
411.697; -181.400; -758.000; -752.000
411.823; -315.200; -989.000; -999.000
411.949;  -28.700;  -56.000;   17.000
412.076; -187.300; -539.000; -519.000
412.202; -192.400; -758.000; -757.000
412.329; -226.600; -798.000; -752.000
412.455; -202.800; -821.000; -657.000
412.581;  -11.900;  -15.000;  172.000
412.707; -108.700; -540.000; -457.000
412.834;   29.800;  156.000;  219.000
412.960; -168.900; -785.000; -784.000
413.086; -195.400; -743.000; -701.000
413.212;  264.200;  604.000;  578.000
413.339; -143.300; -685.000; -701.000
413.465;    1.100; -364.000; -310.000
413.591; -167.900; -757.000; -474.000
413.717;  -87.300; -358.000; -366.000
413.843; -265.400; -839.000; -861.000
413.969; -115.700;  -47.000; -292.000
414.096; -198.100; -679.000; -679.000
414.222;   24.900;  -33.000;   85.000
414.348;  -83.700; -652.000; -385.000
414.474;  150.300;   38.000;  -52.000
414.600;  -31.300; -126.000; -144.000
414.726;   -7.700;  -96.000;  -55.000
414.852; -118.600; -365.000; -342.000
414.978;   29.700;  104.000;  -18.000
415.104;   65.600;   38.000;   80.000
415.230;    0.000; -329.000; -330.000
415.356;  -44.400; -409.000; -514.000
415.482;  210.000;   13.000;  -35.000
415.608;  175.300; -247.000; -323.000
415.734;  811.500;   67.000;   38.000
415.860;16849.000; -875.000; -767.000
415.986;11012.100; -685.000; -607.000
416.111;  819.500; -798.000; -652.000
416.237;   94.200; -424.000; -571.000
416.363;  858.600; -765.000; -733.000
416.489; 3182.900; -324.000; -251.000
416.615;  179.000; -707.000; -742.000
416.741; -135.500; -677.000; -784.000
416.866; -192.100; -673.000; -736.000
416.992; -225.600; -801.000; -818.000
417.118;  -54.300;  -41.000;  -80.000
417.244; -146.900; -798.000; -531.000
417.369; -196.700; -801.000; -612.000
417.495;  -19.500; -325.000; -254.000
417.621; -173.000;-1015.000; -803.000
417.746;  -24.900; -579.000; -572.000
417.872;   52.600; -254.000; -144.000
417.998;  -21.900; -515.000; -530.000
418.123;  734.800;-1073.000; -845.000
418.249; 3942.500; -512.000; -601.000
418.374;  355.200; -916.000; -824.000
418.500;   12.600; -383.000; -482.000
418.626;  135.100;   70.000;  -59.000
418.751;   50.500; -549.000; -448.000
418.877;   75.700; -637.000; -643.000
419.002; 1517.700; -688.000; -560.000
419.128; 9606.000; -930.000; -721.000
419.253; 2001.900; -967.000; -837.000
419.379;  233.700; -391.000; -338.000
419.504;  347.800;  325.000;  415.000
419.629;  352.300; -393.000; -212.000
419.755; 2777.700; -317.000; -254.000
419.880;15536.500;  -98.000;   67.000
420.006; 9053.700; -280.000; -221.000
420.131;23059.400; -662.000; -775.000
420.256; 3080.700; -315.000; -316.000
420.382;  301.800; -665.000; -687.000
420.507;    2.100; -649.000; -778.000
420.632;  205.600; -337.000; -339.000
420.758;  339.800; -251.000; -425.000
420.883; -161.600; -876.000; -672.000
421.008; -164.000; -775.000; -619.000
421.133; -145.200; -509.000; -467.000
421.259;  -70.500; -325.000; -259.000
421.384; -232.500; -834.000; -693.000
421.509;  -57.600;-1052.000; -862.000
421.634; 1594.800; -936.000; -820.000
421.759;  666.300; -359.000; -327.000
421.885; -131.400; -717.000; -656.000
422.010; -132.700; -673.000; -542.000
422.135; -223.100; -695.000; -727.000
422.260;  132.300;  340.000;  280.000
422.385;  -51.700;   12.000;  -98.000
422.510;   70.500;  151.000;  -26.000
422.635;   56.600;  -87.000;  -43.000
422.760;   77.500; -766.000; -791.000
422.885;   53.400;  -57.000;  -80.000
423.010;  -41.500; -112.000; -169.000
423.135; -191.400; -481.000; -561.000
423.260;   17.600; -150.000; -245.000
423.385;  145.600;  476.000;  222.000
423.510;   96.700;   71.000;  -22.000
423.635;  127.600;  133.000;   45.000
423.760;  169.900;  383.000;  328.000
423.885;  112.500;  336.000;  391.000
424.010;   40.000;  -68.000;  -13.000
424.135;  -22.600;    5.000;  -33.000
424.259; -115.300; -654.000; -457.000
424.384;  -93.600; -279.000; -272.000
424.509;  -22.500; -260.000; -186.000
424.634; -228.100; -761.000; -623.000
424.759;  -73.800; -688.000; -544.000
424.883;  -80.100; -506.000; -527.000
425.008;  119.200; -502.000; -410.000
425.133; 1533.300; -679.000; -653.000
425.258;  610.100; -517.000; -381.000
425.382; 1255.800; -867.000; -774.000
425.507; 3024.900; -487.000; -543.000
425.632;  353.400; -802.000; -663.000
425.756;  378.200; -256.000; -146.000
425.881; 4944.600; -831.000; -857.000
426.006;12385.300; -604.000; -355.000
426.130; 1782.000; -696.000; -508.000
426.255;  183.200; -611.000; -491.000
426.379;  113.500; -189.000; -577.000
426.504;  422.000;  660.000;  544.000
426.629; 3256.500; -519.000; -466.000
426.753; 2104.900;   64.000;  -46.000
426.878;  207.000; -252.000; -288.000
427.002;   29.700; -651.000; -668.000
427.127; 1402.700;  -35.000; -158.000
427.251; 9373.200;  372.000;  401.000
427.375; 2411.300; -191.000; -173.000
427.500; 2703.100; -616.000; -610.000
427.624;  771.500; -234.000; -400.000
427.749;   99.800; -216.000; -225.000
427.873; -102.200; -499.000; -412.000
427.997;  -29.900; -222.000; -230.000
428.122;  218.300;  795.000;  703.000
428.246;  164.100;  433.000;  434.000
428.371; -228.800; -869.000; -773.000
428.495; -178.100; -624.000; -646.000
428.619;   13.400; -186.000; -117.000
428.743;   69.600;   65.000;  132.000
428.868;  -49.300; -732.000; -643.000
428.992; 1800.300; -219.000; -326.000
429.116;  679.700; -329.000; -357.000
429.240;  425.900;  419.000;  426.000
429.365;  -42.000; -454.000; -574.000
429.489;  -93.100; -638.000; -647.000
429.613;   -8.300; -236.000; -177.000
429.737;    0.500; -563.000; -432.000
429.861;  206.100; -247.000; -133.000
429.985; 4661.100; -425.000; -305.000
430.109; 4488.700; -770.000; -908.000
430.234;  583.500;   76.000;  -50.000
430.358;   -7.400; -250.000; -160.000
430.482; -116.600; -672.000; -564.000
430.606;  -58.000; -655.000; -375.000
430.730;    8.500; -437.000; -388.000
430.854;   53.400; -909.000; -835.000
430.978; -116.600; -795.000; -764.000
431.102; -138.600; -499.000; -422.000
431.226; -163.700; -874.000; -815.000
431.350;  106.400;  345.000;  422.000
431.474;  -90.500; -661.000; -373.000
431.597; -299.900;-1060.000; -848.000
431.721; -123.200; -276.000; -267.000
431.845; -204.000; -704.000; -472.000
431.969; -129.700; -304.000; -349.000
432.093; -143.800; -395.000; -317.000
432.217;   31.500;   32.000;   82.000
432.341; -153.900; -523.000; -518.000
432.464;   22.400;   96.000;   40.000
432.588;  246.100; -401.000; -329.000
432.712;  103.300;  -52.000;  -52.000
432.836;   68.300;  213.000;  263.000
432.959;  -60.900; -372.000; -311.000
433.083;   71.000;   11.000;    2.000
433.207;  399.000;  285.000;  930.000
433.330; 4018.600; -391.000; -200.000
433.454; 4457.800; -654.000; -638.000
433.578; 2795.300;  583.000;  278.000
433.701;  347.500; -623.000; -675.000
433.825;   98.600; -292.000; -299.000
433.949;  275.800;   28.000;  -72.000
434.072;   26.700; -410.000; -323.000
434.196;   10.800; -309.000; -117.000
434.319; 7650.100;25482.000;25124.000
434.443;  635.700; -656.000; -603.000
434.566; 2076.400;  281.000;   62.000
434.690;  207.500; -637.000; -383.000
434.813;   43.500; -251.000; -173.000
434.937; -139.400; -569.000; -696.000
435.060;  -76.500; -423.000; -332.000
435.184;  417.300; -492.000; -217.000
435.307;  221.500;  159.000;  102.000
435.431;   25.700;  -40.000;   24.000
435.554;  -73.800; -399.000; -240.000
435.677;  -87.500; -350.000; -258.000
435.801;  -41.400;  -25.000;   49.000
435.924;   46.600;    1.000;  -67.000
436.048; -219.000;-1019.000; -732.000
436.171;  -58.500; -240.000;  -66.000
436.294;  -41.800; -248.000; -229.000
436.417;  -79.400; -963.000; -849.000
436.541; -224.500; -814.000; -840.000
436.664;  -46.200; -242.000; -316.000
436.787;    9.100;   13.000;  113.000
436.910; -183.100; -792.000; -422.000
437.034;   45.600;  142.000;  143.000
437.157;  115.900;  -11.000;    0.000
437.280; -108.300; -392.000; -292.000
437.403; -155.500; -982.000; -869.000
437.526;  879.300; -903.000; -865.000
437.649; 3189.500; -505.000; -332.000
437.772;  352.300; -692.000; -540.000
437.896;  313.700;  700.000;  544.000
438.019; -181.000; -758.000; -503.000
438.142;  -91.300; -596.000; -506.000
438.265;  -71.400; -639.000; -670.000
438.388;  604.700; -520.000; -410.000
438.511;   37.000; -597.000; -394.000
438.634;  -79.900; -247.000; -125.000
438.757; -209.000; -693.000; -619.000
438.880;    7.000;  -34.000;  -57.000
439.003; -105.900; -417.000; -437.000
439.126;  -85.300; -287.000; -167.000
439.248;  -62.100;  -98.000; -139.000
439.371;   -7.900;    9.000;  -53.000
439.494;  146.600;  510.000;  439.000
439.617;  -22.900;   65.000;  -88.000
439.740; -297.100; -968.000; -816.000
439.863; -226.500; -755.000; -595.000
439.986; -173.700; -476.000; -431.000
440.108;  -61.600; -161.000; -112.000
440.231; -317.900; -950.000; -836.000
440.354;  -22.300;  -64.000; -150.000
440.477;  -15.700; -566.000; -542.000
440.599;  -13.700; -200.000; -225.000
440.722; -218.600; -709.000; -586.000
440.845;  212.900;  751.000;  928.000
440.968; -156.800; -415.000; -311.000
441.090;  -95.600; -199.000;  -33.000
441.213; -302.000;-1021.000; -825.000
441.336;  -68.600; -159.000;   -5.000
441.458; -110.200; -549.000; -396.000
441.581; -146.500; -628.000; -629.000
441.703;  -95.100; -152.000;   13.000
441.826; -142.000; -557.000; -400.000
441.948;  -57.400;   56.000;   51.000
442.071;  160.300;  555.000;  424.000
442.193; -167.400; -531.000; -485.000
442.316;   48.700;  152.000;   97.000
442.438;    0.900; -233.000;  -10.000
442.561;  152.000;  272.000;  262.000
442.683;  810.100; -809.000; -522.000
442.806; 1606.800;   -8.000;   74.000
442.928;  -36.900; -859.000; -604.000
443.051; -107.500; -577.000; -373.000
443.173; -112.000; -341.000; -339.000
443.295; -110.300; -263.000; -371.000
443.418;  -93.800; -321.000;  -29.000
443.540;   22.300; -106.000;   -4.000
443.662; -222.600; -563.000; -465.000
443.785;   69.300;  335.000;  199.000
443.907; -193.800; -362.000; -208.000
444.029; -208.900; -767.000; -494.000
444.152; -246.500; -644.000; -554.000
444.274;   11.400;  -18.000;  -24.000
444.396; -185.400; -461.000; -221.000
444.518; -200.900; -691.000; -454.000
444.640; -167.600; -268.000; -111.000
444.763;   26.500;  388.000;  249.000
444.885; -200.900; -432.000; -392.000
445.007;   14.600;   35.000;   86.000
445.129; -206.900; -610.000; -515.000
445.251; -148.500; -372.000; -439.000
445.373; -236.500; -537.000; -386.000
445.495;   68.800;  242.000;  350.000
445.617;  178.400;  853.000;  753.000
445.739;  -65.300; -215.000;  -97.000
445.861;  -33.100; -245.000; -112.000
445.984;  -38.300; -267.000; -101.000
446.105;  288.000; -418.000; -251.000
446.227;  866.800; -176.000;  -19.000
446.349;    2.000; -358.000; -249.000
446.471; -159.800; -615.000; -448.000
446.593;  -94.800; -316.000;   19.000
446.715;   39.000;  -67.000;   41.000
446.837;  202.100;  697.000;  832.000
446.959; -129.700; -457.000; -478.000
447.081; -237.000; -628.000; -518.000
447.203;  173.500;  862.000;  834.000
447.325; -135.500; -270.000;   42.000
447.446;   60.000;  286.000;  530.000
447.568; -291.700; -921.000; -803.000
447.690; -103.900; -236.000; -245.000
447.812; -277.500; -798.000; -519.000
447.933;   16.500;  155.000;  127.000
448.055;  -96.800; -306.000; -261.000
448.177;  280.600;   31.000;   79.000
448.299;   38.000; -935.000; -727.000
448.420;   80.900;  -25.000;  159.000
448.542;  -55.200;   -3.000;   33.000
448.664;   28.400;  109.000;  322.000
448.785;   17.400;  265.000;   83.000
448.907;  -92.200; -614.000; -353.000
449.028;  -91.600; -771.000; -471.000
449.150;  193.700;  492.000;  589.000
449.272; -317.100;-1044.000; -913.000
449.393;  123.100;  612.000;  694.000
449.515; -232.600; -634.000; -581.000
449.636;  -61.000; -264.000; -155.000
449.758;  206.900;  763.000;  622.000
449.879; -145.100; -498.000; -396.000
450.001; -104.100; -149.000;  -49.000
450.122;  -14.100;  -95.000;  162.000
450.244;    1.300;   37.000;  364.000
450.365; -128.500; -495.000; -301.000
450.486;  -39.600;   80.000;  268.000
450.608;   80.300;  393.000;  326.000
450.729;  127.800;  578.000;  645.000
450.850;  -78.600; -574.000; -466.000
450.972;  494.400; -552.000; -389.000
451.093; 3810.000;  190.000;  588.000
451.214; 1296.900; -516.000; -337.000
451.336;  320.900;  773.000;  579.000
451.457;   57.600;  264.000;  393.000
451.578;  -24.700; -118.000;  -74.000
451.699; -200.500; -546.000; -540.000
451.821;  -82.000; -284.000;  -50.000
451.942;   21.400;  278.000;  285.000
452.063;   92.600;  228.000;  419.000
452.184;  423.800;  -54.000;  -49.000
452.305;  891.400;  103.000;  170.000
452.427;    2.300; -549.000; -301.000
452.548;    9.400;   23.000;   79.000
452.669;  -81.000; -257.000;  -89.000
452.790;  -49.100;    3.000;  -18.000
452.911;   11.700;  195.000;  259.000
453.032;  -48.700; -289.000;  -60.000
453.153;  -25.600;  -29.000;   81.000
453.274;  229.300;  737.000;  868.000
453.395;  -28.200;  -51.000;  175.000
453.516;  340.900; 1317.000; 1388.000
453.637; -103.000; -205.000; -150.000
453.758;  -34.900;   15.000;   69.000
453.879; -182.600; -462.000; -250.000
454.000;  238.600; 1086.000;  948.000
454.121; -206.700; -554.000; -326.000
454.242; -200.100; -599.000; -383.000
454.362;  -44.100;  -99.000;  114.000
454.483;  -49.700; -309.000; -229.000
454.604;   91.200;  512.000;  580.000
454.725; -217.800; -627.000; -555.000
454.846; -194.100; -474.000; -406.000
454.967;   11.900;  230.000;  539.000
455.087;  -26.400;  179.000;  153.000
455.208;  106.700;  554.000;  856.000
455.329;  -65.700;  -22.000;   82.000
455.450;  129.500;  473.000;  633.000
455.570; -137.200; -234.000; -211.000
455.691;  -46.800;  201.000;  407.000
455.812; -141.800; -270.000;  -92.000
455.932;  -43.100;  107.000;  -97.000
456.053; -103.000;   36.000;   24.000
456.173; -153.400; -433.000; -355.000
456.294; -220.200; -476.000; -303.000
456.415;  -73.800;  -73.000;   70.000
456.535;   -0.800;  297.000;  273.000
456.656;   -6.900;  132.000;  240.000
456.776;  -84.900;    3.000;  298.000
456.897;   41.600;  308.000;  513.000
457.017; -103.400; -153.000;   -3.000
457.138; -178.900; -402.000; -249.000
457.258;  -28.800;  263.000;  224.000
457.379;   41.400;  509.000;  521.000
457.499;  -18.700;  443.000;  432.000
457.620; -213.200; -407.000; -231.000
457.740; -153.700; -132.000;  -11.000
457.860;  -55.900;   87.000;   44.000
457.981;  -65.300;  132.000;  124.000
458.101;  -71.800;  -89.000;   40.000
458.221;   37.000;  336.000;  402.000
458.342;  -49.600;   -4.000;  -37.000
458.462;   56.400;  617.000;  352.000
458.582;  -82.000; -302.000; -294.000
458.703;   28.700;  303.000;  154.000
458.823;  -11.700;   22.000;  163.000
458.943;   61.200;  341.000;  467.000
459.063;   -7.100; 1124.000;  192.000
459.183;   -3.300;  328.000;  313.000
459.304;   82.800;  315.000;  517.000
459.424;  -99.000; -246.000;  -89.000
459.544;  374.500;  388.000;  764.000
459.664;  698.200;  499.000;  506.000
459.784;  380.300; 1004.000; 1175.000
459.904;  138.500;  867.000;  744.000
460.024;  209.700;  867.000;  684.000
460.144;   71.500;  449.000;  554.000
460.264;   18.700;  515.000;  327.000
460.385; -146.400; -145.000; -119.000
460.505;  158.900;  905.000;  858.000
460.625; -136.200;  -17.000;  -68.000
460.745;   17.400;  396.000;  541.000
460.864;  -49.200;  153.000;  469.000
460.984;   64.600;  499.000;  573.000
461.104;  350.900; 1656.000; 1775.000
461.224;  119.500;  657.000;  650.000
461.344;   26.200;  431.000;  360.000
461.464;  -18.800;  258.000;  513.000
461.584;  -17.900;  283.000;  466.000
461.704;  -33.900;   58.000;  108.000
461.824;  -77.300;  238.000;  259.000
461.943;    3.900;  191.000;  130.000
462.063;  -97.800;    2.000;  324.000
462.183;  134.100;  639.000;  717.000
462.303;  239.100; 1678.000; 1230.000
462.422;  116.600;  781.000;  840.000
462.542;  -39.900;  271.000;  391.000
462.662;  108.400;  353.000;  380.000
462.782;  270.700;  833.000;  572.000
462.901;  458.500;  545.000;  717.000
463.021;  394.200; 1702.000; 1638.000
463.141;   65.100;  337.000;  770.000
463.260;   53.200;  614.000;  474.000
463.380;  116.900;  902.000;  884.000
463.499;  -17.800;  342.000;  332.000
463.619;   34.100;  581.000;  559.000
463.738;  287.600; 1644.000;  903.000
463.858;   78.000;  657.000;  811.000
463.978;  -20.900;  542.000;  396.000
464.097;  207.200;  921.000; 1114.000
464.217;  245.300; 1196.000; 1143.000
464.336;  255.000; 1068.000; 1130.000
464.455;  -37.200;  328.000;  659.000
464.575;  138.900;  597.000;  602.000
464.694;  308.600; 1204.000; 1179.000
464.814;  236.900; 1190.000; 1138.000
464.933;  181.100; 1095.000; 1027.000
465.052;  250.300; 1412.000; 1054.000
465.172;  191.300;  922.000;  799.000
465.291;  309.400; 1376.000; 1320.000
465.410;   90.800;  462.000;  735.000
465.530;  247.900; 1355.000; 1310.000
465.649;  195.300; 1209.000; 1273.000
465.768;  351.300; 1673.000; 1508.000
465.888;  186.600;  941.000; 1174.000
466.007;  264.000; 1335.000; 1440.000
466.126;   69.200;  721.000;  641.000
466.245;  192.600; 1176.000; 1187.000
466.364;  120.000;  950.000; 1060.000
466.484;  194.500; 1024.000; 1213.000
466.603;  168.100; 1101.000; 1222.000
466.722;  297.900; 1490.000; 1769.000
466.841;  218.600; 1151.000; 1401.000
466.960;  134.200; 1069.000;  972.000
467.079;  354.900; 1971.000; 1786.000
467.198;  168.900; 1238.000; 1181.000
467.317;  261.300; 1768.000; 1162.000
467.436;  220.800; 1709.000; 1261.000
467.555;  344.700; 1796.000; 1746.000
467.674;  229.600; 1227.000; 1329.000
467.793;  175.700; 1376.000; 1374.000
467.912;  255.800; 1658.000; 1539.000
468.031;  326.800; 2038.000; 1930.000
468.150;  380.100; 1842.000; 1837.000
468.269;  480.400; 2313.000; 2090.000
468.388;  457.400; 2168.000; 2339.000
468.507;  577.200; 2884.000; 2903.000
468.626;  653.800; 2555.000; 2541.000
468.744;  366.000; 2018.000; 2174.000
468.863;  495.900; 2312.000; 2523.000
468.982;  280.900; 1503.000; 1555.000
469.101;  547.600; 2788.000; 2692.000
469.220;  365.000; 2333.000; 2176.000
469.338;  570.200; 2935.000; 3051.000
469.457;  468.200; 2719.000; 2545.000
469.576;  740.600; 3953.000; 3784.000
469.695;  505.100; 2877.000; 3066.000
469.813;  923.800; 4148.000; 4192.000
469.932;  879.400; 4255.000; 4485.000
470.051;  892.000; 4075.000; 4161.000
470.169; 1271.700; 4470.000; 4338.000
470.288; 1790.800; 4700.000; 4809.000
470.406; 1260.600; 5059.000; 5194.000
470.525; 1236.400; 6101.000; 5787.000
470.644; 1349.900; 6847.000; 6794.000
470.762; 1724.700; 8397.000; 7873.000
470.881; 1822.300; 8651.000; 8464.000
470.999; 2117.500; 9685.000; 9151.000
471.118; 2345.000;11174.000;10711.000

