
Integration time [ms]: 100.000
Averaging Nr. [scans]: 40
Smoothing Nr. [pixels]: 0
Data measured with spectrometer [name]: 2101012U2
Wave   ;Sample   ;Dark     ;Reference
[nm]   ;[counts] ;[counts] ;[counts] 

197.733;   53.125;  516.000;  404.000
197.879;  -73.675; -610.000; -634.000
198.025;  -54.350; -475.000; -420.000
198.171;  -66.275; -602.000; -612.000
198.317;  -43.525; -401.000; -316.000
198.463;  -59.250; -655.000; -404.000
198.609;   22.525;  181.000; -137.000
198.755;  -69.300; -644.000; -410.000
198.901;  -60.125; -505.000; -424.000
199.047;  -59.700; -615.000; -488.000
199.193;  -46.975; -230.000; -468.000
199.339;  -34.725; -222.000; -369.000
199.485;   28.375;  330.000;  271.000
199.631;   10.600;  227.000;  310.000
199.777;  -53.925; -466.000; -398.000
199.923;  -64.750; -610.000; -424.000
200.069;  -20.150; -141.000;  -58.000
200.215;   54.925;  128.000;  453.000
200.361;   43.075;  243.000;  477.000
200.507;  -55.550; -600.000; -373.000
200.653;  -13.425; -371.000; -194.000
200.798;  -37.900; -215.000; -125.000
200.944;  -14.300; -146.000;  -41.000
201.090;   34.625;   61.000;  222.000
201.236;   -8.275; -116.000; -158.000
201.382;  134.325;  874.000;  903.000
201.528;    5.050;  -58.000;  -48.000
201.674;  -43.375; -386.000; -293.000
201.819;  -72.850; -540.000; -439.000
201.965;  -68.750; -699.000; -447.000
202.111;  -37.175; -273.000; -226.000
202.257;  -20.950; -250.000; -238.000
202.402;   10.325;   13.000;  -36.000
202.548;  -29.475; -169.000; -116.000
202.694;   71.775;  410.000; -183.000
202.840;  -81.050; -603.000; -531.000
202.985;  -73.800; -681.000; -639.000
203.131; -105.200; -832.000; -666.000
203.277;  -33.300; -199.000; -262.000
203.423;  -59.975; -434.000; -520.000
203.568;  -52.225; -462.000; -237.000
203.714;  -62.375; -535.000; -542.000
203.860;  -82.050; -682.000; -641.000
204.005;   25.400;  112.000;  167.000
204.151;   82.800;  561.000;  556.000
204.296;  -42.275; -354.000; -221.000
204.442;  -80.575; -600.000; -547.000
204.588;  -93.150; -592.000; -579.000
204.733;   19.525;  178.000;  168.000
204.879; -119.675;-1018.000; -822.000
205.025;    7.475;  -99.000;  126.000
205.170;   -9.125;  -17.000;   94.000
205.316;   66.850;  438.000;  661.000
205.461;  -74.825; -698.000; -554.000
205.607;   74.575;  609.000;  665.000
205.752;  -80.225; -626.000; -551.000
205.898;  -53.625; -501.000; -391.000
206.043;  -72.150; -578.000; -506.000
206.189;  -39.025; -243.000; -285.000
206.334;   84.300;  554.000;  606.000
206.480;   75.750;  409.000;  239.000
206.625;  -66.500; -529.000; -552.000
206.771;  -50.475; -451.000; -373.000
206.916;  -27.000; -210.000; -537.000
207.062;  -88.275; -545.000; -591.000
207.207;  -55.650; -546.000; -443.000
207.353;   51.175;  185.000;  460.000
207.498;   13.200;  196.000;   85.000
207.643;  -53.275; -501.000; -370.000
207.789; -115.175;-1069.000; -910.000
207.934; -108.000; -665.000; -713.000
208.080;  -26.875; -154.000;   66.000
208.225;  -22.475;  -22.000;  -57.000
208.370;  -85.725; -727.000; -619.000
208.516;  -69.425; -741.000; -487.000
208.661;  -15.225; -127.000;  -69.000
208.806;  -17.450; -165.000; -171.000
208.952; -113.700;-1044.000; -731.000
209.097;   65.250;  378.000;  349.000
209.242;  -45.350; -307.000; -382.000
209.387;   60.650;  392.000;  350.000
209.533;  -46.250; -321.000; -350.000
209.678;   66.150;  472.000;  543.000
209.823;  -40.500; -408.000; -310.000
209.969; -110.325; -860.000; -757.000
210.114; -103.075; -907.000; -719.000
210.259; -129.375; -939.000; -889.000
210.404;  -12.500; -171.000;  103.000
210.549;    0.075;  108.000;    3.000
210.695;  -12.350;   -3.000;  -95.000
210.840;   33.175;   94.000;   67.000
210.985;  -62.575; -484.000; -303.000
211.130;   63.600;  268.000;  406.000
211.275;    7.825;  207.000;  199.000
211.420;  -50.900; -300.000; -289.000
211.566;  -64.800; -536.000; -489.000
211.711;   18.600;  218.000;  157.000
211.856;  -76.725; -545.000; -519.000
212.001;    0.775;  151.000;   44.000
212.146;   25.750;  153.000;   49.000
212.291;  -27.175; -210.000; -186.000
212.436;  -24.475; -280.000;   -6.000
212.581;  -79.100; -685.000; -653.000
212.726;  -68.075; -487.000; -538.000
212.871;  -51.150; -552.000; -217.000
213.016; -151.025;-1172.000;-1029.000
213.161;   55.225;  406.000;  291.000
213.306;  -79.000; -435.000; -577.000
213.451;  -95.075; -778.000; -689.000
213.596;  -49.300; -455.000; -347.000
213.741;  -56.050; -448.000; -538.000
213.886;  -87.800; -498.000; -517.000
214.031;  -39.225; -294.000; -124.000
214.176;  -37.725; -408.000; -341.000
214.321;  -13.350; -296.000; -157.000
214.466;  -18.925; -163.000;  -43.000
214.611;  -13.425;  -61.000;  -10.000
214.756; -113.975; -948.000; -858.000
214.901;  -37.225; -388.000; -226.000
215.046; -121.950; -797.000; -825.000
215.191;   10.425;  128.000;   35.000
215.336;   -7.175; -157.000;  -19.000
215.480;  -82.450; -684.000; -505.000
215.625;   -8.625; -175.000;  -19.000
215.770;  -90.600; -757.000; -662.000
215.915;   -4.175;   -5.000;  -97.000
216.060;  -16.775; -113.000;  -21.000
216.205;  -91.650; -731.000; -779.000
216.349;  -69.650; -470.000; -533.000
216.494; -132.625; -939.000; -867.000
216.639; -127.150; -823.000; -888.000
216.784;  -96.750; -577.000; -525.000
216.929;   55.950;  392.000;  281.000
217.073;   -8.850; -244.000;  -31.000
217.218;   11.325;   78.000;  -47.000
217.363;  -88.000; -656.000; -618.000
217.507;  -86.550; -623.000; -588.000
217.652; -120.575; -845.000; -874.000
217.797;  -85.900; -708.000; -659.000
217.942; -106.700; -856.000; -720.000
218.086;   59.100;  608.000;  539.000
218.231;   -6.550; -174.000;  -26.000
218.376;  -32.650; -337.000; -229.000
218.520;    2.825;  -41.000;   96.000
218.665;  -43.800; -338.000; -204.000
218.810;  -32.325; -275.000; -233.000
218.954;    8.225;  201.000;   35.000
219.099; -100.950; -713.000; -963.000
219.243;  -73.500; -589.000; -554.000
219.388;  -24.125; -264.000; -136.000
219.532;  -19.275; -116.000; -116.000
219.677;  -80.725; -564.000; -521.000
219.822;  -13.000;   33.000;   89.000
219.966;   11.325;   17.000;  -99.000
220.111;  -44.725; -328.000;  -40.000
220.255;  -94.625; -797.000; -750.000
220.400;  -27.575; -180.000; -146.000
220.544;  -67.475; -516.000; -450.000
220.689;  -51.250; -422.000; -451.000
220.833;  -18.375; -123.000;  -58.000
220.978;  -43.850; -393.000; -563.000
221.122;   21.775;  319.000;  307.000
221.267; -122.625; -906.000; -837.000
221.411;  -41.225; -478.000; -394.000
221.555;  -12.750; -104.000;  -23.000
221.700;  -41.650; -329.000; -222.000
221.844;   26.300;  255.000;  272.000
221.989;  -46.700; -328.000; -311.000
222.133;  -45.600; -289.000; -307.000
222.277;   -7.725;    5.000;   78.000
222.422;    5.075;  227.000;  113.000
222.566;  -32.375; -381.000; -214.000
222.711;  -74.825; -414.000; -479.000
222.855;  -78.150; -643.000; -586.000
222.999;  -91.175; -642.000; -717.000
223.144;  -18.725; -195.000; -194.000
223.288;   52.950;  423.000;  251.000
223.432;   32.800;  184.000;  230.000
223.576;   11.900;  152.000;  -21.000
223.721;   46.975;  364.000;  273.000
223.865;  -68.925; -472.000; -475.000
224.009;  212.775; 1673.000; 1631.000
224.153;  -72.225; -660.000; -671.000
224.298;  -69.850; -531.000; -489.000
224.442;  -23.350;  -74.000;  -33.000
224.586;  -15.150; -169.000; -106.000
224.730; -115.125; -858.000; -670.000
224.875; -114.150; -739.000; -688.000
225.019;   -5.825;  102.000;  188.000
225.163;   66.875;  208.000;  341.000
225.307;   22.250;   97.000;  -91.000
225.451;   53.000;  360.000;  481.000
225.595;   35.175;  264.000;  176.000
225.739;  -16.700; -170.000;  -94.000
225.884;    3.000;   86.000;    5.000
226.028;  -93.200; -760.000; -626.000
226.172;  -39.900; -260.000; -273.000
226.316; -124.975; -941.000; -902.000
226.460;  -61.300; -645.000; -493.000
226.604;  -62.100; -406.000; -400.000
226.748; -104.025; -836.000; -733.000
226.892;  -23.350; -227.000; -181.000
227.036;  -70.025; -537.000; -447.000
227.180;  -56.750; -551.000; -375.000
227.324;  -69.850; -561.000; -580.000
227.468; -101.800; -819.000; -717.000
227.612;    7.175;  242.000;  -28.000
227.756;  -84.050; -845.000; -698.000
227.900;   38.475;  342.000;  441.000
228.044;  -53.475; -509.000; -290.000
228.188;   57.775;  448.000;  568.000
228.332;  -84.075; -546.000; -472.000
228.476;  -29.450; -223.000; -149.000
228.620;  -37.350; -210.000; -150.000
228.764;   69.400;  431.000;  349.000
228.908;  -15.325; -155.000;   30.000
229.052;  -70.850; -615.000; -528.000
229.195;  -16.700; -172.000;   13.000
229.339;  -27.150; -235.000; -305.000
229.483;  -20.450;    5.000; -162.000
229.627;    5.150; -156.000;  139.000
229.771;  -43.425; -218.000; -294.000
229.915;    9.000;  230.000;   79.000
230.059;  -92.775; -648.000; -663.000
230.202;  -32.725; -370.000; -317.000
230.346;  -25.300; -107.000;  107.000
230.490;  -73.350; -489.000; -521.000
230.634; -121.850; -736.000; -553.000
230.777;   71.625;  478.000;  509.000
230.921;  -48.225; -450.000; -359.000
231.065;  -41.575; -246.000; -286.000
231.209;   19.075;  261.000;  265.000
231.352;   11.175;   54.000;   40.000
231.496;   14.875;  568.000;  188.000
231.640;  -88.325; -693.000; -621.000
231.783;   57.850;  546.000;  525.000
231.927;  -62.575; -294.000; -365.000
232.071; -102.250; -962.000; -736.000
232.214; -113.000; -980.000; -764.000
232.358;  -98.025; -683.000; -599.000
232.502;    3.675;  -19.000;    7.000
232.645; -123.025;-1090.000; -927.000
232.789;  -27.450; -257.000; -218.000
232.933;  -39.750; -407.000; -224.000
233.076; -127.200;-1038.000; -897.000
233.220; -106.250; -752.000; -777.000
233.363;  -81.800; -669.000; -477.000
233.507;   58.025;  371.000;  129.000
233.650;  -97.575; -764.000; -834.000
233.794;   47.950;  438.000;  461.000
233.938;  -67.325; -530.000; -362.000
234.081;  -19.250;  -93.000;   31.000
234.225;  -81.675; -631.000; -539.000
234.368; -107.975; -773.000; -723.000
234.512;  -60.950; -385.000; -299.000
234.655;  -81.625; -582.000; -555.000
234.798;  -82.200; -493.000; -466.000
234.942; -139.150; -884.000;-1002.000
235.085;  -77.850; -651.000; -443.000
235.229;  -80.600; -405.000; -410.000
235.372;  -53.600; -247.000; -191.000
235.516;  -54.925; -397.000; -321.000
235.659;   13.975;   92.000;  121.000
235.802;  -24.500;  -38.000;  -22.000
235.946;   12.025;  335.000;  215.000
236.089;   19.850;  126.000;  250.000
236.233;   41.075;  275.000;  298.000
236.376;  -52.525; -235.000; -378.000
236.519;  -49.250; -297.000; -319.000
236.663;  -21.650; -215.000; -117.000
236.806; -139.675;-1029.000; -999.000
236.949;   68.525;  543.000;  431.000
237.092;   59.500;  412.000;  391.000
237.236;  -91.950; -589.000; -502.000
237.379;   55.275;  352.000;  428.000
237.522; -115.775; -879.000; -768.000
237.666;  -31.550; -271.000;   18.000
237.809; -120.975; -851.000; -823.000
237.952;   34.275;  469.000;  271.000
238.095;  -65.825; -447.000; -442.000
238.238;   76.075;  688.000;  700.000
238.382;    7.175;  166.000;  103.000
238.525;  -75.650; -598.000; -511.000
238.668; -135.600;-1060.000; -985.000
238.811;  -80.775; -638.000; -643.000
238.954;  -62.975; -483.000; -334.000
239.097;   97.600;  617.000;  664.000
239.241;   28.350;  394.000;  326.000
239.384;  -39.775; -254.000; -214.000
239.527;  -66.375; -424.000; -224.000
239.670; -158.750; -994.000;-1091.000
239.813; -112.700; -696.000; -658.000
239.956;   79.050;  579.000;  473.000
240.099; -116.150; -778.000; -725.000
240.242;   37.650;  428.000;  432.000
240.385;   45.750;  466.000;  450.000
240.528;  -68.800; -706.000; -473.000
240.671;   18.500;  189.000;  134.000
240.814;  -52.200; -441.000; -158.000
240.957; -101.025; -767.000; -578.000
241.100; -100.150; -779.000; -755.000
241.243; -140.950;-1234.000; -893.000
241.386;  -70.200; -508.000; -379.000
241.529;  -90.825; -735.000; -547.000
241.672;  -70.675; -566.000; -495.000
241.815; -113.750; -832.000; -808.000
241.958;  -33.900; -125.000; -182.000
242.101;  -78.200; -545.000; -390.000
242.244;  -54.900; -270.000; -325.000
242.387;  -33.550; -304.000; -246.000
242.530;   54.850;  470.000;  134.000
242.673;  -39.600; -381.000; -309.000
242.815; -134.150; -925.000; -899.000
242.958;  -60.150; -482.000; -381.000
243.101;    9.925;  132.000;  187.000
243.244;  -74.025; -564.000; -521.000
243.387;  -51.550; -313.000; -316.000
243.530;  -98.625; -657.000; -674.000
243.672;    5.100;   43.000;  -92.000
243.815;  -52.325; -355.000; -283.000
243.958;  -12.300;   98.000;  -26.000
244.101;    8.000;   59.000;  -16.000
244.243;  -17.600;  -47.000;  101.000
244.386; -113.525; -761.000; -630.000
244.529;  -26.475; -132.000; -139.000
244.672; -147.600;-1154.000; -951.000
244.814;  -91.425; -621.000; -794.000
244.957;  -60.875; -380.000; -304.000
245.100;  -80.325; -489.000; -489.000
245.242;  -60.550; -387.000; -374.000
245.385;  -11.350;  -59.000;  -39.000
245.528; -123.025; -871.000; -705.000
245.670;   67.650;  612.000;  634.000
245.813;  -79.675; -599.000; -547.000
245.956;  -38.900; -324.000; -275.000
246.098;  -69.175; -508.000; -650.000
246.241;   -7.975;  194.000;   48.000
246.383;  -18.200; -119.000;  -73.000
246.526;  -73.100; -454.000; -525.000
246.669; -122.225; -889.000; -780.000
246.811;   18.775;  172.000;   -1.000
246.954;  -51.300; -512.000; -426.000
247.096;  -37.675;  -84.000;   -6.000
247.239;  -56.675; -482.000; -445.000
247.381;  -61.725; -647.000; -488.000
247.524;   97.050;  645.000;  679.000
247.666;   -8.775;   58.000;   11.000
247.809; -111.475; -887.000; -691.000
247.951;  -17.700;  -75.000;  138.000
248.094;   14.925;  432.000;  308.000
248.236; -159.825;-1262.000;-1238.000
248.378;   12.600; -356.000;  -81.000
248.521;  -27.725; -334.000; -337.000
248.663;  -40.725; -236.000; -267.000
248.806;  -29.250; -300.000; -266.000
248.948;  -84.000; -886.000; -763.000
249.090;  -51.575; -428.000; -398.000
249.233;  -40.300; -344.000; -381.000
249.375;  -60.250; -474.000; -451.000
249.518;  -25.625;  -83.000; -133.000
249.660;   -2.625; -103.000;    3.000
249.802; -165.275;-1303.000;-1189.000
249.945;  -81.225; -612.000; -540.000
250.087; -110.825; -834.000; -768.000
250.229;  -45.700; -362.000; -480.000
250.371;  -77.775; -494.000; -439.000
250.514;  -72.475; -310.000; -244.000
250.656;  -11.700;   69.000;  102.000
250.798; -120.000; -849.000; -800.000
250.940;  -57.375; -322.000; -322.000
251.083;  -35.350; -335.000; -111.000
251.225;   50.775;  338.000;  310.000
251.367;  -36.400; -274.000; -373.000
251.509;  -36.925; -265.000; -210.000
251.651;  -98.150; -731.000; -671.000
251.794;   51.725;  538.000;  632.000
251.936; -109.500; -821.000; -747.000
252.078;  -76.500; -540.000; -461.000
252.220;  -79.800; -645.000; -477.000
252.362;   98.025;  344.000;  462.000
252.504;  -67.700; -677.000; -584.000
252.646; -116.325; -875.000; -722.000
252.788;   -7.675;   14.000; -128.000
252.931;  -34.050; -257.000; -253.000
253.073;  -46.950; -376.000; -317.000
253.215;   -0.525;  141.000;  122.000
253.357;  -18.675;   82.000; -153.000
253.499;  -46.625; -374.000; -234.000
253.641;  -88.450; -749.000; -594.000
253.783;  -87.175; -609.000; -527.000
253.925;  -94.275; -586.000; -591.000
254.067; -100.475; -744.000; -667.000
254.209;  -32.850; -391.000; -259.000
254.351; -138.800; -865.000; -883.000
254.493;  -68.275; -441.000; -417.000
254.635; -124.050; -936.000; -818.000
254.777;  -85.775; -752.000; -687.000
254.918;  -59.150; -512.000; -430.000
255.060;  -69.175; -551.000; -395.000
255.202;  -59.625; -473.000; -261.000
255.344;  -89.275; -658.000; -455.000
255.486;  -69.400; -471.000; -406.000
255.628; -115.050; -780.000; -781.000
255.770;  -87.250; -676.000; -536.000
255.912;  -71.450; -559.000; -468.000
256.053;  -88.425; -730.000; -508.000
256.195;  146.575; 1008.000;  903.000
256.337; -105.825; -861.000; -595.000
256.479;   60.925;  532.000;  416.000
256.621;  -41.100; -394.000; -212.000
256.762;  -91.925; -789.000; -742.000
256.904;   58.825;  485.000;  487.000
257.046;  -61.650; -381.000; -271.000
257.188;  -46.250; -351.000; -264.000
257.329;  -77.325; -525.000; -464.000
257.471; -121.950; -939.000; -807.000
257.613;  -81.100; -584.000; -498.000
257.755; -133.525;-1073.000; -982.000
257.896;   35.375;  286.000;  392.000
258.038;  -67.200; -403.000; -352.000
258.180;  -43.725; -354.000; -279.000
258.321;  -77.175; -581.000; -457.000
258.463;   -9.275;  -71.000;  133.000
258.605;  -91.050; -562.000; -570.000
258.746; -107.075; -886.000; -772.000
258.888; -153.450;-1026.000;-1020.000
259.029;    7.300;  121.000;   -8.000
259.171;  -94.750; -614.000; -550.000
259.313;  -10.575;  -49.000;  -47.000
259.454;  -76.950; -536.000; -414.000
259.596;  -47.250; -483.000; -390.000
259.737;  -78.200; -590.000; -474.000
259.879;   35.000;  217.000;  311.000
260.020;   95.575;  901.000;  636.000
260.162;  -32.850; -146.000; -253.000
260.303; -116.700; -768.000; -687.000
260.445;  -95.100; -609.000; -613.000
260.586;   35.825;  392.000;  157.000
260.728;  -43.900; -360.000; -248.000
260.869; -111.875; -350.000; -343.000
261.011;   84.925;  706.000;  537.000
261.152;  -58.575; -479.000; -319.000
261.293;  -84.650; -576.000; -595.000
261.435;  -32.925; -219.000; -184.000
261.576;  -61.125; -455.000; -325.000
261.718;   55.750;  420.000;  470.000
261.859; -125.400; -940.000; -949.000
262.000; -120.600; -951.000;-1016.000
262.142;  -38.800;  -52.000;  -60.000
262.283; -111.500; -808.000; -691.000
262.424; -104.825; -666.000; -625.000
262.566; -153.775;-1161.000; -983.000
262.707; -117.350; -840.000; -830.000
262.848; -102.600; -769.000; -726.000
262.990;  -36.550; -362.000; -345.000
263.131;   80.750;  650.000;  681.000
263.272;   -9.650;  -61.000;  -41.000
263.413;  -97.525; -589.000; -561.000
263.555;  -78.175; -669.000; -143.000
263.696;  -92.000; -550.000; -641.000
263.837;  -61.600; -449.000; -551.000
263.978;   12.100;   -5.000;  -77.000
264.119;  -54.450; -283.000; -264.000
264.261; -121.500; -847.000; -630.000
264.402;   -6.625;   33.000;   40.000
264.543;  -72.925; -509.000; -524.000
264.684;  -19.650;   61.000;  -50.000
264.825;  -66.975; -816.000; -538.000
264.966;   -7.725;  -84.000;  -67.000
265.107; -103.950; -646.000; -670.000
265.248; -120.600; -825.000; -812.000
265.390;  -15.525;  152.000;   -9.000
265.531;  -31.975; -238.000; -107.000
265.672; -102.600; -557.000; -630.000
265.813;   67.050;  563.000;  439.000
265.954; -133.500; -959.000; -940.000
266.095;  -30.075; -372.000; -322.000
266.236;  -98.825; -686.000; -548.000
266.377;  -46.250; -243.000; -297.000
266.518;  -71.450; -619.000; -547.000
266.659;   27.175;  170.000;  268.000
266.800;   -4.025;   83.000;   85.000
266.941;  -77.075; -487.000; -478.000
267.082;   10.700;  354.000;   99.000
267.223;  -53.250; -344.000; -273.000
267.364; -112.825; -892.000; -686.000
267.504;  -29.525;    3.000;  135.000
267.645;    0.550;  160.000;   67.000
267.786;  -29.300; -147.000;  -86.000
267.927;  -54.025; -473.000; -379.000
268.068;  -10.750; -186.000;  -61.000
268.209;  -44.075; -175.000; -413.000
268.350;  -71.275; -388.000; -532.000
268.490;  -71.225; -648.000; -521.000
268.631;   18.475;  127.000;  225.000
268.772; -100.725; -874.000; -647.000
268.913;  -59.425; -328.000; -476.000
269.054;   -9.300; -117.000;   12.000
269.194;  -45.475; -418.000; -402.000
269.335; -149.200;-1137.000;-1074.000
269.476;  -25.350;   33.000;  -35.000
269.617;  -44.000; -347.000; -392.000
269.757;  -94.900; -713.000; -646.000
269.898; -108.350; -856.000; -613.000
270.039;  -61.475; -415.000; -405.000
270.180; -137.000; -952.000; -816.000
270.320;  -38.025; -190.000; -250.000
270.461;  -39.925; -277.000; -249.000
270.602;  -17.125; -186.000; -156.000
270.742; -116.875; -868.000; -943.000
270.883;  -60.525; -442.000; -390.000
271.023;  -53.725; -358.000; -357.000
271.164;  -77.900; -607.000; -528.000
271.305;  -93.650; -666.000; -654.000
271.445;  -96.800; -722.000; -683.000
271.586;  -60.650; -462.000; -283.000
271.726;  -59.300; -397.000; -322.000
271.867;  -61.225; -594.000; -534.000
272.008;  196.300; -473.000; -285.000
272.148;  144.650;  462.000;  468.000
272.289;    6.250; -113.000; -181.000
272.429;   22.700;   19.000;  185.000
272.570; -109.350; -633.000; -737.000
272.710;  -92.950; -825.000; -775.000
272.851;  -24.700;  113.000; -130.000
272.991; -147.825;-1173.000;-1077.000
273.131;  -69.575; -419.000; -459.000
273.272;  -95.675; -683.000; -723.000
273.412;   13.375; -143.000;  -31.000
273.553;  -51.125; -488.000; -507.000
273.693;  141.875;  913.000;  858.000
273.834;  -91.025; -894.000; -692.000
273.974;  -66.900; -664.000; -615.000
274.114;  -85.175; -772.000; -560.000
274.255;   86.625;  414.000;  373.000
274.395;    4.650; -180.000; -125.000
274.535;   34.325;  199.000;  350.000
274.676;   25.325;  225.000;   94.000
274.816;   12.800;  110.000;   34.000
274.956;  -75.750; -624.000; -690.000
275.097;  -56.050;-1014.000; -922.000
275.237; -109.775; -913.000; -803.000
275.377; -101.325; -778.000; -689.000
275.517; -140.775; -878.000; -937.000
275.658;  -55.300; -590.000; -555.000
275.798;  -59.325; -606.000; -413.000
275.938;   30.350;  215.000;  323.000
276.078; -101.350; -626.000; -395.000
276.218;    9.925;   99.000;  104.000
276.359; -119.450;-1026.000;-1024.000
276.499;  -65.100; -605.000; -446.000
276.639;  -30.375; -305.000; -151.000
276.779;  -50.700; -475.000; -357.000
276.919;  -98.975; -783.000; -624.000
277.059;  -15.325; -261.000; -212.000
277.199;  -45.375; -357.000; -259.000
277.340;   38.300;  287.000;  175.000
277.480;  -97.725; -840.000; -693.000
277.620;   23.100;  192.000;   16.000
277.760; -203.825;-1533.000;-1294.000
277.900;   13.300;  113.000;   33.000
278.040;   29.250;  137.000;  159.000
278.180;   34.825;  270.000;  170.000
278.320;    4.750;   21.000;   56.000
278.460;  -66.275; -443.000; -469.000
278.600;  -91.100; -708.000; -598.000
278.740;   44.925;  448.000;  224.000
278.880;  -25.975; -768.000; -791.000
279.020;   -0.925; -194.000; -144.000
279.160;  -83.375; -672.000; -595.000
279.300; -117.750; -926.000; -873.000
279.440;  -90.825; -709.000; -622.000
279.579;   -1.500;-1014.000; -929.000
279.719;  -39.175; -410.000; -394.000
279.859;   88.400;   -4.000;   41.000
279.999;   38.200; -208.000;  101.000
280.139;  -15.900; -435.000; -387.000
280.279;  -58.950; -708.000; -745.000
280.419;  -16.925; -229.000; -147.000
280.559;  -22.375; -259.000; -180.000
280.698;  -94.775; -790.000; -639.000
280.838;  -80.100; -778.000; -800.000
280.978; -103.575; -846.000; -790.000
281.118;  -91.375; -811.000; -704.000
281.257;   -9.200;   24.000;    6.000
281.397;  -94.675;-1094.000; -960.000
281.537;  -77.325; -599.000; -712.000
281.677;  -18.250; -150.000; -101.000
281.816;  -92.475; -700.000; -630.000
281.956;  -27.275; -193.000; -257.000
282.096;  -67.475; -539.000; -396.000
282.235;  -91.775; -672.000; -638.000
282.375;  -29.125; -243.000;  -98.000
282.515;  -84.875; -715.000; -707.000
282.654;   36.675;   29.000;  106.000
282.794;   36.350;  388.000;  244.000
282.934;  -57.975; -530.000; -491.000
283.073; -135.675;-1030.000; -857.000
283.213;  -64.625; -460.000; -467.000
283.353;  -29.675; -408.000; -349.000
283.492;  -15.275; -264.000; -296.000
283.632;  -31.800; -254.000; -168.000
283.771; -113.125; -859.000; -730.000
283.911;  -37.150; -369.000; -260.000
284.050; -111.100; -794.000; -748.000
284.190; -167.275;-1229.000;-1096.000
284.329; -140.550;-1055.000; -964.000
284.469;  -49.675; -516.000; -591.000
284.608;  -43.800; -559.000; -598.000
284.748;  -75.975; -614.000; -570.000
284.887;   -9.800;  -87.000;  -20.000
285.027; -119.275; -844.000; -892.000
285.166;  -25.725; -192.000; -249.000
285.306;    2.475; -116.000;  -33.000
285.445;  -38.300; -229.000; -343.000
285.584;  -96.825; -630.000; -494.000
285.724;  -48.850; -282.000; -322.000
285.863; -104.000; -857.000; -507.000
286.002;  -57.250; -366.000; -276.000
286.142; -105.675; -715.000; -622.000
286.281;  -80.475; -525.000; -493.000
286.420;  -71.925; -554.000; -417.000
286.560;   87.350;  653.000;  623.000
286.699; -132.800; -958.000; -912.000
286.838;  -90.050; -590.000; -591.000
286.978;  -84.150; -533.000; -537.000
287.117; -148.050;-1085.000; -950.000
287.256;  -17.975; -228.000; -211.000
287.395;  -55.300; -197.000; -378.000
287.535;  -48.300; -370.000; -298.000
287.674;  -76.725; -509.000; -484.000
287.813;   52.900;  661.000;  533.000
287.952; -133.075;-1010.000; -871.000
288.091; -140.950;-1049.000; -915.000
288.231;   13.950;   13.000;   15.000
288.370; -160.450;-1217.000;-1200.000
288.509;  -87.225; -728.000; -645.000
288.648;  -82.475; -770.000; -548.000
288.787;  -22.075; -243.000;  -87.000
288.926;  -68.275; -454.000; -475.000
289.065;  118.025;  859.000;  672.000
289.204;  -56.100; -377.000; -217.000
289.344;  -87.825; -791.000; -690.000
289.483;   34.500;  416.000;  304.000
289.622;  -32.625; -291.000; -149.000
289.761;  -17.850; -309.000; -166.000
289.900; -113.175; -785.000; -626.000
290.039;  -10.425;  -12.000;  -95.000
290.178;  -42.200; -274.000; -180.000
290.317;  -63.550; -618.000; -479.000
290.456;  -70.300; -463.000; -451.000
290.595; -135.275; -961.000; -833.000
290.734; -141.750; -904.000; -891.000
290.873;  -61.525; -456.000; -420.000
291.011;  -88.975; -833.000; -843.000
291.150;  -92.400; -770.000; -682.000
291.289;  -17.050; -343.000; -110.000
291.428; -100.800; -599.000; -480.000
291.567;  -45.525; -370.000; -442.000
291.706;    1.350;  109.000;  154.000
291.845;  -91.775; -597.000; -505.000
291.984; -152.925;-1234.000;-1061.000
292.122;   59.200;  602.000;  582.000
292.261;   45.550;  620.000;  463.000
292.400;   -0.500; -144.000;  211.000
292.539; -111.300; -959.000; -813.000
292.678;  -39.225; -325.000; -300.000
292.816; -148.900;-1136.000; -965.000
292.955;  -86.925; -844.000; -684.000
293.094;  -19.475; -173.000; -337.000
293.233;  -60.550; -556.000; -400.000
293.371;  -30.900; -225.000;  -84.000
293.510; -107.625; -866.000; -780.000
293.649; -119.200; -959.000; -924.000
293.787;  -47.300;-1083.000;-1012.000
293.926;   -2.150; -113.000;  -32.000
294.065;  -38.700; -379.000; -290.000
294.203;   54.875;  298.000;  406.000
294.342;   19.525;   74.000;  156.000
294.481; 5292.600;51180.000; -836.000
294.619;  -29.025; -425.000; -582.000
294.758; -126.175;-1230.000;-1137.000
294.896;   87.725; -125.000;    5.000
295.035; -122.475;-1040.000;-1006.000
295.174; -119.700;-1082.000; -954.000
295.312;  -40.950; -323.000; -203.000
295.451;    1.775; -307.000; -428.000
295.589;  -42.875; -389.000; -518.000
295.728;   25.125; -292.000; -165.000
295.866;   20.375;  -36.000;  -51.000
296.005;  -59.775; -584.000; -341.000
296.143;  -64.875; -558.000; -596.000
296.282;  -96.100; -957.000; -881.000
296.420;  -75.700; -657.000; -557.000
296.559;  -77.000; -892.000; -633.000
296.697;   55.075; -847.000; -665.000
296.835;  126.300;-1141.000;-1002.000
296.974;   62.850;  -23.000;   39.000
297.112;   17.750; -443.000; -504.000
297.251;  -61.600; -815.000; -755.000
297.389;  140.775; -576.000; -438.000
297.527;   52.825; -145.000;  -83.000
297.666;  -56.050; -486.000; -438.000
297.804;  -46.625; -404.000; -264.000
297.942;  -14.175; -136.000; -161.000
298.081;  -11.025; -183.000;   63.000
298.219;   92.975;  -17.000;  -19.000
298.357;   76.900; -144.000;  -71.000
298.495;   68.300; -810.000; -812.000
298.634;  108.150;  245.000;  219.000
298.772;   85.425; -220.000; -338.000
298.910;  -32.175; -309.000; -182.000
299.048;  -10.450; -130.000; -153.000
299.187;  -21.925; -350.000; -250.000
299.325;   23.725;   52.000;  122.000
299.463;   89.000; -389.000; -299.000
299.601;  156.225; -327.000; -271.000
299.739;  -82.500; -908.000; -883.000
299.877;  -79.250; -791.000; -703.000
300.016;  -10.675;-1095.000; -935.000
300.154;  199.475;  -19.000; -161.000
300.292;   85.875; -428.000; -348.000
300.430;   50.875; -408.000; -291.000
300.568;  -92.200; -940.000; -874.000
300.706;  -60.800; -366.000; -469.000
300.844;  -39.575;-1108.000; -979.000
300.982;  134.300;  246.000;  282.000
301.120;  -91.400; -965.000; -866.000
301.258;  -64.800; -812.000; -705.000
301.396;   51.650;  104.000;  -41.000
301.534;  116.225; -218.000; -293.000
301.672;   42.700; -664.000; -521.000
301.810;   73.825; -613.000; -545.000
301.948;  160.500;   53.000;  149.000
302.086;  756.150; -250.000;  -32.000
302.224; 1199.025; -610.000; -585.000
302.362;   58.900; -558.000; -622.000
302.500;   13.675; -923.000; -893.000
302.638;  131.400;  128.000;  245.000
302.776;    6.600; -352.000; -408.000
302.913;   52.900;  447.000;  236.000
303.051;    9.025;  -86.000;  -23.000
303.189;   58.225;   90.000;  118.000
303.327;  -24.950; -341.000; -256.000
303.465;  -75.350; -832.000; -588.000
303.603;  -77.450; -805.000; -604.000
303.740;  105.975;  417.000;  241.000
303.878;   60.525; -800.000; -759.000
304.016;  -75.750; -915.000; -790.000
304.154; -118.175;-1123.000;-1152.000
304.291;  -32.825; -505.000; -554.000
304.429;   14.575;  102.000;   74.000
304.567; -127.325; -908.000; -893.000
304.705;  -49.025; -408.000; -515.000
304.842;  150.725; -616.000; -540.000
304.980;   74.850;  215.000;   35.000
305.118;   64.700; -367.000; -365.000
305.255;  -49.225; -945.000; -927.000
305.393;   61.050;  178.000;  239.000
305.531;  -69.000;-1173.000; -956.000
305.668;  -65.175; -663.000; -582.000
305.806;  125.375; -358.000; -439.000
305.943;  161.425; -629.000; -637.000
306.081;   81.300; -378.000; -267.000
306.219; -105.225; -863.000; -748.000
306.356;   12.825;  158.000;   27.000
306.494;  103.575;  981.000;  761.000
306.631;    0.600;  -11.000;  -55.000
306.769;    9.975; -613.000; -485.000
306.906;    0.550; -284.000; -258.000
307.044;  -63.300; -473.000; -488.000
307.181;  -68.975; -410.000; -332.000
307.319;    2.950;  112.000;   87.000
307.456; -153.700;-1191.000;-1153.000
307.594;  -93.000; -980.000; -727.000
307.731;   -1.775; -371.000; -164.000
307.868;   -3.550;  -15.000;   20.000
308.006; -128.850; -961.000; -847.000
308.143;  -62.675; -618.000; -330.000
308.281;  197.625;  -37.000; -254.000
308.418;    7.450; -748.000; -640.000
308.555;  -71.775; -400.000; -250.000
308.693;  -79.600; -577.000; -573.000
308.830; -111.300; -712.000; -657.000
308.967;  -28.225; -215.000;  -95.000
309.105;  -39.300; -507.000; -396.000
309.242;   39.650; -468.000; -367.000
309.379;  397.875; -577.000; -655.000
309.517;  -46.825; -936.000; -948.000
309.654; -102.450; -910.000; -734.000
309.791;  -81.200; -662.000; -580.000
309.928; -106.900; -977.000; -914.000
310.065;  182.650;  819.000;  697.000
310.203;   33.075; -825.000; -850.000
310.340;    4.000; -465.000; -321.000
310.477;  -76.875; -412.000; -516.000
310.614;  -68.975; -383.000; -473.000
310.751;  -70.850; -427.000; -518.000
310.889;  -29.850;    1.000;   11.000
311.026; -148.825;-1161.000; -939.000
311.163;  -47.900; -386.000; -380.000
311.300;  -72.400; -512.000; -479.000
311.437;  -70.950; -658.000; -619.000
311.574; -146.925;-1226.000; -985.000
311.711;  -66.425; -595.000; -433.000
311.848;  -41.075; -380.000; -388.000
311.985;    8.000;  270.000;   93.000
312.122; -109.875; -932.000; -762.000
312.259; -122.550; -941.000; -994.000
312.396;  -67.075; -508.000; -551.000
312.533;  -92.575; -812.000; -790.000
312.670; -119.125;-1070.000; -898.000
312.807;  -24.625; -352.000; -367.000
312.944;  -70.800; -513.000; -611.000
313.081;  -32.350; -150.000; -415.000
313.218;  -95.450;-1111.000; -867.000
313.355;   16.300; -531.000; -449.000
313.492;   21.750; -455.000; -292.000
313.629;  128.350;  815.000;  735.000
313.766; -147.225;-1176.000;-1008.000
313.902;  -15.075; -186.000;   21.000
314.039;  -43.025; -372.000; -289.000
314.176;   29.950;  286.000;  192.000
314.313;  -71.625; -569.000; -473.000
314.450;  -80.625; -788.000; -684.000
314.587;  -59.500; -468.000; -480.000
314.723;    1.125;  -78.000;  130.000
314.860;   46.850;  318.000;  332.000
314.997;   27.325;  223.000;  142.000
315.134;  -40.975; -385.000; -368.000
315.270;  -29.025; -480.000; -496.000
315.407; -105.550;-1094.000; -967.000
315.544;  -42.100; -657.000; -538.000
315.681;  -49.950; -681.000; -565.000
315.817;   31.000; -133.000; -176.000
315.954;   35.650; -613.000; -392.000
316.091; -121.425;-1045.000;-1023.000
316.227;  -15.500;  -71.000; -179.000
316.364;    5.950;   23.000;    6.000
316.500;  -30.875; -113.000; -300.000
316.637;  -41.100; -181.000; -302.000
316.774;  -90.900; -625.000; -358.000
316.910; -105.075; -598.000; -629.000
317.047;  -65.550; -487.000; -351.000
317.183;  -40.125; -435.000; -566.000
317.320;  -18.575; -367.000; -321.000
317.456;  -82.050; -733.000; -805.000
317.593;  -78.175; -598.000; -641.000
317.729;   -0.450;  168.000;  -67.000
317.866; -187.650;-1434.000;-1285.000
318.002;  -88.925; -708.000; -948.000
318.139;  -71.325; -883.000; -867.000
318.275; -113.475;-1003.000; -738.000
318.412;  -56.750; -517.000; -336.000
318.548;   -8.925; -751.000; -720.000
318.685;  -74.200; -985.000; -888.000
318.821;  -98.650; -762.000; -735.000
318.957;  -13.025;   34.000;  -23.000
319.094;   25.975;  297.000;  154.000
319.230;  -37.375; -756.000; -742.000
319.367;  170.750; -471.000; -520.000
319.503;   90.175; -538.000; -436.000
319.639;  -98.550; -877.000; -793.000
319.775;  -44.025; -750.000; -685.000
319.912;  -49.150; -424.000; -519.000
320.048;  -63.925;-1184.000;-1184.000
320.184;   71.725;   59.000;   70.000
320.321;  -55.275; -497.000; -467.000
320.457;   61.750;  475.000;  662.000
320.593;  -48.175; -375.000; -382.000
320.729; -113.125; -732.000; -734.000
320.866;  -77.625; -577.000; -635.000
321.002;  -75.650; -759.000; -809.000
321.138;    0.300; -135.000; -211.000
321.274;   85.375; -148.000; -115.000
321.410;  -16.250; -585.000; -353.000
321.546;  -12.550;-1011.000; -911.000
321.683;   75.150;  400.000;  185.000
321.819;    0.150;  -48.000; -117.000
321.955;  -99.425; -743.000; -722.000
322.091;  -36.875; -585.000; -540.000
322.227;  -19.250; -382.000; -202.000
322.363;  -10.325; -320.000; -215.000
322.499;  -26.775; -343.000; -331.000
322.635;  172.225;  636.000;  443.000
322.771;   51.050; -139.000;   12.000
322.907;  100.375;  129.000;  327.000
323.043;  -13.300; -115.000; -206.000
323.179;  -44.950; -394.000; -363.000
323.315;   51.750; -401.000; -371.000
323.451;  145.875; -328.000; -236.000
323.587;   72.625;  -60.000;  -77.000
323.723;   55.800; -682.000; -601.000
323.859;   -3.600; -258.000;  -76.000
323.995;  -32.725; -467.000; -409.000
324.131; -110.700; -967.000; -892.000
324.267;  -43.150; -254.000; -276.000
324.402; -116.875; -960.000; -983.000
324.538;  -21.600; -279.000; -104.000
324.674;   36.700;  164.000;   77.000
324.810;  166.900;  226.000;  308.000
324.946;   27.300; -810.000; -658.000
325.082;  -66.775; -568.000; -475.000
325.217;  -14.475;  -62.000;   16.000
325.353; -112.250; -764.000; -659.000
325.489;  -69.225; -540.000; -506.000
325.625;  -87.375; -579.000; -525.000
325.760;   41.900;  517.000;  376.000
325.896;  -32.400; -515.000; -702.000
326.032;  -46.000; -403.000; -352.000
326.168;  -66.200; -462.000; -369.000
326.303;  -54.500; -352.000; -461.000
326.439;  -30.025; -336.000; -276.000
326.575;   18.900; -190.000;  -29.000
326.710;  -10.350; -156.000;  -30.000
326.846;   -5.400;  146.000;  103.000
326.982;  -99.600; -530.000; -548.000
327.117;  -64.275; -481.000; -442.000
327.253;  -81.950; -745.000; -742.000
327.388; -105.775;-1137.000;-1153.000
327.524;  -47.350; -811.000; -578.000
327.659;  -19.325;  -58.000;  -22.000
327.795;   -4.725;   69.000;   45.000
327.931;  -85.275; -723.000; -499.000
328.066;  -18.775; -417.000; -276.000
328.202;    9.050;   12.000; -129.000
328.337;   94.800;  957.000;  713.000
328.473;   44.475;  -12.000;  -74.000
328.608;  -25.400; -256.000; -267.000
328.743;  -70.825; -799.000; -664.000
328.879;   15.025;  214.000;  114.000
329.014;  -35.650; -102.000; -122.000
329.150;  -82.250; -358.000; -483.000
329.285;  -68.225; -465.000; -466.000
329.421;  -44.175; -548.000; -246.000
329.556;  -14.575;  -36.000;   85.000
329.691;  -98.900; -633.000; -615.000
329.827;  -74.500; -626.000; -480.000
329.962;  -44.150;  131.000; -301.000
330.097;  -79.250; -673.000; -585.000
330.233;  -62.250; -410.000; -223.000
330.368; -128.700; -839.000; -628.000
330.503;  -27.375;    3.000;   98.000
330.638;   20.300;  -93.000; -125.000
330.774;  -58.000; -609.000; -530.000
330.909;  -42.300; -434.000; -244.000
331.044;  -97.350; -714.000; -708.000
331.179; -158.300;-1217.000;-1109.000
331.315;    4.375;   77.000;   20.000
331.450;   19.225;  157.000;  285.000
331.585;  -90.050; -805.000; -706.000
331.720;  -73.350; -510.000; -460.000
331.855;   -0.150;  -35.000; -102.000
331.990;  216.925;   62.000;  138.000
332.126;  105.375; -110.000;   71.000
332.261;  -18.975; -379.000; -265.000
332.396;   -2.075; -135.000; -242.000
332.531; -102.100;-1074.000;-1031.000
332.666;   20.125; -519.000; -363.000
332.801; -108.050; -726.000; -807.000
332.936;  -27.725; -192.000; -122.000
333.071; -144.825; -870.000; -817.000
333.206;   19.450;  307.000;  379.000
333.341;   39.225;  344.000;  418.000
333.476;  -80.775; -627.000; -623.000
333.611;  -43.025; -251.000; -173.000
333.746;  -44.150; -381.000; -464.000
333.881;  -98.400; -973.000; -935.000
334.016; -119.850; -936.000; -917.000
334.151; -120.525; -746.000; -702.000
334.286;   37.125;  152.000;  186.000
334.421;  -25.900; -125.000; -178.000
334.556;  -72.200; -611.000; -567.000
334.690;  -85.300; -631.000; -577.000
334.825;   68.225;  381.000;   83.000
334.960;  -44.900; -285.000; -413.000
335.095;   -1.375;  135.000;  -91.000
335.230;  -77.350; -722.000; -738.000
335.365; -124.350;-1084.000; -990.000
335.499; -114.850;-1108.000;-1037.000
335.634;   28.550;    9.000;  534.000
335.769;  -81.200; -755.000; -720.000
335.904;  -47.525; -603.000; -561.000
336.038;  -46.475; -735.000; -657.000
336.173; -103.600;-1206.000;-1194.000
336.308;   25.625; -116.000; -189.000
336.443;   16.700; -544.000; -634.000
336.577;  -52.400; -936.000; -787.000
336.712;   74.625;   -4.000;  -12.000
336.847;   -4.800; -724.000; -607.000
336.981;   97.475; -272.000; -208.000
337.116;  338.950;  615.000;  501.000
337.250;  200.775; -434.000; -421.000
337.385;  213.175; -297.000; -208.000
337.520;   57.475; -632.000; -603.000
337.654;  -37.450; -215.000; -126.000
337.789; -124.275; -989.000; -933.000
337.923;  -20.975; -104.000; -205.000
338.058;  -82.225; -673.000; -738.000
338.192;  -11.450; -611.000; -488.000
338.327;   -6.100;  -18.000; -155.000
338.461;  -47.050; -299.000; -469.000
338.596;  -90.950; -780.000; -638.000
338.730;  -93.825; -767.000; -803.000
338.865;   59.725;  -46.000; -140.000
338.999;  -57.700; -846.000; -702.000
339.134;  -32.400; -634.000; -536.000
339.268;   22.075; -741.000; -603.000
339.403;  336.975; -740.000; -775.000
339.537;   92.675; -894.000; -820.000
339.671; -119.500; -829.000; -813.000
339.806;  -57.275; -556.000; -512.000
339.940;    8.775; -261.000; -235.000
340.074;  -92.500; -685.000; -510.000
340.209;  -40.175; -351.000; -230.000
340.343;  -82.075; -517.000; -573.000
340.477;  151.775;  998.000; 1036.000
340.612;  -54.850;-1033.000; -900.000
340.746;  120.550; -199.000; -243.000
340.880;  -39.075; -924.000; -785.000
341.014;  -13.025;  -45.000; -154.000
341.149; -117.150; -756.000; -718.000
341.283; -102.675; -839.000; -754.000
341.417;  -77.700;-1124.000; -938.000
341.551;  197.200; -768.000; -708.000
341.685;   -9.200; -633.000; -611.000
341.820;  -66.475; -562.000; -493.000
341.954;  -46.925; -218.000; -349.000
342.088; -156.425;-1102.000;-1019.000
342.222;   66.125;  565.000;  618.000
342.356;  -55.875; -395.000; -335.000
342.490;  -73.250; -880.000; -841.000
342.624;  -47.075; -339.000; -242.000
342.758;   13.575; -364.000; -312.000
342.892;  -63.000; -710.000; -585.000
343.026;  -45.225;  -58.000; -116.000
343.160;  -64.900; -426.000; -376.000
343.294;  -75.225; -474.000; -337.000
343.428;  -15.325; -488.000; -448.000
343.562;  -15.350; -172.000;  -23.000
343.696;   -2.725; -385.000; -314.000
343.830;   -8.225; -362.000; -356.000
343.964;   10.075; -231.000; -168.000
344.098; 1174.625;  199.000;   70.000
344.232;  959.400; -266.000; -127.000
344.366;  106.750; -567.000; -453.000
344.500;  110.550; -665.000; -744.000
344.634;   54.150; -324.000; -164.000
344.768;   12.925; -531.000; -341.000
344.902;   34.300;  278.000;  256.000
345.035;  -74.525; -556.000; -496.000
345.169; -118.175; -933.000; -656.000
345.303;  -14.800; -308.000; -482.000
345.437;  -56.750; -826.000; -717.000
345.571;  -76.800; -675.000; -594.000
345.704;  -64.875; -309.000; -532.000
345.838;   -6.700; -331.000; -284.000
345.972;  -24.625; -543.000; -495.000
346.106;  145.425; -179.000; -190.000
346.239;  430.900; -312.000; -243.000
346.373;   29.500; -343.000; -302.000
346.507; -130.375; -950.000; -962.000
346.640;  182.650;  -30.000;   13.000
346.774;  -16.675; -650.000; -797.000
346.908;   -8.175; -138.000;  -11.000
347.041;  -94.175; -646.000; -593.000
347.175;    2.675;  259.000;   27.000
347.309;  -65.850; -698.000; -628.000
347.442;  -97.375; -883.000; -732.000
347.576;  341.625;  670.000;  668.000
347.709;  264.325; -123.000;  -52.000
347.843;  -73.475; -933.000; -825.000
347.976;   29.575;  235.000;  294.000
348.110; -167.625;-1268.000;-1186.000
348.243;  -99.750; -679.000; -772.000
348.377;    8.750;  -26.000;   60.000
348.510;   54.125;  403.000;  540.000
348.644;  -32.950;  -37.000; -159.000
348.777;  -10.250;  180.000;  191.000
348.911;  -37.300; -142.000; -112.000
349.044;  192.050;  471.000;  448.000
349.178;  245.525;-1069.000;-1006.000
349.311;  124.375;  141.000;  255.000
349.444;   -9.375; -927.000; -813.000
349.578;  -20.950; -347.000; -200.000
349.711;  -88.400; -959.000; -862.000
349.845;   39.950; -661.000; -591.000
349.978; -130.750;-1224.000;-1137.000
350.111;  -78.600; -546.000; -612.000
350.244;  -59.300; -596.000; -700.000
350.378;   17.150; -392.000; -393.000
350.511;  -60.025; -393.000; -426.000
350.644; -106.875; -808.000; -806.000
350.778;   -5.225;  168.000;  104.000
350.911;    8.450;  134.000;  140.000
351.044;  -87.375; -685.000; -615.000
351.177;  -22.825; -321.000; -281.000
351.310;  -10.700;    3.000; -131.000
351.444;  -61.300; -888.000; -788.000
351.577;  139.375;  140.000;   90.000
351.710;  108.000;  593.000;  417.000
351.843;  -26.850; -165.000;  -77.000
351.976;   -2.250;  149.000;  -79.000
352.109;  -84.000; -621.000; -612.000
352.242;  -20.425; -464.000; -419.000
352.376;  -39.600; -580.000; -636.000
352.509;  248.025; -437.000; -356.000
352.642;   72.450; -654.000; -604.000
352.775;   83.825; -141.000;  -98.000
352.908;  -89.375; -933.000; -904.000
353.041;  -98.850; -814.000; -824.000
353.174;  -59.475; -551.000; -424.000
353.307;  -76.400; -753.000; -764.000
353.440;   78.050;  541.000;  453.000
353.573; -102.975; -957.000;-1008.000
353.706;  -25.400; -384.000; -558.000
353.839;  -15.625; -264.000; -220.000
353.971;  -80.275; -657.000; -512.000
354.104;  -97.500; -896.000; -835.000
354.237;  -20.575; -627.000; -662.000
354.370;  -72.825; -846.000; -879.000
354.503; -167.025;-1231.000;-1308.000
354.636;  -19.050; -529.000; -348.000
354.769; -116.925; -937.000; -860.000
354.902;  -13.975; -230.000; -139.000
355.034;  -13.025; -164.000; -220.000
355.167;  -24.475; -262.000; -162.000
355.300;  -91.675;-1061.000; -880.000
355.433;  881.125;  -71.000;  -14.000
355.565; 1370.350; -402.000; -384.000
355.698;  327.925; -356.000; -296.000
355.831;   15.175; -882.000; -801.000
355.964;  110.350; -285.000; -170.000
356.096;  -68.325; -856.000; -843.000
356.229;   28.225; -523.000; -530.000
356.362;  287.275; -373.000; -266.000
356.494;  548.700; -229.000; -162.000
356.627;  576.375;  269.000;  377.000
356.760;  637.775;  120.000;   53.000
356.892;  857.675; -286.000; -601.000
357.025;  804.900;  403.000;  389.000
357.157;  776.775; -167.000; -179.000
357.290;  587.900; -856.000; -713.000
357.423;  187.600; -667.000; -556.000
357.555;  144.725; -217.000; -228.000
357.688;  175.525; -483.000; -364.000
357.820;  565.650; -870.000; -877.000
357.953; 4490.550; -563.000; -589.000
358.085; 1045.050; -632.000; -612.000
358.218; 1612.775;-1131.000; -932.000
358.350;  289.450;  -58.000;  312.000
358.483;  -98.400;-1300.000;-1187.000
358.615;   38.950;-1182.000;-1078.000
358.747;   -8.525;-1187.000;-1058.000
358.880;   64.350; -810.000; -744.000
359.012;    7.675; -376.000; -202.000
359.145;  -45.350; -480.000; -511.000
359.277;  121.700; -962.000; -913.000
359.409; 3702.675;  536.000;  231.000
359.542; 1027.075; -738.000; -688.000
359.674;   72.600;   46.000;   13.000
359.806;  -48.350; -565.000; -438.000
359.939;  -44.725; -617.000; -516.000
360.071;  -16.925; -583.000; -579.000
360.203;  -26.675; -411.000; -364.000
360.335;   79.825;  164.000;  -16.000
360.468;  224.850; -249.000; -307.000
360.600; 2914.450; -547.000; -454.000
360.732; 2596.550; -546.000; -423.000
360.864;  384.150;-1216.000;-1044.000
360.996;  366.525; -516.000; -554.000
361.129;   79.500; -389.000; -598.000
361.261;   15.900;  110.000; -113.000
361.393;  -25.175; -252.000; -214.000
361.525;   37.075;   94.000;  244.000
361.657;  -14.950; -821.000; -703.000
361.789;   17.450; -139.000; -155.000
361.921;  346.200; -642.000; -593.000
362.053;  298.775;  524.000;  541.000
362.185;   76.225;  288.000;   72.000
362.318;  -59.350; -709.000; -705.000
362.450;  154.650;  294.000;  444.000
362.582;  224.800; -913.000; -870.000
362.714;  -13.050; -353.000; -332.000
362.846;  -89.750; -606.000; -490.000
362.978; -134.500; -941.000; -811.000
363.109;   67.325; -161.000; -260.000
363.241;  592.125; -739.000; -749.000
363.373;  401.225; -649.000; -564.000
363.505;  611.100; -186.000;  -91.000
363.637;  154.875; -787.000; -601.000
363.769; -110.525;-1067.000;-1080.000
363.901;  -63.975; -596.000; -654.000
364.033; -105.525;-1103.000;-1062.000
364.165;   -0.200; -283.000; -283.000
364.296;   80.725; -316.000; -177.000
364.428;   48.025;-1344.000;-1220.000
364.560;  -64.575; -679.000; -661.000
364.692;  -69.625; -738.000; -835.000
364.824;  388.300; -588.000; -456.000
364.955;  449.375; -402.000; -564.000
365.087;  760.900;-1097.000; -852.000
365.219;   11.950; -686.000; -816.000
365.351;  -74.150; -526.000; -572.000
365.482;   57.675;  300.000;  240.000
365.614;  -36.325; -402.000; -314.000
365.746;  -91.050; -729.000; -752.000
365.877;  -91.575; -706.000; -672.000
366.009;  231.325;  -35.000;  -62.000
366.141;  -98.150;-1249.000;-1134.000
366.272; -118.325; -803.000; -719.000
366.404; -108.600;-1005.000; -874.000
366.535;  -18.250; -139.000;  -12.000
366.667;  -94.075; -644.000; -649.000
366.799;   34.075;  353.000;  203.000
366.930; -105.925; -862.000; -996.000
367.062;  119.975; -639.000; -613.000
367.193;  122.775; -872.000; -842.000
367.325;  -74.500; -580.000; -684.000
367.456;  106.800; -246.000;   31.000
367.588;  159.800; -371.000; -318.000
367.719;   13.850;  -44.000;  -45.000
367.851;  -12.350; -222.000; -241.000
367.982;  -26.600; -875.000; -732.000
368.113;  151.450; -475.000; -358.000
368.245;  -92.900; -960.000; -841.000
368.376;  -19.775; -254.000; -302.000
368.508;  -22.700; -188.000; -263.000
368.639; -135.700;-1166.000;-1034.000
368.770;   17.025; -670.000; -589.000
368.902;  -42.100; -836.000; -926.000
369.033;  -90.575; -906.000; -855.000
369.164;  -66.850; -720.000; -653.000
369.296; -106.650; -452.000; -601.000
369.427;    9.250; -209.000; -144.000
369.558;  -36.625; -593.000; -377.000
369.689;  -86.375; -721.000; -569.000
369.821; -128.700; -951.000; -845.000
369.952;  -21.650;   42.000; -108.000
370.083;  -34.875; -229.000; -108.000
370.214;  -76.575; -735.000; -650.000
370.345;    5.700;   65.000;   81.000
370.477;  -74.275; -810.000; -790.000
370.608;  318.825; -328.000; -264.000
370.739;   -6.850;-1233.000;-1292.000
370.870;    4.925;-1102.000; -923.000
371.001;  126.750; -378.000; -467.000
371.132;  -46.325; -754.000; -735.000
371.263;  -34.875;  -42.000; -148.000
371.394; -123.675; -841.000; -748.000
371.525;   21.100;  345.000;  225.000
371.657;  -84.725; -808.000; -670.000
371.788;   83.950;  103.000;  199.000
371.919;  225.600; -384.000; -304.000
372.050; 4524.875;  -91.000; -156.000
372.181; 1377.225; -188.000; -294.000
372.311;  484.875;   42.000; -127.000
372.442;   64.400; -457.000; -451.000
372.573;   -9.375; -444.000; -340.000
372.704; -103.425;-1008.000; -980.000
372.835;  121.825; -228.000; -289.000
372.966;  -47.025; -646.000; -554.000
373.097;  -41.975; -575.000; -711.000
373.228;   -7.425; -717.000; -542.000
373.359;  208.800; -824.000; -536.000
373.490; 1232.075; -881.000; -727.000
373.620; 1511.250;-1001.000; -803.000
373.751; 2316.975; -332.000; -396.000
373.882; 1062.675; -663.000; -733.000
374.013;  124.950; -449.000; -262.000
374.143;  -15.900; -581.000; -659.000
374.274;  -73.850; -987.000; -908.000
374.405;  220.575; -388.000; -276.000
374.536;  584.475; -526.000; -387.000
374.666; 1469.125; -759.000; -807.000
374.797;  319.225; -817.000; -868.000
374.928; 1149.250; -710.000; -560.000
375.058; 1195.500; -535.000; -500.000
375.189;  100.925;  -59.000;  -93.000
375.320;  -95.100; -928.000;-1034.000
375.450;  -32.600; -625.000; -616.000
375.581;  -40.325; -526.000; -436.000
375.712;  -13.175; -574.000; -250.000
375.842;  409.025; -438.000; -415.000
375.973;  306.400; -554.000; -513.000
376.103;    5.475; -665.000; -648.000
376.234;  -74.125; -531.000; -552.000
376.364;    2.725; -944.000; -867.000
376.495;  396.075;  925.000;  529.000
376.625;   31.200; -472.000; -485.000
376.756;  116.850; -709.000; -678.000
376.886;  -37.725;-1178.000;-1026.000
377.017;   22.075;-1048.000;-1061.000
377.147;  290.350; -786.000; -782.000
377.278;   53.925;  174.000;  228.000
377.408; -118.150; -801.000; -815.000
377.538; -109.025; -707.000; -693.000
377.669;  -68.525; -537.000; -613.000
377.799;  -82.125; -645.000; -635.000
377.929;  -35.300; -610.000; -428.000
378.060; -143.100; -781.000; -847.000
378.190;  -69.525; -726.000; -531.000
378.320;  -63.200; -401.000; -406.000
378.451;   -2.925; -131.000;  -22.000
378.581;    5.575;  -67.000; -110.000
378.711;  180.900; 1035.000;  866.000
378.841;   -1.975; -533.000; -675.000
378.972;  -43.375; -871.000; -751.000
379.102;   19.900; -652.000; -579.000
379.232;    0.950; -126.000;  -73.000
379.362; -107.950;-1001.000; -885.000
379.492;   44.650; -373.000; -424.000
379.623;  128.975;    0.000;  111.000
379.753;  -77.275;-1107.000; -974.000
379.883;  255.275;   59.000;  156.000
380.013;   61.525;-1081.000;-1017.000
380.143;  -93.300;-1097.000;-1056.000
380.273;  -83.900; -985.000; -861.000
380.403;    3.675; -344.000; -257.000
380.533;   -0.375; -651.000; -664.000
380.663;  102.125;  173.000;  128.000
380.793;  -64.850;-1027.000;-1074.000
380.923;  -21.875; -103.000;  -34.000
381.053;  -80.275; -613.000; -623.000
381.183;  -37.050; -106.000; -248.000
381.313;   55.150; -656.000; -470.000
381.443;   78.650; -692.000; -473.000
381.573;  304.125; -402.000; -409.000
381.703;  446.000;-1249.000;-1095.000
381.833;  -96.875;-1454.000;-1336.000
381.963;  140.700; -134.000;  -87.000
382.093; 1737.450; -925.000; -909.000
382.223;  566.425; -713.000; -602.000
382.353;   32.025; -801.000; -608.000
382.482;  520.425;-1091.000; -964.000
382.612; 1004.650; -872.000; -644.000
382.742;  569.875; -695.000; -622.000
382.872;  373.525; -565.000; -551.000
383.002;   76.175;  347.000; -132.000
383.131;   -9.450; -226.000; -160.000
383.261;  -38.100; -706.000; -768.000
383.391;  298.600; -552.000; -377.000
383.521; 2838.575;  451.000;  263.000
383.650;  645.550; -947.000; -904.000
383.780;   -9.950; -783.000; -656.000
383.910;  125.925;  880.000;  802.000
384.039;   81.000; -794.000; -656.000
384.169;  331.550;-1205.000;-1017.000
384.299;    5.575; -650.000; -662.000
384.428;  -74.250; -764.000; -680.000
384.558;  -40.150; -308.000; -275.000
384.687;  -28.550; -414.000; -334.000
384.817;   22.725;   75.000;   -2.000
384.947;   47.625; -234.000; -141.000
385.076;  334.350;  982.000;  912.000
385.206;  138.950;  369.000;  480.000
385.335;  -31.125; -549.000; -417.000
385.465;  -65.100; -655.000; -663.000
385.594;  165.700;  -53.000;  -44.000
385.724;  613.775; -868.000; -838.000
385.853;  153.475; -296.000; -270.000
385.982; 1800.200; -743.000; -787.000
386.112; 2816.075;-1052.000; -871.000
386.241;  201.750; -307.000; -312.000
386.371;   39.325; -174.000;  -87.000
386.500;   32.375; -825.000; -789.000
386.629;   26.150; -874.000; -817.000
386.759;   65.775;  -43.000;   68.000
386.888;   -5.200; -170.000; -250.000
387.017;  -57.375; -648.000; -620.000
387.147;  -82.700; -771.000; -798.000
387.276;   31.575; -410.000; -397.000
387.405;   32.750; -398.000; -342.000
387.535;  -24.650; -452.000; -361.000
387.664;  -53.725; -692.000; -620.000
387.793;   84.300; -198.000; -113.000
387.922;  657.500;  255.000;  200.000
388.052;   57.200; -576.000; -423.000
388.181;   33.650; -342.000; -472.000
388.310;   52.275; -889.000; -710.000
388.439;  -28.100; -749.000; -742.000
388.568;  246.125;  365.000;  244.000
388.697; 1395.525; -756.000; -653.000
388.826;  309.175; -768.000; -666.000
388.956;   87.600; -285.000; -307.000
389.085;  -21.650; -347.000; -287.000
389.214; -107.125; -842.000; -872.000
389.343;  -64.625; -645.000; -413.000
389.472;  369.850;  126.000;  149.000
389.601;  546.575;   91.000;    0.000
389.730;   34.225; -568.000; -687.000
389.859;   94.050;  226.000;   46.000
389.988;  254.575; -423.000; -408.000
390.117;  194.700; -168.000; -146.000
390.246;   11.525; -331.000; -320.000
390.375;  177.625; -673.000; -626.000
390.504;  -49.600; -703.000; -621.000
390.633;  -86.225; -672.000; -726.000
390.761;  -61.950; -732.000; -645.000
390.890;   26.700;   -4.000; -130.000
391.019;  -10.050; -421.000; -441.000
391.148; -129.800; -826.000; -855.000
391.277;  -41.950; -576.000; -493.000
391.406;  -56.050; -821.000; -805.000
391.534;   21.650;  574.000; -301.000
391.663;  -45.300; -583.000; -645.000
391.792;  -68.225; -673.000; -701.000
391.921;  155.600;   -3.000;   15.000
392.050;  269.700; -287.000; -228.000
392.178;   19.850;-1206.000;-1061.000
392.307;  206.150; -758.000; -712.000
392.436;  133.625; -427.000; -641.000
392.564;   23.350;  166.000;   -6.000
392.693;  -80.375; -860.000; -682.000
392.822;  286.700; -529.000; -534.000
392.950;  162.300; -880.000; -714.000
393.079;  449.175; -188.000; -328.000
393.208;   76.475; -488.000; -511.000
393.336;   -7.250; -170.000; -145.000
393.465;  -32.825; -317.000; -199.000
393.593;   -7.375;   62.000;   79.000
393.722; -143.925;-1121.000; -916.000
393.850;  -36.475; -188.000;  -61.000
393.979; -136.575; -926.000; -805.000
394.107;  -58.650; -517.000; -537.000
394.236;    0.425; -570.000; -507.000
394.364;  235.400;  383.000;  206.000
394.493;  431.825; -911.000; -767.000
394.621;   -0.525; -955.000; -916.000
394.750;  638.875; -873.000; -923.000
394.878; 2640.000; -247.000; -149.000
395.007; 3678.100; -721.000; -807.000
395.135;  278.000; -790.000; -721.000
395.263;  -68.850;-1038.000;-1040.000
395.392;    6.600;  -25.000; -107.000
395.520; -136.500; -818.000; -679.000
395.648;  -78.375; -865.000; -915.000
395.777;   15.275; -366.000; -405.000
395.905;  -41.650; -449.000; -564.000
396.033;   22.800;  217.000;  172.000
396.162;  693.050; -399.000; -453.000
396.290;  641.725;  -17.000;   -2.000
396.418;  155.150; -555.000; -514.000
396.546;  -56.000; -571.000; -466.000
396.674;  -92.950; -850.000; -878.000
396.803;   40.475;  -72.000;  -23.000
396.931;  139.175; -179.000; -199.000
397.059;  130.325;-1026.000; -989.000
397.187; -109.175;-1026.000; -975.000
397.315; -127.550; -884.000; -649.000
397.443; -104.250; -592.000; -443.000
397.572;  -90.450; -578.000; -424.000
397.700;   21.875; -607.000; -614.000
397.828;   43.300;  120.000;  -90.000
397.956;  -53.325; -508.000; -478.000
398.084;  -60.725; -767.000; -626.000
398.212;   45.550;  137.000;  124.000
398.340;   32.175;  -56.000;  159.000
398.468;   57.325; -390.000; -169.000
398.596; -130.650; -993.000; -953.000
398.724; -115.850; -762.000; -767.000
398.852; -164.150;-1024.000; -976.000
398.980;  -64.075; -560.000; -560.000
399.108;  -19.650; -982.000; -735.000
399.236;   49.350;   13.000;    8.000
399.363;   14.925;  222.000;  196.000
399.491;  -69.275; -404.000; -398.000
399.619; -121.800; -829.000; -800.000
399.747;  -96.175; -859.000; -771.000
399.875;   96.450;  220.000;  234.000
400.003;  -46.350; -359.000; -284.000
400.130;  -81.350; -421.000; -341.000
400.258;  -28.675;  -83.000;   38.000
400.386;  -63.950; -352.000; -168.000
400.514;  -24.025; -526.000; -587.000
400.641;  -60.675; -928.000; -802.000
400.769; -133.675; -979.000; -888.000
400.897;  -98.875; -838.000; -793.000
401.025;   -1.450; -166.000; -152.000
401.152;    1.475;  220.000;   38.000
401.280;  -94.000; -430.000; -429.000
401.408; -116.925; -712.000; -576.000
401.535; -118.925; -735.000; -758.000
401.663; -182.350;-1134.000;-1054.000
401.790;  -87.225; -514.000; -525.000
401.918;   47.575;  436.000;  405.000
402.046;  -22.750;  134.000;  122.000
402.173;  -44.375;  -18.000;    7.000
402.301;  -85.875; -519.000; -397.000
402.428;   43.725;  528.000;  383.000
402.556; -138.450;-1188.000; -913.000
402.683;  -15.350;  -20.000;   -1.000
402.811;  -25.500;  -37.000; -206.000
402.938;   -5.950;   20.000;   27.000
403.066;  276.975; -574.000; -558.000
403.193;  448.575;  299.000;  239.000
403.321;  318.075; -396.000; -574.000
403.448;  397.775;   83.000;   27.000
403.575;  188.725;  -90.000;  -46.000
403.703;  -96.625; -732.000; -557.000
403.830;  -77.975; -531.000; -496.000
403.957; -139.675;-1117.000;-1023.000
404.085;   15.075;  -61.000; -172.000
404.212;  112.500;  -50.000;   63.000
404.339;  225.650; -566.000; -306.000
404.467; 5232.675; -612.000; -524.000
404.594; 3805.700; -287.000; -227.000
404.721; 1031.475; -869.000; -764.000
404.848;   98.950; -113.000; -202.000
404.976;  -90.325; -856.000; -783.000
405.103;   -9.500;  -14.000;  -82.000
405.230;   -7.400;  190.000;  226.000
405.357;   23.275;  117.000;   44.000
405.484;  238.750;  -49.000;    5.000
405.612;   50.425; -548.000; -563.000
405.739;  -54.875; -488.000; -243.000
405.866;   84.825;  669.000;  385.000
405.993;  -41.800; -398.000; -102.000
406.120; -148.125; -801.000; -887.000
406.247;  -51.475; -323.000; -342.000
406.374;  572.150;  540.000;  629.000
406.501;  190.575; -632.000; -702.000
406.628;  -86.100; -621.000; -589.000
406.755;  -76.625; -803.000; -620.000
406.882;  -42.700; -228.000; -277.000
407.009; -112.050; -719.000; -628.000
407.136;   78.725; -480.000; -401.000
407.263;  209.275; -939.000; -829.000
407.390;  -61.900; -692.000; -614.000
407.517; -171.350;-1139.000;-1187.000
407.644;  -60.675; -332.000; -256.000
407.771;  -87.500; -249.000; -287.000
407.898;    7.575;  168.000;  328.000
408.025;  -61.475; -421.000; -313.000
408.151;  -22.050;   82.000;  153.000
408.278;  -68.425; -267.000; -216.000
408.405; -115.375; -931.000; -899.000
408.532;  -68.575; -549.000; -542.000
408.659; -127.475; -677.000; -648.000
408.785; -194.200;-1298.000;-1170.000
408.912;  -67.650; -412.000; -296.000
409.039; -102.375; -610.000; -686.000
409.166; -120.500; -591.000; -555.000
409.292; -102.475; -571.000; -534.000
409.419; -130.525; -665.000; -649.000
409.546;  -88.600; -431.000; -192.000
409.672; -114.375; -713.000; -545.000
409.799;  -11.675;  -36.000;   34.000
409.926;  -52.500; -180.000; -179.000
410.052; -160.250;-1127.000;-1091.000
410.179;  -51.650; -368.000; -392.000
410.305;  -83.750; -375.000; -493.000
410.432;  -45.900; -220.000; -333.000
410.558;  -89.725; -305.000; -380.000
410.685; -108.325; -688.000; -431.000
410.812; -102.425; -409.000; -588.000
410.938; -141.800; -964.000; -808.000
411.065;  -91.825; -671.000; -645.000
411.191;  -18.150; -189.000; -174.000
411.317; -105.500; -823.000; -742.000
411.444;  -62.550; -317.000; -246.000
411.570;  -69.750; -339.000; -294.000
411.697; -127.875; -758.000; -752.000
411.823; -159.875; -989.000; -999.000
411.949;  -36.250;  -56.000;   17.000
412.076; -108.800; -539.000; -519.000
412.202; -113.850; -758.000; -757.000
412.329; -118.875; -798.000; -752.000
412.455; -116.150; -821.000; -657.000
412.581;  -12.125;  -15.000;  172.000
412.707;  -57.450; -540.000; -457.000
412.834;   26.600;  156.000;  219.000
412.960;  -81.025; -785.000; -784.000
413.086;  -94.825; -743.000; -701.000
413.212;  167.200;  604.000;  578.000
413.339;  -35.900; -685.000; -701.000
413.465;   21.275; -364.000; -310.000
413.591;  -82.000; -757.000; -474.000
413.717;  -52.425; -358.000; -366.000
413.843; -134.925; -839.000; -861.000
413.969;  -72.925;  -47.000; -292.000
414.096;  -96.725; -679.000; -679.000
414.222;  -24.525;  -33.000;   85.000
414.348;    4.375; -652.000; -385.000
414.474;  138.325;   38.000;  -52.000
414.600;  -18.000; -126.000; -144.000
414.726;  -17.250;  -96.000;  -55.000
414.852;  -61.000; -365.000; -342.000
414.978;   19.925;  104.000;  -18.000
415.104;   41.750;   38.000;   80.000
415.230;   25.400; -329.000; -330.000
415.356;   39.100; -409.000; -514.000
415.482;  209.825;   13.000;  -35.000
415.608;  249.875; -247.000; -323.000
415.734;  893.350;   67.000;   38.000
415.860;18567.900; -875.000; -767.000
415.986;14037.050; -685.000; -607.000
416.111; 1196.250; -798.000; -652.000
416.237;  241.500; -424.000; -571.000
416.363;  984.675; -765.000; -733.000
416.489; 3798.425; -324.000; -251.000
416.615;  414.675; -707.000; -742.000
416.741;  -36.275; -677.000; -784.000
416.866;  -92.625; -673.000; -736.000
416.992; -136.950; -801.000; -818.000
417.118;  -36.525;  -41.000;  -80.000
417.244;  -59.000; -798.000; -531.000
417.369;  -71.200; -801.000; -612.000
417.495;   -5.525; -325.000; -254.000
417.621;  -73.800;-1015.000; -803.000
417.746;    6.325; -579.000; -572.000
417.872;   43.125; -254.000; -144.000
417.998;   29.450; -515.000; -530.000
418.123;  928.000;-1073.000; -845.000
418.249; 5020.875; -512.000; -601.000
418.374;  708.650; -916.000; -824.000
418.500;   91.250; -383.000; -482.000
418.626;  114.850;   70.000;  -59.000
418.751;  113.375; -549.000; -448.000
418.877;  201.025; -637.000; -643.000
419.002; 1572.350; -688.000; -560.000
419.128;11479.550; -930.000; -721.000
419.253; 2895.275; -967.000; -837.000
419.379;  390.450; -391.000; -338.000
419.504;  371.600;  325.000;  415.000
419.629;  465.675; -393.000; -212.000
419.755; 3090.025; -317.000; -254.000
419.880;18839.275;  -98.000;   67.000
420.006;10471.275; -280.000; -221.000
420.131;27494.925; -662.000; -775.000
420.256; 4112.700; -315.000; -316.000
420.382;  545.125; -665.000; -687.000
420.507;   60.525; -649.000; -778.000
420.632;  192.225; -337.000; -339.000
420.758;  356.450; -251.000; -425.000
420.883;  -74.200; -876.000; -672.000
421.008;  -99.400; -775.000; -619.000
421.133;  -86.725; -509.000; -467.000
421.259;  -46.000; -325.000; -259.000
421.384; -108.350; -834.000; -693.000
421.509;  -29.125;-1052.000; -862.000
421.634; 1626.450; -936.000; -820.000
421.759;  726.350; -359.000; -327.000
421.885;  -28.700; -717.000; -656.000
422.010;  -84.950; -673.000; -542.000
422.135; -131.675; -695.000; -727.000
422.260;   28.550;  340.000;  280.000
422.385;  -44.275;   12.000;  -98.000
422.510;    6.225;  151.000;  -26.000
422.635;   29.150;  -87.000;  -43.000
422.760;  132.650; -766.000; -791.000
422.885;   81.275;  -57.000;  -80.000
423.010;  -30.475; -112.000; -169.000
423.135;  -85.625; -481.000; -561.000
423.260;  -23.300; -150.000; -245.000
423.385;  101.650;  476.000;  222.000
423.510;   20.525;   71.000;  -22.000
423.635;   88.900;  133.000;   45.000
423.760;   49.525;  383.000;  328.000
423.885;   43.650;  336.000;  391.000
424.010;   17.600;  -68.000;  -13.000
424.135;  -23.925;    5.000;  -33.000
424.259;  -90.450; -654.000; -457.000
424.384;  -68.975; -279.000; -272.000
424.509;  -31.150; -260.000; -186.000
424.634;  -81.150; -761.000; -623.000
424.759;  -26.700; -688.000; -544.000
424.883;  -22.250; -506.000; -527.000
425.008;  153.750; -502.000; -410.000
425.133; 1857.450; -679.000; -653.000
425.258;  897.650; -517.000; -381.000
425.382; 1223.625; -867.000; -774.000
425.507; 3344.075; -487.000; -543.000
425.632;  513.675; -802.000; -663.000
425.756;  415.925; -256.000; -146.000
425.881; 5619.250; -831.000; -857.000
426.006;15338.025; -604.000; -355.000
426.130; 2576.300; -696.000; -508.000
426.255;  312.500; -611.000; -491.000
426.379;  152.325; -189.000; -577.000
426.504;  359.125;  660.000;  544.000
426.629; 3744.800; -519.000; -466.000
426.753; 2695.200;   64.000;  -46.000
426.878;  303.875; -252.000; -288.000
427.002;  127.900; -651.000; -668.000
427.127; 1460.550;  -35.000; -158.000
427.251;10476.575;  372.000;  401.000
427.375; 3156.125; -191.000; -173.000
427.500; 2779.775; -616.000; -610.000
427.624;  995.475; -234.000; -400.000
427.749;  137.900; -216.000; -225.000
427.873;  -22.975; -499.000; -412.000
427.997;  -57.600; -222.000; -230.000
428.122;   71.350;  795.000;  703.000
428.246;   78.025;  433.000;  434.000
428.371; -107.850; -869.000; -773.000
428.495; -111.300; -624.000; -646.000
428.619;  -30.750; -186.000; -117.000
428.743;   18.050;   65.000;  132.000
428.868;   69.400; -732.000; -643.000
428.992; 1760.650; -219.000; -326.000
429.116;  769.125; -329.000; -357.000
429.240;  362.975;  419.000;  426.000
429.365;    2.975; -454.000; -574.000
429.489;  -41.325; -638.000; -647.000
429.613;   40.375; -236.000; -177.000
429.737;   38.950; -563.000; -432.000
429.861;  243.925; -247.000; -133.000
429.985; 5069.150; -425.000; -305.000
430.109; 5724.900; -770.000; -908.000
430.234;  669.975;   76.000;  -50.000
430.358;   63.025; -250.000; -160.000
430.482;  -82.675; -672.000; -564.000
430.606;  -67.325; -655.000; -375.000
430.730;   24.475; -437.000; -388.000
430.854;  199.075; -909.000; -835.000
430.978;  -59.550; -795.000; -764.000
431.102;  -88.675; -499.000; -422.000
431.226; -120.350; -874.000; -815.000
431.350;   35.750;  345.000;  422.000
431.474;  -66.700; -661.000; -373.000
431.597; -140.775;-1060.000; -848.000
431.721;  -79.850; -276.000; -267.000
431.845; -129.450; -704.000; -472.000
431.969;  -86.425; -304.000; -349.000
432.093;  -96.000; -395.000; -317.000
432.217;  -21.100;   32.000;   82.000
432.341;  -91.325; -523.000; -518.000
432.464;  -12.875;   96.000;   40.000
432.588;  306.075; -401.000; -329.000
432.712;  134.925;  -52.000;  -52.000
432.836;   38.725;  213.000;  263.000
432.959;  -29.950; -372.000; -311.000
433.083;   69.250;   11.000;    2.000
433.207;  342.425;  285.000;  930.000
433.330; 4519.375; -391.000; -200.000
433.454; 5747.000; -654.000; -638.000
433.578; 3328.025;  583.000;  278.000
433.701;  660.775; -623.000; -675.000
433.825;  187.625; -292.000; -299.000
433.949;  276.775;   28.000;  -72.000
434.072;  128.425; -410.000; -323.000
434.196;   -0.575; -309.000; -117.000
434.319; 3612.450;25482.000;25124.000
434.443;  724.000; -656.000; -603.000
434.566; 2508.525;  281.000;   62.000
434.690;  407.900; -637.000; -383.000
434.813;   50.375; -251.000; -173.000
434.937;  -91.400; -569.000; -696.000
435.060;  -24.175; -423.000; -332.000
435.184;  488.625; -492.000; -217.000
435.307;  271.300;  159.000;  102.000
435.431;  -13.950;  -40.000;   24.000
435.554;  -68.225; -399.000; -240.000
435.677; -104.525; -350.000; -258.000
435.801;  -43.600;  -25.000;   49.000
435.924;    0.200;    1.000;  -67.000
436.048;  -88.550;-1019.000; -732.000
436.171;  -70.750; -240.000;  -66.000
436.294;  -29.775; -248.000; -229.000
436.417;   62.100; -963.000; -849.000
436.541;  -77.850; -814.000; -840.000
436.664;  -51.550; -242.000; -316.000
436.787;  -26.125;   13.000;  113.000
436.910; -106.250; -792.000; -422.000
437.034;   12.200;  142.000;  143.000
437.157;   81.425;  -11.000;    0.000
437.280;  -27.325; -392.000; -292.000
437.403;  -63.450; -982.000; -869.000
437.526;  931.150; -903.000; -865.000
437.649; 3232.725; -505.000; -332.000
437.772;  572.550; -692.000; -540.000
437.896;  146.800;  700.000;  544.000
438.019;  -78.175; -758.000; -503.000
438.142;  -95.175; -596.000; -506.000
438.265;   17.825; -639.000; -670.000
438.388;  774.375; -520.000; -410.000
438.511;  182.175; -597.000; -394.000
438.634;  -30.125; -247.000; -125.000
438.757; -120.150; -693.000; -619.000
438.880;  -23.800;  -34.000;  -57.000
439.003;  -61.950; -417.000; -437.000
439.126;  -83.600; -287.000; -167.000
439.248;  -70.475;  -98.000; -139.000
439.371;  -52.325;    9.000;  -53.000
439.494;   23.650;  510.000;  439.000
439.617;  -54.150;   65.000;  -88.000
439.740; -184.025; -968.000; -816.000
439.863; -145.550; -755.000; -595.000
439.986; -117.350; -476.000; -431.000
440.108;  -59.150; -161.000; -112.000
440.231; -160.550; -950.000; -836.000
440.354;  -38.100;  -64.000; -150.000
440.477;   86.375; -566.000; -542.000
440.599;   48.200; -200.000; -225.000
440.722; -119.825; -709.000; -586.000
440.845;   53.025;  751.000;  928.000
440.968; -109.300; -415.000; -311.000
441.090;  -75.200; -199.000;  -33.000
441.213; -160.725;-1021.000; -825.000
441.336;  -72.700; -159.000;   -5.000
441.458;  -71.050; -549.000; -396.000
441.581;  -63.325; -628.000; -629.000
441.703;  -68.850; -152.000;   13.000
441.826; -128.150; -557.000; -400.000
441.948;  -43.750;   56.000;   51.000
442.071;   33.525;  555.000;  424.000
442.193; -115.925; -531.000; -485.000
442.316;   15.675;  152.000;   97.000
442.438;   61.525; -233.000;  -10.000
442.561;   61.450;  272.000;  262.000
442.683;  777.175; -809.000; -522.000
442.806; 1618.225;   -8.000;   74.000
442.928;  108.525; -859.000; -604.000
443.051;  -65.350; -577.000; -373.000
443.173;  -90.700; -341.000; -339.000
443.295;  -96.450; -263.000; -371.000
443.418;  -58.300; -321.000;  -29.000
443.540;   -2.600; -106.000;   -4.000
443.662; -104.075; -563.000; -465.000
443.785;  -23.475;  335.000;  199.000
443.907;  -92.825; -362.000; -208.000
444.029; -143.750; -767.000; -494.000
444.152; -132.925; -644.000; -554.000
444.274;  -35.300;  -18.000;  -24.000
444.396; -113.375; -461.000; -221.000
444.518; -143.200; -691.000; -454.000
444.640; -107.950; -268.000; -111.000
444.763;  -33.275;  388.000;  249.000
444.885; -115.500; -432.000; -392.000
445.007;  -44.475;   35.000;   86.000
445.129; -111.125; -610.000; -515.000
445.251; -107.775; -372.000; -439.000
445.373; -135.275; -537.000; -386.000
445.495;    3.650;  242.000;  350.000
445.617;   37.000;  853.000;  753.000
445.739;  -73.575; -215.000;  -97.000
445.861;  -32.050; -245.000; -112.000
445.984;  -27.225; -267.000; -101.000
446.105;  295.075; -418.000; -251.000
446.227;  832.950; -176.000;  -19.000
446.349;   55.550; -358.000; -249.000
446.471;  -90.575; -615.000; -448.000
446.593;  -54.350; -316.000;   19.000
446.715;    3.525;  -67.000;   41.000
446.837;   60.525;  697.000;  832.000
446.959;  -97.225; -457.000; -478.000
447.081; -125.900; -628.000; -518.000
447.203;   44.125;  862.000;  834.000
447.325;  -87.125; -270.000;   42.000
447.446;  -17.050;  286.000;  530.000
447.568; -155.125; -921.000; -803.000
447.690;  -83.725; -236.000; -245.000
447.812; -130.275; -798.000; -519.000
447.933;  -38.925;  155.000;  127.000
448.055;  -68.225; -306.000; -261.000
448.177;  177.075;   31.000;   79.000
448.299;  166.950; -935.000; -727.000
448.420;   35.100;  -25.000;  159.000
448.542;  -43.625;   -3.000;   33.000
448.664;  -33.975;  109.000;  322.000
448.785;  -51.325;  265.000;   83.000
448.907;  -72.250; -614.000; -353.000
449.028;    0.150; -771.000; -471.000
449.150;   52.600;  492.000;  589.000
449.272; -165.925;-1044.000; -913.000
449.393;   20.525;  612.000;  694.000
449.515; -143.925; -634.000; -581.000
449.636;  -45.075; -264.000; -155.000
449.758;   78.400;  763.000;  622.000
449.879; -100.550; -498.000; -396.000
450.001; -100.475; -149.000;  -49.000
450.122;  -37.450;  -95.000;  162.000
450.244;  -19.975;   37.000;  364.000
450.365; -110.900; -495.000; -301.000
450.486;  -47.750;   80.000;  268.000
450.608;    5.250;  393.000;  326.000
450.729;   63.625;  578.000;  645.000
450.850;  -15.600; -574.000; -466.000
450.972;  623.150; -552.000; -389.000
451.093; 4341.875;  190.000;  588.000
451.214; 1957.375; -516.000; -337.000
451.336;  372.775;  773.000;  579.000
451.457;   52.950;  264.000;  393.000
451.578;  -46.725; -118.000;  -74.000
451.699; -122.900; -546.000; -540.000
451.821;  -75.125; -284.000;  -50.000
451.942;  -20.900;  278.000;  285.000
452.063;   14.275;  228.000;  419.000
452.184;  503.450;  -54.000;  -49.000
452.305;  979.550;  103.000;  170.000
452.427;  121.000; -549.000; -301.000
452.548;  -21.325;   23.000;   79.000
452.669;  -31.475; -257.000;  -89.000
452.790;  -43.150;    3.000;  -18.000
452.911;   -0.750;  195.000;  259.000
453.032;  -69.725; -289.000;  -60.000
453.153;  -27.775;  -29.000;   81.000
453.274;   38.275;  737.000;  868.000
453.395;  -50.400;  -51.000;  175.000
453.516;  126.200; 1317.000; 1388.000
453.637;  -59.775; -205.000; -150.000
453.758;  -57.750;   15.000;   69.000
453.879; -125.200; -462.000; -250.000
454.000;   73.725; 1086.000;  948.000
454.121; -110.600; -554.000; -326.000
454.242; -124.000; -599.000; -383.000
454.362;  -56.100;  -99.000;  114.000
454.483;  -53.175; -309.000; -229.000
454.604;   75.200;  512.000;  580.000
454.725; -121.575; -627.000; -555.000
454.846; -116.400; -474.000; -406.000
454.967;  -38.700;  230.000;  539.000
455.087;  -55.300;  179.000;  153.000
455.208;    6.875;  554.000;  856.000
455.329;  -63.750;  -22.000;   82.000
455.450;   28.600;  473.000;  633.000
455.570;  -86.250; -234.000; -211.000
455.691;  -58.600;  201.000;  407.000
455.812; -103.350; -270.000;  -92.000
455.932;  -74.325;  107.000;  -97.000
456.053;  -88.300;   36.000;   24.000
456.173; -129.575; -433.000; -355.000
456.294; -131.525; -476.000; -303.000
456.415;  -84.250;  -73.000;   70.000
456.535;  -30.625;  297.000;  273.000
456.656;  -49.050;  132.000;  240.000
456.776;  -56.725;    3.000;  298.000
456.897;   -8.750;  308.000;  513.000
457.017;  -85.150; -153.000;   -3.000
457.138; -113.125; -402.000; -249.000
457.258;  -30.325;  263.000;  224.000
457.379;  -19.125;  509.000;  521.000
457.499;  -33.700;  443.000;  432.000
457.620; -142.150; -407.000; -231.000
457.740; -102.600; -132.000;  -11.000
457.860;  -71.775;   87.000;   44.000
457.981;  -50.575;  132.000;  124.000
458.101;  -75.100;  -89.000;   40.000
458.221;  -32.100;  336.000;  402.000
458.342;  -79.450;   -4.000;  -37.000
458.462;   12.475;  617.000;  352.000
458.582;  -67.175; -302.000; -294.000
458.703;   13.175;  303.000;  154.000
458.823;  -43.925;   22.000;  163.000
458.943;    8.675;  341.000;  467.000
459.063;  -22.600; 1124.000;  192.000
459.183;  -23.075;  328.000;  313.000
459.304;   12.125;  315.000;  517.000
459.424;  -57.000; -246.000;  -89.000
459.544;  283.775;  388.000;  764.000
459.664;  745.675;  499.000;  506.000
459.784;  287.050; 1004.000; 1175.000
459.904;   64.050;  867.000;  744.000
460.024;   70.125;  867.000;  684.000
460.144;   17.900;  449.000;  554.000
460.264;    0.275;  515.000;  327.000
460.385;  -92.950; -145.000; -119.000
460.505;   29.775;  905.000;  858.000
460.625;  -97.500;  -17.000;  -68.000
460.745;  -39.200;  396.000;  541.000
460.864;  -57.000;  153.000;  469.000
460.984;   11.775;  499.000;  573.000
461.104;  142.400; 1656.000; 1775.000
461.224;   15.225;  657.000;  650.000
461.344;  -19.150;  431.000;  360.000
461.464;  -33.250;  258.000;  513.000
461.584;  -13.875;  283.000;  466.000
461.704;  -24.325;   58.000;  108.000
461.824;  -61.625;  238.000;  259.000
461.943;  -58.500;  191.000;  130.000
462.063;  -86.175;    2.000;  324.000
462.183;   24.850;  639.000;  717.000
462.303;  103.275; 1678.000; 1230.000
462.422;   30.900;  781.000;  840.000
462.542;  -45.700;  271.000;  391.000
462.662;   35.950;  353.000;  380.000
462.782;  238.525;  833.000;  572.000
462.901;  424.075;  545.000;  717.000
463.021;  266.950; 1702.000; 1638.000
463.141;  -15.875;  337.000;  770.000
463.260;  -20.700;  614.000;  474.000
463.380;    8.600;  902.000;  884.000
463.499;  -36.500;  342.000;  332.000
463.619;  -49.475;  581.000;  559.000
463.738;  122.975; 1644.000;  903.000
463.858;    6.675;  657.000;  811.000
463.978;  -34.000;  542.000;  396.000
464.097;   40.350;  921.000; 1114.000
464.217;  104.575; 1196.000; 1143.000
464.336;   87.325; 1068.000; 1130.000
464.455;  -29.800;  328.000;  659.000
464.575;   38.425;  597.000;  602.000
464.694;  183.975; 1204.000; 1179.000
464.814;  117.025; 1190.000; 1138.000
464.933;   82.900; 1095.000; 1027.000
465.052;  101.275; 1412.000; 1054.000
465.172;  102.825;  922.000;  799.000
465.291;  148.525; 1376.000; 1320.000
465.410;   18.000;  462.000;  735.000
465.530;   61.675; 1355.000; 1310.000
465.649;   79.175; 1209.000; 1273.000
465.768;  134.950; 1673.000; 1508.000
465.888;   52.800;  941.000; 1174.000
466.007;   72.800; 1335.000; 1440.000
466.126;   -1.600;  721.000;  641.000
466.245;   33.575; 1176.000; 1187.000
466.364;   12.050;  950.000; 1060.000
466.484;   43.575; 1024.000; 1213.000
466.603;   34.800; 1101.000; 1222.000
466.722;  121.025; 1490.000; 1769.000
466.841;  105.025; 1151.000; 1401.000
466.960;   37.575; 1069.000;  972.000
467.079;  124.375; 1971.000; 1786.000
467.198;   30.600; 1238.000; 1181.000
467.317;   65.775; 1768.000; 1162.000
467.436;   66.275; 1709.000; 1261.000
467.555;  123.050; 1796.000; 1746.000
467.674;   46.800; 1227.000; 1329.000
467.793;   42.075; 1376.000; 1374.000
467.912;   87.575; 1658.000; 1539.000
468.031;  129.900; 2038.000; 1930.000
468.150;  143.550; 1842.000; 1837.000
468.269;  197.675; 2313.000; 2090.000
468.388;  190.850; 2168.000; 2339.000
468.507;  243.100; 2884.000; 2903.000
468.626;  256.075; 2555.000; 2541.000
468.744;  150.225; 2018.000; 2174.000
468.863;  192.025; 2312.000; 2523.000
468.982;   94.425; 1503.000; 1555.000
469.101;  218.825; 2788.000; 2692.000
469.220;  137.650; 2333.000; 2176.000
469.338;  245.725; 2935.000; 3051.000
469.457;  179.075; 2719.000; 2545.000
469.576;  344.675; 3953.000; 3784.000
469.695;  238.475; 2877.000; 3066.000
469.813;  397.325; 4148.000; 4192.000
469.932;  410.825; 4255.000; 4485.000
470.051;  403.250; 4075.000; 4161.000
470.169;  816.875; 4470.000; 4338.000
470.288; 1385.375; 4700.000; 4809.000
470.406;  835.225; 5059.000; 5194.000
470.525;  614.175; 6101.000; 5787.000
470.644;  642.825; 6847.000; 6794.000
470.762;  806.125; 8397.000; 7873.000
470.881;  901.225; 8651.000; 8464.000
470.999; 1019.700; 9685.000; 9151.000
471.118; 1106.075;11174.000;10711.000

