
Integration time [ms]: 100.000
Averaging Nr. [scans]: 40
Smoothing Nr. [pixels]: 0
Data measured with spectrometer [name]: 2101012U2
Wave   ;Sample   ;Dark     ;Reference
[nm]   ;[counts] ;[counts] ;[counts] 

197.733;   54.450;  516.000;  404.000
197.879;  -92.925; -610.000; -634.000
198.025;  -58.300; -475.000; -420.000
198.171;  -72.300; -602.000; -612.000
198.317;  -28.750; -401.000; -316.000
198.463;  -72.525; -655.000; -404.000
198.609;   27.025;  181.000; -137.000
198.755;  -76.275; -644.000; -410.000
198.901;  -71.625; -505.000; -424.000
199.047;  -71.450; -615.000; -488.000
199.193;  -31.675; -230.000; -468.000
199.339;  -52.550; -222.000; -369.000
199.485;   41.425;  330.000;  271.000
199.631;   38.250;  227.000;  310.000
199.777;  -39.375; -466.000; -398.000
199.923;  -63.025; -610.000; -424.000
200.069;    1.350; -141.000;  -58.000
200.215;   37.425;  128.000;  453.000
200.361;   44.300;  243.000;  477.000
200.507;  -62.000; -600.000; -373.000
200.653;  -13.675; -371.000; -194.000
200.798;  -43.325; -215.000; -125.000
200.944;   -0.925; -146.000;  -41.000
201.090;   24.700;   61.000;  222.000
201.236;   -0.425; -116.000; -158.000
201.382;  124.400;  874.000;  903.000
201.528;   -4.525;  -58.000;  -48.000
201.674;  -52.725; -386.000; -293.000
201.819;  -67.575; -540.000; -439.000
201.965;  -80.825; -699.000; -447.000
202.111;  -22.850; -273.000; -226.000
202.257;  -29.325; -250.000; -238.000
202.402;   13.700;   13.000;  -36.000
202.548;  -24.775; -169.000; -116.000
202.694;   93.225;  410.000; -183.000
202.840;  -67.725; -603.000; -531.000
202.985;  -62.975; -681.000; -639.000
203.131;  -97.250; -832.000; -666.000
203.277;  -14.800; -199.000; -262.000
203.423;  -49.850; -434.000; -520.000
203.568;  -37.475; -462.000; -237.000
203.714;  -62.800; -535.000; -542.000
203.860;  -73.750; -682.000; -641.000
204.005;   11.825;  112.000;  167.000
204.151;   75.875;  561.000;  556.000
204.296;  -37.225; -354.000; -221.000
204.442;  -76.350; -600.000; -547.000
204.588;  -67.575; -592.000; -579.000
204.733;   20.675;  178.000;  168.000
204.879; -127.100;-1018.000; -822.000
205.025;   14.075;  -99.000;  126.000
205.170;    6.650;  -17.000;   94.000
205.316;   83.125;  438.000;  661.000
205.461;  -77.500; -698.000; -554.000
205.607;   73.775;  609.000;  665.000
205.752;  -79.425; -626.000; -551.000
205.898;  -54.350; -501.000; -391.000
206.043;  -56.525; -578.000; -506.000
206.189;  -40.350; -243.000; -285.000
206.334;   67.525;  554.000;  606.000
206.480;   46.125;  409.000;  239.000
206.625;  -61.975; -529.000; -552.000
206.771;  -48.275; -451.000; -373.000
206.916;  -40.950; -210.000; -537.000
207.062;  -65.700; -545.000; -591.000
207.207;  -55.700; -546.000; -443.000
207.353;   72.225;  185.000;  460.000
207.498;   11.525;  196.000;   85.000
207.643;  -51.575; -501.000; -370.000
207.789; -119.800;-1069.000; -910.000
207.934;  -84.950; -665.000; -713.000
208.080;  -28.600; -154.000;   66.000
208.225;   -4.500;  -22.000;  -57.000
208.370;  -74.375; -727.000; -619.000
208.516;  -63.925; -741.000; -487.000
208.661;  -36.225; -127.000;  -69.000
208.806;  -26.525; -165.000; -171.000
208.952; -122.300;-1044.000; -731.000
209.097;   70.550;  378.000;  349.000
209.242;  -45.150; -307.000; -382.000
209.387;   65.775;  392.000;  350.000
209.533;  -52.575; -321.000; -350.000
209.678;   81.400;  472.000;  543.000
209.823;  -58.375; -408.000; -310.000
209.969; -114.250; -860.000; -757.000
210.114;  -96.425; -907.000; -719.000
210.259; -106.225; -939.000; -889.000
210.404;  -14.575; -171.000;  103.000
210.549;   12.425;  108.000;    3.000
210.695;   -0.325;   -3.000;  -95.000
210.840;   28.175;   94.000;   67.000
210.985;  -62.075; -484.000; -303.000
211.130;   72.525;  268.000;  406.000
211.275;   24.375;  207.000;  199.000
211.420;  -56.350; -300.000; -289.000
211.566;  -66.525; -536.000; -489.000
211.711;   38.525;  218.000;  157.000
211.856;  -69.025; -545.000; -519.000
212.001;   11.200;  151.000;   44.000
212.146;   36.675;  153.000;   49.000
212.291;  -30.025; -210.000; -186.000
212.436;  -34.175; -280.000;   -6.000
212.581;  -86.275; -685.000; -653.000
212.726;  -81.725; -487.000; -538.000
212.871;  -48.650; -552.000; -217.000
213.016; -150.200;-1172.000;-1029.000
213.161;   59.175;  406.000;  291.000
213.306;  -81.925; -435.000; -577.000
213.451; -100.800; -778.000; -689.000
213.596;  -38.825; -455.000; -347.000
213.741;  -48.950; -448.000; -538.000
213.886;  -78.850; -498.000; -517.000
214.031;  -22.650; -294.000; -124.000
214.176;  -47.300; -408.000; -341.000
214.321;  -21.550; -296.000; -157.000
214.466;  -32.600; -163.000;  -43.000
214.611;    2.525;  -61.000;  -10.000
214.756; -125.000; -948.000; -858.000
214.901;  -14.550; -388.000; -226.000
215.046; -125.175; -797.000; -825.000
215.191;    9.225;  128.000;   35.000
215.336;   -6.150; -157.000;  -19.000
215.480;  -66.700; -684.000; -505.000
215.625;  -11.575; -175.000;  -19.000
215.770;  -74.050; -757.000; -662.000
215.915;  -10.200;   -5.000;  -97.000
216.060;  -10.875; -113.000;  -21.000
216.205; -114.725; -731.000; -779.000
216.349;  -76.750; -470.000; -533.000
216.494; -134.725; -939.000; -867.000
216.639; -115.650; -823.000; -888.000
216.784;  -93.000; -577.000; -525.000
216.929;   58.625;  392.000;  281.000
217.073;  -15.150; -244.000;  -31.000
217.218;    6.375;   78.000;  -47.000
217.363;  -90.150; -656.000; -618.000
217.507;  -77.900; -623.000; -588.000
217.652; -122.400; -845.000; -874.000
217.797;  -80.825; -708.000; -659.000
217.942; -100.700; -856.000; -720.000
218.086;   74.400;  608.000;  539.000
218.231;  -25.450; -174.000;  -26.000
218.376;  -29.575; -337.000; -229.000
218.520;    0.650;  -41.000;   96.000
218.665;  -44.325; -338.000; -204.000
218.810;  -49.150; -275.000; -233.000
218.954;   16.450;  201.000;   35.000
219.099; -114.150; -713.000; -963.000
219.243;  -62.400; -589.000; -554.000
219.388;  -35.025; -264.000; -136.000
219.532;  -16.950; -116.000; -116.000
219.677;  -75.850; -564.000; -521.000
219.822;   19.025;   33.000;   89.000
219.966;    2.100;   17.000;  -99.000
220.111;  -31.350; -328.000;  -40.000
220.255; -100.100; -797.000; -750.000
220.400;  -19.475; -180.000; -146.000
220.544;  -77.525; -516.000; -450.000
220.689;  -64.250; -422.000; -451.000
220.833;  -16.025; -123.000;  -58.000
220.978;  -39.075; -393.000; -563.000
221.122;   23.950;  319.000;  307.000
221.267; -106.700; -906.000; -837.000
221.411;  -66.675; -478.000; -394.000
221.555;   -4.525; -104.000;  -23.000
221.700;  -36.500; -329.000; -222.000
221.844;   33.075;  255.000;  272.000
221.989;  -44.625; -328.000; -311.000
222.133;  -40.400; -289.000; -307.000
222.277;   -2.075;    5.000;   78.000
222.422;   18.850;  227.000;  113.000
222.566;  -37.225; -381.000; -214.000
222.711;  -69.550; -414.000; -479.000
222.855;  -76.600; -643.000; -586.000
222.999;  -74.850; -642.000; -717.000
223.144;  -29.700; -195.000; -194.000
223.288;   55.250;  423.000;  251.000
223.432;   16.175;  184.000;  230.000
223.576;   18.475;  152.000;  -21.000
223.721;   31.325;  364.000;  273.000
223.865;  -69.650; -472.000; -475.000
224.009;  213.400; 1673.000; 1631.000
224.153;  -69.500; -660.000; -671.000
224.298;  -62.600; -531.000; -489.000
224.442;  -18.875;  -74.000;  -33.000
224.586;  -23.550; -169.000; -106.000
224.730; -104.675; -858.000; -670.000
224.875; -106.850; -739.000; -688.000
225.019;   13.500;  102.000;  188.000
225.163;   40.200;  208.000;  341.000
225.307;   21.400;   97.000;  -91.000
225.451;   38.800;  360.000;  481.000
225.595;   28.375;  264.000;  176.000
225.739;  -27.525; -170.000;  -94.000
225.884;    1.475;   86.000;    5.000
226.028;  -89.550; -760.000; -626.000
226.172;  -37.625; -260.000; -273.000
226.316; -122.750; -941.000; -902.000
226.460;  -55.550; -645.000; -493.000
226.604;  -58.325; -406.000; -400.000
226.748;  -91.225; -836.000; -733.000
226.892;  -34.675; -227.000; -181.000
227.036;  -36.425; -537.000; -447.000
227.180;  -57.075; -551.000; -375.000
227.324;  -55.075; -561.000; -580.000
227.468; -117.000; -819.000; -717.000
227.612;    0.375;  242.000;  -28.000
227.756;  -89.000; -845.000; -698.000
227.900;   57.875;  342.000;  441.000
228.044;  -52.875; -509.000; -290.000
228.188;   55.150;  448.000;  568.000
228.332;  -78.575; -546.000; -472.000
228.476;  -30.350; -223.000; -149.000
228.620;  -24.100; -210.000; -150.000
228.764;   71.325;  431.000;  349.000
228.908;  -31.225; -155.000;   30.000
229.052;  -60.275; -615.000; -528.000
229.195;   -7.275; -172.000;   13.000
229.339;  -17.350; -235.000; -305.000
229.483;  -23.975;    5.000; -162.000
229.627;  -11.150; -156.000;  139.000
229.771;  -53.700; -218.000; -294.000
229.915;    9.675;  230.000;   79.000
230.059;  -89.025; -648.000; -663.000
230.202;  -48.300; -370.000; -317.000
230.346;  -23.850; -107.000;  107.000
230.490;  -61.150; -489.000; -521.000
230.634; -112.675; -736.000; -553.000
230.777;   59.150;  478.000;  509.000
230.921;  -51.675; -450.000; -359.000
231.065;  -23.725; -246.000; -286.000
231.209;   37.450;  261.000;  265.000
231.352;   26.550;   54.000;   40.000
231.496;   14.300;  568.000;  188.000
231.640;  -73.275; -693.000; -621.000
231.783;   54.000;  546.000;  525.000
231.927;  -41.450; -294.000; -365.000
232.071; -115.775; -962.000; -736.000
232.214; -105.725; -980.000; -764.000
232.358; -111.900; -683.000; -599.000
232.502;    7.875;  -19.000;    7.000
232.645; -145.850;-1090.000; -927.000
232.789;  -17.675; -257.000; -218.000
232.933;  -40.850; -407.000; -224.000
233.076; -125.900;-1038.000; -897.000
233.220;  -97.775; -752.000; -777.000
233.363;  -85.800; -669.000; -477.000
233.507;   50.825;  371.000;  129.000
233.650;  -93.775; -764.000; -834.000
233.794;   48.625;  438.000;  461.000
233.938;  -61.200; -530.000; -362.000
234.081;  -28.375;  -93.000;   31.000
234.225;  -75.400; -631.000; -539.000
234.368; -113.300; -773.000; -723.000
234.512;  -39.025; -385.000; -299.000
234.655;  -81.875; -582.000; -555.000
234.798;  -53.975; -493.000; -466.000
234.942; -134.800; -884.000;-1002.000
235.085;  -58.350; -651.000; -443.000
235.229;  -69.150; -405.000; -410.000
235.372;  -35.275; -247.000; -191.000
235.516;  -56.150; -397.000; -321.000
235.659;   22.350;   92.000;  121.000
235.802;  -25.875;  -38.000;  -22.000
235.946;   34.725;  335.000;  215.000
236.089;   30.375;  126.000;  250.000
236.233;   55.500;  275.000;  298.000
236.376;  -47.050; -235.000; -378.000
236.519;  -41.050; -297.000; -319.000
236.663;  -31.475; -215.000; -117.000
236.806; -130.450;-1029.000; -999.000
236.949;   38.975;  543.000;  431.000
237.092;   53.625;  412.000;  391.000
237.236;  -76.700; -589.000; -502.000
237.379;   75.875;  352.000;  428.000
237.522; -110.450; -879.000; -768.000
237.666;  -26.900; -271.000;   18.000
237.809; -125.525; -851.000; -823.000
237.952;   33.275;  469.000;  271.000
238.095;  -77.225; -447.000; -442.000
238.238;   83.025;  688.000;  700.000
238.382;    0.825;  166.000;  103.000
238.525;  -60.775; -598.000; -511.000
238.668; -146.650;-1060.000; -985.000
238.811;  -80.650; -638.000; -643.000
238.954;  -62.350; -483.000; -334.000
239.097;   97.425;  617.000;  664.000
239.241;   17.425;  394.000;  326.000
239.384;  -44.425; -254.000; -214.000
239.527;  -56.325; -424.000; -224.000
239.670; -138.375; -994.000;-1091.000
239.813; -123.375; -696.000; -658.000
239.956;   75.250;  579.000;  473.000
240.099; -101.825; -778.000; -725.000
240.242;   66.750;  428.000;  432.000
240.385;   39.600;  466.000;  450.000
240.528;  -68.050; -706.000; -473.000
240.671;   15.875;  189.000;  134.000
240.814;  -35.000; -441.000; -158.000
240.957;  -93.400; -767.000; -578.000
241.100;  -93.475; -779.000; -755.000
241.243; -133.775;-1234.000; -893.000
241.386;  -59.350; -508.000; -379.000
241.529;  -99.000; -735.000; -547.000
241.672;  -65.750; -566.000; -495.000
241.815; -121.725; -832.000; -808.000
241.958;  -30.025; -125.000; -182.000
242.101;  -74.275; -545.000; -390.000
242.244;  -30.225; -270.000; -325.000
242.387;  -42.475; -304.000; -246.000
242.530;   58.425;  470.000;  134.000
242.673;  -48.200; -381.000; -309.000
242.815; -112.450; -925.000; -899.000
242.958;  -77.850; -482.000; -381.000
243.101;   19.675;  132.000;  187.000
243.244;  -85.750; -564.000; -521.000
243.387;  -44.675; -313.000; -316.000
243.530;  -93.000; -657.000; -674.000
243.672;   -4.125;   43.000;  -92.000
243.815;  -47.475; -355.000; -283.000
243.958;   -8.850;   98.000;  -26.000
244.101;   -9.150;   59.000;  -16.000
244.243;   -4.900;  -47.000;  101.000
244.386; -102.425; -761.000; -630.000
244.529;  -33.600; -132.000; -139.000
244.672; -149.675;-1154.000; -951.000
244.814; -103.275; -621.000; -794.000
244.957;  -44.375; -380.000; -304.000
245.100;  -77.575; -489.000; -489.000
245.242;  -52.475; -387.000; -374.000
245.385;    3.500;  -59.000;  -39.000
245.528; -119.250; -871.000; -705.000
245.670;   85.050;  612.000;  634.000
245.813;  -88.125; -599.000; -547.000
245.956;  -28.575; -324.000; -275.000
246.098;  -78.425; -508.000; -650.000
246.241;    5.775;  194.000;   48.000
246.383;  -15.650; -119.000;  -73.000
246.526;  -73.525; -454.000; -525.000
246.669; -103.075; -889.000; -780.000
246.811;   12.525;  172.000;   -1.000
246.954;  -58.000; -512.000; -426.000
247.096;  -23.650;  -84.000;   -6.000
247.239;  -71.725; -482.000; -445.000
247.381;  -67.725; -647.000; -488.000
247.524;   86.725;  645.000;  679.000
247.666;   -8.150;   58.000;   11.000
247.809; -130.275; -887.000; -691.000
247.951;  -14.800;  -75.000;  138.000
248.094;   25.275;  432.000;  308.000
248.236; -154.600;-1262.000;-1238.000
248.378;   -7.600; -356.000;  -81.000
248.521;  -20.975; -334.000; -337.000
248.663;  -32.375; -236.000; -267.000
248.806;  -20.925; -300.000; -266.000
248.948;  -84.625; -886.000; -763.000
249.090;  -28.825; -428.000; -398.000
249.233;  -37.775; -344.000; -381.000
249.375;  -48.000; -474.000; -451.000
249.518;  -18.075;  -83.000; -133.000
249.660;   -3.450; -103.000;    3.000
249.802; -163.450;-1303.000;-1189.000
249.945;  -79.725; -612.000; -540.000
250.087;  -97.975; -834.000; -768.000
250.229;  -58.475; -362.000; -480.000
250.371;  -67.350; -494.000; -439.000
250.514;  -50.925; -310.000; -244.000
250.656;    4.125;   69.000;  102.000
250.798; -111.725; -849.000; -800.000
250.940;  -55.850; -322.000; -322.000
251.083;  -28.225; -335.000; -111.000
251.225;   61.175;  338.000;  310.000
251.367;  -34.425; -274.000; -373.000
251.509;  -40.300; -265.000; -210.000
251.651;  -85.100; -731.000; -671.000
251.794;   57.875;  538.000;  632.000
251.936; -104.275; -821.000; -747.000
252.078;  -75.800; -540.000; -461.000
252.220;  -72.050; -645.000; -477.000
252.362;   88.750;  344.000;  462.000
252.504;  -64.175; -677.000; -584.000
252.646; -116.950; -875.000; -722.000
252.788;    2.125;   14.000; -128.000
252.931;  -40.100; -257.000; -253.000
253.073;  -37.750; -376.000; -317.000
253.215;   -8.275;  141.000;  122.000
253.357;  -21.575;   82.000; -153.000
253.499;  -33.525; -374.000; -234.000
253.641;  -91.150; -749.000; -594.000
253.783;  -99.550; -609.000; -527.000
253.925;  -76.875; -586.000; -591.000
254.067; -105.075; -744.000; -667.000
254.209;  -21.950; -391.000; -259.000
254.351; -123.400; -865.000; -883.000
254.493;  -43.475; -441.000; -417.000
254.635; -126.275; -936.000; -818.000
254.777;  -78.675; -752.000; -687.000
254.918;  -70.050; -512.000; -430.000
255.060;  -59.075; -551.000; -395.000
255.202;  -50.200; -473.000; -261.000
255.344;  -64.775; -658.000; -455.000
255.486;  -60.675; -471.000; -406.000
255.628; -110.275; -780.000; -781.000
255.770;  -93.950; -676.000; -536.000
255.912;  -63.475; -559.000; -468.000
256.053;  -96.225; -730.000; -508.000
256.195;  143.800; 1008.000;  903.000
256.337;  -90.600; -861.000; -595.000
256.479;   65.275;  532.000;  416.000
256.621;  -57.975; -394.000; -212.000
256.762;  -89.625; -789.000; -742.000
256.904;   29.725;  485.000;  487.000
257.046;  -44.100; -381.000; -271.000
257.188;  -48.325; -351.000; -264.000
257.329;  -71.050; -525.000; -464.000
257.471; -104.775; -939.000; -807.000
257.613;  -61.000; -584.000; -498.000
257.755; -132.375;-1073.000; -982.000
257.896;   25.875;  286.000;  392.000
258.038;  -66.275; -403.000; -352.000
258.180;  -41.300; -354.000; -279.000
258.321;  -85.125; -581.000; -457.000
258.463;   -3.625;  -71.000;  133.000
258.605;  -91.450; -562.000; -570.000
258.746; -103.225; -886.000; -772.000
258.888; -143.775;-1026.000;-1020.000
259.029;   11.800;  121.000;   -8.000
259.171;  -72.100; -614.000; -550.000
259.313;   -3.950;  -49.000;  -47.000
259.454;  -77.825; -536.000; -414.000
259.596;  -56.750; -483.000; -390.000
259.737;  -86.925; -590.000; -474.000
259.879;   42.175;  217.000;  311.000
260.020;   86.150;  901.000;  636.000
260.162;  -25.625; -146.000; -253.000
260.303; -120.950; -768.000; -687.000
260.445;  -84.925; -609.000; -613.000
260.586;   28.425;  392.000;  157.000
260.728;  -47.625; -360.000; -248.000
260.869; -130.025; -350.000; -343.000
261.011;   86.250;  706.000;  537.000
261.152;  -60.525; -479.000; -319.000
261.293;  -67.025; -576.000; -595.000
261.435;  -44.250; -219.000; -184.000
261.576;  -69.700; -455.000; -325.000
261.718;   36.750;  420.000;  470.000
261.859; -128.250; -940.000; -949.000
262.000; -110.650; -951.000;-1016.000
262.142;  -27.850;  -52.000;  -60.000
262.283; -111.925; -808.000; -691.000
262.424;  -87.675; -666.000; -625.000
262.566; -149.325;-1161.000; -983.000
262.707; -105.800; -840.000; -830.000
262.848; -129.775; -769.000; -726.000
262.990;  -52.200; -362.000; -345.000
263.131;   78.150;  650.000;  681.000
263.272;   -0.750;  -61.000;  -41.000
263.413;  -84.475; -589.000; -561.000
263.555;  -59.925; -669.000; -143.000
263.696;  -88.450; -550.000; -641.000
263.837;  -54.775; -449.000; -551.000
263.978;   -3.850;   -5.000;  -77.000
264.119;  -44.175; -283.000; -264.000
264.261; -108.050; -847.000; -630.000
264.402;   10.200;   33.000;   40.000
264.543;  -69.200; -509.000; -524.000
264.684;   -1.075;   61.000;  -50.000
264.825;  -80.525; -816.000; -538.000
264.966;   -5.850;  -84.000;  -67.000
265.107; -104.000; -646.000; -670.000
265.248; -118.550; -825.000; -812.000
265.390;  -14.525;  152.000;   -9.000
265.531;  -19.475; -238.000; -107.000
265.672;  -72.025; -557.000; -630.000
265.813;   69.475;  563.000;  439.000
265.954; -150.200; -959.000; -940.000
266.095;   -1.825; -372.000; -322.000
266.236; -113.600; -686.000; -548.000
266.377;  -51.725; -243.000; -297.000
266.518;  -73.825; -619.000; -547.000
266.659;   26.525;  170.000;  268.000
266.800;    6.150;   83.000;   85.000
266.941;  -78.150; -487.000; -478.000
267.082;    7.075;  354.000;   99.000
267.223;  -43.275; -344.000; -273.000
267.364; -114.625; -892.000; -686.000
267.504;  -14.500;    3.000;  135.000
267.645;    2.275;  160.000;   67.000
267.786;  -31.725; -147.000;  -86.000
267.927;  -60.225; -473.000; -379.000
268.068;   -3.100; -186.000;  -61.000
268.209;  -47.725; -175.000; -413.000
268.350;  -50.725; -388.000; -532.000
268.490;  -82.125; -648.000; -521.000
268.631;   19.825;  127.000;  225.000
268.772; -115.425; -874.000; -647.000
268.913;  -40.700; -328.000; -476.000
269.054;  -14.375; -117.000;   12.000
269.194;  -42.950; -418.000; -402.000
269.335; -153.875;-1137.000;-1074.000
269.476;  -41.025;   33.000;  -35.000
269.617;  -44.100; -347.000; -392.000
269.757;  -87.875; -713.000; -646.000
269.898; -104.025; -856.000; -613.000
270.039;  -63.475; -415.000; -405.000
270.180; -133.350; -952.000; -816.000
270.320;  -20.775; -190.000; -250.000
270.461;  -47.375; -277.000; -249.000
270.602;   -8.675; -186.000; -156.000
270.742; -105.250; -868.000; -943.000
270.883;  -51.650; -442.000; -390.000
271.023;  -49.125; -358.000; -357.000
271.164;  -72.975; -607.000; -528.000
271.305;  -91.350; -666.000; -654.000
271.445;  -94.200; -722.000; -683.000
271.586;  -69.125; -462.000; -283.000
271.726;  -44.000; -397.000; -322.000
271.867;  -37.750; -594.000; -534.000
272.008;  201.675; -473.000; -285.000
272.148;  138.650;  462.000;  468.000
272.289;   18.775; -113.000; -181.000
272.429;   15.125;   19.000;  185.000
272.570;  -83.650; -633.000; -737.000
272.710;  -93.050; -825.000; -775.000
272.851;  -10.450;  113.000; -130.000
272.991; -168.450;-1173.000;-1077.000
273.131;  -76.825; -419.000; -459.000
273.272;  -89.525; -683.000; -723.000
273.412;    3.600; -143.000;  -31.000
273.553;  -43.950; -488.000; -507.000
273.693;  133.375;  913.000;  858.000
273.834;  -65.575; -894.000; -692.000
273.974;  -58.875; -664.000; -615.000
274.114;  -87.900; -772.000; -560.000
274.255;   70.975;  414.000;  373.000
274.395;   13.650; -180.000; -125.000
274.535;   37.775;  199.000;  350.000
274.676;   11.000;  225.000;   94.000
274.816;   14.200;  110.000;   34.000
274.956;  -79.300; -624.000; -690.000
275.097;  -44.350;-1014.000; -922.000
275.237; -103.300; -913.000; -803.000
275.377;  -75.425; -778.000; -689.000
275.517; -131.300; -878.000; -937.000
275.658;  -49.450; -590.000; -555.000
275.798;  -57.875; -606.000; -413.000
275.938;   16.675;  215.000;  323.000
276.078; -107.250; -626.000; -395.000
276.218;   16.725;   99.000;  104.000
276.359; -122.375;-1026.000;-1024.000
276.499;  -71.650; -605.000; -446.000
276.639;  -14.325; -305.000; -151.000
276.779;  -32.550; -475.000; -357.000
276.919;  -97.275; -783.000; -624.000
277.059;  -12.875; -261.000; -212.000
277.199;  -45.025; -357.000; -259.000
277.340;   47.450;  287.000;  175.000
277.480; -104.675; -840.000; -693.000
277.620;   28.275;  192.000;   16.000
277.760; -195.925;-1533.000;-1294.000
277.900;   38.750;  113.000;   33.000
278.040;   38.825;  137.000;  159.000
278.180;   48.250;  270.000;  170.000
278.320;    0.750;   21.000;   56.000
278.460;  -68.625; -443.000; -469.000
278.600;  -80.150; -708.000; -598.000
278.740;   67.000;  448.000;  224.000
278.880;    7.700; -768.000; -791.000
279.020;   12.275; -194.000; -144.000
279.160;  -87.250; -672.000; -595.000
279.300; -116.950; -926.000; -873.000
279.440;  -81.700; -709.000; -622.000
279.579;   -2.850;-1014.000; -929.000
279.719;  -50.700; -410.000; -394.000
279.859;   85.075;   -4.000;   41.000
279.999;   27.975; -208.000;  101.000
280.139;   -0.200; -435.000; -387.000
280.279;  -56.625; -708.000; -745.000
280.419;  -12.325; -229.000; -147.000
280.559;  -32.250; -259.000; -180.000
280.698;  -55.250; -790.000; -639.000
280.838;  -82.275; -778.000; -800.000
280.978;  -89.675; -846.000; -790.000
281.118; -102.800; -811.000; -704.000
281.257;   -0.975;   24.000;    6.000
281.397;  -78.950;-1094.000; -960.000
281.537;  -74.100; -599.000; -712.000
281.677;  -16.850; -150.000; -101.000
281.816;  -82.200; -700.000; -630.000
281.956;  -37.375; -193.000; -257.000
282.096;  -50.825; -539.000; -396.000
282.235;  -94.250; -672.000; -638.000
282.375;   -5.300; -243.000;  -98.000
282.515;  -91.475; -715.000; -707.000
282.654;   43.600;   29.000;  106.000
282.794;   26.250;  388.000;  244.000
282.934;  -41.025; -530.000; -491.000
283.073; -127.175;-1030.000; -857.000
283.213;  -38.900; -460.000; -467.000
283.353;  -14.600; -408.000; -349.000
283.492;  -14.800; -264.000; -296.000
283.632;  -29.750; -254.000; -168.000
283.771;  -81.925; -859.000; -730.000
283.911;  -55.800; -369.000; -260.000
284.050; -103.775; -794.000; -748.000
284.190; -158.050;-1229.000;-1096.000
284.329; -124.450;-1055.000; -964.000
284.469;  -37.225; -516.000; -591.000
284.608;  -59.900; -559.000; -598.000
284.748;  -79.625; -614.000; -570.000
284.887;   -2.200;  -87.000;  -20.000
285.027; -118.225; -844.000; -892.000
285.166;  -15.175; -192.000; -249.000
285.306;   21.400; -116.000;  -33.000
285.445;  -34.575; -229.000; -343.000
285.584;  -94.500; -630.000; -494.000
285.724;  -48.850; -282.000; -322.000
285.863; -108.300; -857.000; -507.000
286.002;  -54.700; -366.000; -276.000
286.142;  -94.675; -715.000; -622.000
286.281;  -63.650; -525.000; -493.000
286.420;  -70.675; -554.000; -417.000
286.560;   90.575;  653.000;  623.000
286.699; -136.050; -958.000; -912.000
286.838;  -76.275; -590.000; -591.000
286.978;  -83.450; -533.000; -537.000
287.117; -120.725;-1085.000; -950.000
287.256;  -42.625; -228.000; -211.000
287.395;  -36.650; -197.000; -378.000
287.535;  -38.850; -370.000; -298.000
287.674;  -76.500; -509.000; -484.000
287.813;   53.575;  661.000;  533.000
287.952; -128.725;-1010.000; -871.000
288.091; -139.125;-1049.000; -915.000
288.231;   22.650;   13.000;   15.000
288.370; -173.850;-1217.000;-1200.000
288.509;  -79.100; -728.000; -645.000
288.648;  -89.075; -770.000; -548.000
288.787;  -11.500; -243.000;  -87.000
288.926;  -60.675; -454.000; -475.000
289.065;  115.500;  859.000;  672.000
289.204;  -49.775; -377.000; -217.000
289.344;  -85.100; -791.000; -690.000
289.483;   31.225;  416.000;  304.000
289.622;  -30.100; -291.000; -149.000
289.761;   -9.550; -309.000; -166.000
289.900;  -97.100; -785.000; -626.000
290.039;    2.225;  -12.000;  -95.000
290.178;  -23.325; -274.000; -180.000
290.317;  -77.300; -618.000; -479.000
290.456;  -60.000; -463.000; -451.000
290.595; -110.275; -961.000; -833.000
290.734; -124.275; -904.000; -891.000
290.873;  -54.575; -456.000; -420.000
291.011; -110.175; -833.000; -843.000
291.150;  -90.275; -770.000; -682.000
291.289;   -8.175; -343.000; -110.000
291.428;  -85.525; -599.000; -480.000
291.567;  -52.675; -370.000; -442.000
291.706;   -2.225;  109.000;  154.000
291.845;  -63.050; -597.000; -505.000
291.984; -162.375;-1234.000;-1061.000
292.122;   78.575;  602.000;  582.000
292.261;   58.625;  620.000;  463.000
292.400;   14.625; -144.000;  211.000
292.539; -111.525; -959.000; -813.000
292.678;  -37.875; -325.000; -300.000
292.816; -145.700;-1136.000; -965.000
292.955;  -72.625; -844.000; -684.000
293.094;  -22.125; -173.000; -337.000
293.233;  -51.225; -556.000; -400.000
293.371;  -18.450; -225.000;  -84.000
293.510;  -95.075; -866.000; -780.000
293.649; -124.900; -959.000; -924.000
293.787;  -22.475;-1083.000;-1012.000
293.926;    7.925; -113.000;  -32.000
294.065;  -47.700; -379.000; -290.000
294.203;   55.600;  298.000;  406.000
294.342;   37.100;   74.000;  156.000
294.481; 5132.200;51180.000; -836.000
294.619;  -27.200; -425.000; -582.000
294.758; -134.650;-1230.000;-1137.000
294.896;  107.625; -125.000;    5.000
295.035; -113.550;-1040.000;-1006.000
295.174; -104.600;-1082.000; -954.000
295.312;  -29.275; -323.000; -203.000
295.451;   18.150; -307.000; -428.000
295.589;  -28.150; -389.000; -518.000
295.728;   19.550; -292.000; -165.000
295.866;   13.025;  -36.000;  -51.000
296.005;  -52.550; -584.000; -341.000
296.143;  -52.300; -558.000; -596.000
296.282;  -94.525; -957.000; -881.000
296.420;  -58.925; -657.000; -557.000
296.559;  -57.650; -892.000; -633.000
296.697;   87.375; -847.000; -665.000
296.835;  148.425;-1141.000;-1002.000
296.974;   78.500;  -23.000;   39.000
297.112;   50.050; -443.000; -504.000
297.251;  -50.975; -815.000; -755.000
297.389;  155.925; -576.000; -438.000
297.527;   53.250; -145.000;  -83.000
297.666;  -37.350; -486.000; -438.000
297.804;  -52.400; -404.000; -264.000
297.942;   -8.525; -136.000; -161.000
298.081;   16.850; -183.000;   63.000
298.219;  102.650;  -17.000;  -19.000
298.357;   93.100; -144.000;  -71.000
298.495;   79.300; -810.000; -812.000
298.634;  127.100;  245.000;  219.000
298.772;  104.775; -220.000; -338.000
298.910;  -17.475; -309.000; -182.000
299.048;    4.500; -130.000; -153.000
299.187;  -20.400; -350.000; -250.000
299.325;   25.000;   52.000;  122.000
299.463;  110.525; -389.000; -299.000
299.601;  172.250; -327.000; -271.000
299.739;  -78.400; -908.000; -883.000
299.877;  -76.150; -791.000; -703.000
300.016;  -18.100;-1095.000; -935.000
300.154;  230.075;  -19.000; -161.000
300.292;  117.650; -428.000; -348.000
300.430;   82.125; -408.000; -291.000
300.568;  -84.050; -940.000; -874.000
300.706;  -49.475; -366.000; -469.000
300.844;  -46.475;-1108.000; -979.000
300.982;  142.075;  246.000;  282.000
301.120;  -86.550; -965.000; -866.000
301.258;  -58.300; -812.000; -705.000
301.396;   48.425;  104.000;  -41.000
301.534;  154.700; -218.000; -293.000
301.672;   47.900; -664.000; -521.000
301.810;   95.475; -613.000; -545.000
301.948;  173.425;   53.000;  149.000
302.086;  838.950; -250.000;  -32.000
302.224; 1274.375; -610.000; -585.000
302.362;   98.225; -558.000; -622.000
302.500;   37.825; -923.000; -893.000
302.638;  157.000;  128.000;  245.000
302.776;   12.150; -352.000; -408.000
302.913;   44.075;  447.000;  236.000
303.051;   29.250;  -86.000;  -23.000
303.189;   90.525;   90.000;  118.000
303.327;  -27.650; -341.000; -256.000
303.465;  -72.225; -832.000; -588.000
303.603;  -81.775; -805.000; -604.000
303.740;  128.025;  417.000;  241.000
303.878;   73.100; -800.000; -759.000
304.016;  -68.325; -915.000; -790.000
304.154; -105.075;-1123.000;-1152.000
304.291;  -17.925; -505.000; -554.000
304.429;   29.750;  102.000;   74.000
304.567; -120.250; -908.000; -893.000
304.705;  -34.850; -408.000; -515.000
304.842;  182.700; -616.000; -540.000
304.980;   84.475;  215.000;   35.000
305.118;   90.100; -367.000; -365.000
305.255;  -41.050; -945.000; -927.000
305.393;   65.350;  178.000;  239.000
305.531;  -72.375;-1173.000; -956.000
305.668;  -47.475; -663.000; -582.000
305.806;  141.175; -358.000; -439.000
305.943;  165.450; -629.000; -637.000
306.081;   80.250; -378.000; -267.000
306.219;  -83.925; -863.000; -748.000
306.356;   17.075;  158.000;   27.000
306.494;  111.125;  981.000;  761.000
306.631;   -0.100;  -11.000;  -55.000
306.769;   25.775; -613.000; -485.000
306.906;    2.625; -284.000; -258.000
307.044;  -55.850; -473.000; -488.000
307.181;  -62.850; -410.000; -332.000
307.319;    7.125;  112.000;   87.000
307.456; -157.325;-1191.000;-1153.000
307.594;  -79.275; -980.000; -727.000
307.731;   -7.475; -371.000; -164.000
307.868;    8.400;  -15.000;   20.000
308.006; -122.675; -961.000; -847.000
308.143;  -57.300; -618.000; -330.000
308.281;  238.950;  -37.000; -254.000
308.418;   25.425; -748.000; -640.000
308.555;  -66.575; -400.000; -250.000
308.693;  -70.875; -577.000; -573.000
308.830;  -93.975; -712.000; -657.000
308.967;    4.725; -215.000;  -95.000
309.105;  -27.475; -507.000; -396.000
309.242;   59.550; -468.000; -367.000
309.379;  462.075; -577.000; -655.000
309.517;  -19.925; -936.000; -948.000
309.654;  -88.325; -910.000; -734.000
309.791;  -56.150; -662.000; -580.000
309.928; -102.750; -977.000; -914.000
310.065;  211.700;  819.000;  697.000
310.203;   42.975; -825.000; -850.000
310.340;   28.750; -465.000; -321.000
310.477;  -61.575; -412.000; -516.000
310.614;  -63.675; -383.000; -473.000
310.751;  -59.800; -427.000; -518.000
310.889;  -11.875;    1.000;   11.000
311.026; -149.800;-1161.000; -939.000
311.163;  -43.325; -386.000; -380.000
311.300;  -70.400; -512.000; -479.000
311.437;  -76.400; -658.000; -619.000
311.574; -135.975;-1226.000; -985.000
311.711;  -61.175; -595.000; -433.000
311.848;  -24.900; -380.000; -388.000
311.985;   27.850;  270.000;   93.000
312.122;  -95.450; -932.000; -762.000
312.259; -114.825; -941.000; -994.000
312.396;  -60.100; -508.000; -551.000
312.533;  -76.200; -812.000; -790.000
312.670; -116.175;-1070.000; -898.000
312.807;  -16.275; -352.000; -367.000
312.944;  -55.025; -513.000; -611.000
313.081;  -41.225; -150.000; -415.000
313.218;  -94.475;-1111.000; -867.000
313.355;   34.450; -531.000; -449.000
313.492;   42.475; -455.000; -292.000
313.629;  144.050;  815.000;  735.000
313.766; -139.450;-1176.000;-1008.000
313.902;  -13.950; -186.000;   21.000
314.039;  -31.025; -372.000; -289.000
314.176;   28.825;  286.000;  192.000
314.313;  -62.075; -569.000; -473.000
314.450;  -62.650; -788.000; -684.000
314.587;  -50.600; -468.000; -480.000
314.723;   16.475;  -78.000;  130.000
314.860;   48.000;  318.000;  332.000
314.997;   35.475;  223.000;  142.000
315.134;  -29.775; -385.000; -368.000
315.270;  -15.825; -480.000; -496.000
315.407; -106.650;-1094.000; -967.000
315.544;  -36.050; -657.000; -538.000
315.681;  -57.650; -681.000; -565.000
315.817;   49.925; -133.000; -176.000
315.954;   52.175; -613.000; -392.000
316.091; -109.200;-1045.000;-1023.000
316.227;  -17.200;  -71.000; -179.000
316.364;   -0.725;   23.000;    6.000
316.500;  -53.200; -113.000; -300.000
316.637;  -28.825; -181.000; -302.000
316.774;  -83.450; -625.000; -358.000
316.910;  -90.625; -598.000; -629.000
317.047;  -47.575; -487.000; -351.000
317.183;  -44.075; -435.000; -566.000
317.320;  -26.675; -367.000; -321.000
317.456;  -80.325; -733.000; -805.000
317.593;  -83.525; -598.000; -641.000
317.729;    3.100;  168.000;  -67.000
317.866; -184.550;-1434.000;-1285.000
318.002;  -93.675; -708.000; -948.000
318.139;  -65.350; -883.000; -867.000
318.275;  -92.425;-1003.000; -738.000
318.412;  -53.725; -517.000; -336.000
318.548;    8.425; -751.000; -720.000
318.685;  -77.725; -985.000; -888.000
318.821;  -84.375; -762.000; -735.000
318.957;  -11.575;   34.000;  -23.000
319.094;   54.800;  297.000;  154.000
319.230;  -32.175; -756.000; -742.000
319.367;  187.100; -471.000; -520.000
319.503;   90.550; -538.000; -436.000
319.639;  -76.825; -877.000; -793.000
319.775;  -49.575; -750.000; -685.000
319.912;  -38.725; -424.000; -519.000
320.048;  -65.300;-1184.000;-1184.000
320.184;   81.625;   59.000;   70.000
320.321;  -55.300; -497.000; -467.000
320.457;   63.900;  475.000;  662.000
320.593;  -59.800; -375.000; -382.000
320.729; -100.825; -732.000; -734.000
320.866;  -75.775; -577.000; -635.000
321.002;  -68.450; -759.000; -809.000
321.138;   -0.500; -135.000; -211.000
321.274;   92.275; -148.000; -115.000
321.410;    4.950; -585.000; -353.000
321.546;    5.175;-1011.000; -911.000
321.683;   66.300;  400.000;  185.000
321.819;    6.300;  -48.000; -117.000
321.955;  -97.750; -743.000; -722.000
322.091;  -24.275; -585.000; -540.000
322.227;   11.650; -382.000; -202.000
322.363;    1.525; -320.000; -215.000
322.499;  -35.150; -343.000; -331.000
322.635;  195.850;  636.000;  443.000
322.771;   40.025; -139.000;   12.000
322.907;  108.525;  129.000;  327.000
323.043;   -5.075; -115.000; -206.000
323.179;  -25.650; -394.000; -363.000
323.315;   96.575; -401.000; -371.000
323.451;  184.250; -328.000; -236.000
323.587;   74.025;  -60.000;  -77.000
323.723;   56.525; -682.000; -601.000
323.859;   -4.775; -258.000;  -76.000
323.995;  -14.800; -467.000; -409.000
324.131; -119.725; -967.000; -892.000
324.267;  -42.100; -254.000; -276.000
324.402; -110.450; -960.000; -983.000
324.538;    5.375; -279.000; -104.000
324.674;   26.875;  164.000;   77.000
324.810;  205.100;  226.000;  308.000
324.946;   64.525; -810.000; -658.000
325.082;  -62.325; -568.000; -475.000
325.217;   -7.800;  -62.000;   16.000
325.353;  -89.475; -764.000; -659.000
325.489;  -77.375; -540.000; -506.000
325.625;  -66.050; -579.000; -525.000
325.760;   50.050;  517.000;  376.000
325.896;  -38.575; -515.000; -702.000
326.032;  -53.275; -403.000; -352.000
326.168;  -61.275; -462.000; -369.000
326.303;  -56.750; -352.000; -461.000
326.439;  -12.275; -336.000; -276.000
326.575;   11.375; -190.000;  -29.000
326.710;   -3.500; -156.000;  -30.000
326.846;   -4.925;  146.000;  103.000
326.982;  -90.225; -530.000; -548.000
327.117;  -67.700; -481.000; -442.000
327.253;  -73.575; -745.000; -742.000
327.388; -121.500;-1137.000;-1153.000
327.524;   -7.500; -811.000; -578.000
327.659;  -27.475;  -58.000;  -22.000
327.795;  -16.500;   69.000;   45.000
327.931;  -79.300; -723.000; -499.000
328.066;   -6.650; -417.000; -276.000
328.202;   -1.200;   12.000; -129.000
328.337;   94.600;  957.000;  713.000
328.473;   35.150;  -12.000;  -74.000
328.608;  -20.650; -256.000; -267.000
328.743;  -64.825; -799.000; -664.000
328.879;   29.100;  214.000;  114.000
329.014;  -33.625; -102.000; -122.000
329.150;  -77.025; -358.000; -483.000
329.285;  -69.475; -465.000; -466.000
329.421;  -53.850; -548.000; -246.000
329.556;   -5.100;  -36.000;   85.000
329.691;  -99.450; -633.000; -615.000
329.827;  -72.950; -626.000; -480.000
329.962;  -40.200;  131.000; -301.000
330.097;  -87.300; -673.000; -585.000
330.233;  -41.300; -410.000; -223.000
330.368; -120.525; -839.000; -628.000
330.503;  -14.050;    3.000;   98.000
330.638;    7.500;  -93.000; -125.000
330.774;  -28.850; -609.000; -530.000
330.909;  -23.450; -434.000; -244.000
331.044;  -80.225; -714.000; -708.000
331.179; -163.250;-1217.000;-1109.000
331.315;   22.300;   77.000;   20.000
331.450;   23.150;  157.000;  285.000
331.585;  -73.800; -805.000; -706.000
331.720;  -63.625; -510.000; -460.000
331.855;   -2.800;  -35.000; -102.000
331.990;  168.375;   62.000;  138.000
332.126;   91.950; -110.000;   71.000
332.261;  -20.275; -379.000; -265.000
332.396;   -8.025; -135.000; -242.000
332.531; -120.075;-1074.000;-1031.000
332.666;   15.325; -519.000; -363.000
332.801;  -83.400; -726.000; -807.000
332.936;  -13.850; -192.000; -122.000
333.071; -133.900; -870.000; -817.000
333.206;   31.650;  307.000;  379.000
333.341;   41.275;  344.000;  418.000
333.476;  -73.050; -627.000; -623.000
333.611;  -44.750; -251.000; -173.000
333.746;  -48.525; -381.000; -464.000
333.881;  -88.100; -973.000; -935.000
334.016; -114.675; -936.000; -917.000
334.151; -113.600; -746.000; -702.000
334.286;   44.000;  152.000;  186.000
334.421;    4.775; -125.000; -178.000
334.556;  -59.450; -611.000; -567.000
334.690;  -62.725; -631.000; -577.000
334.825;   81.200;  381.000;   83.000
334.960;  -38.925; -285.000; -413.000
335.095;   15.225;  135.000;  -91.000
335.230;  -75.275; -722.000; -738.000
335.365; -115.150;-1084.000; -990.000
335.499; -101.625;-1108.000;-1037.000
335.634;   40.750;    9.000;  534.000
335.769;  -68.525; -755.000; -720.000
335.904;  -24.075; -603.000; -561.000
336.038;  -29.775; -735.000; -657.000
336.173;  -81.450;-1206.000;-1194.000
336.308;   43.425; -116.000; -189.000
336.443;   22.700; -544.000; -634.000
336.577;  -54.400; -936.000; -787.000
336.712;   98.450;   -4.000;  -12.000
336.847;  -14.900; -724.000; -607.000
336.981;  127.525; -272.000; -208.000
337.116;  354.375;  615.000;  501.000
337.250;  221.100; -434.000; -421.000
337.385;  183.100; -297.000; -208.000
337.520;   24.000; -632.000; -603.000
337.654;  -39.325; -215.000; -126.000
337.789; -119.275; -989.000; -933.000
337.923;  -27.125; -104.000; -205.000
338.058;  -68.750; -673.000; -738.000
338.192;   -0.075; -611.000; -488.000
338.327;   -1.225;  -18.000; -155.000
338.461;  -33.850; -299.000; -469.000
338.596;  -82.675; -780.000; -638.000
338.730;  -92.775; -767.000; -803.000
338.865;   61.000;  -46.000; -140.000
338.999;  -71.425; -846.000; -702.000
339.134;  -43.825; -634.000; -536.000
339.268;   15.750; -741.000; -603.000
339.403;  305.275; -740.000; -775.000
339.537;   65.500; -894.000; -820.000
339.671; -113.475; -829.000; -813.000
339.806;  -68.900; -556.000; -512.000
339.940;   -0.175; -261.000; -235.000
340.074;  -85.875; -685.000; -510.000
340.209;  -47.000; -351.000; -230.000
340.343;  -92.275; -517.000; -573.000
340.477;  158.275;  998.000; 1036.000
340.612;  -74.625;-1033.000; -900.000
340.746;   96.825; -199.000; -243.000
340.880;  -54.475; -924.000; -785.000
341.014;  -13.525;  -45.000; -154.000
341.149;  -96.250; -756.000; -718.000
341.283;  -91.000; -839.000; -754.000
341.417;  -57.100;-1124.000; -938.000
341.551;  261.000; -768.000; -708.000
341.685;  -11.600; -633.000; -611.000
341.820;  -55.100; -562.000; -493.000
341.954;  -38.100; -218.000; -349.000
342.088; -131.600;-1102.000;-1019.000
342.222;   66.200;  565.000;  618.000
342.356;  -46.950; -395.000; -335.000
342.490;  -73.475; -880.000; -841.000
342.624;  -31.725; -339.000; -242.000
342.758;   27.975; -364.000; -312.000
342.892;  -34.275; -710.000; -585.000
343.026;  -22.700;  -58.000; -116.000
343.160;  -60.750; -426.000; -376.000
343.294;  -78.050; -474.000; -337.000
343.428;   12.600; -488.000; -448.000
343.562;   -3.925; -172.000;  -23.000
343.696;  -17.100; -385.000; -314.000
343.830;    3.250; -362.000; -356.000
343.964;   45.600; -231.000; -168.000
344.098; 1291.025;  199.000;   70.000
344.232; 1091.775; -266.000; -127.000
344.366;  119.825; -567.000; -453.000
344.500;  131.100; -665.000; -744.000
344.634;   80.100; -324.000; -164.000
344.768;   11.450; -531.000; -341.000
344.902;   29.750;  278.000;  256.000
345.035;  -76.750; -556.000; -496.000
345.169; -118.600; -933.000; -656.000
345.303;    7.600; -308.000; -482.000
345.437;  -28.225; -826.000; -717.000
345.571;  -65.975; -675.000; -594.000
345.704;  -67.375; -309.000; -532.000
345.838;    3.250; -331.000; -284.000
345.972;   -5.675; -543.000; -495.000
346.106;  131.125; -179.000; -190.000
346.239;  432.825; -312.000; -243.000
346.373;   27.150; -343.000; -302.000
346.507; -127.325; -950.000; -962.000
346.640;  221.950;  -30.000;   13.000
346.774;   -8.350; -650.000; -797.000
346.908;   -7.725; -138.000;  -11.000
347.041;  -88.375; -646.000; -593.000
347.175;   10.725;  259.000;   27.000
347.309;  -42.325; -698.000; -628.000
347.442;  -71.625; -883.000; -732.000
347.576;  375.625;  670.000;  668.000
347.709;  296.825; -123.000;  -52.000
347.843;  -56.900; -933.000; -825.000
347.976;   46.100;  235.000;  294.000
348.110; -174.300;-1268.000;-1186.000
348.243;  -99.750; -679.000; -772.000
348.377;   -3.275;  -26.000;   60.000
348.510;   61.675;  403.000;  540.000
348.644;  -32.075;  -37.000; -159.000
348.777;    3.125;  180.000;  191.000
348.911;  -48.050; -142.000; -112.000
349.044;  213.300;  471.000;  448.000
349.178;  294.125;-1069.000;-1006.000
349.311;  146.325;  141.000;  255.000
349.444;  -19.100; -927.000; -813.000
349.578;   -1.375; -347.000; -200.000
349.711;  -75.650; -959.000; -862.000
349.845;   44.400; -661.000; -591.000
349.978; -120.375;-1224.000;-1137.000
350.111;  -73.075; -546.000; -612.000
350.244;  -59.650; -596.000; -700.000
350.378;   35.300; -392.000; -393.000
350.511;  -58.150; -393.000; -426.000
350.644;  -98.350; -808.000; -806.000
350.778;   11.375;  168.000;  104.000
350.911;   16.175;  134.000;  140.000
351.044;  -68.925; -685.000; -615.000
351.177;   -1.150; -321.000; -281.000
351.310;    1.525;    3.000; -131.000
351.444;  -48.125; -888.000; -788.000
351.577;  171.625;  140.000;   90.000
351.710;  106.900;  593.000;  417.000
351.843;  -19.425; -165.000;  -77.000
351.976;    3.325;  149.000;  -79.000
352.109;  -70.650; -621.000; -612.000
352.242;   -0.625; -464.000; -419.000
352.376;  -26.300; -580.000; -636.000
352.509;  302.150; -437.000; -356.000
352.642;  102.975; -654.000; -604.000
352.775;  110.200; -141.000;  -98.000
352.908;  -97.200; -933.000; -904.000
353.041;  -91.675; -814.000; -824.000
353.174;  -52.700; -551.000; -424.000
353.307;  -70.725; -753.000; -764.000
353.440;   71.325;  541.000;  453.000
353.573;  -99.250; -957.000;-1008.000
353.706;  -34.925; -384.000; -558.000
353.839;   -4.575; -264.000; -220.000
353.971;  -77.375; -657.000; -512.000
354.104;  -65.075; -896.000; -835.000
354.237;  -13.400; -627.000; -662.000
354.370;  -63.500; -846.000; -879.000
354.503; -160.075;-1231.000;-1308.000
354.636;  -14.175; -529.000; -348.000
354.769; -118.850; -937.000; -860.000
354.902;   14.300; -230.000; -139.000
355.034;  -14.300; -164.000; -220.000
355.167;   -2.800; -262.000; -162.000
355.300;  -93.975;-1061.000; -880.000
355.433;  767.250;  -71.000;  -14.000
355.565; 1195.000; -402.000; -384.000
355.698;  315.000; -356.000; -296.000
355.831;   23.950; -882.000; -801.000
355.964;  159.600; -285.000; -170.000
356.096;  -46.700; -856.000; -843.000
356.229;   56.625; -523.000; -530.000
356.362;  233.300; -373.000; -266.000
356.494;  481.350; -229.000; -162.000
356.627;  614.200;  269.000;  377.000
356.760;  579.800;  120.000;   53.000
356.892;  722.525; -286.000; -601.000
357.025;  877.950;  403.000;  389.000
357.157;  865.775; -167.000; -179.000
357.290;  427.075; -856.000; -713.000
357.423;  148.800; -667.000; -556.000
357.555;  163.325; -217.000; -228.000
357.688;  172.100; -483.000; -364.000
357.820;  600.875; -870.000; -877.000
357.953; 4490.475; -563.000; -589.000
358.085; 1108.200; -632.000; -612.000
358.218; 1907.475;-1131.000; -932.000
358.350;  356.350;  -58.000;  312.000
358.483;  -70.850;-1300.000;-1187.000
358.615;   61.525;-1182.000;-1078.000
358.747;   31.000;-1187.000;-1058.000
358.880;  102.850; -810.000; -744.000
359.012;   17.350; -376.000; -202.000
359.145;  -14.475; -480.000; -511.000
359.277;  114.050; -962.000; -913.000
359.409; 3787.400;  536.000;  231.000
359.542; 1066.025; -738.000; -688.000
359.674;  112.350;   46.000;   13.000
359.806;  -69.325; -565.000; -438.000
359.939;  -39.150; -617.000; -516.000
360.071;  -28.925; -583.000; -579.000
360.203;  -21.900; -411.000; -364.000
360.335;   78.700;  164.000;  -16.000
360.468;  257.550; -249.000; -307.000
360.600; 2869.625; -547.000; -454.000
360.732; 2201.925; -546.000; -423.000
360.864;  323.950;-1216.000;-1044.000
360.996;  441.300; -516.000; -554.000
361.129;  109.300; -389.000; -598.000
361.261;   27.575;  110.000; -113.000
361.393;  -22.050; -252.000; -214.000
361.525;   31.550;   94.000;  244.000
361.657;  -20.800; -821.000; -703.000
361.789;   23.100; -139.000; -155.000
361.921;  391.875; -642.000; -593.000
362.053;  368.375;  524.000;  541.000
362.185;   82.550;  288.000;   72.000
362.318;  -42.600; -709.000; -705.000
362.450;  198.100;  294.000;  444.000
362.582;  340.000; -913.000; -870.000
362.714;    2.225; -353.000; -332.000
362.846;  -65.375; -606.000; -490.000
362.978; -126.925; -941.000; -811.000
363.109;  100.075; -161.000; -260.000
363.241;  658.750; -739.000; -749.000
363.373;  376.825; -649.000; -564.000
363.505;  485.325; -186.000;  -91.000
363.637;  130.475; -787.000; -601.000
363.769;  -88.150;-1067.000;-1080.000
363.901;  -54.725; -596.000; -654.000
364.033;  -91.525;-1103.000;-1062.000
364.165;   10.625; -283.000; -283.000
364.296;   76.350; -316.000; -177.000
364.428;   24.150;-1344.000;-1220.000
364.560;  -71.725; -679.000; -661.000
364.692;  -43.950; -738.000; -835.000
364.824;  460.475; -588.000; -456.000
364.955;  460.775; -402.000; -564.000
365.087;  554.950;-1097.000; -852.000
365.219;   23.825; -686.000; -816.000
365.351;  -69.125; -526.000; -572.000
365.482;   67.950;  300.000;  240.000
365.614;  -45.125; -402.000; -314.000
365.746;  -77.575; -729.000; -752.000
365.877;  -96.825; -706.000; -672.000
366.009;  200.500;  -35.000;  -62.000
366.141; -107.125;-1249.000;-1134.000
366.272;  -86.500; -803.000; -719.000
366.404;  -97.950;-1005.000; -874.000
366.535;  -10.125; -139.000;  -12.000
366.667;  -88.625; -644.000; -649.000
366.799;   44.650;  353.000;  203.000
366.930;  -83.150; -862.000; -996.000
367.062;  129.075; -639.000; -613.000
367.193;   73.325; -872.000; -842.000
367.325;  -66.525; -580.000; -684.000
367.456;  141.050; -246.000;   31.000
367.588;  130.950; -371.000; -318.000
367.719;   29.375;  -44.000;  -45.000
367.851;    7.100; -222.000; -241.000
367.982;   -2.550; -875.000; -732.000
368.113;  185.950; -475.000; -358.000
368.245;  -93.550; -960.000; -841.000
368.376;    5.550; -254.000; -302.000
368.508;  -12.950; -188.000; -263.000
368.639; -118.450;-1166.000;-1034.000
368.770;   37.925; -670.000; -589.000
368.902;  -24.275; -836.000; -926.000
369.033;  -83.600; -906.000; -855.000
369.164;  -38.175; -720.000; -653.000
369.296; -108.650; -452.000; -601.000
369.427;   17.400; -209.000; -144.000
369.558;  -16.925; -593.000; -377.000
369.689;  -82.400; -721.000; -569.000
369.821; -114.325; -951.000; -845.000
369.952;   -7.300;   42.000; -108.000
370.083;  -50.525; -229.000; -108.000
370.214;  -73.975; -735.000; -650.000
370.345;   -4.025;   65.000;   81.000
370.477;  -61.975; -810.000; -790.000
370.608;  358.700; -328.000; -264.000
370.739;   15.400;-1233.000;-1292.000
370.870;   19.450;-1102.000; -923.000
371.001;  162.825; -378.000; -467.000
371.132;  -47.150; -754.000; -735.000
371.263;   -6.150;  -42.000; -148.000
371.394; -117.150; -841.000; -748.000
371.525;   40.750;  345.000;  225.000
371.657;  -75.125; -808.000; -670.000
371.788;   96.675;  103.000;  199.000
371.919;  254.650; -384.000; -304.000
372.050; 4847.400;  -91.000; -156.000
372.181; 1526.475; -188.000; -294.000
372.311;  538.200;   42.000; -127.000
372.442;   95.900; -457.000; -451.000
372.573;   -0.650; -444.000; -340.000
372.704; -104.125;-1008.000; -980.000
372.835;  142.325; -228.000; -289.000
372.966;  -31.725; -646.000; -554.000
373.097;  -28.700; -575.000; -711.000
373.228;   12.125; -717.000; -542.000
373.359;  242.800; -824.000; -536.000
373.490; 1372.625; -881.000; -727.000
373.620; 1734.375;-1001.000; -803.000
373.751; 2582.025; -332.000; -396.000
373.882; 1225.525; -663.000; -733.000
374.013;  146.350; -449.000; -262.000
374.143;  -14.900; -581.000; -659.000
374.274;  -76.975; -987.000; -908.000
374.405;  256.900; -388.000; -276.000
374.536;  663.175; -526.000; -387.000
374.666; 1708.925; -759.000; -807.000
374.797;  391.250; -817.000; -868.000
374.928; 1304.925; -710.000; -560.000
375.058; 1326.600; -535.000; -500.000
375.189;  136.600;  -59.000;  -93.000
375.320;  -73.950; -928.000;-1034.000
375.450;  -20.675; -625.000; -616.000
375.581;  -44.825; -526.000; -436.000
375.712;   -6.775; -574.000; -250.000
375.842;  479.975; -438.000; -415.000
375.973;  359.025; -554.000; -513.000
376.103;   21.150; -665.000; -648.000
376.234;  -62.425; -531.000; -552.000
376.364;   19.575; -944.000; -867.000
376.495;  432.400;  925.000;  529.000
376.625;   73.975; -472.000; -485.000
376.756;  125.150; -709.000; -678.000
376.886;  -29.875;-1178.000;-1026.000
377.017;    2.925;-1048.000;-1061.000
377.147;  232.400; -786.000; -782.000
377.278;   52.750;  174.000;  228.000
377.408; -117.275; -801.000; -815.000
377.538;  -83.100; -707.000; -693.000
377.669;  -85.250; -537.000; -613.000
377.799;  -63.650; -645.000; -635.000
377.929;  -12.425; -610.000; -428.000
378.060; -103.000; -781.000; -847.000
378.190;  -46.175; -726.000; -531.000
378.320;  -35.925; -401.000; -406.000
378.451;   19.175; -131.000;  -22.000
378.581;   14.275;  -67.000; -110.000
378.711;  200.950; 1035.000;  866.000
378.841;   18.800; -533.000; -675.000
378.972;  -34.725; -871.000; -751.000
379.102;   47.950; -652.000; -579.000
379.232;   12.700; -126.000;  -73.000
379.362;  -78.250;-1001.000; -885.000
379.492;   56.400; -373.000; -424.000
379.623;  156.825;    0.000;  111.000
379.753;  -61.575;-1107.000; -974.000
379.883;  267.650;   59.000;  156.000
380.013;   83.600;-1081.000;-1017.000
380.143;  -65.475;-1097.000;-1056.000
380.273;  -57.150; -985.000; -861.000
380.403;   10.050; -344.000; -257.000
380.533;   20.100; -651.000; -664.000
380.663;  118.875;  173.000;  128.000
380.793;  -47.975;-1027.000;-1074.000
380.923;   -5.050; -103.000;  -34.000
381.053;  -71.175; -613.000; -623.000
381.183;  -10.450; -106.000; -248.000
381.313;  102.425; -656.000; -470.000
381.443;  102.300; -692.000; -473.000
381.573;  344.075; -402.000; -409.000
381.703;  552.475;-1249.000;-1095.000
381.833;  -61.850;-1454.000;-1336.000
381.963;  164.050; -134.000;  -87.000
382.093; 1830.700; -925.000; -909.000
382.223;  644.825; -713.000; -602.000
382.353;   39.250; -801.000; -608.000
382.482;  626.125;-1091.000; -964.000
382.612; 1083.925; -872.000; -644.000
382.742;  622.750; -695.000; -622.000
382.872;  448.375; -565.000; -551.000
383.002;  103.200;  347.000; -132.000
383.131;    5.350; -226.000; -160.000
383.261;   -9.200; -706.000; -768.000
383.391;  288.975; -552.000; -377.000
383.521; 2308.475;  451.000;  263.000
383.650;  518.475; -947.000; -904.000
383.780;  -31.600; -783.000; -656.000
383.910;  119.500;  880.000;  802.000
384.039;   92.925; -794.000; -656.000
384.169;  380.725;-1205.000;-1017.000
384.299;   35.675; -650.000; -662.000
384.428;  -57.325; -764.000; -680.000
384.558;  -24.500; -308.000; -275.000
384.687;    7.400; -414.000; -334.000
384.817;   42.975;   75.000;   -2.000
384.947;   56.325; -234.000; -141.000
385.076;  372.075;  982.000;  912.000
385.206;  132.000;  369.000;  480.000
385.335;    0.975; -549.000; -417.000
385.465;  -34.200; -655.000; -663.000
385.594;  212.850;  -53.000;  -44.000
385.724;  720.700; -868.000; -838.000
385.853;  224.225; -296.000; -270.000
385.982; 1953.000; -743.000; -787.000
386.112; 3126.475;-1052.000; -871.000
386.241;  267.925; -307.000; -312.000
386.371;   68.425; -174.000;  -87.000
386.500;   40.925; -825.000; -789.000
386.629;   43.075; -874.000; -817.000
386.759;   69.975;  -43.000;   68.000
386.888;   34.350; -170.000; -250.000
387.017;  -40.925; -648.000; -620.000
387.147;  -50.975; -771.000; -798.000
387.276;   49.000; -410.000; -397.000
387.405;   70.125; -398.000; -342.000
387.535;   -9.125; -452.000; -361.000
387.664;  -41.150; -692.000; -620.000
387.793;  119.425; -198.000; -113.000
387.922;  771.625;  255.000;  200.000
388.052;  108.725; -576.000; -423.000
388.181;   89.050; -342.000; -472.000
388.310;  138.125; -889.000; -710.000
388.439;   14.800; -749.000; -742.000
388.568;  283.875;  365.000;  244.000
388.697; 1607.675; -756.000; -653.000
388.826;  393.550; -768.000; -666.000
388.956;  125.875; -285.000; -307.000
389.085;    1.250; -347.000; -287.000
389.214;  -91.575; -842.000; -872.000
389.343;  -57.000; -645.000; -413.000
389.472;  329.300;  126.000;  149.000
389.601;  482.150;   91.000;    0.000
389.730;   61.175; -568.000; -687.000
389.859;   99.650;  226.000;   46.000
389.988;  290.850; -423.000; -408.000
390.117;  232.350; -168.000; -146.000
390.246;   18.000; -331.000; -320.000
390.375;  208.950; -673.000; -626.000
390.504;  -43.850; -703.000; -621.000
390.633;  -77.600; -672.000; -726.000
390.761;  -32.450; -732.000; -645.000
390.890;   74.675;   -4.000; -130.000
391.019;    3.175; -421.000; -441.000
391.148; -105.350; -826.000; -855.000
391.277;  -36.325; -576.000; -493.000
391.406;  -37.125; -821.000; -805.000
391.534;   31.800;  574.000; -301.000
391.663;  -31.700; -583.000; -645.000
391.792;  -76.950; -673.000; -701.000
391.921;  205.775;   -3.000;   15.000
392.050;  362.575; -287.000; -228.000
392.178;   46.425;-1206.000;-1061.000
392.307;  276.000; -758.000; -712.000
392.436;  161.025; -427.000; -641.000
392.564;   35.375;  166.000;   -6.000
392.693;  -59.900; -860.000; -682.000
392.822;  339.900; -529.000; -534.000
392.950;  218.275; -880.000; -714.000
393.079;  509.950; -188.000; -328.000
393.208;  100.950; -488.000; -511.000
393.336;  -13.200; -170.000; -145.000
393.465;  -36.900; -317.000; -199.000
393.593;   11.950;   62.000;   79.000
393.722; -140.375;-1121.000; -916.000
393.850;  -33.525; -188.000;  -61.000
393.979; -140.650; -926.000; -805.000
394.107;  -56.050; -517.000; -537.000
394.236;    7.700; -570.000; -507.000
394.364;  273.850;  383.000;  206.000
394.493;  525.025; -911.000; -767.000
394.621;   -1.875; -955.000; -916.000
394.750;  514.675; -873.000; -923.000
394.878; 2314.225; -247.000; -149.000
395.007; 3154.675; -721.000; -807.000
395.135;  263.075; -790.000; -721.000
395.263;  -85.150;-1038.000;-1040.000
395.392;   11.900;  -25.000; -107.000
395.520; -135.600; -818.000; -679.000
395.648;  -63.675; -865.000; -915.000
395.777;   22.650; -366.000; -405.000
395.905;  -23.950; -449.000; -564.000
396.033;   25.700;  217.000;  172.000
396.162;  779.875; -399.000; -453.000
396.290;  718.600;  -17.000;   -2.000
396.418;  205.050; -555.000; -514.000
396.546;  -42.275; -571.000; -466.000
396.674;  -85.325; -850.000; -878.000
396.803;   23.450;  -72.000;  -23.000
396.931;  168.825; -179.000; -199.000
397.059;  174.375;-1026.000; -989.000
397.187;  -78.150;-1026.000; -975.000
397.315; -117.575; -884.000; -649.000
397.443;  -79.525; -592.000; -443.000
397.572;  -71.725; -578.000; -424.000
397.700;   53.300; -607.000; -614.000
397.828;   62.600;  120.000;  -90.000
397.956;  -40.100; -508.000; -478.000
398.084;  -74.125; -767.000; -626.000
398.212;   65.125;  137.000;  124.000
398.340;   34.625;  -56.000;  159.000
398.468;   83.375; -390.000; -169.000
398.596; -117.050; -993.000; -953.000
398.724; -109.050; -762.000; -767.000
398.852; -164.225;-1024.000; -976.000
398.980;  -55.925; -560.000; -560.000
399.108;   -9.800; -982.000; -735.000
399.236;   62.550;   13.000;    8.000
399.363;   17.500;  222.000;  196.000
399.491;  -46.525; -404.000; -398.000
399.619; -103.900; -829.000; -800.000
399.747;  -84.450; -859.000; -771.000
399.875;  105.450;  220.000;  234.000
400.003;  -35.100; -359.000; -284.000
400.130;  -82.300; -421.000; -341.000
400.258;  -32.550;  -83.000;   38.000
400.386;  -81.275; -352.000; -168.000
400.514;  -12.525; -526.000; -587.000
400.641;  -32.325; -928.000; -802.000
400.769; -125.575; -979.000; -888.000
400.897;  -64.425; -838.000; -793.000
401.025;   -2.175; -166.000; -152.000
401.152;  -14.325;  220.000;   38.000
401.280;  -73.800; -430.000; -429.000
401.408;  -94.675; -712.000; -576.000
401.535;  -86.725; -735.000; -758.000
401.663; -186.350;-1134.000;-1054.000
401.790;  -74.125; -514.000; -525.000
401.918;   49.800;  436.000;  405.000
402.046;  -25.025;  134.000;  122.000
402.173;  -29.075;  -18.000;    7.000
402.301;  -54.625; -519.000; -397.000
402.428;   29.200;  528.000;  383.000
402.556; -134.500;-1188.000; -913.000
402.683;  -30.575;  -20.000;   -1.000
402.811;  -19.600;  -37.000; -206.000
402.938;  -11.950;   20.000;   27.000
403.066;  302.450; -574.000; -558.000
403.193;  484.275;  299.000;  239.000
403.321;  384.625; -396.000; -574.000
403.448;  457.025;   83.000;   27.000
403.575;  225.500;  -90.000;  -46.000
403.703;  -79.150; -732.000; -557.000
403.830;  -57.250; -531.000; -496.000
403.957; -140.900;-1117.000;-1023.000
404.085;   19.425;  -61.000; -172.000
404.212;  114.700;  -50.000;   63.000
404.339;  199.000; -566.000; -306.000
404.467; 4337.450; -612.000; -524.000
404.594; 3597.000; -287.000; -227.000
404.721; 1075.125; -869.000; -764.000
404.848;   93.125; -113.000; -202.000
404.976;  -81.450; -856.000; -783.000
405.103;   -4.525;  -14.000;  -82.000
405.230;    8.975;  190.000;  226.000
405.357;   31.825;  117.000;   44.000
405.484;  199.500;  -49.000;    5.000
405.612;   46.650; -548.000; -563.000
405.739;  -51.550; -488.000; -243.000
405.866;   84.525;  669.000;  385.000
405.993;  -27.375; -398.000; -102.000
406.120; -130.825; -801.000; -887.000
406.247;  -47.525; -323.000; -342.000
406.374;  635.625;  540.000;  629.000
406.501;  255.575; -632.000; -702.000
406.628;  -72.825; -621.000; -589.000
406.755;  -80.500; -803.000; -620.000
406.882;  -33.125; -228.000; -277.000
407.009; -104.400; -719.000; -628.000
407.136;  106.750; -480.000; -401.000
407.263;  286.825; -939.000; -829.000
407.390;  -40.750; -692.000; -614.000
407.517; -137.025;-1139.000;-1187.000
407.644;  -48.875; -332.000; -256.000
407.771; -124.150; -249.000; -287.000
407.898;   17.400;  168.000;  328.000
408.025;  -54.800; -421.000; -313.000
408.151;    8.775;   82.000;  153.000
408.278;  -52.775; -267.000; -216.000
408.405; -105.675; -931.000; -899.000
408.532;  -60.025; -549.000; -542.000
408.659; -111.825; -677.000; -648.000
408.785; -195.425;-1298.000;-1170.000
408.912;  -52.975; -412.000; -296.000
409.039; -101.650; -610.000; -686.000
409.166; -101.100; -591.000; -555.000
409.292;  -97.000; -571.000; -534.000
409.419; -112.350; -665.000; -649.000
409.546;  -87.325; -431.000; -192.000
409.672; -106.600; -713.000; -545.000
409.799;  -18.875;  -36.000;   34.000
409.926;  -34.600; -180.000; -179.000
410.052; -170.100;-1127.000;-1091.000
410.179;  -47.450; -368.000; -392.000
410.305;  -90.325; -375.000; -493.000
410.432;  -29.700; -220.000; -333.000
410.558;  -80.850; -305.000; -380.000
410.685; -116.875; -688.000; -431.000
410.812;  -99.025; -409.000; -588.000
410.938; -128.875; -964.000; -808.000
411.065;  -79.975; -671.000; -645.000
411.191;  -13.825; -189.000; -174.000
411.317; -111.250; -823.000; -742.000
411.444;  -63.100; -317.000; -246.000
411.570;  -68.200; -339.000; -294.000
411.697; -123.000; -758.000; -752.000
411.823; -168.075; -989.000; -999.000
411.949;   -8.225;  -56.000;   17.000
412.076;  -97.925; -539.000; -519.000
412.202; -106.250; -758.000; -757.000
412.329; -112.975; -798.000; -752.000
412.455; -104.950; -821.000; -657.000
412.581;  -22.025;  -15.000;  172.000
412.707;  -42.925; -540.000; -457.000
412.834;   42.700;  156.000;  219.000
412.960;  -81.025; -785.000; -784.000
413.086;  -92.225; -743.000; -701.000
413.212;  195.150;  604.000;  578.000
413.339;  -32.100; -685.000; -701.000
413.465;   30.950; -364.000; -310.000
413.591;  -60.675; -757.000; -474.000
413.717;  -38.575; -358.000; -366.000
413.843; -139.650; -839.000; -861.000
413.969;  -52.950;  -47.000; -292.000
414.096; -109.375; -679.000; -679.000
414.222;  -20.025;  -33.000;   85.000
414.348;    9.675; -652.000; -385.000
414.474;  175.000;   38.000;  -52.000
414.600;    0.275; -126.000; -144.000
414.726;  -12.475;  -96.000;  -55.000
414.852;  -60.925; -365.000; -342.000
414.978;   39.075;  104.000;  -18.000
415.104;   24.600;   38.000;   80.000
415.230;   17.475; -329.000; -330.000
415.356;   52.725; -409.000; -514.000
415.482;  202.450;   13.000;  -35.000
415.608;  224.200; -247.000; -323.000
415.734;  800.050;   67.000;   38.000
415.860;16554.800; -875.000; -767.000
415.986;12851.250; -685.000; -607.000
416.111; 1115.025; -798.000; -652.000
416.237;  196.525; -424.000; -571.000
416.363;  816.225; -765.000; -733.000
416.489; 3266.375; -324.000; -251.000
416.615;  355.700; -707.000; -742.000
416.741;  -43.375; -677.000; -784.000
416.866;  -96.250; -673.000; -736.000
416.992; -120.325; -801.000; -818.000
417.118;  -29.025;  -41.000;  -80.000
417.244;  -48.925; -798.000; -531.000
417.369;  -69.000; -801.000; -612.000
417.495;   20.200; -325.000; -254.000
417.621;  -63.975;-1015.000; -803.000
417.746;   19.200; -579.000; -572.000
417.872;   47.625; -254.000; -144.000
417.998;   29.150; -515.000; -530.000
418.123;  751.450;-1073.000; -845.000
418.249; 4269.400; -512.000; -601.000
418.374;  625.975; -916.000; -824.000
418.500;   80.275; -383.000; -482.000
418.626;  103.100;   70.000;  -59.000
418.751;  116.100; -549.000; -448.000
418.877;  157.375; -637.000; -643.000
419.002; 1361.425; -688.000; -560.000
419.128; 9803.675; -930.000; -721.000
419.253; 2567.700; -967.000; -837.000
419.379;  327.775; -391.000; -338.000
419.504;  308.000;  325.000;  415.000
419.629;  393.525; -393.000; -212.000
419.755; 2427.575; -317.000; -254.000
419.880;15297.750;  -98.000;   67.000
420.006; 8949.075; -280.000; -221.000
420.131;24389.875; -662.000; -775.000
420.256; 3781.375; -315.000; -316.000
420.382;  511.500; -665.000; -687.000
420.507;   64.450; -649.000; -778.000
420.632;  209.425; -337.000; -339.000
420.758;  441.225; -251.000; -425.000
420.883;  -60.050; -876.000; -672.000
421.008;  -90.225; -775.000; -619.000
421.133;  -62.375; -509.000; -467.000
421.259;  -49.375; -325.000; -259.000
421.384;  -97.200; -834.000; -693.000
421.509;    7.425;-1052.000; -862.000
421.634; 1910.750; -936.000; -820.000
421.759;  894.375; -359.000; -327.000
421.885;   -6.575; -717.000; -656.000
422.010;  -43.875; -673.000; -542.000
422.135; -136.750; -695.000; -727.000
422.260;   33.975;  340.000;  280.000
422.385;  -33.025;   12.000;  -98.000
422.510;   10.850;  151.000;  -26.000
422.635;   43.100;  -87.000;  -43.000
422.760;  137.350; -766.000; -791.000
422.885;   75.750;  -57.000;  -80.000
423.010;  -30.175; -112.000; -169.000
423.135;  -90.725; -481.000; -561.000
423.260;   13.625; -150.000; -245.000
423.385;   76.300;  476.000;  222.000
423.510;   51.125;   71.000;  -22.000
423.635;  120.100;  133.000;   45.000
423.760;   82.100;  383.000;  328.000
423.885;   44.700;  336.000;  391.000
424.010;   31.925;  -68.000;  -13.000
424.135;   -3.425;    5.000;  -33.000
424.259;  -89.850; -654.000; -457.000
424.384;  -56.625; -279.000; -272.000
424.509;   -4.675; -260.000; -186.000
424.634;  -93.000; -761.000; -623.000
424.759;  -24.325; -688.000; -544.000
424.883;   -5.925; -506.000; -527.000
425.008;  151.450; -502.000; -410.000
425.133; 1601.550; -679.000; -653.000
425.258;  792.950; -517.000; -381.000
425.382; 1267.575; -867.000; -774.000
425.507; 3552.025; -487.000; -543.000
425.632;  535.950; -802.000; -663.000
425.756;  358.525; -256.000; -146.000
425.881; 4254.775; -831.000; -857.000
426.006;12160.225; -604.000; -355.000
426.130; 2162.375; -696.000; -508.000
426.255;  268.250; -611.000; -491.000
426.379;  129.975; -189.000; -577.000
426.504;  318.450;  660.000;  544.000
426.629; 3352.875; -519.000; -466.000
426.753; 2499.525;   64.000;  -46.000
426.878;  290.475; -252.000; -288.000
427.002;  122.700; -651.000; -668.000
427.127; 1288.900;  -35.000; -158.000
427.251; 8915.400;  372.000;  401.000
427.375; 2829.000; -191.000; -173.000
427.500; 2888.050; -616.000; -610.000
427.624; 1112.000; -234.000; -400.000
427.749;  157.300; -216.000; -225.000
427.873;  -17.325; -499.000; -412.000
427.997;  -28.175; -222.000; -230.000
428.122;   90.075;  795.000;  703.000
428.246;   90.425;  433.000;  434.000
428.371; -114.100; -869.000; -773.000
428.495;  -98.700; -624.000; -646.000
428.619;  -12.900; -186.000; -117.000
428.743;   40.925;   65.000;  132.000
428.868;   62.900; -732.000; -643.000
428.992; 1900.175; -219.000; -326.000
429.116;  863.250; -329.000; -357.000
429.240;  420.325;  419.000;  426.000
429.365;   14.625; -454.000; -574.000
429.489;  -19.700; -638.000; -647.000
429.613;   29.425; -236.000; -177.000
429.737;   30.925; -563.000; -432.000
429.861;  228.875; -247.000; -133.000
429.985; 4329.125; -425.000; -305.000
430.109; 5096.300; -770.000; -908.000
430.234;  631.950;   76.000;  -50.000
430.358;   63.500; -250.000; -160.000
430.482;  -64.600; -672.000; -564.000
430.606;  -48.075; -655.000; -375.000
430.730;   57.775; -437.000; -388.000
430.854;  281.325; -909.000; -835.000
430.978;  -25.450; -795.000; -764.000
431.102;  -68.475; -499.000; -422.000
431.226;  -80.775; -874.000; -815.000
431.350;   57.625;  345.000;  422.000
431.474;  -54.325; -661.000; -373.000
431.597; -135.750;-1060.000; -848.000
431.721;  -77.275; -276.000; -267.000
431.845; -130.575; -704.000; -472.000
431.969;  -89.775; -304.000; -349.000
432.093;  -98.650; -395.000; -317.000
432.217;  -13.450;   32.000;   82.000
432.341;  -79.850; -523.000; -518.000
432.464;   14.400;   96.000;   40.000
432.588;  335.575; -401.000; -329.000
432.712;  181.100;  -52.000;  -52.000
432.836;   47.025;  213.000;  263.000
432.959;  -14.925; -372.000; -311.000
433.083;   50.975;   11.000;    2.000
433.207;  307.250;  285.000;  930.000
433.330; 3688.075; -391.000; -200.000
433.454; 4878.925; -654.000; -638.000
433.578; 2880.475;  583.000;  278.000
433.701;  596.325; -623.000; -675.000
433.825;  256.100; -292.000; -299.000
433.949;  340.000;   28.000;  -72.000
434.072;  183.975; -410.000; -323.000
434.196;    3.450; -309.000; -117.000
434.319; 3579.425;25482.000;25124.000
434.443;  682.150; -656.000; -603.000
434.566; 2166.050;  281.000;   62.000
434.690;  381.675; -637.000; -383.000
434.813;   67.525; -251.000; -173.000
434.937;  -62.425; -569.000; -696.000
435.060;   -6.175; -423.000; -332.000
435.184;  627.500; -492.000; -217.000
435.307;  354.275;  159.000;  102.000
435.431;   10.750;  -40.000;   24.000
435.554;  -72.575; -399.000; -240.000
435.677;  -83.400; -350.000; -258.000
435.801;  -46.325;  -25.000;   49.000
435.924;   21.925;    1.000;  -67.000
436.048;  -54.300;-1019.000; -732.000
436.171;  -70.400; -240.000;  -66.000
436.294;  -25.575; -248.000; -229.000
436.417;   42.850; -963.000; -849.000
436.541;  -87.925; -814.000; -840.000
436.664;  -43.375; -242.000; -316.000
436.787;   -8.850;   13.000;  113.000
436.910;  -90.250; -792.000; -422.000
437.034;   25.375;  142.000;  143.000
437.157;  128.025;  -11.000;    0.000
437.280;   -7.400; -392.000; -292.000
437.403;  -30.100; -982.000; -869.000
437.526; 1083.875; -903.000; -865.000
437.649; 3928.475; -505.000; -332.000
437.772;  712.100; -692.000; -540.000
437.896;  176.125;  700.000;  544.000
438.019;  -64.750; -758.000; -503.000
438.142;  -71.625; -596.000; -506.000
438.265;   45.925; -639.000; -670.000
438.388;  959.875; -520.000; -410.000
438.511;  262.975; -597.000; -394.000
438.634;  -25.500; -247.000; -125.000
438.757; -125.150; -693.000; -619.000
438.880;  -10.425;  -34.000;  -57.000
439.003;  -81.950; -417.000; -437.000
439.126;  -67.550; -287.000; -167.000
439.248;  -54.675;  -98.000; -139.000
439.371;  -48.750;    9.000;  -53.000
439.494;   15.100;  510.000;  439.000
439.617;  -53.075;   65.000;  -88.000
439.740; -166.750; -968.000; -816.000
439.863; -146.325; -755.000; -595.000
439.986; -124.400; -476.000; -431.000
440.108;  -43.925; -161.000; -112.000
440.231; -136.650; -950.000; -836.000
440.354;  -28.325;  -64.000; -150.000
440.477;  111.750; -566.000; -542.000
440.599;   67.450; -200.000; -225.000
440.722;  -98.525; -709.000; -586.000
440.845;   76.175;  751.000;  928.000
440.968; -107.650; -415.000; -311.000
441.090;  -66.325; -199.000;  -33.000
441.213; -163.750;-1021.000; -825.000
441.336;  -39.925; -159.000;   -5.000
441.458;  -62.275; -549.000; -396.000
441.581;  -57.000; -628.000; -629.000
441.703;  -71.200; -152.000;   13.000
441.826; -111.600; -557.000; -400.000
441.948;  -49.600;   56.000;   51.000
442.071;   28.300;  555.000;  424.000
442.193; -112.900; -531.000; -485.000
442.316;   24.250;  152.000;   97.000
442.438;   33.350; -233.000;  -10.000
442.561;   91.125;  272.000;  262.000
442.683;  901.625; -809.000; -522.000
442.806; 1914.475;   -8.000;   74.000
442.928;  183.075; -859.000; -604.000
443.051;  -33.325; -577.000; -373.000
443.173;  -86.125; -341.000; -339.000
443.295;  -78.850; -263.000; -371.000
443.418;  -58.050; -321.000;  -29.000
443.540;    5.625; -106.000;   -4.000
443.662; -110.750; -563.000; -465.000
443.785;  -20.550;  335.000;  199.000
443.907; -104.025; -362.000; -208.000
444.029; -123.375; -767.000; -494.000
444.152; -138.150; -644.000; -554.000
444.274;  -35.600;  -18.000;  -24.000
444.396; -110.825; -461.000; -221.000
444.518; -136.675; -691.000; -454.000
444.640; -112.750; -268.000; -111.000
444.763;  -23.950;  388.000;  249.000
444.885; -105.100; -432.000; -392.000
445.007;  -29.250;   35.000;   86.000
445.129; -118.200; -610.000; -515.000
445.251;  -95.025; -372.000; -439.000
445.373; -128.375; -537.000; -386.000
445.495;    6.975;  242.000;  350.000
445.617;   52.000;  853.000;  753.000
445.739;  -68.700; -215.000;  -97.000
445.861;  -23.450; -245.000; -112.000
445.984;  -14.475; -267.000; -101.000
446.105;  325.725; -418.000; -251.000
446.227;  941.900; -176.000;  -19.000
446.349;   88.650; -358.000; -249.000
446.471;  -74.750; -615.000; -448.000
446.593;  -58.100; -316.000;   19.000
446.715;   20.025;  -67.000;   41.000
446.837;   62.600;  697.000;  832.000
446.959;  -88.525; -457.000; -478.000
447.081; -116.600; -628.000; -518.000
447.203;   54.275;  862.000;  834.000
447.325;  -84.300; -270.000;   42.000
447.446;   -0.375;  286.000;  530.000
447.568; -150.725; -921.000; -803.000
447.690;  -76.050; -236.000; -245.000
447.812; -150.350; -798.000; -519.000
447.933;  -33.925;  155.000;  127.000
448.055;  -70.275; -306.000; -261.000
448.177;  214.425;   31.000;   79.000
448.299;  195.775; -935.000; -727.000
448.420;   43.025;  -25.000;  159.000
448.542;  -45.875;   -3.000;   33.000
448.664;  -23.275;  109.000;  322.000
448.785;  -40.825;  265.000;   83.000
448.907;  -73.650; -614.000; -353.000
449.028;    9.575; -771.000; -471.000
449.150;   75.275;  492.000;  589.000
449.272; -171.350;-1044.000; -913.000
449.393;   24.375;  612.000;  694.000
449.515; -136.650; -634.000; -581.000
449.636;  -45.825; -264.000; -155.000
449.758;  101.525;  763.000;  622.000
449.879;  -81.725; -498.000; -396.000
450.001;  -85.875; -149.000;  -49.000
450.122;  -35.025;  -95.000;  162.000
450.244;  -27.100;   37.000;  364.000
450.365;  -99.950; -495.000; -301.000
450.486;  -44.525;   80.000;  268.000
450.608;    8.100;  393.000;  326.000
450.729;   52.825;  578.000;  645.000
450.850;  -28.225; -574.000; -466.000
450.972;  464.750; -552.000; -389.000
451.093; 3476.050;  190.000;  588.000
451.214; 1625.250; -516.000; -337.000
451.336;  315.250;  773.000;  579.000
451.457;   53.550;  264.000;  393.000
451.578;  -48.375; -118.000;  -74.000
451.699; -127.450; -546.000; -540.000
451.821;  -69.900; -284.000;  -50.000
451.942;    0.150;  278.000;  285.000
452.063;   20.300;  228.000;  419.000
452.184;  407.525;  -54.000;  -49.000
452.305;  875.025;  103.000;  170.000
452.427;   99.200; -549.000; -301.000
452.548;  -17.025;   23.000;   79.000
452.669;  -43.750; -257.000;  -89.000
452.790;  -46.950;    3.000;  -18.000
452.911;  -10.075;  195.000;  259.000
453.032;  -58.125; -289.000;  -60.000
453.153;  -31.450;  -29.000;   81.000
453.274;   63.050;  737.000;  868.000
453.395;  -52.925;  -51.000;  175.000
453.516;  134.950; 1317.000; 1388.000
453.637;  -56.300; -205.000; -150.000
453.758;  -58.125;   15.000;   69.000
453.879; -122.725; -462.000; -250.000
454.000;   71.700; 1086.000;  948.000
454.121;  -92.900; -554.000; -326.000
454.242; -108.825; -599.000; -383.000
454.362;  -59.000;  -99.000;  114.000
454.483;  -29.750; -309.000; -229.000
454.604;   93.775;  512.000;  580.000
454.725; -118.300; -627.000; -555.000
454.846; -107.525; -474.000; -406.000
454.967;  -16.425;  230.000;  539.000
455.087;  -44.500;  179.000;  153.000
455.208;   10.200;  554.000;  856.000
455.329;  -63.475;  -22.000;   82.000
455.450;   19.100;  473.000;  633.000
455.570;  -80.550; -234.000; -211.000
455.691;  -33.975;  201.000;  407.000
455.812; -100.150; -270.000;  -92.000
455.932;  -66.575;  107.000;  -97.000
456.053;  -85.400;   36.000;   24.000
456.173; -116.750; -433.000; -355.000
456.294; -125.350; -476.000; -303.000
456.415;  -69.050;  -73.000;   70.000
456.535;  -36.075;  297.000;  273.000
456.656;  -40.300;  132.000;  240.000
456.776;  -80.025;    3.000;  298.000
456.897;   -9.700;  308.000;  513.000
457.017;  -76.550; -153.000;   -3.000
457.138;  -81.300; -402.000; -249.000
457.258;  -27.250;  263.000;  224.000
457.379;  -16.700;  509.000;  521.000
457.499;  -23.475;  443.000;  432.000
457.620; -125.450; -407.000; -231.000
457.740; -103.900; -132.000;  -11.000
457.860;  -60.825;   87.000;   44.000
457.981;  -33.100;  132.000;  124.000
458.101;  -65.750;  -89.000;   40.000
458.221;  -17.700;  336.000;  402.000
458.342;  -57.850;   -4.000;  -37.000
458.462;    8.900;  617.000;  352.000
458.582;  -70.275; -302.000; -294.000
458.703;  -15.475;  303.000;  154.000
458.823;  -47.050;   22.000;  163.000
458.943;   10.675;  341.000;  467.000
459.063;  -13.200; 1124.000;  192.000
459.183;  -24.325;  328.000;  313.000
459.304;   -0.100;  315.000;  517.000
459.424;  -75.125; -246.000;  -89.000
459.544;  247.575;  388.000;  764.000
459.664;  649.150;  499.000;  506.000
459.784;  266.825; 1004.000; 1175.000
459.904;   59.450;  867.000;  744.000
460.024;   75.900;  867.000;  684.000
460.144;   31.675;  449.000;  554.000
460.264;    0.600;  515.000;  327.000
460.385;  -85.700; -145.000; -119.000
460.505;   26.550;  905.000;  858.000
460.625;  -97.550;  -17.000;  -68.000
460.745;  -23.350;  396.000;  541.000
460.864;  -59.275;  153.000;  469.000
460.984;   31.700;  499.000;  573.000
461.104;  135.200; 1656.000; 1775.000
461.224;   13.025;  657.000;  650.000
461.344;  -34.075;  431.000;  360.000
461.464;  -21.500;  258.000;  513.000
461.584;   -7.400;  283.000;  466.000
461.704;  -35.725;   58.000;  108.000
461.824;  -55.225;  238.000;  259.000
461.943;  -42.625;  191.000;  130.000
462.063;  -83.075;    2.000;  324.000
462.183;   22.000;  639.000;  717.000
462.303;  113.300; 1678.000; 1230.000
462.422;   22.950;  781.000;  840.000
462.542;  -33.475;  271.000;  391.000
462.662;   34.850;  353.000;  380.000
462.782;  201.050;  833.000;  572.000
462.901;  384.950;  545.000;  717.000
463.021;  250.550; 1702.000; 1638.000
463.141;   -8.725;  337.000;  770.000
463.260;  -22.200;  614.000;  474.000
463.380;    8.300;  902.000;  884.000
463.499;  -48.725;  342.000;  332.000
463.619;  -39.950;  581.000;  559.000
463.738;  101.850; 1644.000;  903.000
463.858;   10.600;  657.000;  811.000
463.978;  -28.425;  542.000;  396.000
464.097;   32.400;  921.000; 1114.000
464.217;   88.975; 1196.000; 1143.000
464.336;  106.400; 1068.000; 1130.000
464.455;  -33.075;  328.000;  659.000
464.575;   56.475;  597.000;  602.000
464.694;  198.550; 1204.000; 1179.000
464.814;  120.875; 1190.000; 1138.000
464.933;   73.375; 1095.000; 1027.000
465.052;  103.125; 1412.000; 1054.000
465.172;   97.075;  922.000;  799.000
465.291;  146.200; 1376.000; 1320.000
465.410;   14.250;  462.000;  735.000
465.530;   91.075; 1355.000; 1310.000
465.649;   76.700; 1209.000; 1273.000
465.768;  154.675; 1673.000; 1508.000
465.888;   58.650;  941.000; 1174.000
466.007;   90.000; 1335.000; 1440.000
466.126;   -1.050;  721.000;  641.000
466.245;   48.650; 1176.000; 1187.000
466.364;   30.950;  950.000; 1060.000
466.484;   72.525; 1024.000; 1213.000
466.603;   33.025; 1101.000; 1222.000
466.722;  119.350; 1490.000; 1769.000
466.841;   87.925; 1151.000; 1401.000
466.960;   36.025; 1069.000;  972.000
467.079;  122.425; 1971.000; 1786.000
467.198;   52.850; 1238.000; 1181.000
467.317;   80.100; 1768.000; 1162.000
467.436;   73.150; 1709.000; 1261.000
467.555;  129.700; 1796.000; 1746.000
467.674;   73.025; 1227.000; 1329.000
467.793;   55.450; 1376.000; 1374.000
467.912;   77.525; 1658.000; 1539.000
468.031;  130.125; 2038.000; 1930.000
468.150;  144.800; 1842.000; 1837.000
468.269;  194.100; 2313.000; 2090.000
468.388;  192.525; 2168.000; 2339.000
468.507;  255.975; 2884.000; 2903.000
468.626;  268.700; 2555.000; 2541.000
468.744;  137.975; 2018.000; 2174.000
468.863;  197.950; 2312.000; 2523.000
468.982;  103.500; 1503.000; 1555.000
469.101;  228.775; 2788.000; 2692.000
469.220;  148.225; 2333.000; 2176.000
469.338;  242.550; 2935.000; 3051.000
469.457;  182.900; 2719.000; 2545.000
469.576;  341.050; 3953.000; 3784.000
469.695;  242.975; 2877.000; 3066.000
469.813;  435.175; 4148.000; 4192.000
469.932;  411.475; 4255.000; 4485.000
470.051;  410.775; 4075.000; 4161.000
470.169;  753.350; 4470.000; 4338.000
470.288; 1255.175; 4700.000; 4809.000
470.406;  799.950; 5059.000; 5194.000
470.525;  617.475; 6101.000; 5787.000
470.644;  640.850; 6847.000; 6794.000
470.762;  855.500; 8397.000; 7873.000
470.881;  894.275; 8651.000; 8464.000
470.999;  998.350; 9685.000; 9151.000
471.118; 1095.575;11174.000;10711.000

