
Integration time [ms]: 200.000
Averaging Nr. [scans]: 10
Smoothing Nr. [pixels]: 0
Data measured with spectrometer [name]: 2101012U2
Wave   ;Sample   ;Dark     ;Reference
[nm]   ;[counts] ;[counts] ;[counts] 

197.733;  122.800;  516.000;  404.000
197.879; -185.600; -610.000; -634.000
198.025; -121.000; -475.000; -420.000
198.171; -186.400; -602.000; -612.000
198.317;  -76.500; -401.000; -316.000
198.463; -152.300; -655.000; -404.000
198.609;   71.600;  181.000; -137.000
198.755; -166.100; -644.000; -410.000
198.901; -148.200; -505.000; -424.000
199.047; -127.300; -615.000; -488.000
199.193;  -63.800; -230.000; -468.000
199.339;  -78.600; -222.000; -369.000
199.485;   77.000;  330.000;  271.000
199.631;   41.400;  227.000;  310.000
199.777; -117.600; -466.000; -398.000
199.923; -137.800; -610.000; -424.000
200.069;   -6.900; -141.000;  -58.000
200.215;  119.700;  128.000;  453.000
200.361;   96.100;  243.000;  477.000
200.507; -123.700; -600.000; -373.000
200.653;  -64.900; -371.000; -194.000
200.798;  -83.200; -215.000; -125.000
200.944;  -31.800; -146.000;  -41.000
201.090;   80.200;   61.000;  222.000
201.236;   12.400; -116.000; -158.000
201.382;  227.800;  874.000;  903.000
201.528;   25.400;  -58.000;  -48.000
201.674; -123.500; -386.000; -293.000
201.819; -141.100; -540.000; -439.000
201.965; -151.600; -699.000; -447.000
202.111;  -65.600; -273.000; -226.000
202.257;  -65.900; -250.000; -238.000
202.402;   14.800;   13.000;  -36.000
202.548;  -32.400; -169.000; -116.000
202.694;  173.800;  410.000; -183.000
202.840; -153.000; -603.000; -531.000
202.985; -154.100; -681.000; -639.000
203.131; -271.200; -832.000; -666.000
203.277;  -25.000; -199.000; -262.000
203.423; -124.900; -434.000; -520.000
203.568;  -57.000; -462.000; -237.000
203.714; -125.800; -535.000; -542.000
203.860; -159.300; -682.000; -641.000
204.005;   35.300;  112.000;  167.000
204.151;  152.000;  561.000;  556.000
204.296; -120.500; -354.000; -221.000
204.442; -159.300; -600.000; -547.000
204.588; -175.800; -592.000; -579.000
204.733;   46.100;  178.000;  168.000
204.879; -268.300;-1018.000; -822.000
205.025;   23.600;  -99.000;  126.000
205.170;    1.600;  -17.000;   94.000
205.316;  176.400;  438.000;  661.000
205.461; -151.800; -698.000; -554.000
205.607;  143.900;  609.000;  665.000
205.752; -192.800; -626.000; -551.000
205.898; -118.600; -501.000; -391.000
206.043; -137.800; -578.000; -506.000
206.189; -107.000; -243.000; -285.000
206.334;  170.600;  554.000;  606.000
206.480;  148.700;  409.000;  239.000
206.625; -171.200; -529.000; -552.000
206.771;  -76.500; -451.000; -373.000
206.916;  -74.800; -210.000; -537.000
207.062; -162.900; -545.000; -591.000
207.207; -150.700; -546.000; -443.000
207.353;  121.900;  185.000;  460.000
207.498;   59.600;  196.000;   85.000
207.643; -100.300; -501.000; -370.000
207.789; -273.800;-1069.000; -910.000
207.934; -220.300; -665.000; -713.000
208.080;  -81.200; -154.000;   66.000
208.225;  -19.100;  -22.000;  -57.000
208.370; -190.300; -727.000; -619.000
208.516; -138.800; -741.000; -487.000
208.661;  -41.800; -127.000;  -69.000
208.806;  -67.600; -165.000; -171.000
208.952; -278.600;-1044.000; -731.000
209.097;  163.500;  378.000;  349.000
209.242;  -91.100; -307.000; -382.000
209.387;  121.900;  392.000;  350.000
209.533; -110.400; -321.000; -350.000
209.678;  141.200;  472.000;  543.000
209.823; -118.600; -408.000; -310.000
209.969; -208.800; -860.000; -757.000
210.114; -250.700; -907.000; -719.000
210.259; -219.000; -939.000; -889.000
210.404;   -7.400; -171.000;  103.000
210.549;   11.800;  108.000;    3.000
210.695;  -20.500;   -3.000;  -95.000
210.840;   72.700;   94.000;   67.000
210.985; -119.900; -484.000; -303.000
211.130;  155.600;  268.000;  406.000
211.275;   42.100;  207.000;  199.000
211.420;  -70.600; -300.000; -289.000
211.566; -149.000; -536.000; -489.000
211.711;   50.500;  218.000;  157.000
211.856; -134.500; -545.000; -519.000
212.001;    7.200;  151.000;   44.000
212.146;   -8.400;  153.000;   49.000
212.291;  -16.200; -210.000; -186.000
212.436;  -69.300; -280.000;   -6.000
212.581; -162.800; -685.000; -653.000
212.726; -163.500; -487.000; -538.000
212.871; -102.000; -552.000; -217.000
213.016; -316.100;-1172.000;-1029.000
213.161;  147.100;  406.000;  291.000
213.306; -146.100; -435.000; -577.000
213.451; -185.900; -778.000; -689.000
213.596;  -94.800; -455.000; -347.000
213.741; -124.000; -448.000; -538.000
213.886; -151.700; -498.000; -517.000
214.031;  -29.200; -294.000; -124.000
214.176; -112.300; -408.000; -341.000
214.321;  -57.200; -296.000; -157.000
214.466;  -54.000; -163.000;  -43.000
214.611;    1.200;  -61.000;  -10.000
214.756; -226.400; -948.000; -858.000
214.901;  -45.300; -388.000; -226.000
215.046; -275.300; -797.000; -825.000
215.191;   67.300;  128.000;   35.000
215.336;   -4.300; -157.000;  -19.000
215.480; -161.000; -684.000; -505.000
215.625;  -35.300; -175.000;  -19.000
215.770; -180.700; -757.000; -662.000
215.915;   12.700;   -5.000;  -97.000
216.060;   12.000; -113.000;  -21.000
216.205; -242.900; -731.000; -779.000
216.349; -153.300; -470.000; -533.000
216.494; -279.500; -939.000; -867.000
216.639; -268.700; -823.000; -888.000
216.784; -155.700; -577.000; -525.000
216.929;  135.200;  392.000;  281.000
217.073;  -66.400; -244.000;  -31.000
217.218;    2.300;   78.000;  -47.000
217.363; -158.100; -656.000; -618.000
217.507; -182.200; -623.000; -588.000
217.652; -244.000; -845.000; -874.000
217.797; -205.200; -708.000; -659.000
217.942; -254.800; -856.000; -720.000
218.086;  178.200;  608.000;  539.000
218.231;  -40.900; -174.000;  -26.000
218.376;  -35.200; -337.000; -229.000
218.520;   44.000;  -41.000;   96.000
218.665;  -73.400; -338.000; -204.000
218.810; -121.600; -275.000; -233.000
218.954;   31.300;  201.000;   35.000
219.099; -246.500; -713.000; -963.000
219.243; -146.000; -589.000; -554.000
219.388;  -69.600; -264.000; -136.000
219.532;   -3.500; -116.000; -116.000
219.677; -179.700; -564.000; -521.000
219.822;   29.100;   33.000;   89.000
219.966;   -5.000;   17.000;  -99.000
220.111;  -85.400; -328.000;  -40.000
220.255; -204.700; -797.000; -750.000
220.400;    7.700; -180.000; -146.000
220.544; -128.900; -516.000; -450.000
220.689;  -91.500; -422.000; -451.000
220.833;  -50.900; -123.000;  -58.000
220.978;  -69.600; -393.000; -563.000
221.122;   25.600;  319.000;  307.000
221.267; -229.100; -906.000; -837.000
221.411; -130.500; -478.000; -394.000
221.555;  -21.900; -104.000;  -23.000
221.700; -111.000; -329.000; -222.000
221.844;   95.400;  255.000;  272.000
221.989;  -62.800; -328.000; -311.000
222.133;  -63.000; -289.000; -307.000
222.277;   -9.300;    5.000;   78.000
222.422;   63.300;  227.000;  113.000
222.566;  -88.300; -381.000; -214.000
222.711;  -81.500; -414.000; -479.000
222.855; -168.900; -643.000; -586.000
222.999; -187.400; -642.000; -717.000
223.144;  -59.300; -195.000; -194.000
223.288;  125.400;  423.000;  251.000
223.432;   33.600;  184.000;  230.000
223.576;   14.000;  152.000;  -21.000
223.721;   71.700;  364.000;  273.000
223.865; -101.300; -472.000; -475.000
224.009;  493.200; 1673.000; 1631.000
224.153; -164.800; -660.000; -671.000
224.298; -105.900; -531.000; -489.000
224.442;    3.500;  -74.000;  -33.000
224.586;  -10.500; -169.000; -106.000
224.730; -212.800; -858.000; -670.000
224.875; -237.700; -739.000; -688.000
225.019;   44.800;  102.000;  188.000
225.163;   86.500;  208.000;  341.000
225.307;   56.500;   97.000;  -91.000
225.451;  104.900;  360.000;  481.000
225.595;   61.800;  264.000;  176.000
225.739;  -32.100; -170.000;  -94.000
225.884;   34.100;   86.000;    5.000
226.028; -200.400; -760.000; -626.000
226.172;  -71.800; -260.000; -273.000
226.316; -236.600; -941.000; -902.000
226.460; -153.600; -645.000; -493.000
226.604; -141.600; -406.000; -400.000
226.748; -212.000; -836.000; -733.000
226.892;  -43.100; -227.000; -181.000
227.036;  -75.400; -537.000; -447.000
227.180; -115.000; -551.000; -375.000
227.324; -132.400; -561.000; -580.000
227.468; -223.000; -819.000; -717.000
227.612;   35.000;  242.000;  -28.000
227.756; -217.900; -845.000; -698.000
227.900;  107.400;  342.000;  441.000
228.044; -123.000; -509.000; -290.000
228.188;  148.400;  448.000;  568.000
228.332; -174.300; -546.000; -472.000
228.476;  -51.900; -223.000; -149.000
228.620;  -48.300; -210.000; -150.000
228.764;  144.400;  431.000;  349.000
228.908;  -18.200; -155.000;   30.000
229.052; -133.500; -615.000; -528.000
229.195;  -34.200; -172.000;   13.000
229.339;  -38.600; -235.000; -305.000
229.483;  -59.700;    5.000; -162.000
229.627;  -11.900; -156.000;  139.000
229.771; -109.600; -218.000; -294.000
229.915;   33.700;  230.000;   79.000
230.059; -204.100; -648.000; -663.000
230.202;  -71.500; -370.000; -317.000
230.346;  -47.600; -107.000;  107.000
230.490; -125.800; -489.000; -521.000
230.634; -209.400; -736.000; -553.000
230.777;  147.900;  478.000;  509.000
230.921; -124.700; -450.000; -359.000
231.065;  -66.500; -246.000; -286.000
231.209;   66.000;  261.000;  265.000
231.352;   57.800;   54.000;   40.000
231.496;   48.500;  568.000;  188.000
231.640; -178.800; -693.000; -621.000
231.783;  121.700;  546.000;  525.000
231.927;  -54.400; -294.000; -365.000
232.071; -256.900; -962.000; -736.000
232.214; -267.900; -980.000; -764.000
232.358; -202.400; -683.000; -599.000
232.502;   29.100;  -19.000;    7.000
232.645; -300.400;-1090.000; -927.000
232.789;  -61.200; -257.000; -218.000
232.933; -117.200; -407.000; -224.000
233.076; -250.300;-1038.000; -897.000
233.220; -206.000; -752.000; -777.000
233.363; -153.400; -669.000; -477.000
233.507;  130.700;  371.000;  129.000
233.650; -211.200; -764.000; -834.000
233.794;  112.700;  438.000;  461.000
233.938; -130.800; -530.000; -362.000
234.081;  -10.900;  -93.000;   31.000
234.225; -132.800; -631.000; -539.000
234.368; -238.700; -773.000; -723.000
234.512;  -93.600; -385.000; -299.000
234.655; -172.200; -582.000; -555.000
234.798; -136.900; -493.000; -466.000
234.942; -285.100; -884.000;-1002.000
235.085; -128.800; -651.000; -443.000
235.229; -160.700; -405.000; -410.000
235.372;  -78.500; -247.000; -191.000
235.516; -111.400; -397.000; -321.000
235.659;   44.900;   92.000;  121.000
235.802;  -31.700;  -38.000;  -22.000
235.946;   80.900;  335.000;  215.000
236.089;   61.500;  126.000;  250.000
236.233;  103.800;  275.000;  298.000
236.376; -124.400; -235.000; -378.000
236.519;  -57.100; -297.000; -319.000
236.663;  -51.800; -215.000; -117.000
236.806; -279.500;-1029.000; -999.000
236.949;  122.900;  543.000;  431.000
237.092;  139.200;  412.000;  391.000
237.236; -177.700; -589.000; -502.000
237.379;  168.000;  352.000;  428.000
237.522; -244.500; -879.000; -768.000
237.666;  -43.600; -271.000;   18.000
237.809; -252.400; -851.000; -823.000
237.952;  110.700;  469.000;  271.000
238.095; -125.300; -447.000; -442.000
238.238;  205.100;  688.000;  700.000
238.382;   20.000;  166.000;  103.000
238.525; -125.900; -598.000; -511.000
238.668; -312.000;-1060.000; -985.000
238.811; -177.300; -638.000; -643.000
238.954; -116.400; -483.000; -334.000
239.097;  192.400;  617.000;  664.000
239.241;   72.200;  394.000;  326.000
239.384;  -52.400; -254.000; -214.000
239.527;  -88.100; -424.000; -224.000
239.670; -274.100; -994.000;-1091.000
239.813; -254.600; -696.000; -658.000
239.956;  203.600;  579.000;  473.000
240.099; -242.000; -778.000; -725.000
240.242;  134.500;  428.000;  432.000
240.385;   73.600;  466.000;  450.000
240.528; -155.800; -706.000; -473.000
240.671;   53.900;  189.000;  134.000
240.814;  -63.000; -441.000; -158.000
240.957; -217.200; -767.000; -578.000
241.100; -197.500; -779.000; -755.000
241.243; -286.300;-1234.000; -893.000
241.386; -122.200; -508.000; -379.000
241.529; -189.300; -735.000; -547.000
241.672; -149.300; -566.000; -495.000
241.815; -249.500; -832.000; -808.000
241.958;  -58.000; -125.000; -182.000
242.101; -168.700; -545.000; -390.000
242.244;  -63.900; -270.000; -325.000
242.387;  -55.500; -304.000; -246.000
242.530;  152.700;  470.000;  134.000
242.673; -117.900; -381.000; -309.000
242.815; -237.600; -925.000; -899.000
242.958; -127.000; -482.000; -381.000
243.101;   20.000;  132.000;  187.000
243.244; -161.700; -564.000; -521.000
243.387;  -64.800; -313.000; -316.000
243.530; -215.800; -657.000; -674.000
243.672;    7.300;   43.000;  -92.000
243.815;  -99.000; -355.000; -283.000
243.958;   14.300;   98.000;  -26.000
244.101;   10.800;   59.000;  -16.000
244.243;  -15.100;  -47.000;  101.000
244.386; -227.500; -761.000; -630.000
244.529;  -47.900; -132.000; -139.000
244.672; -305.400;-1154.000; -951.000
244.814; -202.100; -621.000; -794.000
244.957; -125.900; -380.000; -304.000
245.100; -142.200; -489.000; -489.000
245.242;  -91.200; -387.000; -374.000
245.385;  -17.500;  -59.000;  -39.000
245.528; -276.500; -871.000; -705.000
245.670;  212.900;  612.000;  634.000
245.813; -153.000; -599.000; -547.000
245.956;  -36.000; -324.000; -275.000
246.098; -182.100; -508.000; -650.000
246.241;   25.000;  194.000;   48.000
246.383;  -37.100; -119.000;  -73.000
246.526; -142.100; -454.000; -525.000
246.669; -259.400; -889.000; -780.000
246.811;   43.700;  172.000;   -1.000
246.954; -154.800; -512.000; -426.000
247.096;    6.000;  -84.000;   -6.000
247.239; -160.700; -482.000; -445.000
247.381; -119.600; -647.000; -488.000
247.524;  178.800;  645.000;  679.000
247.666;    3.000;   58.000;   11.000
247.809; -242.500; -887.000; -691.000
247.951;    6.500;  -75.000;  138.000
248.094;   49.000;  432.000;  308.000
248.236; -322.700;-1262.000;-1238.000
248.378;  -15.500; -356.000;  -81.000
248.521;  -12.700; -334.000; -337.000
248.663;  -86.300; -236.000; -267.000
248.806;  -31.600; -300.000; -266.000
248.948; -202.900; -886.000; -763.000
249.090;  -87.000; -428.000; -398.000
249.233;  -97.800; -344.000; -381.000
249.375; -128.100; -474.000; -451.000
249.518;  -40.700;  -83.000; -133.000
249.660;   40.100; -103.000;    3.000
249.802; -362.600;-1303.000;-1189.000
249.945; -146.700; -612.000; -540.000
250.087; -225.300; -834.000; -768.000
250.229; -104.900; -362.000; -480.000
250.371; -153.200; -494.000; -439.000
250.514; -110.100; -310.000; -244.000
250.656;    0.600;   69.000;  102.000
250.798; -231.400; -849.000; -800.000
250.940; -139.100; -322.000; -322.000
251.083;  -69.200; -335.000; -111.000
251.225;  100.800;  338.000;  310.000
251.367;  -59.900; -274.000; -373.000
251.509;  -38.600; -265.000; -210.000
251.651; -189.800; -731.000; -671.000
251.794;  135.800;  538.000;  632.000
251.936; -226.800; -821.000; -747.000
252.078; -156.000; -540.000; -461.000
252.220; -147.400; -645.000; -477.000
252.362;  140.800;  344.000;  462.000
252.504; -133.700; -677.000; -584.000
252.646; -201.500; -875.000; -722.000
252.788;    6.200;   14.000; -128.000
252.931;  -82.100; -257.000; -253.000
253.073;  -73.100; -376.000; -317.000
253.215;  -13.800;  141.000;  122.000
253.357;  -11.600;   82.000; -153.000
253.499; -128.100; -374.000; -234.000
253.641; -191.700; -749.000; -594.000
253.783; -208.100; -609.000; -527.000
253.925; -175.300; -586.000; -591.000
254.067; -227.200; -744.000; -667.000
254.209;  -41.500; -391.000; -259.000
254.351; -261.000; -865.000; -883.000
254.493; -120.500; -441.000; -417.000
254.635; -240.600; -936.000; -818.000
254.777; -156.900; -752.000; -687.000
254.918; -146.500; -512.000; -430.000
255.060;  -95.100; -551.000; -395.000
255.202; -113.400; -473.000; -261.000
255.344; -149.500; -658.000; -455.000
255.486; -131.800; -471.000; -406.000
255.628; -201.400; -780.000; -781.000
255.770; -186.700; -676.000; -536.000
255.912; -117.100; -559.000; -468.000
256.053; -161.200; -730.000; -508.000
256.195;  335.900; 1008.000;  903.000
256.337; -188.400; -861.000; -595.000
256.479;  139.800;  532.000;  416.000
256.621;  -96.600; -394.000; -212.000
256.762; -175.200; -789.000; -742.000
256.904;   91.900;  485.000;  487.000
257.046;  -70.500; -381.000; -271.000
257.188;  -88.100; -351.000; -264.000
257.329; -114.100; -525.000; -464.000
257.471; -247.100; -939.000; -807.000
257.613; -116.600; -584.000; -498.000
257.755; -285.900;-1073.000; -982.000
257.896;  107.600;  286.000;  392.000
258.038; -132.000; -403.000; -352.000
258.180;  -54.600; -354.000; -279.000
258.321; -152.500; -581.000; -457.000
258.463;   21.100;  -71.000;  133.000
258.605; -200.700; -562.000; -570.000
258.746; -170.100; -886.000; -772.000
258.888; -319.400;-1026.000;-1020.000
259.029;   67.800;  121.000;   -8.000
259.171; -174.800; -614.000; -550.000
259.313;  -24.700;  -49.000;  -47.000
259.454; -132.700; -536.000; -414.000
259.596; -121.700; -483.000; -390.000
259.737; -147.100; -590.000; -474.000
259.879;  104.100;  217.000;  311.000
260.020;  196.900;  901.000;  636.000
260.162;  -72.000; -146.000; -253.000
260.303; -207.700; -768.000; -687.000
260.445; -164.900; -609.000; -613.000
260.586;   80.600;  392.000;  157.000
260.728;  -71.000; -360.000; -248.000
260.869; -137.600; -350.000; -343.000
261.011;  205.800;  706.000;  537.000
261.152; -119.200; -479.000; -319.000
261.293; -118.800; -576.000; -595.000
261.435;  -49.500; -219.000; -184.000
261.576;  -93.600; -455.000; -325.000
261.718;  127.500;  420.000;  470.000
261.859; -233.100; -940.000; -949.000
262.000; -256.900; -951.000;-1016.000
262.142;  -26.600;  -52.000;  -60.000
262.283; -252.900; -808.000; -691.000
262.424; -175.400; -666.000; -625.000
262.566; -308.100;-1161.000; -983.000
262.707; -223.800; -840.000; -830.000
262.848; -260.200; -769.000; -726.000
262.990; -101.700; -362.000; -345.000
263.131;  173.200;  650.000;  681.000
263.272;   16.000;  -61.000;  -41.000
263.413; -179.400; -589.000; -561.000
263.555; -142.500; -669.000; -143.000
263.696; -179.600; -550.000; -641.000
263.837; -113.000; -449.000; -551.000
263.978;  -23.500;   -5.000;  -77.000
264.119;  -78.100; -283.000; -264.000
264.261; -204.800; -847.000; -630.000
264.402;   -1.500;   33.000;   40.000
264.543; -132.500; -509.000; -524.000
264.684;  -19.900;   61.000;  -50.000
264.825; -168.700; -816.000; -538.000
264.966;   20.300;  -84.000;  -67.000
265.107; -259.300; -646.000; -670.000
265.248; -237.600; -825.000; -812.000
265.390;    4.600;  152.000;   -9.000
265.531;  -30.600; -238.000; -107.000
265.672; -161.100; -557.000; -630.000
265.813;  182.800;  563.000;  439.000
265.954; -304.200; -959.000; -940.000
266.095;  -25.700; -372.000; -322.000
266.236; -213.400; -686.000; -548.000
266.377;  -72.300; -243.000; -297.000
266.518; -153.900; -619.000; -547.000
266.659;  103.200;  170.000;  268.000
266.800;   34.000;   83.000;   85.000
266.941; -144.700; -487.000; -478.000
267.082;   81.600;  354.000;   99.000
267.223;  -94.800; -344.000; -273.000
267.364; -236.800; -892.000; -686.000
267.504;  -19.100;    3.000;  135.000
267.645;    6.200;  160.000;   67.000
267.786;  -92.800; -147.000;  -86.000
267.927; -154.600; -473.000; -379.000
268.068;  -48.300; -186.000;  -61.000
268.209;  -66.200; -175.000; -413.000
268.350; -139.200; -388.000; -532.000
268.490; -175.500; -648.000; -521.000
268.631;   82.000;  127.000;  225.000
268.772; -208.300; -874.000; -647.000
268.913; -117.900; -328.000; -476.000
269.054;  -29.000; -117.000;   12.000
269.194;  -74.700; -418.000; -402.000
269.335; -324.600;-1137.000;-1074.000
269.476;   -0.600;   33.000;  -35.000
269.617;  -92.000; -347.000; -392.000
269.757; -189.900; -713.000; -646.000
269.898; -211.300; -856.000; -613.000
270.039; -100.300; -415.000; -405.000
270.180; -288.400; -952.000; -816.000
270.320;  -48.300; -190.000; -250.000
270.461;  -52.500; -277.000; -249.000
270.602;   10.600; -186.000; -156.000
270.742; -265.600; -868.000; -943.000
270.883;  -88.900; -442.000; -390.000
271.023; -115.900; -358.000; -357.000
271.164; -150.800; -607.000; -528.000
271.305; -190.600; -666.000; -654.000
271.445; -123.900; -722.000; -683.000
271.586; -151.800; -462.000; -283.000
271.726; -100.100; -397.000; -322.000
271.867; -148.700; -594.000; -534.000
272.008;  261.900; -473.000; -285.000
272.148;  233.000;  462.000;  468.000
272.289;   -2.300; -113.000; -181.000
272.429;   47.300;   19.000;  185.000
272.570; -157.100; -633.000; -737.000
272.710; -190.900; -825.000; -775.000
272.851;  -60.600;  113.000; -130.000
272.991; -319.300;-1173.000;-1077.000
273.131; -124.800; -419.000; -459.000
273.272; -170.300; -683.000; -723.000
273.412;   20.100; -143.000;  -31.000
273.553; -117.600; -488.000; -507.000
273.693;  282.700;  913.000;  858.000
273.834; -223.700; -894.000; -692.000
273.974; -153.900; -664.000; -615.000
274.114; -217.900; -772.000; -560.000
274.255;  135.700;  414.000;  373.000
274.395;   33.700; -180.000; -125.000
274.535;  110.500;  199.000;  350.000
274.676;   59.800;  225.000;   94.000
274.816;   46.400;  110.000;   34.000
274.956; -153.600; -624.000; -690.000
275.097; -161.600;-1014.000; -922.000
275.237; -225.100; -913.000; -803.000
275.377; -219.700; -778.000; -689.000
275.517; -295.200; -878.000; -937.000
275.658; -106.000; -590.000; -555.000
275.798; -165.200; -606.000; -413.000
275.938;   67.000;  215.000;  323.000
276.078; -154.600; -626.000; -395.000
276.218;   12.200;   99.000;  104.000
276.359; -286.900;-1026.000;-1024.000
276.499; -136.100; -605.000; -446.000
276.639;  -66.000; -305.000; -151.000
276.779;  -92.900; -475.000; -357.000
276.919; -188.000; -783.000; -624.000
277.059;  -48.800; -261.000; -212.000
277.199;  -84.400; -357.000; -259.000
277.340;   80.900;  287.000;  175.000
277.480; -241.000; -840.000; -693.000
277.620;   45.500;  192.000;   16.000
277.760; -395.100;-1533.000;-1294.000
277.900;   41.800;  113.000;   33.000
278.040;   44.900;  137.000;  159.000
278.180;   76.300;  270.000;  170.000
278.320;   17.500;   21.000;   56.000
278.460; -105.000; -443.000; -469.000
278.600; -171.800; -708.000; -598.000
278.740;  110.400;  448.000;  224.000
278.880; -140.700; -768.000; -791.000
279.020;   31.500; -194.000; -144.000
279.160; -172.600; -672.000; -595.000
279.300; -218.300; -926.000; -873.000
279.440; -177.900; -709.000; -622.000
279.579;  -97.200;-1014.000; -929.000
279.719;  -86.200; -410.000; -394.000
279.859;  128.700;   -4.000;   41.000
279.999;   33.300; -208.000;  101.000
280.139;  -57.500; -435.000; -387.000
280.279; -196.100; -708.000; -745.000
280.419;  -16.200; -229.000; -147.000
280.559;  -60.800; -259.000; -180.000
280.698; -161.800; -790.000; -639.000
280.838; -182.000; -778.000; -800.000
280.978; -197.300; -846.000; -790.000
281.118; -218.400; -811.000; -704.000
281.257;   30.100;   24.000;    6.000
281.397; -253.100;-1094.000; -960.000
281.537; -182.000; -599.000; -712.000
281.677;  -24.900; -150.000; -101.000
281.816; -169.000; -700.000; -630.000
281.956;  -51.100; -193.000; -257.000
282.096;  -89.000; -539.000; -396.000
282.235; -196.200; -672.000; -638.000
282.375;   17.100; -243.000;  -98.000
282.515; -242.600; -715.000; -707.000
282.654;   71.700;   29.000;  106.000
282.794;   72.100;  388.000;  244.000
282.934;  -91.300; -530.000; -491.000
283.073; -268.900;-1030.000; -857.000
283.213;  -81.600; -460.000; -467.000
283.353;  -84.000; -408.000; -349.000
283.492;  -71.000; -264.000; -296.000
283.632;  -52.500; -254.000; -168.000
283.771; -190.400; -859.000; -730.000
283.911;  -97.800; -369.000; -260.000
284.050; -189.800; -794.000; -748.000
284.190; -320.400;-1229.000;-1096.000
284.329; -283.800;-1055.000; -964.000
284.469; -140.600; -516.000; -591.000
284.608;  -98.100; -559.000; -598.000
284.748; -163.400; -614.000; -570.000
284.887;  -18.200;  -87.000;  -20.000
285.027; -240.900; -844.000; -892.000
285.166;  -39.400; -192.000; -249.000
285.306;   15.400; -116.000;  -33.000
285.445;  -71.700; -229.000; -343.000
285.584; -161.000; -630.000; -494.000
285.724;  -66.000; -282.000; -322.000
285.863; -220.800; -857.000; -507.000
286.002;  -97.400; -366.000; -276.000
286.142; -185.200; -715.000; -622.000
286.281; -126.000; -525.000; -493.000
286.420; -172.900; -554.000; -417.000
286.560;  241.200;  653.000;  623.000
286.699; -275.900; -958.000; -912.000
286.838; -181.100; -590.000; -591.000
286.978; -188.000; -533.000; -537.000
287.117; -253.000;-1085.000; -950.000
287.256;  -63.200; -228.000; -211.000
287.395;  -78.100; -197.000; -378.000
287.535;  -91.400; -370.000; -298.000
287.674; -139.600; -509.000; -484.000
287.813;  130.200;  661.000;  533.000
287.952; -240.700;-1010.000; -871.000
288.091; -304.400;-1049.000; -915.000
288.231;   39.500;   13.000;   15.000
288.370; -342.400;-1217.000;-1200.000
288.509; -181.100; -728.000; -645.000
288.648; -174.800; -770.000; -548.000
288.787;   -8.100; -243.000;  -87.000
288.926;  -89.500; -454.000; -475.000
289.065;  258.900;  859.000;  672.000
289.204; -116.000; -377.000; -217.000
289.344; -203.100; -791.000; -690.000
289.483;   74.100;  416.000;  304.000
289.622;  -42.500; -291.000; -149.000
289.761;  -10.100; -309.000; -166.000
289.900; -180.100; -785.000; -626.000
290.039;  -18.200;  -12.000;  -95.000
290.178;  -41.200; -274.000; -180.000
290.317; -175.700; -618.000; -479.000
290.456; -143.000; -463.000; -451.000
290.595; -265.800; -961.000; -833.000
290.734; -269.500; -904.000; -891.000
290.873; -116.500; -456.000; -420.000
291.011; -231.800; -833.000; -843.000
291.150; -231.200; -770.000; -682.000
291.289;  -12.000; -343.000; -110.000
291.428; -147.700; -599.000; -480.000
291.567;  -88.600; -370.000; -442.000
291.706;    0.700;  109.000;  154.000
291.845; -163.400; -597.000; -505.000
291.984; -321.200;-1234.000;-1061.000
292.122;  188.600;  602.000;  582.000
292.261;  137.900;  620.000;  463.000
292.400;   34.700; -144.000;  211.000
292.539; -245.200; -959.000; -813.000
292.678;  -54.800; -325.000; -300.000
292.816; -312.400;-1136.000; -965.000
292.955; -171.700; -844.000; -684.000
293.094;  -60.500; -173.000; -337.000
293.233; -123.800; -556.000; -400.000
293.371;  -55.600; -225.000;  -84.000
293.510; -175.900; -866.000; -780.000
293.649; -237.000; -959.000; -924.000
293.787; -184.700;-1083.000;-1012.000
293.926;   13.100; -113.000;  -32.000
294.065;  -84.900; -379.000; -290.000
294.203;  109.900;  298.000;  406.000
294.342;   82.800;   74.000;  156.000
294.481;11562.900;51180.000; -836.000
294.619;  -50.300; -425.000; -582.000
294.758; -287.500;-1230.000;-1137.000
294.896;   86.600; -125.000;    5.000
295.035; -283.400;-1040.000;-1006.000
295.174; -227.000;-1082.000; -954.000
295.312; -106.700; -323.000; -203.000
295.451;   -9.400; -307.000; -428.000
295.589;  -85.800; -389.000; -518.000
295.728;   73.600; -292.000; -165.000
295.866;   36.100;  -36.000;  -51.000
296.005; -135.200; -584.000; -341.000
296.143; -133.700; -558.000; -596.000
296.282; -186.900; -957.000; -881.000
296.420; -142.300; -657.000; -557.000
296.559; -162.700; -892.000; -633.000
296.697;   -9.400; -847.000; -665.000
296.835;   48.200;-1141.000;-1002.000
296.974;   77.800;  -23.000;   39.000
297.112;    2.400; -443.000; -504.000
297.251; -137.800; -815.000; -755.000
297.389;  106.800; -576.000; -438.000
297.527;  117.200; -145.000;  -83.000
297.666; -106.900; -486.000; -438.000
297.804;  -89.700; -404.000; -264.000
297.942;    2.800; -136.000; -161.000
298.081;   13.900; -183.000;   63.000
298.219;   94.800;  -17.000;  -19.000
298.357;   50.900; -144.000;  -71.000
298.495;   12.900; -810.000; -812.000
298.634;  157.400;  245.000;  219.000
298.772;   86.600; -220.000; -338.000
298.910;  -72.300; -309.000; -182.000
299.048;   15.900; -130.000; -153.000
299.187;  -93.700; -350.000; -250.000
299.325;   28.700;   52.000;  122.000
299.463;   22.900; -389.000; -299.000
299.601;  172.100; -327.000; -271.000
299.739; -224.300; -908.000; -883.000
299.877; -161.400; -791.000; -703.000
300.016; -130.100;-1095.000; -935.000
300.154;  232.100;  -19.000; -161.000
300.292;   77.400; -428.000; -348.000
300.430;   59.900; -408.000; -291.000
300.568; -226.800; -940.000; -874.000
300.706;  -76.800; -366.000; -469.000
300.844; -205.100;-1108.000; -979.000
300.982;  261.300;  246.000;  282.000
301.120; -218.000; -965.000; -866.000
301.258; -128.600; -812.000; -705.000
301.396;   48.900;  104.000;  -41.000
301.534;  106.900; -218.000; -293.000
301.672;  -52.200; -664.000; -521.000
301.810;   46.600; -613.000; -545.000
301.948;  258.800;   53.000;  149.000
302.086;  883.400; -250.000;  -32.000
302.224; 1393.300; -610.000; -585.000
302.362;   20.500; -558.000; -622.000
302.500;  -95.000; -923.000; -893.000
302.638;  183.300;  128.000;  245.000
302.776;  -24.600; -352.000; -408.000
302.913;  122.200;  447.000;  236.000
303.051;   -1.400;  -86.000;  -23.000
303.189;   98.700;   90.000;  118.000
303.327;  -86.000; -341.000; -256.000
303.465; -176.300; -832.000; -588.000
303.603; -177.100; -805.000; -604.000
303.740;  199.900;  417.000;  241.000
303.878;  -26.600; -800.000; -759.000
304.016; -169.200; -915.000; -790.000
304.154; -260.000;-1123.000;-1152.000
304.291;  -70.200; -505.000; -554.000
304.429;   49.200;  102.000;   74.000
304.567; -245.800; -908.000; -893.000
304.705; -122.000; -408.000; -515.000
304.842;  112.600; -616.000; -540.000
304.980;  105.900;  215.000;   35.000
305.118;   49.500; -367.000; -365.000
305.255; -170.100; -945.000; -927.000
305.393;  124.200;  178.000;  239.000
305.531; -218.400;-1173.000; -956.000
305.668; -136.500; -663.000; -582.000
305.806;  107.300; -358.000; -439.000
305.943;  134.700; -629.000; -637.000
306.081;   78.700; -378.000; -267.000
306.219; -208.200; -863.000; -748.000
306.356;   50.000;  158.000;   27.000
306.494;  242.400;  981.000;  761.000
306.631;   34.800;  -11.000;  -55.000
306.769;   11.200; -613.000; -485.000
306.906;  -33.300; -284.000; -258.000
307.044; -110.000; -473.000; -488.000
307.181; -101.500; -410.000; -332.000
307.319;  117.100;  112.000;   87.000
307.456; -347.000;-1191.000;-1153.000
307.594; -183.900; -980.000; -727.000
307.731;   -8.800; -371.000; -164.000
307.868;    8.500;  -15.000;   20.000
308.006; -242.900; -961.000; -847.000
308.143;  -97.600; -618.000; -330.000
308.281;  316.700;  -37.000; -254.000
308.418;  -21.600; -748.000; -640.000
308.555; -111.900; -400.000; -250.000
308.693; -109.700; -577.000; -573.000
308.830; -215.900; -712.000; -657.000
308.967;   31.200; -215.000;  -95.000
309.105;  -45.200; -507.000; -396.000
309.242;   79.000; -468.000; -367.000
309.379;  594.300; -577.000; -655.000
309.517; -107.000; -936.000; -948.000
309.654; -182.200; -910.000; -734.000
309.791;  -84.900; -662.000; -580.000
309.928; -235.700; -977.000; -914.000
310.065;  375.700;  819.000;  697.000
310.203;  -47.100; -825.000; -850.000
310.340;  -13.900; -465.000; -321.000
310.477; -154.200; -412.000; -516.000
310.614;  -86.900; -383.000; -473.000
310.751; -134.700; -427.000; -518.000
310.889;   13.000;    1.000;   11.000
311.026; -276.400;-1161.000; -939.000
311.163;  -72.500; -386.000; -380.000
311.300; -118.200; -512.000; -479.000
311.437; -124.000; -658.000; -619.000
311.574; -312.700;-1226.000; -985.000
311.711;  -69.500; -595.000; -433.000
311.848;  -48.100; -380.000; -388.000
311.985;   52.800;  270.000;   93.000
312.122; -207.700; -932.000; -762.000
312.259; -200.800; -941.000; -994.000
312.396; -123.300; -508.000; -551.000
312.533; -162.100; -812.000; -790.000
312.670; -255.000;-1070.000; -898.000
312.807;  -47.300; -352.000; -367.000
312.944; -128.300; -513.000; -611.000
313.081;  -16.800; -150.000; -415.000
313.218; -213.400;-1111.000; -867.000
313.355;   15.100; -531.000; -449.000
313.492;   25.500; -455.000; -292.000
313.629;  290.700;  815.000;  735.000
313.766; -297.600;-1176.000;-1008.000
313.902;   -6.700; -186.000;   21.000
314.039;  -88.300; -372.000; -289.000
314.176;   82.100;  286.000;  192.000
314.313; -135.400; -569.000; -473.000
314.450; -149.500; -788.000; -684.000
314.587;  -73.200; -468.000; -480.000
314.723;   20.800;  -78.000;  130.000
314.860;   67.700;  318.000;  332.000
314.997;   97.200;  223.000;  142.000
315.134;  -56.200; -385.000; -368.000
315.270;  -61.400; -480.000; -496.000
315.407; -232.700;-1094.000; -967.000
315.544;  -67.700; -657.000; -538.000
315.681; -108.000; -681.000; -565.000
315.817;   49.700; -133.000; -176.000
315.954;   14.600; -613.000; -392.000
316.091; -239.100;-1045.000;-1023.000
316.227;  -14.700;  -71.000; -179.000
316.364;   22.500;   23.000;    6.000
316.500;  -61.100; -113.000; -300.000
316.637;  -67.000; -181.000; -302.000
316.774; -180.300; -625.000; -358.000
316.910; -172.900; -598.000; -629.000
317.047; -123.000; -487.000; -351.000
317.183;  -97.200; -435.000; -566.000
317.320;   -7.500; -367.000; -321.000
317.456; -105.700; -733.000; -805.000
317.593; -152.700; -598.000; -641.000
317.729;    5.500;  168.000;  -67.000
317.866; -375.800;-1434.000;-1285.000
318.002; -167.700; -708.000; -948.000
318.139; -205.000; -883.000; -867.000
318.275; -218.200;-1003.000; -738.000
318.412; -105.100; -517.000; -336.000
318.548;  -80.200; -751.000; -720.000
318.685; -187.800; -985.000; -888.000
318.821; -188.500; -762.000; -735.000
318.957;   -1.500;   34.000;  -23.000
319.094;  110.200;  297.000;  154.000
319.230; -126.600; -756.000; -742.000
319.367;  193.200; -471.000; -520.000
319.503;   68.600; -538.000; -436.000
319.639; -191.200; -877.000; -793.000
319.775;  -98.000; -750.000; -685.000
319.912;  -89.100; -424.000; -519.000
320.048; -175.600;-1184.000;-1184.000
320.184;  142.000;   59.000;   70.000
320.321; -132.000; -497.000; -467.000
320.457;  153.800;  475.000;  662.000
320.593;  -90.300; -375.000; -382.000
320.729; -201.500; -732.000; -734.000
320.866; -125.900; -577.000; -635.000
321.002; -142.900; -759.000; -809.000
321.138;  -24.500; -135.000; -211.000
321.274;  122.700; -148.000; -115.000
321.410;  -70.400; -585.000; -353.000
321.546; -109.900;-1011.000; -911.000
321.683;  139.600;  400.000;  185.000
321.819;   33.700;  -48.000; -117.000
321.955; -173.500; -743.000; -722.000
322.091;  -78.100; -585.000; -540.000
322.227;   10.300; -382.000; -202.000
322.363;  -24.600; -320.000; -215.000
322.499;  -84.400; -343.000; -331.000
322.635;  312.700;  636.000;  443.000
322.771;   62.800; -139.000;   12.000
322.907;  180.200;  129.000;  327.000
323.043;  -38.200; -115.000; -206.000
323.179;  -87.900; -394.000; -363.000
323.315;  -20.100; -401.000; -371.000
323.451;  126.900; -328.000; -236.000
323.587;  118.100;  -60.000;  -77.000
323.723;   16.400; -682.000; -601.000
323.859;  -43.900; -258.000;  -76.000
323.995;  -72.900; -467.000; -409.000
324.131; -239.800; -967.000; -892.000
324.267;  -30.900; -254.000; -276.000
324.402; -249.900; -960.000; -983.000
324.538;    3.900; -279.000; -104.000
324.674;   49.500;  164.000;   77.000
324.810;  227.000;  226.000;  308.000
324.946;   -8.600; -810.000; -658.000
325.082; -127.600; -568.000; -475.000
325.217;  -12.200;  -62.000;   16.000
325.353; -192.200; -764.000; -659.000
325.489; -147.500; -540.000; -506.000
325.625;  -98.300; -579.000; -525.000
325.760;  136.200;  517.000;  376.000
325.896;  -17.100; -515.000; -702.000
326.032;  -72.500; -403.000; -352.000
326.168; -115.200; -462.000; -369.000
326.303;  -86.100; -352.000; -461.000
326.439;  -22.600; -336.000; -276.000
326.575;   25.000; -190.000;  -29.000
326.710;    7.800; -156.000;  -30.000
326.846;    6.600;  146.000;  103.000
326.982; -171.300; -530.000; -548.000
327.117;  -95.200; -481.000; -442.000
327.253; -136.300; -745.000; -742.000
327.388; -222.600;-1137.000;-1153.000
327.524;  -59.800; -811.000; -578.000
327.659;  -45.800;  -58.000;  -22.000
327.795;   25.600;   69.000;   45.000
327.931; -137.300; -723.000; -499.000
328.066;  -16.000; -417.000; -276.000
328.202;   14.600;   12.000; -129.000
328.337;  272.100;  957.000;  713.000
328.473;   36.700;  -12.000;  -74.000
328.608;  -37.400; -256.000; -267.000
328.743; -175.400; -799.000; -664.000
328.879;   59.500;  214.000;  114.000
329.014; -114.000; -102.000; -122.000
329.150; -123.300; -358.000; -483.000
329.285; -113.200; -465.000; -466.000
329.421; -103.800; -548.000; -246.000
329.556;  -13.400;  -36.000;   85.000
329.691; -154.800; -633.000; -615.000
329.827; -144.200; -626.000; -480.000
329.962;  -55.200;  131.000; -301.000
330.097; -149.800; -673.000; -585.000
330.233;  -73.200; -410.000; -223.000
330.368; -213.100; -839.000; -628.000
330.503;   17.700;    3.000;   98.000
330.638;   17.900;  -93.000; -125.000
330.774;  -83.300; -609.000; -530.000
330.909;  -44.100; -434.000; -244.000
331.044; -184.900; -714.000; -708.000
331.179; -311.200;-1217.000;-1109.000
331.315;   89.100;   77.000;   20.000
331.450;   63.100;  157.000;  285.000
331.585; -132.700; -805.000; -706.000
331.720; -143.300; -510.000; -460.000
331.855;    8.700;  -35.000; -102.000
331.990;  501.000;   62.000;  138.000
332.126;  264.400; -110.000;   71.000
332.261;   14.900; -379.000; -265.000
332.396;  -10.500; -135.000; -242.000
332.531; -173.900;-1074.000;-1031.000
332.666;   72.300; -519.000; -363.000
332.801; -171.600; -726.000; -807.000
332.936;  -17.100; -192.000; -122.000
333.071; -301.400; -870.000; -817.000
333.206;   79.300;  307.000;  379.000
333.341;   80.900;  344.000;  418.000
333.476; -170.400; -627.000; -623.000
333.611;  -54.700; -251.000; -173.000
333.746;  -76.700; -381.000; -464.000
333.881; -269.400; -973.000; -935.000
334.016; -253.300; -936.000; -917.000
334.151; -276.300; -746.000; -702.000
334.286;   51.700;  152.000;  186.000
334.421;   -9.600; -125.000; -178.000
334.556; -139.400; -611.000; -567.000
334.690; -141.200; -631.000; -577.000
334.825;  133.100;  381.000;   83.000
334.960; -100.900; -285.000; -413.000
335.095;   44.800;  135.000;  -91.000
335.230; -202.400; -722.000; -738.000
335.365; -283.400;-1084.000; -990.000
335.499; -299.500;-1108.000;-1037.000
335.634;   66.300;    9.000;  534.000
335.769; -208.100; -755.000; -720.000
335.904; -107.700; -603.000; -561.000
336.038;  -87.900; -735.000; -657.000
336.173; -246.400;-1206.000;-1194.000
336.308;   30.800; -116.000; -189.000
336.443;   48.900; -544.000; -634.000
336.577; -169.400; -936.000; -787.000
336.712;  125.100;   -4.000;  -12.000
336.847; -100.000; -724.000; -607.000
336.981;  101.500; -272.000; -208.000
337.116;  472.800;  615.000;  501.000
337.250;  226.000; -434.000; -421.000
337.385;  493.100; -297.000; -208.000
337.520;  188.800; -632.000; -603.000
337.654;  -45.700; -215.000; -126.000
337.789; -224.800; -989.000; -933.000
337.923;  -30.500; -104.000; -205.000
338.058; -146.700; -673.000; -738.000
338.192;  -79.300; -611.000; -488.000
338.327;   37.800;  -18.000; -155.000
338.461;  -93.500; -299.000; -469.000
338.596; -180.200; -780.000; -638.000
338.730; -211.300; -767.000; -803.000
338.865;  220.100;  -46.000; -140.000
338.999;  -55.000; -846.000; -702.000
339.134;  -52.800; -634.000; -536.000
339.268;   14.100; -741.000; -603.000
339.403;  646.700; -740.000; -775.000
339.537;  217.200; -894.000; -820.000
339.671; -181.000; -829.000; -813.000
339.806; -107.500; -556.000; -512.000
339.940;   48.400; -261.000; -235.000
340.074; -177.700; -685.000; -510.000
340.209;  -38.900; -351.000; -230.000
340.343; -158.600; -517.000; -573.000
340.477;  372.500;  998.000; 1036.000
340.612; -101.100;-1033.000; -900.000
340.746;  299.000; -199.000; -243.000
340.880; -149.900; -924.000; -785.000
341.014;   14.900;  -45.000; -154.000
341.149; -213.100; -756.000; -718.000
341.283; -224.400; -839.000; -754.000
341.417; -214.600;-1124.000; -938.000
341.551;  187.800; -768.000; -708.000
341.685;  -67.300; -633.000; -611.000
341.820;  -63.100; -562.000; -493.000
341.954;  -62.800; -218.000; -349.000
342.088; -294.600;-1102.000;-1019.000
342.222;  103.800;  565.000;  618.000
342.356; -101.800; -395.000; -335.000
342.490; -209.000; -880.000; -841.000
342.624;  -81.800; -339.000; -242.000
342.758;   13.200; -364.000; -312.000
342.892; -143.900; -710.000; -585.000
343.026;  -75.100;  -58.000; -116.000
343.160;  -78.100; -426.000; -376.000
343.294; -137.200; -474.000; -337.000
343.428;  -55.500; -488.000; -448.000
343.562;  -18.400; -172.000;  -23.000
343.696;  -49.500; -385.000; -314.000
343.830;  -26.400; -362.000; -356.000
343.964;    9.300; -231.000; -168.000
344.098; 1303.300;  199.000;   70.000
344.232; 1097.000; -266.000; -127.000
344.366;  150.300; -567.000; -453.000
344.500;   69.400; -665.000; -744.000
344.634;   47.900; -324.000; -164.000
344.768;  -21.200; -531.000; -341.000
344.902;   69.600;  278.000;  256.000
345.035; -134.800; -556.000; -496.000
345.169; -223.900; -933.000; -656.000
345.303;  -46.300; -308.000; -482.000
345.437; -135.200; -826.000; -717.000
345.571;  -96.300; -675.000; -594.000
345.704;  -98.200; -309.000; -532.000
345.838;   -0.600; -331.000; -284.000
345.972;  -58.100; -543.000; -495.000
346.106;  319.200; -179.000; -190.000
346.239;  761.300; -312.000; -243.000
346.373;   -7.900; -343.000; -302.000
346.507; -270.500; -950.000; -962.000
346.640;  242.200;  -30.000;   13.000
346.774; -120.300; -650.000; -797.000
346.908;  -26.800; -138.000;  -11.000
347.041; -179.600; -646.000; -593.000
347.175;   43.900;  259.000;   27.000
347.309; -155.600; -698.000; -628.000
347.442; -177.400; -883.000; -732.000
347.576;  485.100;  670.000;  668.000
347.709;  348.200; -123.000;  -52.000
347.843; -178.000; -933.000; -825.000
347.976;  112.000;  235.000;  294.000
348.110; -319.700;-1268.000;-1186.000
348.243; -179.800; -679.000; -772.000
348.377;   60.000;  -26.000;   60.000
348.510;  146.500;  403.000;  540.000
348.644;  -44.300;  -37.000; -159.000
348.777;   21.100;  180.000;  191.000
348.911;  -43.800; -142.000; -112.000
349.044;  309.500;  471.000;  448.000
349.178;  213.700;-1069.000;-1006.000
349.311;  244.100;  141.000;  255.000
349.444;    7.100; -927.000; -813.000
349.578;  -38.600; -347.000; -200.000
349.711; -185.400; -959.000; -862.000
349.845;  -69.800; -661.000; -591.000
349.978; -281.200;-1224.000;-1137.000
350.111; -123.700; -546.000; -612.000
350.244; -126.600; -596.000; -700.000
350.378;   -4.900; -392.000; -393.000
350.511;  -96.600; -393.000; -426.000
350.644; -181.700; -808.000; -806.000
350.778;   61.400;  168.000;  104.000
350.911;   51.000;  134.000;  140.000
351.044; -178.900; -685.000; -615.000
351.177;  -48.700; -321.000; -281.000
351.310;    9.600;    3.000; -131.000
351.444; -157.900; -888.000; -788.000
351.577;  161.900;  140.000;   90.000
351.710;  229.600;  593.000;  417.000
351.843;  -59.900; -165.000;  -77.000
351.976;   41.900;  149.000;  -79.000
352.109; -116.000; -621.000; -612.000
352.242;  -42.000; -464.000; -419.000
352.376; -115.600; -580.000; -636.000
352.509;  252.400; -437.000; -356.000
352.642;  -51.500; -654.000; -604.000
352.775;  107.800; -141.000;  -98.000
352.908; -207.600; -933.000; -904.000
353.041; -220.800; -814.000; -824.000
353.174; -126.400; -551.000; -424.000
353.307; -139.200; -753.000; -764.000
353.440;  129.100;  541.000;  453.000
353.573; -233.400; -957.000;-1008.000
353.706; -123.500; -384.000; -558.000
353.839;  -13.900; -264.000; -220.000
353.971; -163.000; -657.000; -512.000
354.104; -176.800; -896.000; -835.000
354.237; -110.400; -627.000; -662.000
354.370; -151.500; -846.000; -879.000
354.503; -348.000;-1231.000;-1308.000
354.636;  -11.900; -529.000; -348.000
354.769; -252.000; -937.000; -860.000
354.902;   15.900; -230.000; -139.000
355.034;  -11.000; -164.000; -220.000
355.167;   -7.400; -262.000; -162.000
355.300; -176.300;-1061.000; -880.000
355.433; 1836.900;  -71.000;  -14.000
355.565; 2917.300; -402.000; -384.000
355.698;  733.500; -356.000; -296.000
355.831;  -61.800; -882.000; -801.000
355.964;  145.400; -285.000; -170.000
356.096; -161.400; -856.000; -843.000
356.229;  -21.300; -523.000; -530.000
356.362;  598.100; -373.000; -266.000
356.494; 1177.900; -229.000; -162.000
356.627;  819.900;  269.000;  377.000
356.760; 1226.500;  120.000;   53.000
356.892; 1779.600; -286.000; -601.000
357.025; 1081.200;  403.000;  389.000
357.157;  930.700; -167.000; -179.000
357.290; 1228.400; -856.000; -713.000
357.423;  348.600; -667.000; -556.000
357.555;  183.400; -217.000; -228.000
357.688;  189.500; -483.000; -364.000
357.820;  628.800; -870.000; -877.000
357.953; 5475.100; -563.000; -589.000
358.085; 1094.100; -632.000; -612.000
358.218; 1587.000;-1131.000; -932.000
358.350;  289.000;  -58.000;  312.000
358.483; -243.900;-1300.000;-1187.000
358.615; -101.900;-1182.000;-1078.000
358.747; -132.900;-1187.000;-1058.000
358.880;  -21.400; -810.000; -744.000
359.012;    3.500; -376.000; -202.000
359.145;  -80.600; -480.000; -511.000
359.277;   25.700; -962.000; -913.000
359.409; 4549.800;  536.000;  231.000
359.542; 1119.800; -738.000; -688.000
359.674;  130.100;   46.000;   13.000
359.806; -120.900; -565.000; -438.000
359.939;  -97.000; -617.000; -516.000
360.071;    3.400; -583.000; -579.000
360.203;  -27.700; -411.000; -364.000
360.335;   97.800;  164.000;  -16.000
360.468;  279.000; -249.000; -307.000
360.600; 3669.500; -547.000; -454.000
360.732; 5302.300; -546.000; -423.000
360.864;  675.700;-1216.000;-1044.000
360.996;  408.500; -516.000; -554.000
361.129;   10.400; -389.000; -598.000
361.261;   50.000;  110.000; -113.000
361.393;  -35.200; -252.000; -214.000
361.525;   97.800;   94.000;  244.000
361.657;  -94.700; -821.000; -703.000
361.789;   58.000; -139.000; -155.000
361.921;  309.800; -642.000; -593.000
362.053;  468.800;  524.000;  541.000
362.185;  108.100;  288.000;   72.000
362.318; -143.200; -709.000; -705.000
362.450;  248.800;  294.000;  444.000
362.582;   80.700; -913.000; -870.000
362.714;  -54.500; -353.000; -332.000
362.846; -148.900; -606.000; -490.000
362.978; -271.700; -941.000; -811.000
363.109;   60.100; -161.000; -260.000
363.241;  651.400; -739.000; -749.000
363.373;  815.700; -649.000; -564.000
363.505; 1333.600; -186.000;  -91.000
363.637;  283.800; -787.000; -601.000
363.769; -265.300;-1067.000;-1080.000
363.901;  -95.300; -596.000; -654.000
364.033; -237.100;-1103.000;-1062.000
364.165;   32.200; -283.000; -283.000
364.296;  171.300; -316.000; -177.000
364.428;  110.900;-1344.000;-1220.000
364.560;  -94.100; -679.000; -661.000
364.692; -118.500; -738.000; -835.000
364.824;  341.000; -588.000; -456.000
364.955;  822.000; -402.000; -564.000
365.087; 1850.300;-1097.000; -852.000
365.219;   68.500; -686.000; -816.000
365.351; -105.200; -526.000; -572.000
365.482;  144.700;  300.000;  240.000
365.614;  -83.700; -402.000; -314.000
365.746; -141.800; -729.000; -752.000
365.877; -164.800; -706.000; -672.000
366.009;  565.900;  -35.000;  -62.000
366.141; -198.100;-1249.000;-1134.000
366.272; -205.100; -803.000; -719.000
366.404; -195.500;-1005.000; -874.000
366.535;   67.500; -139.000;  -12.000
366.667; -162.200; -644.000; -649.000
366.799;  131.800;  353.000;  203.000
366.930; -238.300; -862.000; -996.000
367.062;  222.200; -639.000; -613.000
367.193;  304.200; -872.000; -842.000
367.325;  -75.300; -580.000; -684.000
367.456;   84.900; -246.000;   31.000
367.588;  319.900; -371.000; -318.000
367.719;   39.700;  -44.000;  -45.000
367.851;   13.200; -222.000; -241.000
367.982; -131.000; -875.000; -732.000
368.113;  153.600; -475.000; -358.000
368.245; -272.600; -960.000; -841.000
368.376;    2.300; -254.000; -302.000
368.508;  -48.600; -188.000; -263.000
368.639; -259.900;-1166.000;-1034.000
368.770;  -25.700; -670.000; -589.000
368.902; -104.500; -836.000; -926.000
369.033; -206.700; -906.000; -855.000
369.164;  -60.000; -720.000; -653.000
369.296; -199.800; -452.000; -601.000
369.427;   35.900; -209.000; -144.000
369.558;  -85.100; -593.000; -377.000
369.689; -140.000; -721.000; -569.000
369.821; -240.400; -951.000; -845.000
369.952;   -5.500;   42.000; -108.000
370.083;  -79.800; -229.000; -108.000
370.214; -130.300; -735.000; -650.000
370.345;   24.900;   65.000;   81.000
370.477; -153.400; -810.000; -790.000
370.608;  336.400; -328.000; -264.000
370.739; -146.400;-1233.000;-1292.000
370.870; -110.500;-1102.000; -923.000
371.001;  123.000; -378.000; -467.000
371.132; -134.200; -754.000; -735.000
371.263;  -16.800;  -42.000; -148.000
371.394; -230.800; -841.000; -748.000
371.525;   78.600;  345.000;  225.000
371.657; -129.600; -808.000; -670.000
371.788;  124.600;  103.000;  199.000
371.919;  245.200; -384.000; -304.000
372.050; 5430.600;  -91.000; -156.000
372.181; 1498.900; -188.000; -294.000
372.311;  564.300;   42.000; -127.000
372.442;   25.100; -457.000; -451.000
372.573;  -13.700; -444.000; -340.000
372.704; -240.700;-1008.000; -980.000
372.835;  174.300; -228.000; -289.000
372.966; -105.600; -646.000; -554.000
373.097; -110.200; -575.000; -711.000
373.228;  -65.200; -717.000; -542.000
373.359;  144.300; -824.000; -536.000
373.490; 1368.300; -881.000; -727.000
373.620; 1602.400;-1001.000; -803.000
373.751; 2594.900; -332.000; -396.000
373.882; 1083.300; -663.000; -733.000
374.013;   81.000; -449.000; -262.000
374.143;  -90.200; -581.000; -659.000
374.274; -209.600; -987.000; -908.000
374.405;  248.100; -388.000; -276.000
374.536;  640.000; -526.000; -387.000
374.666; 1503.100; -759.000; -807.000
374.797;  256.200; -817.000; -868.000
374.928; 1207.100; -710.000; -560.000
375.058; 1218.700; -535.000; -500.000
375.189;  143.800;  -59.000;  -93.000
375.320; -196.500; -928.000;-1034.000
375.450;  -80.900; -625.000; -616.000
375.581;  -69.800; -526.000; -436.000
375.712;  -58.700; -574.000; -250.000
375.842;  438.900; -438.000; -415.000
375.973;  295.600; -554.000; -513.000
376.103; -101.300; -665.000; -648.000
376.234; -148.600; -531.000; -552.000
376.364;  -97.700; -944.000; -867.000
376.495;  577.700;  925.000;  529.000
376.625;  -29.400; -472.000; -485.000
376.756;   65.900; -709.000; -678.000
376.886; -170.400;-1178.000;-1026.000
377.017;  146.600;-1048.000;-1061.000
377.147;  682.500; -786.000; -782.000
377.278;  157.200;  174.000;  228.000
377.408; -208.400; -801.000; -815.000
377.538; -171.600; -707.000; -693.000
377.669; -119.100; -537.000; -613.000
377.799; -169.600; -645.000; -635.000
377.929; -121.800; -610.000; -428.000
378.060; -200.100; -781.000; -847.000
378.190;  -99.400; -726.000; -531.000
378.320;  -59.700; -401.000; -406.000
378.451;   16.400; -131.000;  -22.000
378.581;   36.500;  -67.000; -110.000
378.711;  331.400; 1035.000;  866.000
378.841;  -47.900; -533.000; -675.000
378.972; -166.800; -871.000; -751.000
379.102;  -24.400; -652.000; -579.000
379.232;   -1.300; -126.000;  -73.000
379.362; -183.700;-1001.000; -885.000
379.492;   15.000; -373.000; -424.000
379.623;  227.900;    0.000;  111.000
379.753; -170.100;-1107.000; -974.000
379.883;  359.300;   59.000;  156.000
380.013;  -67.200;-1081.000;-1017.000
380.143; -204.900;-1097.000;-1056.000
380.273; -186.400; -985.000; -861.000
380.403;   -2.200; -344.000; -257.000
380.533;  -67.100; -651.000; -664.000
380.663;  172.900;  173.000;  128.000
380.793; -223.000;-1027.000;-1074.000
380.923;   -9.500; -103.000;  -34.000
381.053; -192.600; -613.000; -623.000
381.183;  -15.400; -106.000; -248.000
381.313;   59.100; -656.000; -470.000
381.443;    0.200; -692.000; -473.000
381.573;  245.100; -402.000; -409.000
381.703;  325.600;-1249.000;-1095.000
381.833; -294.100;-1454.000;-1336.000
381.963;  221.300; -134.000;  -87.000
382.093; 2028.000; -925.000; -909.000
382.223;  590.000; -713.000; -602.000
382.353;  -19.000; -801.000; -608.000
382.482;  438.900;-1091.000; -964.000
382.612; 1092.000; -872.000; -644.000
382.742;  595.000; -695.000; -622.000
382.872;  357.100; -565.000; -551.000
383.002;  169.100;  347.000; -132.000
383.131;   17.300; -226.000; -160.000
383.261;  -82.300; -706.000; -768.000
383.391;  510.800; -552.000; -377.000
383.521; 6285.200;  451.000;  263.000
383.650; 1418.200; -947.000; -904.000
383.780;  -34.500; -783.000; -656.000
383.910;  233.300;  880.000;  802.000
384.039;   55.300; -794.000; -656.000
384.169;  237.600;-1205.000;-1017.000
384.299;  -58.900; -650.000; -662.000
384.428; -142.900; -764.000; -680.000
384.558;  -38.800; -308.000; -275.000
384.687;  -43.100; -414.000; -334.000
384.817;   64.100;   75.000;   -2.000
384.947;   41.400; -234.000; -141.000
385.076;  561.400;  982.000;  912.000
385.206;  214.700;  369.000;  480.000
385.335;  -46.800; -549.000; -417.000
385.465; -117.200; -655.000; -663.000
385.594;  235.900;  -53.000;  -44.000
385.724;  567.200; -868.000; -838.000
385.853;  202.000; -296.000; -270.000
385.982; 1986.500; -743.000; -787.000
386.112; 2971.700;-1052.000; -871.000
386.241;  236.700; -307.000; -312.000
386.371;   51.200; -174.000;  -87.000
386.500;   -6.500; -825.000; -789.000
386.629;   24.000; -874.000; -817.000
386.759;  170.900;  -43.000;   68.000
386.888;   -1.800; -170.000; -250.000
387.017; -127.500; -648.000; -620.000
387.147; -127.900; -771.000; -798.000
387.276;    3.400; -410.000; -397.000
387.405;   43.900; -398.000; -342.000
387.535;  -86.000; -452.000; -361.000
387.664;  -78.500; -692.000; -620.000
387.793;  141.800; -198.000; -113.000
387.922;  800.400;  255.000;  200.000
388.052;   14.000; -576.000; -423.000
388.181;   43.900; -342.000; -472.000
388.310;  -61.000; -889.000; -710.000
388.439;  -79.900; -749.000; -742.000
388.568;  286.400;  365.000;  244.000
388.697; 1430.100; -756.000; -653.000
388.826;  242.200; -768.000; -666.000
388.956;  121.200; -285.000; -307.000
389.085;  -33.300; -347.000; -287.000
389.214; -197.600; -842.000; -872.000
389.343;  -89.000; -645.000; -413.000
389.472;  896.000;  126.000;  149.000
389.601;  928.900;   91.000;    0.000
389.730;   10.800; -568.000; -687.000
389.859;  138.700;  226.000;   46.000
389.988;  257.900; -423.000; -408.000
390.117;  208.600; -168.000; -146.000
390.246;   27.100; -331.000; -320.000
390.375;  134.700; -673.000; -626.000
390.504; -102.000; -703.000; -621.000
390.633; -159.100; -672.000; -726.000
390.761; -118.900; -732.000; -645.000
390.890;   87.100;   -4.000; -130.000
391.019;  -17.800; -421.000; -441.000
391.148; -214.800; -826.000; -855.000
391.277; -114.800; -576.000; -493.000
391.406; -157.500; -821.000; -805.000
391.534;  120.200;  574.000; -301.000
391.663; -113.900; -583.000; -645.000
391.792; -129.900; -673.000; -701.000
391.921;  155.000;   -3.000;   15.000
392.050;  255.900; -287.000; -228.000
392.178; -113.200;-1206.000;-1061.000
392.307;  180.000; -758.000; -712.000
392.436;   60.900; -427.000; -641.000
392.564;   70.300;  166.000;   -6.000
392.693; -191.500; -860.000; -682.000
392.822;  283.500; -529.000; -534.000
392.950;   73.000; -880.000; -714.000
393.079;  457.300; -188.000; -328.000
393.208;   14.200; -488.000; -511.000
393.336;   19.700; -170.000; -145.000
393.465;  -48.000; -317.000; -199.000
393.593;   53.100;   62.000;   79.000
393.722; -292.300;-1121.000; -916.000
393.850;    0.200; -188.000;  -61.000
393.979; -275.700; -926.000; -805.000
394.107;  -85.800; -517.000; -537.000
394.236;  -45.700; -570.000; -507.000
394.364;  448.900;  383.000;  206.000
394.493;  669.100; -911.000; -767.000
394.621;   -5.700; -955.000; -916.000
394.750; 1460.200; -873.000; -923.000
394.878; 5884.700; -247.000; -149.000
395.007; 7612.700; -721.000; -807.000
395.135;  537.500; -790.000; -721.000
395.263; -169.600;-1038.000;-1040.000
395.392;   46.600;  -25.000; -107.000
395.520; -171.500; -818.000; -679.000
395.648; -180.100; -865.000; -915.000
395.777;  -34.500; -366.000; -405.000
395.905;  -39.500; -449.000; -564.000
396.033;  100.300;  217.000;  172.000
396.162; 1132.600; -399.000; -453.000
396.290;  956.300;  -17.000;   -2.000
396.418;  147.200; -555.000; -514.000
396.546; -179.200; -571.000; -466.000
396.674; -189.100; -850.000; -878.000
396.803;   53.800;  -72.000;  -23.000
396.931;  162.000; -179.000; -199.000
397.059;    6.700;-1026.000; -989.000
397.187; -201.100;-1026.000; -975.000
397.315; -247.900; -884.000; -649.000
397.443; -152.900; -592.000; -443.000
397.572; -167.500; -578.000; -424.000
397.700;  -28.100; -607.000; -614.000
397.828;   29.200;  120.000;  -90.000
397.956;  -44.600; -508.000; -478.000
398.084;  -51.500; -767.000; -626.000
398.212;  104.400;  137.000;  124.000
398.340;   30.800;  -56.000;  159.000
398.468;   45.200; -390.000; -169.000
398.596; -242.700; -993.000; -953.000
398.724; -186.500; -762.000; -767.000
398.852; -298.000;-1024.000; -976.000
398.980; -112.200; -560.000; -560.000
399.108; -107.800; -982.000; -735.000
399.236;   84.000;   13.000;    8.000
399.363;   80.800;  222.000;  196.000
399.491;  -87.700; -404.000; -398.000
399.619; -189.800; -829.000; -800.000
399.747; -204.100; -859.000; -771.000
399.875;  182.400;  220.000;  234.000
400.003;  -72.000; -359.000; -284.000
400.130; -137.300; -421.000; -341.000
400.258;  -10.500;  -83.000;   38.000
400.386;  -87.400; -352.000; -168.000
400.514;  -92.500; -526.000; -587.000
400.641; -172.700; -928.000; -802.000
400.769; -253.400; -979.000; -888.000
400.897; -206.200; -838.000; -793.000
401.025;   10.900; -166.000; -152.000
401.152;   10.200;  220.000;   38.000
401.280; -115.800; -430.000; -429.000
401.408; -188.700; -712.000; -576.000
401.535; -154.400; -735.000; -758.000
401.663; -326.400;-1134.000;-1054.000
401.790; -148.600; -514.000; -525.000
401.918;  119.100;  436.000;  405.000
402.046;   14.100;  134.000;  122.000
402.173;  -41.400;  -18.000;    7.000
402.301;  -97.800; -519.000; -397.000
402.428;  164.800;  528.000;  383.000
402.556; -243.800;-1188.000; -913.000
402.683;  -29.100;  -20.000;   -1.000
402.811;   51.500;  -37.000; -206.000
402.938;   55.400;   20.000;   27.000
403.066;  239.800; -574.000; -558.000
403.193;  490.600;  299.000;  239.000
403.321;  380.100; -396.000; -574.000
403.448;  469.200;   83.000;   27.000
403.575;  259.700;  -90.000;  -46.000
403.703; -156.100; -732.000; -557.000
403.830;  -69.100; -531.000; -496.000
403.957; -259.600;-1117.000;-1023.000
404.085;   63.500;  -61.000; -172.000
404.212;  228.200;  -50.000;   63.000
404.339;  598.500; -566.000; -306.000
404.467;11609.000; -612.000; -524.000
404.594; 6631.600; -287.000; -227.000
404.721; 1463.700; -869.000; -764.000
404.848;  161.000; -113.000; -202.000
404.976; -191.800; -856.000; -783.000
405.103;   50.400;  -14.000;  -82.000
405.230;   37.300;  190.000;  226.000
405.357;  110.700;  117.000;   44.000
405.484;  561.300;  -49.000;    5.000
405.612;  105.200; -548.000; -563.000
405.739;  -64.600; -488.000; -243.000
405.866;  230.600;  669.000;  385.000
405.993;  -43.500; -398.000; -102.000
406.120; -210.200; -801.000; -887.000
406.247;  -79.000; -323.000; -342.000
406.374;  751.200;  540.000;  629.000
406.501;  106.200; -632.000; -702.000
406.628; -106.000; -621.000; -589.000
406.755; -161.100; -803.000; -620.000
406.882;  -42.700; -228.000; -277.000
407.009; -168.500; -719.000; -628.000
407.136;   88.800; -480.000; -401.000
407.263;  126.900; -939.000; -829.000
407.390; -148.300; -692.000; -614.000
407.517; -279.600;-1139.000;-1187.000
407.644;  -81.500; -332.000; -256.000
407.771;  -93.600; -249.000; -287.000
407.898;   73.400;  168.000;  328.000
408.025; -107.300; -421.000; -313.000
408.151;   39.400;   82.000;  153.000
408.278;  -72.300; -267.000; -216.000
408.405; -214.400; -931.000; -899.000
408.532;  -94.500; -549.000; -542.000
408.659; -169.800; -677.000; -648.000
408.785; -379.700;-1298.000;-1170.000
408.912;  -65.900; -412.000; -296.000
409.039; -180.400; -610.000; -686.000
409.166; -159.800; -591.000; -555.000
409.292; -182.800; -571.000; -534.000
409.419; -178.700; -665.000; -649.000
409.546; -132.500; -431.000; -192.000
409.672; -179.400; -713.000; -545.000
409.799;  -24.500;  -36.000;   34.000
409.926;  -24.600; -180.000; -179.000
410.052; -302.200;-1127.000;-1091.000
410.179;  -86.100; -368.000; -392.000
410.305; -126.400; -375.000; -493.000
410.432;  -65.100; -220.000; -333.000
410.558; -114.700; -305.000; -380.000
410.685; -162.700; -688.000; -431.000
410.812; -172.800; -409.000; -588.000
410.938; -216.300; -964.000; -808.000
411.065; -151.500; -671.000; -645.000
411.191;  -10.600; -189.000; -174.000
411.317; -198.500; -823.000; -742.000
411.444;  -85.200; -317.000; -246.000
411.570; -101.700; -339.000; -294.000
411.697; -208.900; -758.000; -752.000
411.823; -318.000; -989.000; -999.000
411.949;  -15.400;  -56.000;   17.000
412.076; -196.500; -539.000; -519.000
412.202; -187.600; -758.000; -757.000
412.329; -210.500; -798.000; -752.000
412.455; -179.100; -821.000; -657.000
412.581;   -4.400;  -15.000;  172.000
412.707; -101.400; -540.000; -457.000
412.834;   69.600;  156.000;  219.000
412.960; -155.100; -785.000; -784.000
413.086; -146.200; -743.000; -701.000
413.212;  305.200;  604.000;  578.000
413.339; -121.600; -685.000; -701.000
413.465;    5.800; -364.000; -310.000
413.591; -171.500; -757.000; -474.000
413.717;  -84.900; -358.000; -366.000
413.843; -250.200; -839.000; -861.000
413.969;  -60.900;  -47.000; -292.000
414.096; -166.600; -679.000; -679.000
414.222;   46.400;  -33.000;   85.000
414.348;  -30.500; -652.000; -385.000
414.474;  179.900;   38.000;  -52.000
414.600;   17.000; -126.000; -144.000
414.726;   30.400;  -96.000;  -55.000
414.852;  -76.800; -365.000; -342.000
414.978;  112.100;  104.000;  -18.000
415.104;  130.700;   38.000;   80.000
415.230;   48.700; -329.000; -330.000
415.356;  114.400; -409.000; -514.000
415.482;  409.200;   13.000;  -35.000
415.608;  580.700; -247.000; -323.000
415.734; 1982.200;   67.000;   38.000
415.860;40171.400; -875.000; -767.000
415.986;26323.300; -685.000; -607.000
416.111; 2183.900; -798.000; -652.000
416.237;  504.100; -424.000; -571.000
416.363; 2467.100; -765.000; -733.000
416.489; 8089.800; -324.000; -251.000
416.615;  817.800; -707.000; -742.000
416.741;   -2.100; -677.000; -784.000
416.866; -121.900; -673.000; -736.000
416.992; -184.500; -801.000; -818.000
417.118;  -55.000;  -41.000;  -80.000
417.244;  -94.200; -798.000; -531.000
417.369;  -99.200; -801.000; -612.000
417.495;   -1.600; -325.000; -254.000
417.621; -162.500;-1015.000; -803.000
417.746;   67.800; -579.000; -572.000
417.872;  133.100; -254.000; -144.000
417.998;  138.200; -515.000; -530.000
418.123; 2315.500;-1073.000; -845.000
418.249;10432.800; -512.000; -601.000
418.374; 1293.600; -916.000; -824.000
418.500;  273.500; -383.000; -482.000
418.626;  262.600;   70.000;  -59.000
418.751;  262.700; -549.000; -448.000
418.877;  432.100; -637.000; -643.000
419.002; 3945.000; -688.000; -560.000
419.128;24702.400; -930.000; -721.000
419.253; 5416.400; -967.000; -837.000
419.379;  792.300; -391.000; -338.000
419.504;  801.300;  325.000;  415.000
419.629;  990.100; -393.000; -212.000
419.755; 7706.600; -317.000; -254.000
419.880;41097.300;  -98.000;   67.000
420.006;23109.800; -280.000; -221.000
420.131;54932.100; -662.000; -775.000
420.256; 7121.300; -315.000; -316.000
420.382; 1005.700; -665.000; -687.000
420.507;  150.500; -649.000; -778.000
420.632;  238.300; -337.000; -339.000
420.758;  337.200; -251.000; -425.000
420.883; -135.900; -876.000; -672.000
421.008; -147.600; -775.000; -619.000
421.133; -120.800; -509.000; -467.000
421.259;  -32.300; -325.000; -259.000
421.384; -183.000; -834.000; -693.000
421.509;  -95.400;-1052.000; -862.000
421.634; 1546.600; -936.000; -820.000
421.759;  590.100; -359.000; -327.000
421.885; -135.500; -717.000; -656.000
422.010; -131.400; -673.000; -542.000
422.135; -219.500; -695.000; -727.000
422.260;  103.800;  340.000;  280.000
422.385;  -13.100;   12.000;  -98.000
422.510;   77.600;  151.000;  -26.000
422.635;   74.600;  -87.000;  -43.000
422.760;  200.800; -766.000; -791.000
422.885;   97.500;  -57.000;  -80.000
423.010;    1.900; -112.000; -169.000
423.135; -122.700; -481.000; -561.000
423.260;   18.900; -150.000; -245.000
423.385;  157.800;  476.000;  222.000
423.510;  122.000;   71.000;  -22.000
423.635;  138.000;  133.000;   45.000
423.760;  204.000;  383.000;  328.000
423.885;  129.800;  336.000;  391.000
424.010;   73.300;  -68.000;  -13.000
424.135;   -2.600;    5.000;  -33.000
424.259;  -67.700; -654.000; -457.000
424.384;  -57.700; -279.000; -272.000
424.509;   29.400; -260.000; -186.000
424.634; -170.900; -761.000; -623.000
424.759;    2.300; -688.000; -544.000
424.883;    2.000; -506.000; -527.000
425.008;  384.000; -502.000; -410.000
425.133; 4130.500; -679.000; -653.000
425.258; 1681.800; -517.000; -381.000
425.382; 1624.400; -867.000; -774.000
425.507; 3706.600; -487.000; -543.000
425.632;  610.300; -802.000; -663.000
425.756;  886.000; -256.000; -146.000
425.881;14051.500; -831.000; -857.000
426.006;34078.100; -604.000; -355.000
426.130; 4735.100; -696.000; -508.000
426.255;  683.200; -611.000; -491.000
426.379;  374.500; -189.000; -577.000
426.504;  809.100;  660.000;  544.000
426.629; 8280.400; -519.000; -466.000
426.753; 5032.200;   64.000;  -46.000
426.878;  606.800; -252.000; -288.000
427.002;  297.800; -651.000; -668.000
427.127; 3411.600;  -35.000; -158.000
427.251;22632.100;  372.000;  401.000
427.375; 5668.400; -191.000; -173.000
427.500; 3504.100; -616.000; -610.000
427.624; 1043.600; -234.000; -400.000
427.749;  164.200; -216.000; -225.000
427.873;  -63.800; -499.000; -412.000
427.997;  -20.500; -222.000; -230.000
428.122;  200.000;  795.000;  703.000
428.246;  202.200;  433.000;  434.000
428.371; -217.700; -869.000; -773.000
428.495; -183.700; -624.000; -646.000
428.619;   10.900; -186.000; -117.000
428.743;  107.300;   65.000;  132.000
428.868;   36.100; -732.000; -643.000
428.992; 2074.400; -219.000; -326.000
429.116;  790.600; -329.000; -357.000
429.240;  434.900;  419.000;  426.000
429.365;    6.400; -454.000; -574.000
429.489;  -53.600; -638.000; -647.000
429.613;   76.900; -236.000; -177.000
429.737;  101.700; -563.000; -432.000
429.861;  596.400; -247.000; -133.000
429.985;11673.000; -425.000; -305.000
430.109;11313.000; -770.000; -908.000
430.234; 1288.800;   76.000;  -50.000
430.358;  169.700; -250.000; -160.000
430.482;  -71.900; -672.000; -564.000
430.606;  -89.100; -655.000; -375.000
430.730;   64.400; -437.000; -388.000
430.854;  131.400; -909.000; -835.000
430.978; -105.500; -795.000; -764.000
431.102; -109.000; -499.000; -422.000
431.226; -192.600; -874.000; -815.000
431.350;  141.100;  345.000;  422.000
431.474; -104.700; -661.000; -373.000
431.597; -261.800;-1060.000; -848.000
431.721;  -83.400; -276.000; -267.000
431.845; -211.500; -704.000; -472.000
431.969;  -78.900; -304.000; -349.000
432.093; -102.200; -395.000; -317.000
432.217;  -13.900;   32.000;   82.000
432.341; -123.600; -523.000; -518.000
432.464;   53.400;   96.000;   40.000
432.588;  301.800; -401.000; -329.000
432.712;  166.800;  -52.000;  -52.000
432.836;  127.500;  213.000;  263.000
432.959;   30.900; -372.000; -311.000
433.083;  239.500;   11.000;    2.000
433.207;  879.400;  285.000;  930.000
433.330;10544.100; -391.000; -200.000
433.454;11811.400; -654.000; -638.000
433.578; 6916.100;  583.000;  278.000
433.701; 1173.900; -623.000; -675.000
433.825;  190.800; -292.000; -299.000
433.949;  303.500;   28.000;  -72.000
434.072;   62.800; -410.000; -323.000
434.196;   52.200; -309.000; -117.000
434.319; 7784.000;25482.000;25124.000
434.443; 1490.200; -656.000; -603.000
434.566; 5170.200;  281.000;   62.000
434.690;  785.200; -637.000; -383.000
434.813;  119.200; -251.000; -173.000
434.937; -117.100; -569.000; -696.000
435.060;  -60.300; -423.000; -332.000
435.184;  393.700; -492.000; -217.000
435.307;  232.300;  159.000;  102.000
435.431;   -8.500;  -40.000;   24.000
435.554;  -89.100; -399.000; -240.000
435.677;  -91.800; -350.000; -258.000
435.801;  -24.300;  -25.000;   49.000
435.924;   11.600;    1.000;  -67.000
436.048; -238.400;-1019.000; -732.000
436.171;  -80.400; -240.000;  -66.000
436.294;   20.300; -248.000; -229.000
436.417;  248.700; -963.000; -849.000
436.541; -186.200; -814.000; -840.000
436.664;  -32.900; -242.000; -316.000
436.787;   23.300;   13.000;  113.000
436.910; -179.500; -792.000; -422.000
437.034;   59.900;  142.000;  143.000
437.157;  129.300;  -11.000;    0.000
437.280;  -82.600; -392.000; -292.000
437.403; -171.100; -982.000; -869.000
437.526;  812.200; -903.000; -865.000
437.649; 2888.400; -505.000; -332.000
437.772;  300.300; -692.000; -540.000
437.896;  286.000;  700.000;  544.000
438.019; -156.000; -758.000; -503.000
438.142; -144.900; -596.000; -506.000
438.265;  -47.600; -639.000; -670.000
438.388;  825.400; -520.000; -410.000
438.511;   81.600; -597.000; -394.000
438.634;  -62.200; -247.000; -125.000
438.757; -220.600; -693.000; -619.000
438.880;  -13.200;  -34.000;  -57.000
439.003; -123.500; -417.000; -437.000
439.126;  -92.400; -287.000; -167.000
439.248;  -72.400;  -98.000; -139.000
439.371;  -44.900;    9.000;  -53.000
439.494;  160.000;  510.000;  439.000
439.617;  -30.600;   65.000;  -88.000
439.740; -315.000; -968.000; -816.000
439.863; -222.100; -755.000; -595.000
439.986; -192.100; -476.000; -431.000
440.108;  -13.900; -161.000; -112.000
440.231; -280.500; -950.000; -836.000
440.354;  -38.300;  -64.000; -150.000
440.477;   39.600; -566.000; -542.000
440.599;   44.100; -200.000; -225.000
440.722; -178.000; -709.000; -586.000
440.845;  197.700;  751.000;  928.000
440.968; -167.200; -415.000; -311.000
441.090;  -67.500; -199.000;  -33.000
441.213; -292.500;-1021.000; -825.000
441.336;   -9.700; -159.000;   -5.000
441.458;  -78.800; -549.000; -396.000
441.581; -124.100; -628.000; -629.000
441.703;  -89.300; -152.000;   13.000
441.826; -159.300; -557.000; -400.000
441.948;  -16.400;   56.000;   51.000
442.071;  155.700;  555.000;  424.000
442.193; -173.600; -531.000; -485.000
442.316;  101.100;  152.000;   97.000
442.438;  161.100; -233.000;  -10.000
442.561;  180.600;  272.000;  262.000
442.683;  747.900; -809.000; -522.000
442.806; 1491.000;   -8.000;   74.000
442.928;  -69.000; -859.000; -604.000
443.051; -119.300; -577.000; -373.000
443.173; -134.700; -341.000; -339.000
443.295; -128.500; -263.000; -371.000
443.418; -104.300; -321.000;  -29.000
443.540;   33.200; -106.000;   -4.000
443.662; -190.500; -563.000; -465.000
443.785;   23.800;  335.000;  199.000
443.907; -181.600; -362.000; -208.000
444.029; -233.200; -767.000; -494.000
444.152; -259.700; -644.000; -554.000
444.274;   10.100;  -18.000;  -24.000
444.396; -186.400; -461.000; -221.000
444.518; -214.400; -691.000; -454.000
444.640; -152.900; -268.000; -111.000
444.763;   30.500;  388.000;  249.000
444.885; -203.100; -432.000; -392.000
445.007;  -36.200;   35.000;   86.000
445.129; -198.000; -610.000; -515.000
445.251; -176.500; -372.000; -439.000
445.373; -246.000; -537.000; -386.000
445.495;   59.400;  242.000;  350.000
445.617;  177.800;  853.000;  753.000
445.739; -110.500; -215.000;  -97.000
445.861;  -14.700; -245.000; -112.000
445.984;  -31.800; -267.000; -101.000
446.105;  321.200; -418.000; -251.000
446.227;  869.800; -176.000;  -19.000
446.349;  -25.800; -358.000; -249.000
446.471; -176.000; -615.000; -448.000
446.593; -112.800; -316.000;   19.000
446.715;   24.200;  -67.000;   41.000
446.837;  203.900;  697.000;  832.000
446.959; -139.200; -457.000; -478.000
447.081; -202.200; -628.000; -518.000
447.203;  170.200;  862.000;  834.000
447.325; -102.400; -270.000;   42.000
447.446;   68.600;  286.000;  530.000
447.568; -274.700; -921.000; -803.000
447.690; -133.800; -236.000; -245.000
447.812; -226.500; -798.000; -519.000
447.933;  -24.300;  155.000;  127.000
448.055;  -64.400; -306.000; -261.000
448.177;  257.500;   31.000;   79.000
448.299;   52.100; -935.000; -727.000
448.420;   73.200;  -25.000;  159.000
448.542;  -33.100;   -3.000;   33.000
448.664;   32.500;  109.000;  322.000
448.785;  -27.300;  265.000;   83.000
448.907; -121.400; -614.000; -353.000
449.028;  -78.800; -771.000; -471.000
449.150;  166.300;  492.000;  589.000
449.272; -288.400;-1044.000; -913.000
449.393;  141.300;  612.000;  694.000
449.515; -254.900; -634.000; -581.000
449.636;  -70.900; -264.000; -155.000
449.758;  184.800;  763.000;  622.000
449.879; -106.000; -498.000; -396.000
450.001;  -87.400; -149.000;  -49.000
450.122;   -8.500;  -95.000;  162.000
450.244;   38.300;   37.000;  364.000
450.365; -141.300; -495.000; -301.000
450.486;    5.500;   80.000;  268.000
450.608;   95.900;  393.000;  326.000
450.729;  202.400;  578.000;  645.000
450.850;   63.500; -574.000; -466.000
450.972; 1717.200; -552.000; -389.000
451.093;10026.300;  190.000;  588.000
451.214; 3738.800; -516.000; -337.000
451.336;  735.900;  773.000;  579.000
451.457;  173.300;  264.000;  393.000
451.578;  -48.000; -118.000;  -74.000
451.699; -165.300; -546.000; -540.000
451.821;  -51.500; -284.000;  -50.000
451.942;   47.600;  278.000;  285.000
452.063;  168.600;  228.000;  419.000
452.184; 1273.600;  -54.000;  -49.000
452.305; 2193.600;  103.000;  170.000
452.427;  227.700; -549.000; -301.000
452.548;   39.000;   23.000;   79.000
452.669;  -51.700; -257.000;  -89.000
452.790;  -30.200;    3.000;  -18.000
452.911;   65.300;  195.000;  259.000
453.032; -100.400; -289.000;  -60.000
453.153;  -13.400;  -29.000;   81.000
453.274;  177.300;  737.000;  868.000
453.395;  -44.300;  -51.000;  175.000
453.516;  353.100; 1317.000; 1388.000
453.637; -116.300; -205.000; -150.000
453.758;  -60.200;   15.000;   69.000
453.879; -187.300; -462.000; -250.000
454.000;  209.200; 1086.000;  948.000
454.121; -179.400; -554.000; -326.000
454.242; -169.700; -599.000; -383.000
454.362;  -40.000;  -99.000;  114.000
454.483;  -33.500; -309.000; -229.000
454.604;  151.000;  512.000;  580.000
454.725; -222.600; -627.000; -555.000
454.846; -205.900; -474.000; -406.000
454.967;    9.300;  230.000;  539.000
455.087;  -24.100;  179.000;  153.000
455.208;   98.300;  554.000;  856.000
455.329;  -57.100;  -22.000;   82.000
455.450;  155.600;  473.000;  633.000
455.570; -111.500; -234.000; -211.000
455.691;  -33.000;  201.000;  407.000
455.812; -175.400; -270.000;  -92.000
455.932;  -67.100;  107.000;  -97.000
456.053; -127.900;   36.000;   24.000
456.173; -148.400; -433.000; -355.000
456.294; -227.200; -476.000; -303.000
456.415;  -49.000;  -73.000;   70.000
456.535;  -11.000;  297.000;  273.000
456.656;  -23.600;  132.000;  240.000
456.776;  -57.200;    3.000;  298.000
456.897;   30.700;  308.000;  513.000
457.017;  -94.600; -153.000;   -3.000
457.138; -162.600; -402.000; -249.000
457.258;    8.900;  263.000;  224.000
457.379;   41.300;  509.000;  521.000
457.499;   -8.400;  443.000;  432.000
457.620; -193.600; -407.000; -231.000
457.740; -109.500; -132.000;  -11.000
457.860;  -56.500;   87.000;   44.000
457.981;  -34.000;  132.000;  124.000
458.101; -107.200;  -89.000;   40.000
458.221;   56.200;  336.000;  402.000
458.342;  -70.200;   -4.000;  -37.000
458.462;  121.200;  617.000;  352.000
458.582;   -4.300; -302.000; -294.000
458.703;  110.900;  303.000;  154.000
458.823;   25.700;   22.000;  163.000
458.943;  103.700;  341.000;  467.000
459.063;    9.800; 1124.000;  192.000
459.183;   21.000;  328.000;  313.000
459.304;   66.700;  315.000;  517.000
459.424;  -73.400; -246.000;  -89.000
459.544;  792.000;  388.000;  764.000
459.664; 1690.200;  499.000;  506.000
459.784;  652.500; 1004.000; 1175.000
459.904;  160.800;  867.000;  744.000
460.024;  209.200;  867.000;  684.000
460.144;   54.400;  449.000;  554.000
460.264;   42.800;  515.000;  327.000
460.385; -129.800; -145.000; -119.000
460.505;  140.600;  905.000;  858.000
460.625; -126.600;  -17.000;  -68.000
460.745;   62.200;  396.000;  541.000
460.864;  -47.100;  153.000;  469.000
460.984;   98.300;  499.000;  573.000
461.104;  360.800; 1656.000; 1775.000
461.224;  124.600;  657.000;  650.000
461.344;   29.700;  431.000;  360.000
461.464;  -17.600;  258.000;  513.000
461.584;   10.200;  283.000;  466.000
461.704;  -63.200;   58.000;  108.000
461.824;  -56.100;  238.000;  259.000
461.943;  -20.100;  191.000;  130.000
462.063;  -93.000;    2.000;  324.000
462.183;  145.300;  639.000;  717.000
462.303;  288.100; 1678.000; 1230.000
462.422;  164.800;  781.000;  840.000
462.542;    5.800;  271.000;  391.000
462.662;  138.700;  353.000;  380.000
462.782;  546.900;  833.000;  572.000
462.901; 1044.700;  545.000;  717.000
463.021;  609.600; 1702.000; 1638.000
463.141;   20.700;  337.000;  770.000
463.260;   38.400;  614.000;  474.000
463.380;   76.700;  902.000;  884.000
463.499;  -36.500;  342.000;  332.000
463.619;    0.800;  581.000;  559.000
463.738;  324.400; 1644.000;  903.000
463.858;  145.200;  657.000;  811.000
463.978;  -17.600;  542.000;  396.000
464.097;  173.900;  921.000; 1114.000
464.217;  294.200; 1196.000; 1143.000
464.336;  269.400; 1068.000; 1130.000
464.455;  -18.300;  328.000;  659.000
464.575;  150.000;  597.000;  602.000
464.694;  381.800; 1204.000; 1179.000
464.814;  324.500; 1190.000; 1138.000
464.933;  191.600; 1095.000; 1027.000
465.052;  273.500; 1412.000; 1054.000
465.172;  187.100;  922.000;  799.000
465.291;  334.500; 1376.000; 1320.000
465.410;   81.100;  462.000;  735.000
465.530;  229.200; 1355.000; 1310.000
465.649;  178.500; 1209.000; 1273.000
465.768;  368.300; 1673.000; 1508.000
465.888;  153.100;  941.000; 1174.000
466.007;  315.800; 1335.000; 1440.000
466.126;   71.600;  721.000;  641.000
466.245;  132.100; 1176.000; 1187.000
466.364;  150.700;  950.000; 1060.000
466.484;  174.000; 1024.000; 1213.000
466.603;  163.200; 1101.000; 1222.000
466.722;  293.400; 1490.000; 1769.000
466.841;  216.800; 1151.000; 1401.000
466.960;  120.900; 1069.000;  972.000
467.079;  327.200; 1971.000; 1786.000
467.198;  181.300; 1238.000; 1181.000
467.317;  255.000; 1768.000; 1162.000
467.436;  197.300; 1709.000; 1261.000
467.555;  327.600; 1796.000; 1746.000
467.674;  191.000; 1227.000; 1329.000
467.793;  138.600; 1376.000; 1374.000
467.912;  266.400; 1658.000; 1539.000
468.031;  330.200; 2038.000; 1930.000
468.150;  334.000; 1842.000; 1837.000
468.269;  445.600; 2313.000; 2090.000
468.388;  460.300; 2168.000; 2339.000
468.507;  578.900; 2884.000; 2903.000
468.626;  605.800; 2555.000; 2541.000
468.744;  358.700; 2018.000; 2174.000
468.863;  480.500; 2312.000; 2523.000
468.982;  277.300; 1503.000; 1555.000
469.101;  549.500; 2788.000; 2692.000
469.220;  408.700; 2333.000; 2176.000
469.338;  601.000; 2935.000; 3051.000
469.457;  470.800; 2719.000; 2545.000
469.576;  799.200; 3953.000; 3784.000
469.695;  581.600; 2877.000; 3066.000
469.813;  903.200; 4148.000; 4192.000
469.932;  895.300; 4255.000; 4485.000
470.051;  944.400; 4075.000; 4161.000
470.169; 1855.300; 4470.000; 4338.000
470.288; 3027.300; 4700.000; 4809.000
470.406; 1736.500; 5059.000; 5194.000
470.525; 1350.500; 6101.000; 5787.000
470.644; 1393.600; 6847.000; 6794.000
470.762; 1741.500; 8397.000; 7873.000
470.881; 1973.000; 8651.000; 8464.000
470.999; 2174.800; 9685.000; 9151.000
471.118; 2365.300;11174.000;10711.000

