
Integration time [ms]: 200.000
Averaging Nr. [scans]: 10
Smoothing Nr. [pixels]: 0
Data measured with spectrometer [name]: 2101012U2
Wave   ;Sample   ;Dark     ;Reference
[nm]   ;[counts] ;[counts] ;[counts] 

197.733;  121.700;  516.000;  404.000
197.879; -172.100; -610.000; -634.000
198.025;  -95.100; -475.000; -420.000
198.171; -143.600; -602.000; -612.000
198.317;  -40.900; -401.000; -316.000
198.463; -115.100; -655.000; -404.000
198.609;   61.700;  181.000; -137.000
198.755; -186.400; -644.000; -410.000
198.901; -159.000; -505.000; -424.000
199.047; -141.600; -615.000; -488.000
199.193;  -69.200; -230.000; -468.000
199.339;  -89.600; -222.000; -369.000
199.485;   88.700;  330.000;  271.000
199.631;   -1.700;  227.000;  310.000
199.777; -110.300; -466.000; -398.000
199.923; -113.900; -610.000; -424.000
200.069;   -4.900; -141.000;  -58.000
200.215;  154.100;  128.000;  453.000
200.361;   73.800;  243.000;  477.000
200.507; -103.900; -600.000; -373.000
200.653;  -57.900; -371.000; -194.000
200.798;  -63.700; -215.000; -125.000
200.944;  -23.900; -146.000;  -41.000
201.090;   99.100;   61.000;  222.000
201.236;  -11.800; -116.000; -158.000
201.382;  277.400;  874.000;  903.000
201.528;    9.600;  -58.000;  -48.000
201.674; -109.300; -386.000; -293.000
201.819; -139.300; -540.000; -439.000
201.965; -178.400; -699.000; -447.000
202.111;  -61.300; -273.000; -226.000
202.257;  -80.400; -250.000; -238.000
202.402;   13.400;   13.000;  -36.000
202.548;  -75.100; -169.000; -116.000
202.694;  178.300;  410.000; -183.000
202.840; -161.400; -603.000; -531.000
202.985; -135.900; -681.000; -639.000
203.131; -245.500; -832.000; -666.000
203.277;  -68.200; -199.000; -262.000
203.423; -123.500; -434.000; -520.000
203.568; -136.100; -462.000; -237.000
203.714; -106.900; -535.000; -542.000
203.860; -170.400; -682.000; -641.000
204.005;   15.600;  112.000;  167.000
204.151;  132.400;  561.000;  556.000
204.296;  -91.500; -354.000; -221.000
204.442; -173.500; -600.000; -547.000
204.588; -133.600; -592.000; -579.000
204.733;   30.700;  178.000;  168.000
204.879; -258.200;-1018.000; -822.000
205.025;   13.500;  -99.000;  126.000
205.170;   10.500;  -17.000;   94.000
205.316;  183.200;  438.000;  661.000
205.461; -156.800; -698.000; -554.000
205.607;  161.400;  609.000;  665.000
205.752; -188.900; -626.000; -551.000
205.898; -125.700; -501.000; -391.000
206.043; -107.900; -578.000; -506.000
206.189;  -90.200; -243.000; -285.000
206.334;  139.300;  554.000;  606.000
206.480;  169.000;  409.000;  239.000
206.625; -164.500; -529.000; -552.000
206.771; -122.200; -451.000; -373.000
206.916;  -48.600; -210.000; -537.000
207.062; -174.100; -545.000; -591.000
207.207; -142.200; -546.000; -443.000
207.353;  141.700;  185.000;  460.000
207.498;   30.400;  196.000;   85.000
207.643; -106.900; -501.000; -370.000
207.789; -283.500;-1069.000; -910.000
207.934; -198.600; -665.000; -713.000
208.080;  -60.600; -154.000;   66.000
208.225;  -27.500;  -22.000;  -57.000
208.370; -180.900; -727.000; -619.000
208.516; -164.200; -741.000; -487.000
208.661;  -19.000; -127.000;  -69.000
208.806;  -45.500; -165.000; -171.000
208.952; -257.200;-1044.000; -731.000
209.097;  123.700;  378.000;  349.000
209.242;  -75.400; -307.000; -382.000
209.387;   90.100;  392.000;  350.000
209.533; -119.300; -321.000; -350.000
209.678;  166.300;  472.000;  543.000
209.823; -111.400; -408.000; -310.000
209.969; -215.700; -860.000; -757.000
210.114; -198.300; -907.000; -719.000
210.259; -226.800; -939.000; -889.000
210.404;  -27.500; -171.000;  103.000
210.549;   -9.900;  108.000;    3.000
210.695;  -27.200;   -3.000;  -95.000
210.840;   71.300;   94.000;   67.000
210.985; -126.500; -484.000; -303.000
211.130;  141.400;  268.000;  406.000
211.275;   30.600;  207.000;  199.000
211.420; -124.600; -300.000; -289.000
211.566; -112.600; -536.000; -489.000
211.711;   49.600;  218.000;  157.000
211.856; -107.200; -545.000; -519.000
212.001;   20.000;  151.000;   44.000
212.146;   30.700;  153.000;   49.000
212.291;  -39.500; -210.000; -186.000
212.436;  -31.000; -280.000;   -6.000
212.581; -172.100; -685.000; -653.000
212.726; -168.700; -487.000; -538.000
212.871;  -92.900; -552.000; -217.000
213.016; -311.600;-1172.000;-1029.000
213.161;  124.400;  406.000;  291.000
213.306; -160.300; -435.000; -577.000
213.451; -231.200; -778.000; -689.000
213.596;  -94.100; -455.000; -347.000
213.741; -124.000; -448.000; -538.000
213.886; -161.300; -498.000; -517.000
214.031;  -68.600; -294.000; -124.000
214.176; -108.700; -408.000; -341.000
214.321;  -36.000; -296.000; -157.000
214.466;  -56.000; -163.000;  -43.000
214.611;  -20.700;  -61.000;  -10.000
214.756; -236.900; -948.000; -858.000
214.901;  -43.800; -388.000; -226.000
215.046; -246.900; -797.000; -825.000
215.191;   27.400;  128.000;   35.000
215.336;  -26.200; -157.000;  -19.000
215.480; -151.300; -684.000; -505.000
215.625;  -35.900; -175.000;  -19.000
215.770; -173.400; -757.000; -662.000
215.915;  -20.500;   -5.000;  -97.000
216.060;  -34.300; -113.000;  -21.000
216.205; -225.800; -731.000; -779.000
216.349; -163.300; -470.000; -533.000
216.494; -278.900; -939.000; -867.000
216.639; -226.600; -823.000; -888.000
216.784; -169.800; -577.000; -525.000
216.929;   87.900;  392.000;  281.000
217.073;  -11.200; -244.000;  -31.000
217.218;  -15.300;   78.000;  -47.000
217.363; -170.000; -656.000; -618.000
217.507; -193.500; -623.000; -588.000
217.652; -262.500; -845.000; -874.000
217.797; -178.200; -708.000; -659.000
217.942; -211.400; -856.000; -720.000
218.086;  157.000;  608.000;  539.000
218.231;  -38.700; -174.000;  -26.000
218.376;  -70.700; -337.000; -229.000
218.520;   -7.300;  -41.000;   96.000
218.665;  -53.000; -338.000; -204.000
218.810; -105.400; -275.000; -233.000
218.954;   21.400;  201.000;   35.000
219.099; -206.300; -713.000; -963.000
219.243; -134.600; -589.000; -554.000
219.388;  -67.300; -264.000; -136.000
219.532;  -23.000; -116.000; -116.000
219.677; -142.700; -564.000; -521.000
219.822;  -13.200;   33.000;   89.000
219.966;   13.400;   17.000;  -99.000
220.111;  -91.000; -328.000;  -40.000
220.255; -199.900; -797.000; -750.000
220.400;  -28.100; -180.000; -146.000
220.544; -148.200; -516.000; -450.000
220.689;  -97.900; -422.000; -451.000
220.833;  -33.900; -123.000;  -58.000
220.978;  -82.800; -393.000; -563.000
221.122;   21.200;  319.000;  307.000
221.267; -250.300; -906.000; -837.000
221.411; -127.600; -478.000; -394.000
221.555;   17.900; -104.000;  -23.000
221.700;  -84.000; -329.000; -222.000
221.844;   53.900;  255.000;  272.000
221.989;  -99.000; -328.000; -311.000
222.133;  -65.300; -289.000; -307.000
222.277;  -11.800;    5.000;   78.000
222.422;   32.200;  227.000;  113.000
222.566;  -66.400; -381.000; -214.000
222.711;  -97.500; -414.000; -479.000
222.855; -160.400; -643.000; -586.000
222.999; -176.500; -642.000; -717.000
223.144;  -30.500; -195.000; -194.000
223.288;  128.100;  423.000;  251.000
223.432;   40.000;  184.000;  230.000
223.576;   28.700;  152.000;  -21.000
223.721;  102.300;  364.000;  273.000
223.865; -107.800; -472.000; -475.000
224.009;  434.900; 1673.000; 1631.000
224.153; -164.200; -660.000; -671.000
224.298; -132.200; -531.000; -489.000
224.442;  -43.800;  -74.000;  -33.000
224.586;  -28.300; -169.000; -106.000
224.730; -196.500; -858.000; -670.000
224.875; -207.200; -739.000; -688.000
225.019;   57.300;  102.000;  188.000
225.163;  121.400;  208.000;  341.000
225.307;    5.700;   97.000;  -91.000
225.451;   98.600;  360.000;  481.000
225.595;   75.200;  264.000;  176.000
225.739;  -22.400; -170.000;  -94.000
225.884;   35.300;   86.000;    5.000
226.028; -157.100; -760.000; -626.000
226.172; -109.900; -260.000; -273.000
226.316; -193.300; -941.000; -902.000
226.460; -118.900; -645.000; -493.000
226.604; -102.000; -406.000; -400.000
226.748; -221.200; -836.000; -733.000
226.892;  -65.100; -227.000; -181.000
227.036; -120.000; -537.000; -447.000
227.180; -113.700; -551.000; -375.000
227.324; -128.100; -561.000; -580.000
227.468; -222.900; -819.000; -717.000
227.612;   -5.300;  242.000;  -28.000
227.756; -229.600; -845.000; -698.000
227.900;   91.900;  342.000;  441.000
228.044; -129.700; -509.000; -290.000
228.188;  131.600;  448.000;  568.000
228.332; -176.400; -546.000; -472.000
228.476;  -36.100; -223.000; -149.000
228.620;  -19.600; -210.000; -150.000
228.764;  130.600;  431.000;  349.000
228.908;  -28.600; -155.000;   30.000
229.052; -118.700; -615.000; -528.000
229.195;   19.800; -172.000;   13.000
229.339;  -59.300; -235.000; -305.000
229.483;  -73.700;    5.000; -162.000
229.627;   22.200; -156.000;  139.000
229.771;  -67.400; -218.000; -294.000
229.915;   47.300;  230.000;   79.000
230.059; -146.900; -648.000; -663.000
230.202;  -99.800; -370.000; -317.000
230.346;  -36.000; -107.000;  107.000
230.490; -118.000; -489.000; -521.000
230.634; -204.600; -736.000; -553.000
230.777;  148.600;  478.000;  509.000
230.921; -100.800; -450.000; -359.000
231.065;  -75.000; -246.000; -286.000
231.209;   50.500;  261.000;  265.000
231.352;   46.000;   54.000;   40.000
231.496;   57.800;  568.000;  188.000
231.640; -159.600; -693.000; -621.000
231.783;  135.500;  546.000;  525.000
231.927; -107.800; -294.000; -365.000
232.071; -216.200; -962.000; -736.000
232.214; -235.300; -980.000; -764.000
232.358; -223.300; -683.000; -599.000
232.502;   19.900;  -19.000;    7.000
232.645; -263.500;-1090.000; -927.000
232.789;  -76.000; -257.000; -218.000
232.933;  -66.800; -407.000; -224.000
233.076; -258.000;-1038.000; -897.000
233.220; -222.600; -752.000; -777.000
233.363; -154.600; -669.000; -477.000
233.507;  159.600;  371.000;  129.000
233.650; -172.500; -764.000; -834.000
233.794;   97.500;  438.000;  461.000
233.938; -129.400; -530.000; -362.000
234.081;  -36.500;  -93.000;   31.000
234.225; -128.000; -631.000; -539.000
234.368; -241.400; -773.000; -723.000
234.512;  -89.200; -385.000; -299.000
234.655; -191.100; -582.000; -555.000
234.798; -129.300; -493.000; -466.000
234.942; -241.400; -884.000;-1002.000
235.085; -171.000; -651.000; -443.000
235.229; -164.100; -405.000; -410.000
235.372; -112.400; -247.000; -191.000
235.516; -106.000; -397.000; -321.000
235.659;   20.100;   92.000;  121.000
235.802;  -29.300;  -38.000;  -22.000
235.946;   61.100;  335.000;  215.000
236.089;   84.200;  126.000;  250.000
236.233;  110.300;  275.000;  298.000
236.376;  -60.100; -235.000; -378.000
236.519;  -99.800; -297.000; -319.000
236.663;  -22.900; -215.000; -117.000
236.806; -270.500;-1029.000; -999.000
236.949;  141.600;  543.000;  431.000
237.092;  123.000;  412.000;  391.000
237.236; -165.900; -589.000; -502.000
237.379;  154.300;  352.000;  428.000
237.522; -227.500; -879.000; -768.000
237.666;  -26.100; -271.000;   18.000
237.809; -229.400; -851.000; -823.000
237.952;   84.100;  469.000;  271.000
238.095; -133.500; -447.000; -442.000
238.238;  150.300;  688.000;  700.000
238.382;   28.100;  166.000;  103.000
238.525; -130.400; -598.000; -511.000
238.668; -248.900;-1060.000; -985.000
238.811; -173.200; -638.000; -643.000
238.954;  -82.800; -483.000; -334.000
239.097;  170.300;  617.000;  664.000
239.241;   78.200;  394.000;  326.000
239.384;  -78.000; -254.000; -214.000
239.527; -160.900; -424.000; -224.000
239.670; -288.800; -994.000;-1091.000
239.813; -260.700; -696.000; -658.000
239.956;  149.200;  579.000;  473.000
240.099; -230.700; -778.000; -725.000
240.242;  156.900;  428.000;  432.000
240.385;  100.900;  466.000;  450.000
240.528; -136.700; -706.000; -473.000
240.671;   25.600;  189.000;  134.000
240.814;  -58.400; -441.000; -158.000
240.957; -176.000; -767.000; -578.000
241.100; -220.400; -779.000; -755.000
241.243; -277.900;-1234.000; -893.000
241.386; -134.900; -508.000; -379.000
241.529; -157.300; -735.000; -547.000
241.672; -111.300; -566.000; -495.000
241.815; -239.700; -832.000; -808.000
241.958;  -41.700; -125.000; -182.000
242.101; -163.500; -545.000; -390.000
242.244;  -82.800; -270.000; -325.000
242.387;  -64.300; -304.000; -246.000
242.530;  119.800;  470.000;  134.000
242.673;  -61.500; -381.000; -309.000
242.815; -225.400; -925.000; -899.000
242.958; -117.400; -482.000; -381.000
243.101;   55.900;  132.000;  187.000
243.244; -150.600; -564.000; -521.000
243.387; -107.400; -313.000; -316.000
243.530; -191.800; -657.000; -674.000
243.672;   -7.400;   43.000;  -92.000
243.815;  -75.800; -355.000; -283.000
243.958;    7.700;   98.000;  -26.000
244.101;   19.000;   59.000;  -16.000
244.243;  -16.800;  -47.000;  101.000
244.386; -185.800; -761.000; -630.000
244.529;  -39.300; -132.000; -139.000
244.672; -300.200;-1154.000; -951.000
244.814; -196.400; -621.000; -794.000
244.957; -139.500; -380.000; -304.000
245.100; -133.000; -489.000; -489.000
245.242; -123.100; -387.000; -374.000
245.385;  -32.500;  -59.000;  -39.000
245.528; -212.300; -871.000; -705.000
245.670;  191.100;  612.000;  634.000
245.813; -154.000; -599.000; -547.000
245.956;  -79.900; -324.000; -275.000
246.098; -148.700; -508.000; -650.000
246.241;    4.000;  194.000;   48.000
246.383;  -18.700; -119.000;  -73.000
246.526; -170.000; -454.000; -525.000
246.669; -223.000; -889.000; -780.000
246.811;   58.400;  172.000;   -1.000
246.954; -111.500; -512.000; -426.000
247.096;  -43.500;  -84.000;   -6.000
247.239; -142.900; -482.000; -445.000
247.381; -163.600; -647.000; -488.000
247.524;  184.000;  645.000;  679.000
247.666;  -18.500;   58.000;   11.000
247.809; -208.900; -887.000; -691.000
247.951;  -31.600;  -75.000;  138.000
248.094;   71.100;  432.000;  308.000
248.236; -319.200;-1262.000;-1238.000
248.378;  -26.800; -356.000;  -81.000
248.521;  -78.600; -334.000; -337.000
248.663;  -49.800; -236.000; -267.000
248.806;  -50.200; -300.000; -266.000
248.948; -235.800; -886.000; -763.000
249.090; -101.200; -428.000; -398.000
249.233; -108.700; -344.000; -381.000
249.375; -124.000; -474.000; -451.000
249.518;  -10.700;  -83.000; -133.000
249.660;   -1.300; -103.000;    3.000
249.802; -322.900;-1303.000;-1189.000
249.945; -150.900; -612.000; -540.000
250.087; -228.800; -834.000; -768.000
250.229; -104.900; -362.000; -480.000
250.371; -109.200; -494.000; -439.000
250.514;  -91.500; -310.000; -244.000
250.656;  -11.800;   69.000;  102.000
250.798; -252.800; -849.000; -800.000
250.940; -116.000; -322.000; -322.000
251.083;  -42.800; -335.000; -111.000
251.225;  142.100;  338.000;  310.000
251.367;  -63.900; -274.000; -373.000
251.509;  -51.100; -265.000; -210.000
251.651; -185.700; -731.000; -671.000
251.794;  112.300;  538.000;  632.000
251.936; -209.000; -821.000; -747.000
252.078; -185.300; -540.000; -461.000
252.220; -152.000; -645.000; -477.000
252.362;  133.400;  344.000;  462.000
252.504; -163.600; -677.000; -584.000
252.646; -222.800; -875.000; -722.000
252.788;  -32.200;   14.000; -128.000
252.931;  -77.200; -257.000; -253.000
253.073; -104.000; -376.000; -317.000
253.215;  -28.800;  141.000;  122.000
253.357;  -34.800;   82.000; -153.000
253.499;  -81.600; -374.000; -234.000
253.641; -174.900; -749.000; -594.000
253.783; -183.200; -609.000; -527.000
253.925; -195.800; -586.000; -591.000
254.067; -185.000; -744.000; -667.000
254.209;  -80.200; -391.000; -259.000
254.351; -247.800; -865.000; -883.000
254.493; -126.500; -441.000; -417.000
254.635; -203.600; -936.000; -818.000
254.777; -181.600; -752.000; -687.000
254.918; -142.500; -512.000; -430.000
255.060; -140.300; -551.000; -395.000
255.202; -113.700; -473.000; -261.000
255.344; -170.100; -658.000; -455.000
255.486; -150.100; -471.000; -406.000
255.628; -211.500; -780.000; -781.000
255.770; -174.300; -676.000; -536.000
255.912; -102.400; -559.000; -468.000
256.053; -160.500; -730.000; -508.000
256.195;  304.800; 1008.000;  903.000
256.337; -205.500; -861.000; -595.000
256.479;  104.400;  532.000;  416.000
256.621;  -96.700; -394.000; -212.000
256.762; -190.300; -789.000; -742.000
256.904;  112.100;  485.000;  487.000
257.046;  -70.000; -381.000; -271.000
257.188;  -36.400; -351.000; -264.000
257.329; -170.600; -525.000; -464.000
257.471; -207.900; -939.000; -807.000
257.613; -126.700; -584.000; -498.000
257.755; -295.900;-1073.000; -982.000
257.896;   56.000;  286.000;  392.000
258.038; -121.500; -403.000; -352.000
258.180;  -98.500; -354.000; -279.000
258.321; -164.400; -581.000; -457.000
258.463;   15.200;  -71.000;  133.000
258.605; -132.500; -562.000; -570.000
258.746; -228.000; -886.000; -772.000
258.888; -276.100;-1026.000;-1020.000
259.029;   37.700;  121.000;   -8.000
259.171; -177.100; -614.000; -550.000
259.313;    5.900;  -49.000;  -47.000
259.454; -130.200; -536.000; -414.000
259.596; -113.700; -483.000; -390.000
259.737; -139.200; -590.000; -474.000
259.879;   95.400;  217.000;  311.000
260.020;  195.400;  901.000;  636.000
260.162;  -21.900; -146.000; -253.000
260.303; -224.200; -768.000; -687.000
260.445; -160.900; -609.000; -613.000
260.586;   63.200;  392.000;  157.000
260.728;  -80.300; -360.000; -248.000
260.869; -142.200; -350.000; -343.000
261.011;  162.100;  706.000;  537.000
261.152;  -93.100; -479.000; -319.000
261.293; -176.600; -576.000; -595.000
261.435;  -82.500; -219.000; -184.000
261.576; -117.900; -455.000; -325.000
261.718;   92.500;  420.000;  470.000
261.859; -248.000; -940.000; -949.000
262.000; -258.400; -951.000;-1016.000
262.142;  -26.800;  -52.000;  -60.000
262.283; -226.200; -808.000; -691.000
262.424; -174.400; -666.000; -625.000
262.566; -306.400;-1161.000; -983.000
262.707; -242.600; -840.000; -830.000
262.848; -228.200; -769.000; -726.000
262.990; -126.400; -362.000; -345.000
263.131;  174.000;  650.000;  681.000
263.272;  -24.700;  -61.000;  -41.000
263.413; -169.500; -589.000; -561.000
263.555; -125.500; -669.000; -143.000
263.696; -162.200; -550.000; -641.000
263.837; -123.900; -449.000; -551.000
263.978;   48.400;   -5.000;  -77.000
264.119;  -79.700; -283.000; -264.000
264.261; -208.700; -847.000; -630.000
264.402;   -2.200;   33.000;   40.000
264.543; -127.700; -509.000; -524.000
264.684;    6.000;   61.000;  -50.000
264.825; -130.600; -816.000; -538.000
264.966;  -18.900;  -84.000;  -67.000
265.107; -195.800; -646.000; -670.000
265.248; -254.500; -825.000; -812.000
265.390;    2.500;  152.000;   -9.000
265.531;  -60.400; -238.000; -107.000
265.672; -160.100; -557.000; -630.000
265.813;  124.800;  563.000;  439.000
265.954; -263.900; -959.000; -940.000
266.095;   -7.000; -372.000; -322.000
266.236; -179.100; -686.000; -548.000
266.377;  -61.300; -243.000; -297.000
266.518; -137.400; -619.000; -547.000
266.659;   69.100;  170.000;  268.000
266.800;   32.400;   83.000;   85.000
266.941; -145.800; -487.000; -478.000
267.082;   27.600;  354.000;   99.000
267.223; -114.900; -344.000; -273.000
267.364; -222.300; -892.000; -686.000
267.504;  -27.000;    3.000;  135.000
267.645;   10.500;  160.000;   67.000
267.786;  -46.700; -147.000;  -86.000
267.927; -136.700; -473.000; -379.000
268.068;  -53.400; -186.000;  -61.000
268.209; -119.700; -175.000; -413.000
268.350;  -99.700; -388.000; -532.000
268.490; -172.500; -648.000; -521.000
268.631;   81.200;  127.000;  225.000
268.772; -190.900; -874.000; -647.000
268.913;  -88.700; -328.000; -476.000
269.054;  -37.400; -117.000;   12.000
269.194;  -96.700; -418.000; -402.000
269.335; -270.600;-1137.000;-1074.000
269.476;  -41.800;   33.000;  -35.000
269.617;  -84.700; -347.000; -392.000
269.757; -184.600; -713.000; -646.000
269.898; -212.800; -856.000; -613.000
270.039; -147.800; -415.000; -405.000
270.180; -251.400; -952.000; -816.000
270.320;  -72.900; -190.000; -250.000
270.461;  -75.000; -277.000; -249.000
270.602;   -0.800; -186.000; -156.000
270.742; -254.900; -868.000; -943.000
270.883; -120.200; -442.000; -390.000
271.023; -126.800; -358.000; -357.000
271.164; -146.100; -607.000; -528.000
271.305; -212.900; -666.000; -654.000
271.445; -178.200; -722.000; -683.000
271.586; -134.800; -462.000; -283.000
271.726; -113.100; -397.000; -322.000
271.867; -120.100; -594.000; -534.000
272.008;  110.600; -473.000; -285.000
272.148;  161.300;  462.000;  468.000
272.289;    6.400; -113.000; -181.000
272.429;    3.800;   19.000;  185.000
272.570; -194.400; -633.000; -737.000
272.710; -194.100; -825.000; -775.000
272.851;  -59.600;  113.000; -130.000
272.991; -298.500;-1173.000;-1077.000
273.131; -133.100; -419.000; -459.000
273.272; -178.500; -683.000; -723.000
273.412;  -11.300; -143.000;  -31.000
273.553; -130.300; -488.000; -507.000
273.693;  241.400;  913.000;  858.000
273.834; -229.900; -894.000; -692.000
273.974; -167.200; -664.000; -615.000
274.114; -160.700; -772.000; -560.000
274.255;  103.600;  414.000;  373.000
274.395;  -66.800; -180.000; -125.000
274.535;   69.200;  199.000;  350.000
274.676;   67.800;  225.000;   94.000
274.816;   14.000;  110.000;   34.000
274.956; -167.000; -624.000; -690.000
275.097; -228.200;-1014.000; -922.000
275.237; -218.100; -913.000; -803.000
275.377; -198.100; -778.000; -689.000
275.517; -295.500; -878.000; -937.000
275.658; -147.900; -590.000; -555.000
275.798; -133.000; -606.000; -413.000
275.938;   41.400;  215.000;  323.000
276.078; -211.000; -626.000; -395.000
276.218;  -23.800;   99.000;  104.000
276.359; -276.800;-1026.000;-1024.000
276.499; -168.000; -605.000; -446.000
276.639;  -42.900; -305.000; -151.000
276.779; -100.100; -475.000; -357.000
276.919; -195.100; -783.000; -624.000
277.059;  -49.900; -261.000; -212.000
277.199;  -88.600; -357.000; -259.000
277.340;   82.700;  287.000;  175.000
277.480; -211.700; -840.000; -693.000
277.620;   58.100;  192.000;   16.000
277.760; -397.100;-1533.000;-1294.000
277.900;   24.800;  113.000;   33.000
278.040;   35.700;  137.000;  159.000
278.180;   85.800;  270.000;  170.000
278.320;   12.600;   21.000;   56.000
278.460; -140.700; -443.000; -469.000
278.600; -196.000; -708.000; -598.000
278.740;   79.800;  448.000;  224.000
278.880; -207.200; -768.000; -791.000
279.020;  -23.900; -194.000; -144.000
279.160; -167.000; -672.000; -595.000
279.300; -226.600; -926.000; -873.000
279.440; -185.100; -709.000; -622.000
279.579; -215.600;-1014.000; -929.000
279.719; -123.400; -410.000; -394.000
279.859;   64.100;   -4.000;   41.000
279.999;    7.800; -208.000;  101.000
280.139; -105.000; -435.000; -387.000
280.279; -174.400; -708.000; -745.000
280.419;  -46.000; -229.000; -147.000
280.559;  -68.700; -259.000; -180.000
280.698; -180.700; -790.000; -639.000
280.838; -199.100; -778.000; -800.000
280.978; -175.500; -846.000; -790.000
281.118; -256.900; -811.000; -704.000
281.257;   18.100;   24.000;    6.000
281.397; -274.700;-1094.000; -960.000
281.537; -186.200; -599.000; -712.000
281.677;  -18.700; -150.000; -101.000
281.816; -184.000; -700.000; -630.000
281.956;  -58.000; -193.000; -257.000
282.096;  -88.700; -539.000; -396.000
282.235; -149.100; -672.000; -638.000
282.375;   -4.200; -243.000;  -98.000
282.515; -162.900; -715.000; -707.000
282.654;   61.000;   29.000;  106.000
282.794;   95.300;  388.000;  244.000
282.934;  -86.000; -530.000; -491.000
283.073; -212.300;-1030.000; -857.000
283.213; -100.000; -460.000; -467.000
283.353;  -65.400; -408.000; -349.000
283.492;  -39.400; -264.000; -296.000
283.632;  -73.000; -254.000; -168.000
283.771; -199.700; -859.000; -730.000
283.911;  -74.000; -369.000; -260.000
284.050; -185.400; -794.000; -748.000
284.190; -322.900;-1229.000;-1096.000
284.329; -261.400;-1055.000; -964.000
284.469; -164.700; -516.000; -591.000
284.608;  -96.300; -559.000; -598.000
284.748; -144.500; -614.000; -570.000
284.887;  -12.100;  -87.000;  -20.000
285.027; -248.900; -844.000; -892.000
285.166;  -80.400; -192.000; -249.000
285.306;  -19.800; -116.000;  -33.000
285.445;  -81.400; -229.000; -343.000
285.584; -146.300; -630.000; -494.000
285.724;  -77.300; -282.000; -322.000
285.863; -218.400; -857.000; -507.000
286.002; -105.500; -366.000; -276.000
286.142; -202.400; -715.000; -622.000
286.281; -128.300; -525.000; -493.000
286.420; -117.900; -554.000; -417.000
286.560;  189.900;  653.000;  623.000
286.699; -273.900; -958.000; -912.000
286.838; -179.700; -590.000; -591.000
286.978; -163.500; -533.000; -537.000
287.117; -278.000;-1085.000; -950.000
287.256;  -61.500; -228.000; -211.000
287.395;  -95.200; -197.000; -378.000
287.535;  -65.200; -370.000; -298.000
287.674; -155.400; -509.000; -484.000
287.813;  108.000;  661.000;  533.000
287.952; -244.400;-1010.000; -871.000
288.091; -284.300;-1049.000; -915.000
288.231;   47.500;   13.000;   15.000
288.370; -335.600;-1217.000;-1200.000
288.509; -172.700; -728.000; -645.000
288.648; -134.800; -770.000; -548.000
288.787;  -52.900; -243.000;  -87.000
288.926; -146.300; -454.000; -475.000
289.065;  217.200;  859.000;  672.000
289.204;  -71.200; -377.000; -217.000
289.344; -197.100; -791.000; -690.000
289.483;   64.900;  416.000;  304.000
289.622;  -24.300; -291.000; -149.000
289.761;   -9.300; -309.000; -166.000
289.900; -208.400; -785.000; -626.000
290.039;   -4.500;  -12.000;  -95.000
290.178;  -51.100; -274.000; -180.000
290.317; -155.500; -618.000; -479.000
290.456; -117.100; -463.000; -451.000
290.595; -282.700; -961.000; -833.000
290.734; -279.700; -904.000; -891.000
290.873; -123.700; -456.000; -420.000
291.011; -241.600; -833.000; -843.000
291.150; -217.000; -770.000; -682.000
291.289;  -43.500; -343.000; -110.000
291.428; -138.300; -599.000; -480.000
291.567;  -96.600; -370.000; -442.000
291.706;   -0.200;  109.000;  154.000
291.845; -196.500; -597.000; -505.000
291.984; -329.500;-1234.000;-1061.000
292.122;  159.200;  602.000;  582.000
292.261;  113.600;  620.000;  463.000
292.400;   12.200; -144.000;  211.000
292.539; -246.600; -959.000; -813.000
292.678;  -72.900; -325.000; -300.000
292.816; -318.700;-1136.000; -965.000
292.955; -206.100; -844.000; -684.000
293.094;  -34.900; -173.000; -337.000
293.233;  -95.400; -556.000; -400.000
293.371;  -51.400; -225.000;  -84.000
293.510; -203.800; -866.000; -780.000
293.649; -244.100; -959.000; -924.000
293.787; -223.000;-1083.000;-1012.000
293.926;  -16.700; -113.000;  -32.000
294.065;  -90.500; -379.000; -290.000
294.203;  123.400;  298.000;  406.000
294.342;   14.600;   74.000;  156.000
294.481;11668.800;51180.000; -836.000
294.619;  -42.600; -425.000; -582.000
294.758; -274.000;-1230.000;-1137.000
294.896;   46.600; -125.000;    5.000
295.035; -262.400;-1040.000;-1006.000
295.174; -236.400;-1082.000; -954.000
295.312;  -82.200; -323.000; -203.000
295.451;  -74.100; -307.000; -428.000
295.589; -120.500; -389.000; -518.000
295.728;   -1.300; -292.000; -165.000
295.866;   14.400;  -36.000;  -51.000
296.005; -171.100; -584.000; -341.000
296.143; -131.700; -558.000; -596.000
296.282; -206.100; -957.000; -881.000
296.420; -150.400; -657.000; -557.000
296.559; -172.900; -892.000; -633.000
296.697;  -66.400; -847.000; -665.000
296.835; -112.600;-1141.000;-1002.000
296.974;   94.000;  -23.000;   39.000
297.112;  -53.800; -443.000; -504.000
297.251; -158.300; -815.000; -755.000
297.389;  -12.300; -576.000; -438.000
297.527;   39.000; -145.000;  -83.000
297.666; -108.400; -486.000; -438.000
297.804; -112.300; -404.000; -264.000
297.942;  -17.400; -136.000; -161.000
298.081;  -14.500; -183.000;   63.000
298.219;   38.400;  -17.000;  -19.000
298.357;  -13.500; -144.000;  -71.000
298.495; -161.900; -810.000; -812.000
298.634;   34.400;  245.000;  219.000
298.772;  -24.100; -220.000; -338.000
298.910;  -77.200; -309.000; -182.000
299.048;  -48.200; -130.000; -153.000
299.187;  -58.300; -350.000; -250.000
299.325;  -26.700;   52.000;  122.000
299.463;  -81.400; -389.000; -299.000
299.601;   26.200; -327.000; -271.000
299.739; -252.200; -908.000; -883.000
299.877; -201.600; -791.000; -703.000
300.016; -235.400;-1095.000; -935.000
300.154;   98.000;  -19.000; -161.000
300.292;  -53.800; -428.000; -348.000
300.430;  -26.300; -408.000; -291.000
300.568; -250.300; -940.000; -874.000
300.706; -149.900; -366.000; -469.000
300.844; -244.700;-1108.000; -979.000
300.982;  145.400;  246.000;  282.000
301.120; -267.800; -965.000; -866.000
301.258; -198.900; -812.000; -705.000
301.396;   53.600;  104.000;  -41.000
301.534;  -23.000; -218.000; -293.000
301.672; -147.300; -664.000; -521.000
301.810; -130.800; -613.000; -545.000
301.948;  100.400;   53.000;  149.000
302.086;  319.200; -250.000;  -32.000
302.224;  470.300; -610.000; -585.000
302.362; -125.300; -558.000; -622.000
302.500; -189.300; -923.000; -893.000
302.638;   69.500;  128.000;  245.000
302.776;  -55.600; -352.000; -408.000
302.913;  106.400;  447.000;  236.000
303.051;   -7.700;  -86.000;  -23.000
303.189;   53.600;   90.000;  118.000
303.327;  -55.100; -341.000; -256.000
303.465; -215.300; -832.000; -588.000
303.603; -161.800; -805.000; -604.000
303.740;   98.300;  417.000;  241.000
303.878; -115.500; -800.000; -759.000
304.016; -188.300; -915.000; -790.000
304.154; -315.600;-1123.000;-1152.000
304.291; -103.000; -505.000; -554.000
304.429;   11.700;  102.000;   74.000
304.567; -267.000; -908.000; -893.000
304.705; -117.700; -408.000; -515.000
304.842;  -70.600; -616.000; -540.000
304.980;   56.900;  215.000;   35.000
305.118;  -40.300; -367.000; -365.000
305.255; -197.200; -945.000; -927.000
305.393;  104.100;  178.000;  239.000
305.531; -271.400;-1173.000; -956.000
305.668; -169.200; -663.000; -582.000
305.806;  -29.200; -358.000; -439.000
305.943;  -45.100; -629.000; -637.000
306.081;  -45.700; -378.000; -267.000
306.219; -199.800; -863.000; -748.000
306.356;   33.000;  158.000;   27.000
306.494;  345.800;  981.000;  761.000
306.631;   75.100;  -11.000;  -55.000
306.769;  -22.400; -613.000; -485.000
306.906;   37.900; -284.000; -258.000
307.044;  -39.700; -473.000; -488.000
307.181;  -33.800; -410.000; -332.000
307.319;  152.500;  112.000;   87.000
307.456; -319.500;-1191.000;-1153.000
307.594; -210.600; -980.000; -727.000
307.731;   10.800; -371.000; -164.000
307.868;   29.500;  -15.000;   20.000
308.006; -250.200; -961.000; -847.000
308.143; -115.600; -618.000; -330.000
308.281;  138.700;  -37.000; -254.000
308.418;  -92.400; -748.000; -640.000
308.555;  -96.600; -400.000; -250.000
308.693; -105.600; -577.000; -573.000
308.830; -144.800; -712.000; -657.000
308.967;    9.900; -215.000;  -95.000
309.105;   28.400; -507.000; -396.000
309.242;   72.800; -468.000; -367.000
309.379;  165.200; -577.000; -655.000
309.517; -128.300; -936.000; -948.000
309.654; -124.400; -910.000; -734.000
309.791;  -97.000; -662.000; -580.000
309.928; -180.000; -977.000; -914.000
310.065;  324.800;  819.000;  697.000
310.203;  -98.900; -825.000; -850.000
310.340;   -8.000; -465.000; -321.000
310.477; -125.100; -412.000; -516.000
310.614;  -63.600; -383.000; -473.000
310.751;  -71.800; -427.000; -518.000
310.889;  -17.200;    1.000;   11.000
311.026; -249.300;-1161.000; -939.000
311.163;  -39.000; -386.000; -380.000
311.300;  -96.900; -512.000; -479.000
311.437; -119.200; -658.000; -619.000
311.574; -265.500;-1226.000; -985.000
311.711;  -90.300; -595.000; -433.000
311.848;  -26.300; -380.000; -388.000
311.985;   87.700;  270.000;   93.000
312.122; -206.300; -932.000; -762.000
312.259; -180.600; -941.000; -994.000
312.396;  -47.000; -508.000; -551.000
312.533;  -89.300; -812.000; -790.000
312.670; -222.900;-1070.000; -898.000
312.807;   23.800; -352.000; -367.000
312.944;  -80.000; -513.000; -611.000
313.081;  -14.000; -150.000; -415.000
313.218; -190.400;-1111.000; -867.000
313.355;   -6.000; -531.000; -449.000
313.492;    3.200; -455.000; -292.000
313.629;  236.700;  815.000;  735.000
313.766; -296.300;-1176.000;-1008.000
313.902;   30.900; -186.000;   21.000
314.039;  -64.800; -372.000; -289.000
314.176;   76.600;  286.000;  192.000
314.313; -128.600; -569.000; -473.000
314.450; -119.700; -788.000; -684.000
314.587;  -81.000; -468.000; -480.000
314.723;   91.400;  -78.000;  130.000
314.860;  160.800;  318.000;  332.000
314.997;   98.800;  223.000;  142.000
315.134;  -28.300; -385.000; -368.000
315.270;  -61.500; -480.000; -496.000
315.407; -242.200;-1094.000; -967.000
315.544; -101.600; -657.000; -538.000
315.681; -125.200; -681.000; -565.000
315.817;   47.800; -133.000; -176.000
315.954;  -84.200; -613.000; -392.000
316.091; -258.100;-1045.000;-1023.000
316.227;  -15.500;  -71.000; -179.000
316.364;   65.200;   23.000;    6.000
316.500;  -34.100; -113.000; -300.000
316.637;  -64.100; -181.000; -302.000
316.774; -121.800; -625.000; -358.000
316.910; -159.100; -598.000; -629.000
317.047; -126.200; -487.000; -351.000
317.183; -114.700; -435.000; -566.000
317.320;  -64.800; -367.000; -321.000
317.456; -152.500; -733.000; -805.000
317.593; -125.700; -598.000; -641.000
317.729;   21.400;  168.000;  -67.000
317.866; -367.000;-1434.000;-1285.000
318.002; -182.000; -708.000; -948.000
318.139; -200.000; -883.000; -867.000
318.275; -214.300;-1003.000; -738.000
318.412;  -74.100; -517.000; -336.000
318.548; -138.300; -751.000; -720.000
318.685; -219.200; -985.000; -888.000
318.821; -172.000; -762.000; -735.000
318.957;  -14.900;   34.000;  -23.000
319.094;  125.500;  297.000;  154.000
319.230; -151.600; -756.000; -742.000
319.367;   18.200; -471.000; -520.000
319.503;  -35.100; -538.000; -436.000
319.639; -205.800; -877.000; -793.000
319.775; -181.100; -750.000; -685.000
319.912; -123.200; -424.000; -519.000
320.048; -242.800;-1184.000;-1184.000
320.184;   98.300;   59.000;   70.000
320.321;  -71.800; -497.000; -467.000
320.457;   97.100;  475.000;  662.000
320.593; -139.500; -375.000; -382.000
320.729; -196.400; -732.000; -734.000
320.866; -156.800; -577.000; -635.000
321.002; -212.700; -759.000; -809.000
321.138;  -37.500; -135.000; -211.000
321.274;    6.300; -148.000; -115.000
321.410; -127.800; -585.000; -353.000
321.546; -174.100;-1011.000; -911.000
321.683;   75.200;  400.000;  185.000
321.819;   -8.900;  -48.000; -117.000
321.955; -232.900; -743.000; -722.000
322.091; -114.100; -585.000; -540.000
322.227;  -38.900; -382.000; -202.000
322.363;  -60.300; -320.000; -215.000
322.499;  -79.700; -343.000; -331.000
322.635;  197.200;  636.000;  443.000
322.771;   34.800; -139.000;   12.000
322.907;  118.500;  129.000;  327.000
323.043;  -56.500; -115.000; -206.000
323.179; -123.200; -394.000; -363.000
323.315;  -58.900; -401.000; -371.000
323.451;   41.300; -328.000; -236.000
323.587;   40.500;  -60.000;  -77.000
323.723;  -97.800; -682.000; -601.000
323.859;  -46.600; -258.000;  -76.000
323.995; -107.400; -467.000; -409.000
324.131; -258.800; -967.000; -892.000
324.267;  -47.300; -254.000; -276.000
324.402; -257.000; -960.000; -983.000
324.538;  -79.800; -279.000; -104.000
324.674;   47.600;  164.000;   77.000
324.810;  148.700;  226.000;  308.000
324.946;  -57.500; -810.000; -658.000
325.082; -149.700; -568.000; -475.000
325.217;    6.900;  -62.000;   16.000
325.353; -217.200; -764.000; -659.000
325.489; -170.500; -540.000; -506.000
325.625; -132.700; -579.000; -525.000
325.760;   94.200;  517.000;  376.000
325.896;  -98.200; -515.000; -702.000
326.032; -106.000; -403.000; -352.000
326.168; -125.200; -462.000; -369.000
326.303; -115.500; -352.000; -461.000
326.439;  -23.800; -336.000; -276.000
326.575;  -21.400; -190.000;  -29.000
326.710;  -43.100; -156.000;  -30.000
326.846;   10.600;  146.000;  103.000
326.982; -172.100; -530.000; -548.000
327.117; -137.500; -481.000; -442.000
327.253; -183.500; -745.000; -742.000
327.388; -308.100;-1137.000;-1153.000
327.524; -142.200; -811.000; -578.000
327.659;  -11.400;  -58.000;  -22.000
327.795;  -11.500;   69.000;   45.000
327.931; -160.000; -723.000; -499.000
328.066;  -48.900; -417.000; -276.000
328.202;  -53.300;   12.000; -129.000
328.337;  207.900;  957.000;  713.000
328.473;  -40.500;  -12.000;  -74.000
328.608;  -59.200; -256.000; -267.000
328.743; -176.500; -799.000; -664.000
328.879;   59.500;  214.000;  114.000
329.014;  -90.000; -102.000; -122.000
329.150; -152.600; -358.000; -483.000
329.285; -126.200; -465.000; -466.000
329.421;  -78.800; -548.000; -246.000
329.556;   22.500;  -36.000;   85.000
329.691; -169.400; -633.000; -615.000
329.827; -125.700; -626.000; -480.000
329.962;  -54.700;  131.000; -301.000
330.097; -150.300; -673.000; -585.000
330.233;  -77.700; -410.000; -223.000
330.368; -217.300; -839.000; -628.000
330.503;   21.100;    3.000;   98.000
330.638;   28.400;  -93.000; -125.000
330.774; -171.400; -609.000; -530.000
330.909;  -88.300; -434.000; -244.000
331.044; -202.700; -714.000; -708.000
331.179; -329.100;-1217.000;-1109.000
331.315;   54.700;   77.000;   20.000
331.450;   60.300;  157.000;  285.000
331.585; -212.500; -805.000; -706.000
331.720; -138.700; -510.000; -460.000
331.855;   -6.400;  -35.000; -102.000
331.990;  171.700;   62.000;  138.000
332.126;  129.100; -110.000;   71.000
332.261;  -73.000; -379.000; -265.000
332.396;  -41.000; -135.000; -242.000
332.531; -248.000;-1074.000;-1031.000
332.666;  -61.000; -519.000; -363.000
332.801; -203.400; -726.000; -807.000
332.936;  -31.800; -192.000; -122.000
333.071; -291.200; -870.000; -817.000
333.206;   34.200;  307.000;  379.000
333.341;  124.100;  344.000;  418.000
333.476; -173.000; -627.000; -623.000
333.611;  -66.400; -251.000; -173.000
333.746; -118.100; -381.000; -464.000
333.881; -212.300; -973.000; -935.000
334.016; -251.300; -936.000; -917.000
334.151; -217.400; -746.000; -702.000
334.286;   37.600;  152.000;  186.000
334.421;  -18.500; -125.000; -178.000
334.556; -154.000; -611.000; -567.000
334.690; -186.900; -631.000; -577.000
334.825;  142.100;  381.000;   83.000
334.960; -140.500; -285.000; -413.000
335.095;    6.600;  135.000;  -91.000
335.230; -194.100; -722.000; -738.000
335.365; -282.900;-1084.000; -990.000
335.499; -283.600;-1108.000;-1037.000
335.634;   10.000;    9.000;  534.000
335.769; -230.700; -755.000; -720.000
335.904; -138.600; -603.000; -561.000
336.038; -156.300; -735.000; -657.000
336.173; -305.000;-1206.000;-1194.000
336.308;  -25.400; -116.000; -189.000
336.443;  -58.000; -544.000; -634.000
336.577; -242.700; -936.000; -787.000
336.712;    0.000;   -4.000;  -12.000
336.847; -184.600; -724.000; -607.000
336.981;  -55.300; -272.000; -208.000
337.116;  233.800;  615.000;  501.000
337.250;   -8.500; -434.000; -421.000
337.385;  169.500; -297.000; -208.000
337.520;  -54.400; -632.000; -603.000
337.654;  -48.200; -215.000; -126.000
337.789; -270.200; -989.000; -933.000
337.923;  -62.000; -104.000; -205.000
338.058; -191.700; -673.000; -738.000
338.192; -147.100; -611.000; -488.000
338.327;  -18.800;  -18.000; -155.000
338.461; -136.700; -299.000; -469.000
338.596; -176.100; -780.000; -638.000
338.730; -200.500; -767.000; -803.000
338.865;   60.000;  -46.000; -140.000
338.999; -203.600; -846.000; -702.000
339.134; -139.300; -634.000; -536.000
339.268; -129.300; -741.000; -603.000
339.403;   47.900; -740.000; -775.000
339.537;  -84.600; -894.000; -820.000
339.671; -244.000; -829.000; -813.000
339.806; -129.700; -556.000; -512.000
339.940;   14.400; -261.000; -235.000
340.074; -171.500; -685.000; -510.000
340.209;  -99.500; -351.000; -230.000
340.343; -165.900; -517.000; -573.000
340.477;  284.800;  998.000; 1036.000
340.612; -191.200;-1033.000; -900.000
340.746;    9.300; -199.000; -243.000
340.880; -197.300; -924.000; -785.000
341.014;  -21.700;  -45.000; -154.000
341.149; -217.000; -756.000; -718.000
341.283; -233.000; -839.000; -754.000
341.417; -254.100;-1124.000; -938.000
341.551;  -34.400; -768.000; -708.000
341.685; -111.800; -633.000; -611.000
341.820; -141.900; -562.000; -493.000
341.954;  -86.600; -218.000; -349.000
342.088; -288.000;-1102.000;-1019.000
342.222;  116.000;  565.000;  618.000
342.356; -128.100; -395.000; -335.000
342.490; -197.600; -880.000; -841.000
342.624;  -84.500; -339.000; -242.000
342.758;  -81.700; -364.000; -312.000
342.892; -158.200; -710.000; -585.000
343.026;  -75.800;  -58.000; -116.000
343.160;  -96.000; -426.000; -376.000
343.294; -137.000; -474.000; -337.000
343.428; -122.300; -488.000; -448.000
343.562;  -23.800; -172.000;  -23.000
343.696;  -84.200; -385.000; -314.000
343.830;  -61.000; -362.000; -356.000
343.964;  -23.700; -231.000; -168.000
344.098;  634.800;  199.000;   70.000
344.232;  509.300; -266.000; -127.000
344.366;  -38.500; -567.000; -453.000
344.500;  -67.800; -665.000; -744.000
344.634;    0.900; -324.000; -164.000
344.768;  -96.400; -531.000; -341.000
344.902;   64.500;  278.000;  256.000
345.035; -127.000; -556.000; -496.000
345.169; -259.400; -933.000; -656.000
345.303; -150.900; -308.000; -482.000
345.437; -175.100; -826.000; -717.000
345.571; -177.300; -675.000; -594.000
345.704; -136.900; -309.000; -532.000
345.838;  -72.400; -331.000; -284.000
345.972; -138.000; -543.000; -495.000
346.106;   66.300; -179.000; -190.000
346.239;  216.900; -312.000; -243.000
346.373;  -44.700; -343.000; -302.000
346.507; -260.700; -950.000; -962.000
346.640;   66.600;  -30.000;   13.000
346.774; -153.400; -650.000; -797.000
346.908;  -41.700; -138.000;  -11.000
347.041; -190.500; -646.000; -593.000
347.175;   32.700;  259.000;   27.000
347.309; -173.100; -698.000; -628.000
347.442; -204.800; -883.000; -732.000
347.576;  302.900;  670.000;  668.000
347.709;  131.300; -123.000;  -52.000
347.843; -227.200; -933.000; -825.000
347.976;   72.500;  235.000;  294.000
348.110; -315.500;-1268.000;-1186.000
348.243; -195.200; -679.000; -772.000
348.377;   27.600;  -26.000;   60.000
348.510;  148.100;  403.000;  540.000
348.644;  -42.300;  -37.000; -159.000
348.777;   25.100;  180.000;  191.000
348.911;  -50.200; -142.000; -112.000
349.044;  164.600;  471.000;  448.000
349.178;  -88.000;-1069.000;-1006.000
349.311;  133.900;  141.000;  255.000
349.444; -162.100; -927.000; -813.000
349.578;  -44.300; -347.000; -200.000
349.711; -212.000; -959.000; -862.000
349.845; -103.400; -661.000; -591.000
349.978; -330.800;-1224.000;-1137.000
350.111; -150.100; -546.000; -612.000
350.244; -175.900; -596.000; -700.000
350.378;  -39.500; -392.000; -393.000
350.511; -136.700; -393.000; -426.000
350.644; -220.800; -808.000; -806.000
350.778;   36.900;  168.000;  104.000
350.911;   21.000;  134.000;  140.000
351.044; -183.900; -685.000; -615.000
351.177;  -64.000; -321.000; -281.000
351.310;  -34.800;    3.000; -131.000
351.444; -194.800; -888.000; -788.000
351.577;  107.000;  140.000;   90.000
351.710;  201.500;  593.000;  417.000
351.843;  -38.800; -165.000;  -77.000
351.976;   18.500;  149.000;  -79.000
352.109; -183.000; -621.000; -612.000
352.242;  -86.500; -464.000; -419.000
352.376; -160.200; -580.000; -636.000
352.509;    8.100; -437.000; -356.000
352.642; -200.600; -654.000; -604.000
352.775;   19.900; -141.000;  -98.000
352.908; -252.000; -933.000; -904.000
353.041; -223.300; -814.000; -824.000
353.174; -146.800; -551.000; -424.000
353.307; -225.100; -753.000; -764.000
353.440;  133.500;  541.000;  453.000
353.573; -248.300; -957.000;-1008.000
353.706; -175.100; -384.000; -558.000
353.839;  -68.900; -264.000; -220.000
353.971; -142.400; -657.000; -512.000
354.104; -248.700; -896.000; -835.000
354.237; -137.300; -627.000; -662.000
354.370; -201.500; -846.000; -879.000
354.503; -362.500;-1231.000;-1308.000
354.636;  -92.900; -529.000; -348.000
354.769; -250.300; -937.000; -860.000
354.902;  -55.100; -230.000; -139.000
355.034;  -20.600; -164.000; -220.000
355.167;  -83.700; -262.000; -162.000
355.300; -252.200;-1061.000; -880.000
355.433;  637.100;  -71.000;  -14.000
355.565;  902.800; -402.000; -384.000
355.698;  179.500; -356.000; -296.000
355.831; -175.800; -882.000; -801.000
355.964;   18.700; -285.000; -170.000
356.096; -210.200; -856.000; -843.000
356.229; -107.900; -523.000; -530.000
356.362;  125.700; -373.000; -266.000
356.494;  377.700; -229.000; -162.000
356.627;  370.900;  269.000;  377.000
356.760;  454.600;  120.000;   53.000
356.892;  508.600; -286.000; -601.000
357.025;  470.400;  403.000;  389.000
357.157;  357.900; -167.000; -179.000
357.290;  362.900; -856.000; -713.000
357.423;   32.500; -667.000; -556.000
357.555;  -10.200; -217.000; -228.000
357.688;  -11.100; -483.000; -364.000
357.820;   87.200; -870.000; -877.000
357.953; 2073.400; -563.000; -589.000
358.085;  347.000; -632.000; -612.000
358.218;  444.800;-1131.000; -932.000
358.350;  117.700;  -58.000;  312.000
358.483; -315.800;-1300.000;-1187.000
358.615; -208.700;-1182.000;-1078.000
358.747; -256.000;-1187.000;-1058.000
358.880; -132.900; -810.000; -744.000
359.012;  -61.600; -376.000; -202.000
359.145; -118.500; -480.000; -511.000
359.277; -144.900; -962.000; -913.000
359.409; 1848.500;  536.000;  231.000
359.542;  330.500; -738.000; -688.000
359.674;   45.100;   46.000;   13.000
359.806; -149.600; -565.000; -438.000
359.939; -101.900; -617.000; -516.000
360.071;  -85.200; -583.000; -579.000
360.203;  -95.500; -411.000; -364.000
360.335;   66.400;  164.000;  -16.000
360.468;   80.500; -249.000; -307.000
360.600; 1385.500; -547.000; -454.000
360.732; 1727.700; -546.000; -423.000
360.864;   15.700;-1216.000;-1044.000
360.996;   90.300; -516.000; -554.000
361.129;  -34.100; -389.000; -598.000
361.261;  -16.900;  110.000; -113.000
361.393;  -35.900; -252.000; -214.000
361.525;   18.300;   94.000;  244.000
361.657; -163.200; -821.000; -703.000
361.789;  -27.500; -139.000; -155.000
361.921;   38.200; -642.000; -593.000
362.053;  285.900;  524.000;  541.000
362.185;   61.100;  288.000;   72.000
362.318; -189.700; -709.000; -705.000
362.450;  168.700;  294.000;  444.000
362.582;  -83.400; -913.000; -870.000
362.714;  -74.400; -353.000; -332.000
362.846; -141.800; -606.000; -490.000
362.978; -225.800; -941.000; -811.000
363.109;  -28.100; -161.000; -260.000
363.241;  127.000; -739.000; -749.000
363.373;  175.700; -649.000; -564.000
363.505;  454.500; -186.000;  -91.000
363.637;  -11.700; -787.000; -601.000
363.769; -287.300;-1067.000;-1080.000
363.901; -143.600; -596.000; -654.000
364.033; -286.300;-1103.000;-1062.000
364.165;  -39.000; -283.000; -283.000
364.296;  -24.700; -316.000; -177.000
364.428; -209.400;-1344.000;-1220.000
364.560; -151.800; -679.000; -661.000
364.692; -154.400; -738.000; -835.000
364.824;   69.400; -588.000; -456.000
364.955;  235.100; -402.000; -564.000
365.087;  403.900;-1097.000; -852.000
365.219; -102.700; -686.000; -816.000
365.351; -163.300; -526.000; -572.000
365.482;   75.500;  300.000;  240.000
365.614;  -90.200; -402.000; -314.000
365.746; -209.900; -729.000; -752.000
365.877; -165.300; -706.000; -672.000
366.009;  140.300;  -35.000;  -62.000
366.141; -286.500;-1249.000;-1134.000
366.272; -208.700; -803.000; -719.000
366.404; -253.500;-1005.000; -874.000
366.535;   -1.500; -139.000;  -12.000
366.667; -202.900; -644.000; -649.000
366.799;   81.100;  353.000;  203.000
366.930; -235.500; -862.000; -996.000
367.062;  -50.300; -639.000; -613.000
367.193;  -28.400; -872.000; -842.000
367.325; -129.700; -580.000; -684.000
367.456;  -21.700; -246.000;   31.000
367.588;   54.900; -371.000; -318.000
367.719;   13.900;  -44.000;  -45.000
367.851;  -68.700; -222.000; -241.000
367.982; -168.400; -875.000; -732.000
368.113;   25.500; -475.000; -358.000
368.245; -243.100; -960.000; -841.000
368.376;  -48.800; -254.000; -302.000
368.508;  -65.600; -188.000; -263.000
368.639; -266.400;-1166.000;-1034.000
368.770; -134.900; -670.000; -589.000
368.902; -194.500; -836.000; -926.000
369.033; -228.300; -906.000; -855.000
369.164; -161.800; -720.000; -653.000
369.296; -166.500; -452.000; -601.000
369.427;  -22.800; -209.000; -144.000
369.558; -123.300; -593.000; -377.000
369.689; -186.800; -721.000; -569.000
369.821; -241.100; -951.000; -845.000
369.952;   17.600;   42.000; -108.000
370.083;  -63.400; -229.000; -108.000
370.214; -180.600; -735.000; -650.000
370.345;   21.300;   65.000;   81.000
370.477; -219.900; -810.000; -790.000
370.608;  125.100; -328.000; -264.000
370.739; -223.600;-1233.000;-1292.000
370.870; -218.200;-1102.000; -923.000
371.001;    9.200; -378.000; -467.000
371.132; -181.900; -754.000; -735.000
371.263;  -39.200;  -42.000; -148.000
371.394; -254.200; -841.000; -748.000
371.525;   98.500;  345.000;  225.000
371.657; -194.000; -808.000; -670.000
371.788;   67.900;  103.000;  199.000
371.919;   60.000; -384.000; -304.000
372.050; 2625.500;  -91.000; -156.000
372.181;  720.300; -188.000; -294.000
372.311;  264.500;   42.000; -127.000
372.442;  -19.400; -457.000; -451.000
372.573;  -42.100; -444.000; -340.000
372.704; -271.000;-1008.000; -980.000
372.835;    5.300; -228.000; -289.000
372.966; -147.300; -646.000; -554.000
373.097; -203.900; -575.000; -711.000
373.228; -143.600; -717.000; -542.000
373.359;  -47.700; -824.000; -536.000
373.490;  398.200; -881.000; -727.000
373.620;  547.100;-1001.000; -803.000
373.751; 1183.400; -332.000; -396.000
373.882;  438.700; -663.000; -733.000
374.013;  -18.800; -449.000; -262.000
374.143; -117.200; -581.000; -659.000
374.274; -246.300; -987.000; -908.000
374.405;   36.600; -388.000; -276.000
374.536;  232.100; -526.000; -387.000
374.666;  592.700; -759.000; -807.000
374.797;  -22.000; -817.000; -868.000
374.928;  387.900; -710.000; -560.000
375.058;  395.100; -535.000; -500.000
375.189;    2.300;  -59.000;  -93.000
375.320; -271.400; -928.000;-1034.000
375.450; -163.600; -625.000; -616.000
375.581; -116.600; -526.000; -436.000
375.712;  -78.300; -574.000; -250.000
375.842;   82.900; -438.000; -415.000
375.973;   28.900; -554.000; -513.000
376.103; -155.800; -665.000; -648.000
376.234; -171.800; -531.000; -552.000
376.364; -212.000; -944.000; -867.000
376.495;  342.700;  925.000;  529.000
376.625;  -96.000; -472.000; -485.000
376.756;  -91.500; -709.000; -678.000
376.886; -241.000;-1178.000;-1026.000
377.017; -164.000;-1048.000;-1061.000
377.147;   90.700; -786.000; -782.000
377.278;  109.200;  174.000;  228.000
377.408; -225.200; -801.000; -815.000
377.538; -207.800; -707.000; -693.000
377.669; -141.900; -537.000; -613.000
377.799; -195.800; -645.000; -635.000
377.929; -169.300; -610.000; -428.000
378.060; -240.300; -781.000; -847.000
378.190; -131.000; -726.000; -531.000
378.320; -142.500; -401.000; -406.000
378.451;   -6.400; -131.000;  -22.000
378.581;   23.900;  -67.000; -110.000
378.711;  237.600; 1035.000;  866.000
378.841;  -97.300; -533.000; -675.000
378.972; -208.600; -871.000; -751.000
379.102; -108.900; -652.000; -579.000
379.232;  -50.000; -126.000;  -73.000
379.362; -255.500;-1001.000; -885.000
379.492;  -93.300; -373.000; -424.000
379.623;  107.700;    0.000;  111.000
379.753; -274.800;-1107.000; -974.000
379.883;  204.000;   59.000;  156.000
380.013; -173.700;-1081.000;-1017.000
380.143; -259.800;-1097.000;-1056.000
380.273; -214.900; -985.000; -861.000
380.403;  -68.900; -344.000; -257.000
380.533; -143.800; -651.000; -664.000
380.663;   81.600;  173.000;  128.000
380.793; -234.800;-1027.000;-1074.000
380.923;  -18.600; -103.000;  -34.000
381.053; -155.100; -613.000; -623.000
381.183;   -9.000; -106.000; -248.000
381.313;  -43.000; -656.000; -470.000
381.443;  -54.500; -692.000; -473.000
381.573;   44.800; -402.000; -409.000
381.703;  -51.100;-1249.000;-1095.000
381.833; -328.000;-1454.000;-1336.000
381.963;   77.700; -134.000;  -87.000
382.093;  754.200; -925.000; -909.000
382.223;  102.300; -713.000; -602.000
382.353; -120.300; -801.000; -608.000
382.482;   65.500;-1091.000; -964.000
382.612;  377.800; -872.000; -644.000
382.742;  152.500; -695.000; -622.000
382.872;   64.500; -565.000; -551.000
383.002;   67.000;  347.000; -132.000
383.131;  -77.800; -226.000; -160.000
383.261; -123.200; -706.000; -768.000
383.391;  100.900; -552.000; -377.000
383.521; 2258.500;  451.000;  263.000
383.650;  299.400; -947.000; -904.000
383.780; -149.600; -783.000; -656.000
383.910;  237.800;  880.000;  802.000
384.039; -123.600; -794.000; -656.000
384.169; -116.700;-1205.000;-1017.000
384.299; -125.600; -650.000; -662.000
384.428; -173.300; -764.000; -680.000
384.558;  -54.900; -308.000; -275.000
384.687;  -66.200; -414.000; -334.000
384.817;   16.500;   75.000;   -2.000
384.947;  -11.000; -234.000; -141.000
385.076;  352.300;  982.000;  912.000
385.206;  148.300;  369.000;  480.000
385.335; -134.700; -549.000; -417.000
385.465; -153.200; -655.000; -663.000
385.594;   79.200;  -53.000;  -44.000
385.724;  157.100; -868.000; -838.000
385.853;   44.000; -296.000; -270.000
385.982;  918.800; -743.000; -787.000
386.112; 1328.500;-1052.000; -871.000
386.241;   53.000; -307.000; -312.000
386.371;    0.100; -174.000;  -87.000
386.500; -122.900; -825.000; -789.000
386.629; -126.700; -874.000; -817.000
386.759;   24.800;  -43.000;   68.000
386.888;  -16.200; -170.000; -250.000
387.017; -162.400; -648.000; -620.000
387.147; -174.800; -771.000; -798.000
387.276;  -65.800; -410.000; -397.000
387.405;  -36.600; -398.000; -342.000
387.535; -121.500; -452.000; -361.000
387.664; -153.600; -692.000; -620.000
387.793;    2.800; -198.000; -113.000
387.922;  386.100;  255.000;  200.000
388.052;  -51.900; -576.000; -423.000
388.181;  -61.100; -342.000; -472.000
388.310; -110.200; -889.000; -710.000
388.439; -176.900; -749.000; -742.000
388.568;  153.700;  365.000;  244.000
388.697;  606.000; -756.000; -653.000
388.826;   16.100; -768.000; -666.000
388.956;    9.600; -285.000; -307.000
389.085;  -65.700; -347.000; -287.000
389.214; -197.900; -842.000; -872.000
389.343; -144.300; -645.000; -413.000
389.472;  375.100;  126.000;  149.000
389.601;  384.400;   91.000;    0.000
389.730; -124.900; -568.000; -687.000
389.859;  127.000;  226.000;   46.000
389.988;   70.800; -423.000; -408.000
390.117;  100.100; -168.000; -146.000
390.246;  -51.200; -331.000; -320.000
390.375;  -63.800; -673.000; -626.000
390.504; -140.600; -703.000; -621.000
390.633; -172.700; -672.000; -726.000
390.761; -121.800; -732.000; -645.000
390.890;   44.000;   -4.000; -130.000
391.019;  -82.100; -421.000; -441.000
391.148; -202.400; -826.000; -855.000
391.277; -127.000; -576.000; -493.000
391.406; -198.500; -821.000; -805.000
391.534;   40.800;  574.000; -301.000
391.663; -117.900; -583.000; -645.000
391.792; -175.100; -673.000; -701.000
391.921;   75.000;   -3.000;   15.000
392.050;   84.000; -287.000; -228.000
392.178; -254.000;-1206.000;-1061.000
392.307;  -35.600; -758.000; -712.000
392.436;  -58.000; -427.000; -641.000
392.564;   38.400;  166.000;   -6.000
392.693; -169.600; -860.000; -682.000
392.822;   85.600; -529.000; -534.000
392.950;  -61.100; -880.000; -714.000
393.079;  180.400; -188.000; -328.000
393.208;  -65.700; -488.000; -511.000
393.336;  -31.900; -170.000; -145.000
393.465;  -18.800; -317.000; -199.000
393.593;   71.400;   62.000;   79.000
393.722; -274.500;-1121.000; -916.000
393.850;  -60.400; -188.000;  -61.000
393.979; -260.500; -926.000; -805.000
394.107; -116.000; -517.000; -537.000
394.236; -100.300; -570.000; -507.000
394.364;  225.800;  383.000;  206.000
394.493;  103.200; -911.000; -767.000
394.621; -149.200; -955.000; -916.000
394.750;  339.300; -873.000; -923.000
394.878; 1886.300; -247.000; -149.000
395.007; 2321.800; -721.000; -807.000
395.135;   62.800; -790.000; -721.000
395.263; -273.500;-1038.000;-1040.000
395.392;   29.200;  -25.000; -107.000
395.520; -154.900; -818.000; -679.000
395.648; -228.000; -865.000; -915.000
395.777;  -61.400; -366.000; -405.000
395.905; -133.000; -449.000; -564.000
396.033;   48.000;  217.000;  172.000
396.162;  336.600; -399.000; -453.000
396.290;  327.100;  -17.000;   -2.000
396.418;  -50.900; -555.000; -514.000
396.546; -210.700; -571.000; -466.000
396.674; -221.400; -850.000; -878.000
396.803;   18.000;  -72.000;  -23.000
396.931;   25.900; -179.000; -199.000
397.059; -209.600;-1026.000; -989.000
397.187; -234.500;-1026.000; -975.000
397.315; -234.700; -884.000; -649.000
397.443; -192.500; -592.000; -443.000
397.572; -150.800; -578.000; -424.000
397.700; -146.700; -607.000; -614.000
397.828;  -40.300;  120.000;  -90.000
397.956; -140.700; -508.000; -478.000
398.084; -167.700; -767.000; -626.000
398.212;   65.000;  137.000;  124.000
398.340;   59.200;  -56.000;  159.000
398.468;  -75.500; -390.000; -169.000
398.596; -256.300; -993.000; -953.000
398.724; -198.900; -762.000; -767.000
398.852; -278.100;-1024.000; -976.000
398.980; -139.800; -560.000; -560.000
399.108; -176.800; -982.000; -735.000
399.236;   33.700;   13.000;    8.000
399.363;   79.000;  222.000;  196.000
399.491; -126.900; -404.000; -398.000
399.619; -207.800; -829.000; -800.000
399.747; -199.200; -859.000; -771.000
399.875;  134.700;  220.000;  234.000
400.003;  -79.100; -359.000; -284.000
400.130; -102.700; -421.000; -341.000
400.258;    5.100;  -83.000;   38.000
400.386;  -84.400; -352.000; -168.000
400.514; -134.200; -526.000; -587.000
400.641; -232.100; -928.000; -802.000
400.769; -261.500; -979.000; -888.000
400.897; -218.900; -838.000; -793.000
401.025;  -26.900; -166.000; -152.000
401.152;   53.800;  220.000;   38.000
401.280; -152.200; -430.000; -429.000
401.408; -205.400; -712.000; -576.000
401.535; -183.300; -735.000; -758.000
401.663; -344.900;-1134.000;-1054.000
401.790; -149.700; -514.000; -525.000
401.918;  160.200;  436.000;  405.000
402.046;   29.800;  134.000;  122.000
402.173;  -29.300;  -18.000;    7.000
402.301;  -85.700; -519.000; -397.000
402.428;  113.400;  528.000;  383.000
402.556; -264.800;-1188.000; -913.000
402.683;  -21.100;  -20.000;   -1.000
402.811;    1.900;  -37.000; -206.000
402.938;   20.600;   20.000;   27.000
403.066;   28.200; -574.000; -558.000
403.193;  207.600;  299.000;  239.000
403.321;  101.900; -396.000; -574.000
403.448;  259.700;   83.000;   27.000
403.575;   92.300;  -90.000;  -46.000
403.703; -168.400; -732.000; -557.000
403.830; -108.600; -531.000; -496.000
403.957; -278.200;-1117.000;-1023.000
404.085;   19.700;  -61.000; -172.000
404.212;  110.200;  -50.000;   63.000
404.339;  128.700; -566.000; -306.000
404.467; 3561.600; -612.000; -524.000
404.594; 2244.900; -287.000; -227.000
404.721;  418.800; -869.000; -764.000
404.848;   29.700; -113.000; -202.000
404.976; -232.900; -856.000; -783.000
405.103;   10.900;  -14.000;  -82.000
405.230;   46.700;  190.000;  226.000
405.357;   44.300;  117.000;   44.000
405.484;  163.900;  -49.000;    5.000
405.612;  -75.300; -548.000; -563.000
405.739;  -64.700; -488.000; -243.000
405.866;  172.300;  669.000;  385.000
405.993;  -43.200; -398.000; -102.000
406.120; -218.700; -801.000; -887.000
406.247;  -91.400; -323.000; -342.000
406.374;  396.300;  540.000;  629.000
406.501;  -54.000; -632.000; -702.000
406.628; -132.300; -621.000; -589.000
406.755; -219.400; -803.000; -620.000
406.882;  -59.300; -228.000; -277.000
407.009; -134.700; -719.000; -628.000
407.136;    0.500; -480.000; -401.000
407.263;  -83.000; -939.000; -829.000
407.390; -174.900; -692.000; -614.000
407.517; -294.800;-1139.000;-1187.000
407.644;  -84.100; -332.000; -256.000
407.771; -113.900; -249.000; -287.000
407.898;   56.500;  168.000;  328.000
408.025; -105.700; -421.000; -313.000
408.151;   29.200;   82.000;  153.000
408.278;  -83.700; -267.000; -216.000
408.405; -230.800; -931.000; -899.000
408.532; -138.100; -549.000; -542.000
408.659; -213.200; -677.000; -648.000
408.785; -354.200;-1298.000;-1170.000
408.912;  -73.000; -412.000; -296.000
409.039; -167.200; -610.000; -686.000
409.166; -161.500; -591.000; -555.000
409.292; -133.000; -571.000; -534.000
409.419; -208.900; -665.000; -649.000
409.546; -104.600; -431.000; -192.000
409.672; -170.900; -713.000; -545.000
409.799;    0.300;  -36.000;   34.000
409.926;  -72.300; -180.000; -179.000
410.052; -294.000;-1127.000;-1091.000
410.179;  -81.400; -368.000; -392.000
410.305; -143.000; -375.000; -493.000
410.432;  -55.700; -220.000; -333.000
410.558; -135.300; -305.000; -380.000
410.685; -184.100; -688.000; -431.000
410.812; -158.300; -409.000; -588.000
410.938; -245.300; -964.000; -808.000
411.065; -171.700; -671.000; -645.000
411.191;  -35.300; -189.000; -174.000
411.317; -193.800; -823.000; -742.000
411.444;  -87.300; -317.000; -246.000
411.570;  -96.700; -339.000; -294.000
411.697; -202.100; -758.000; -752.000
411.823; -294.900; -989.000; -999.000
411.949;  -58.700;  -56.000;   17.000
412.076; -173.100; -539.000; -519.000
412.202; -193.700; -758.000; -757.000
412.329; -227.600; -798.000; -752.000
412.455; -222.300; -821.000; -657.000
412.581;   -5.700;  -15.000;  172.000
412.707; -140.700; -540.000; -457.000
412.834;   21.200;  156.000;  219.000
412.960; -199.500; -785.000; -784.000
413.086; -206.600; -743.000; -701.000
413.212;  216.500;  604.000;  578.000
413.339; -200.200; -685.000; -701.000
413.465;  -99.300; -364.000; -310.000
413.591; -209.700; -757.000; -474.000
413.717; -105.600; -358.000; -366.000
413.843; -262.100; -839.000; -861.000
413.969; -110.400;  -47.000; -292.000
414.096; -202.800; -679.000; -679.000
414.222;  -28.400;  -33.000;   85.000
414.348; -114.700; -652.000; -385.000
414.474;   30.500;   38.000;  -52.000
414.600;   -1.300; -126.000; -144.000
414.726;  -25.400;  -96.000;  -55.000
414.852; -110.100; -365.000; -342.000
414.978;   35.400;  104.000;  -18.000
415.104;   43.600;   38.000;   80.000
415.230;  -73.400; -329.000; -330.000
415.356;  -93.500; -409.000; -514.000
415.482;  128.700;   13.000;  -35.000
415.608;  161.000; -247.000; -323.000
415.734;  657.000;   67.000;   38.000
415.860;13538.600; -875.000; -767.000
415.986; 8838.900; -685.000; -607.000
416.111;  671.600; -798.000; -652.000
416.237;   72.700; -424.000; -571.000
416.363;  697.100; -765.000; -733.000
416.489; 2634.800; -324.000; -251.000
416.615;  124.700; -707.000; -742.000
416.741; -157.700; -677.000; -784.000
416.866; -183.700; -673.000; -736.000
416.992; -241.700; -801.000; -818.000
417.118;  -60.400;  -41.000;  -80.000
417.244; -163.500; -798.000; -531.000
417.369; -168.800; -801.000; -612.000
417.495;  -59.100; -325.000; -254.000
417.621; -214.100;-1015.000; -803.000
417.746;  -79.100; -579.000; -572.000
417.872;    4.300; -254.000; -144.000
417.998;  -35.100; -515.000; -530.000
418.123;  559.200;-1073.000; -845.000
418.249; 3197.900; -512.000; -601.000
418.374;  257.500; -916.000; -824.000
418.500;  -33.300; -383.000; -482.000
418.626;  113.000;   70.000;  -59.000
418.751;   -1.700; -549.000; -448.000
418.877;   27.300; -637.000; -643.000
419.002; 1212.700; -688.000; -560.000
419.128; 7811.100; -930.000; -721.000
419.253; 1605.800; -967.000; -837.000
419.379;  176.900; -391.000; -338.000
419.504;  339.800;  325.000;  415.000
419.629;  322.000; -393.000; -212.000
419.755; 2382.800; -317.000; -254.000
419.880;13052.200;  -98.000;   67.000
420.006; 7334.600; -280.000; -221.000
420.131;18873.800; -662.000; -775.000
420.256; 2466.100; -315.000; -316.000
420.382;  242.500; -665.000; -687.000
420.507;  -81.700; -649.000; -778.000
420.632;   54.500; -337.000; -339.000
420.758;  144.600; -251.000; -425.000
420.883; -170.800; -876.000; -672.000
421.008; -180.800; -775.000; -619.000
421.133; -213.900; -509.000; -467.000
421.259;  -71.300; -325.000; -259.000
421.384; -231.000; -834.000; -693.000
421.509; -168.000;-1052.000; -862.000
421.634;  794.100; -936.000; -820.000
421.759;  252.300; -359.000; -327.000
421.885; -129.900; -717.000; -656.000
422.010; -110.700; -673.000; -542.000
422.135; -249.500; -695.000; -727.000
422.260;   89.700;  340.000;  280.000
422.385;  -42.100;   12.000;  -98.000
422.510;   35.700;  151.000;  -26.000
422.635;   15.300;  -87.000;  -43.000
422.760;  -33.800; -766.000; -791.000
422.885;   45.300;  -57.000;  -80.000
423.010;  -42.300; -112.000; -169.000
423.135; -158.600; -481.000; -561.000
423.260;  -43.300; -150.000; -245.000
423.385;  100.500;  476.000;  222.000
423.510;   37.100;   71.000;  -22.000
423.635;   75.600;  133.000;   45.000
423.760;  119.500;  383.000;  328.000
423.885;  109.200;  336.000;  391.000
424.010;   25.900;  -68.000;  -13.000
424.135;   -0.300;    5.000;  -33.000
424.259; -162.900; -654.000; -457.000
424.384;  -85.300; -279.000; -272.000
424.509;  -43.900; -260.000; -186.000
424.634; -202.000; -761.000; -623.000
424.759; -140.600; -688.000; -544.000
424.883;  -76.100; -506.000; -527.000
425.008;   16.600; -502.000; -410.000
425.133; 1185.500; -679.000; -653.000
425.258;  469.600; -517.000; -381.000
425.382;  586.700; -867.000; -774.000
425.507; 1448.500; -487.000; -543.000
425.632;   77.700; -802.000; -663.000
425.756;  228.200; -256.000; -146.000
425.881; 4165.700; -831.000; -857.000
426.006;10395.400; -604.000; -355.000
426.130; 1375.100; -696.000; -508.000
426.255;   90.900; -611.000; -491.000
426.379;  110.000; -189.000; -577.000
426.504;  361.600;  660.000;  544.000
426.629; 2683.400; -519.000; -466.000
426.753; 1722.700;   64.000;  -46.000
426.878;  226.500; -252.000; -288.000
427.002;  -50.900; -651.000; -668.000
427.127; 1083.300;  -35.000; -158.000
427.251; 7698.800;  372.000;  401.000
427.375; 1916.000; -191.000; -173.000
427.500; 1357.900; -616.000; -610.000
427.624;  406.900; -234.000; -400.000
427.749;   33.400; -216.000; -225.000
427.873; -105.400; -499.000; -412.000
427.997;  -31.500; -222.000; -230.000
428.122;  230.200;  795.000;  703.000
428.246;  113.800;  433.000;  434.000
428.371; -196.000; -869.000; -773.000
428.495; -151.900; -624.000; -646.000
428.619;   -9.100; -186.000; -117.000
428.743;   69.100;   65.000;  132.000
428.868; -126.400; -732.000; -643.000
428.992;  844.400; -219.000; -326.000
429.116;  272.300; -329.000; -357.000
429.240;  266.700;  419.000;  426.000
429.365;  -45.600; -454.000; -574.000
429.489; -127.500; -638.000; -647.000
429.613;   35.400; -236.000; -177.000
429.737;  -34.900; -563.000; -432.000
429.861;  169.500; -247.000; -133.000
429.985; 3748.700; -425.000; -305.000
430.109; 3576.400; -770.000; -908.000
430.234;  462.000;   76.000;  -50.000
430.358;   51.000; -250.000; -160.000
430.482; -131.800; -672.000; -564.000
430.606;  -92.400; -655.000; -375.000
430.730;  -47.000; -437.000; -388.000
430.854;  -62.100; -909.000; -835.000
430.978; -169.200; -795.000; -764.000
431.102;  -84.800; -499.000; -422.000
431.226; -190.500; -874.000; -815.000
431.350;  176.600;  345.000;  422.000
431.474; -127.900; -661.000; -373.000
431.597; -275.400;-1060.000; -848.000
431.721;  -86.500; -276.000; -267.000
431.845; -188.300; -704.000; -472.000
431.969; -145.100; -304.000; -349.000
432.093; -130.100; -395.000; -317.000
432.217;  -13.600;   32.000;   82.000
432.341; -139.400; -523.000; -518.000
432.464;   12.700;   96.000;   40.000
432.588;   45.300; -401.000; -329.000
432.712;   44.700;  -52.000;  -52.000
432.836;   75.800;  213.000;  263.000
432.959;  -39.700; -372.000; -311.000
433.083;   68.600;   11.000;    2.000
433.207;  337.600;  285.000;  930.000
433.330; 3325.300; -391.000; -200.000
433.454; 3690.400; -654.000; -638.000
433.578; 2286.200;  583.000;  278.000
433.701;  223.200; -623.000; -675.000
433.825;   19.300; -292.000; -299.000
433.949;   99.600;   28.000;  -72.000
434.072;  -24.300; -410.000; -323.000
434.196;  -29.700; -309.000; -117.000
434.319; 8037.400;25482.000;25124.000
434.443;  366.500; -656.000; -603.000
434.566; 1692.100;  281.000;   62.000
434.690;  160.700; -637.000; -383.000
434.813;   24.100; -251.000; -173.000
434.937; -128.300; -569.000; -696.000
435.060;  -97.000; -423.000; -332.000
435.184;  124.400; -492.000; -217.000
435.307;   98.800;  159.000;  102.000
435.431;  -10.100;  -40.000;   24.000
435.554; -100.000; -399.000; -240.000
435.677; -102.200; -350.000; -258.000
435.801;   -9.000;  -25.000;   49.000
435.924;   -9.000;    1.000;  -67.000
436.048; -245.100;-1019.000; -732.000
436.171;  -78.600; -240.000;  -66.000
436.294;  -59.500; -248.000; -229.000
436.417; -105.700; -963.000; -849.000
436.541; -191.000; -814.000; -840.000
436.664;  -31.200; -242.000; -316.000
436.787;   31.400;   13.000;  113.000
436.910; -164.600; -792.000; -422.000
437.034;   45.300;  142.000;  143.000
437.157;   86.800;  -11.000;    0.000
437.280;  -97.900; -392.000; -292.000
437.403; -210.700; -982.000; -869.000
437.526;  350.500; -903.000; -865.000
437.649; 1598.000; -505.000; -332.000
437.772;   73.400; -692.000; -540.000
437.896;  231.300;  700.000;  544.000
438.019; -146.400; -758.000; -503.000
438.142; -166.700; -596.000; -506.000
438.265; -136.300; -639.000; -670.000
438.388;  252.200; -520.000; -410.000
438.511;  -43.200; -597.000; -394.000
438.634; -105.200; -247.000; -125.000
438.757; -221.600; -693.000; -619.000
438.880;  -22.400;  -34.000;  -57.000
439.003; -120.200; -417.000; -437.000
439.126;  -96.800; -287.000; -167.000
439.248;  -55.500;  -98.000; -139.000
439.371;  -35.300;    9.000;  -53.000
439.494;  117.800;  510.000;  439.000
439.617;  -50.800;   65.000;  -88.000
439.740; -287.600; -968.000; -816.000
439.863; -229.000; -755.000; -595.000
439.986; -158.000; -476.000; -431.000
440.108;  -39.600; -161.000; -112.000
440.231; -281.600; -950.000; -836.000
440.354;  -33.900;  -64.000; -150.000
440.477;  -93.800; -566.000; -542.000
440.599;  -70.200; -200.000; -225.000
440.722; -168.100; -709.000; -586.000
440.845;  203.500;  751.000;  928.000
440.968; -135.700; -415.000; -311.000
441.090;  -72.600; -199.000;  -33.000
441.213; -300.000;-1021.000; -825.000
441.336;  -55.300; -159.000;   -5.000
441.458; -135.700; -549.000; -396.000
441.581; -188.600; -628.000; -629.000
441.703; -102.300; -152.000;   13.000
441.826; -183.800; -557.000; -400.000
441.948;  -71.000;   56.000;   51.000
442.071;  108.100;  555.000;  424.000
442.193; -195.500; -531.000; -485.000
442.316;   -1.100;  152.000;   97.000
442.438;   -4.400; -233.000;  -10.000
442.561;   76.200;  272.000;  262.000
442.683;  279.500; -809.000; -522.000
442.806;  829.000;   -8.000;   74.000
442.928; -137.100; -859.000; -604.000
443.051; -163.300; -577.000; -373.000
443.173; -156.100; -341.000; -339.000
443.295; -132.800; -263.000; -371.000
443.418; -100.900; -321.000;  -29.000
443.540;    3.100; -106.000;   -4.000
443.662; -193.400; -563.000; -465.000
443.785;   16.300;  335.000;  199.000
443.907; -128.000; -362.000; -208.000
444.029; -212.400; -767.000; -494.000
444.152; -240.800; -644.000; -554.000
444.274;  -12.000;  -18.000;  -24.000
444.396; -171.300; -461.000; -221.000
444.518; -212.300; -691.000; -454.000
444.640; -159.300; -268.000; -111.000
444.763;   27.000;  388.000;  249.000
444.885; -164.000; -432.000; -392.000
445.007;  -28.700;   35.000;   86.000
445.129; -168.000; -610.000; -515.000
445.251; -167.500; -372.000; -439.000
445.373; -211.100; -537.000; -386.000
445.495;   52.200;  242.000;  350.000
445.617;  156.800;  853.000;  753.000
445.739;  -92.000; -215.000;  -97.000
445.861;  -22.800; -245.000; -112.000
445.984;  -57.900; -267.000; -101.000
446.105;  104.500; -418.000; -251.000
446.227;  431.800; -176.000;  -19.000
446.349;  -76.900; -358.000; -249.000
446.471; -166.600; -615.000; -448.000
446.593;  -84.400; -316.000;   19.000
446.715;   -4.400;  -67.000;   41.000
446.837;  163.400;  697.000;  832.000
446.959; -179.400; -457.000; -478.000
447.081; -219.200; -628.000; -518.000
447.203;  176.100;  862.000;  834.000
447.325;  -90.200; -270.000;   42.000
447.446;   30.300;  286.000;  530.000
447.568; -284.400; -921.000; -803.000
447.690; -124.400; -236.000; -245.000
447.812; -226.500; -798.000; -519.000
447.933;   -7.100;  155.000;  127.000
448.055;  -87.500; -306.000; -261.000
448.177;  119.800;   31.000;   79.000
448.299; -130.600; -935.000; -727.000
448.420;   31.900;  -25.000;  159.000
448.542;  -51.900;   -3.000;   33.000
448.664;   12.700;  109.000;  322.000
448.785;   -9.000;  265.000;   83.000
448.907; -143.200; -614.000; -353.000
449.028; -140.500; -771.000; -471.000
449.150;  131.300;  492.000;  589.000
449.272; -365.700;-1044.000; -913.000
449.393;  109.700;  612.000;  694.000
449.515; -236.700; -634.000; -581.000
449.636;  -80.800; -264.000; -155.000
449.758;  177.300;  763.000;  622.000
449.879; -123.100; -498.000; -396.000
450.001; -109.700; -149.000;  -49.000
450.122;  -32.900;  -95.000;  162.000
450.244;   21.600;   37.000;  364.000
450.365; -125.200; -495.000; -301.000
450.486;  -26.100;   80.000;  268.000
450.608;   61.100;  393.000;  326.000
450.729;  118.200;  578.000;  645.000
450.850;  -79.300; -574.000; -466.000
450.972;  402.000; -552.000; -389.000
451.093; 3169.400;  190.000;  588.000
451.214; 1059.400; -516.000; -337.000
451.336;  372.900;  773.000;  579.000
451.457;   92.600;  264.000;  393.000
451.578;  -74.900; -118.000;  -74.000
451.699; -184.900; -546.000; -540.000
451.821;  -91.100; -284.000;  -50.000
451.942;   29.600;  278.000;  285.000
452.063;   76.800;  228.000;  419.000
452.184;  363.500;  -54.000;  -49.000
452.305;  692.300;  103.000;  170.000
452.427;  -24.700; -549.000; -301.000
452.548;  -28.600;   23.000;   79.000
452.669; -103.400; -257.000;  -89.000
452.790;  -88.400;    3.000;  -18.000
452.911;   42.800;  195.000;  259.000
453.032; -118.900; -289.000;  -60.000
453.153;  -33.500;  -29.000;   81.000
453.274;  189.700;  737.000;  868.000
453.395;  -36.500;  -51.000;  175.000
453.516;  275.400; 1317.000; 1388.000
453.637;  -91.000; -205.000; -150.000
453.758;  -41.400;   15.000;   69.000
453.879; -176.200; -462.000; -250.000
454.000;  207.900; 1086.000;  948.000
454.121; -181.900; -554.000; -326.000
454.242; -178.700; -599.000; -383.000
454.362;  -74.900;  -99.000;  114.000
454.483;  -73.900; -309.000; -229.000
454.604;   91.400;  512.000;  580.000
454.725; -187.900; -627.000; -555.000
454.846; -169.300; -474.000; -406.000
454.967;   22.700;  230.000;  539.000
455.087;   32.200;  179.000;  153.000
455.208;   81.500;  554.000;  856.000
455.329;  -50.000;  -22.000;   82.000
455.450;  118.100;  473.000;  633.000
455.570; -110.100; -234.000; -211.000
455.691;  -29.900;  201.000;  407.000
455.812;  -85.800; -270.000;  -92.000
455.932;  -68.700;  107.000;  -97.000
456.053;  -81.700;   36.000;   24.000
456.173; -153.500; -433.000; -355.000
456.294; -195.800; -476.000; -303.000
456.415;  -82.100;  -73.000;   70.000
456.535;  -12.500;  297.000;  273.000
456.656;  -38.700;  132.000;  240.000
456.776;  -76.200;    3.000;  298.000
456.897;   59.300;  308.000;  513.000
457.017;  -82.700; -153.000;   -3.000
457.138; -159.200; -402.000; -249.000
457.258;   34.400;  263.000;  224.000
457.379;   37.800;  509.000;  521.000
457.499;   24.900;  443.000;  432.000
457.620; -164.100; -407.000; -231.000
457.740; -112.000; -132.000;  -11.000
457.860;  -31.000;   87.000;   44.000
457.981;  -51.600;  132.000;  124.000
458.101; -112.900;  -89.000;   40.000
458.221;   23.100;  336.000;  402.000
458.342;  -60.900;   -4.000;  -37.000
458.462;   69.800;  617.000;  352.000
458.582;  -98.400; -302.000; -294.000
458.703;   32.900;  303.000;  154.000
458.823;  -29.500;   22.000;  163.000
458.943;   72.400;  341.000;  467.000
459.063;   21.200; 1124.000;  192.000
459.183;   14.900;  328.000;  313.000
459.304;   60.700;  315.000;  517.000
459.424;  -88.600; -246.000;  -89.000
459.544;  327.800;  388.000;  764.000
459.664;  658.900;  499.000;  506.000
459.784;  351.400; 1004.000; 1175.000
459.904;  143.600;  867.000;  744.000
460.024;  175.900;  867.000;  684.000
460.144;   49.800;  449.000;  554.000
460.264;   41.700;  515.000;  327.000
460.385; -135.500; -145.000; -119.000
460.505;  154.100;  905.000;  858.000
460.625; -107.600;  -17.000;  -68.000
460.745;   12.700;  396.000;  541.000
460.864;  -36.600;  153.000;  469.000
460.984;   53.500;  499.000;  573.000
461.104;  353.200; 1656.000; 1775.000
461.224;  108.900;  657.000;  650.000
461.344;  -15.300;  431.000;  360.000
461.464;   -8.100;  258.000;  513.000
461.584;   32.900;  283.000;  466.000
461.704;  -42.900;   58.000;  108.000
461.824;  -20.500;  238.000;  259.000
461.943;  -40.300;  191.000;  130.000
462.063;  -78.900;    2.000;  324.000
462.183;  116.700;  639.000;  717.000
462.303;  259.900; 1678.000; 1230.000
462.422;  128.200;  781.000;  840.000
462.542;   -2.900;  271.000;  391.000
462.662;   36.800;  353.000;  380.000
462.782;  243.100;  833.000;  572.000
462.901;  358.900;  545.000;  717.000
463.021;  431.700; 1702.000; 1638.000
463.141;   14.300;  337.000;  770.000
463.260;   20.800;  614.000;  474.000
463.380;  105.200;  902.000;  884.000
463.499;  -12.600;  342.000;  332.000
463.619;   13.900;  581.000;  559.000
463.738;  301.400; 1644.000;  903.000
463.858;   85.500;  657.000;  811.000
463.978;   13.900;  542.000;  396.000
464.097;  130.700;  921.000; 1114.000
464.217;  235.700; 1196.000; 1143.000
464.336;  255.400; 1068.000; 1130.000
464.455;  -16.500;  328.000;  659.000
464.575;   88.800;  597.000;  602.000
464.694;  256.100; 1204.000; 1179.000
464.814;  221.000; 1190.000; 1138.000
464.933;  183.700; 1095.000; 1027.000
465.052;  263.100; 1412.000; 1054.000
465.172;  171.900;  922.000;  799.000
465.291;  299.100; 1376.000; 1320.000
465.410;   96.800;  462.000;  735.000
465.530;  219.400; 1355.000; 1310.000
465.649;  225.600; 1209.000; 1273.000
465.768;  322.000; 1673.000; 1508.000
465.888;  146.000;  941.000; 1174.000
466.007;  237.700; 1335.000; 1440.000
466.126;   58.200;  721.000;  641.000
466.245;  149.100; 1176.000; 1187.000
466.364;  124.100;  950.000; 1060.000
466.484;  179.500; 1024.000; 1213.000
466.603;  147.900; 1101.000; 1222.000
466.722;  309.700; 1490.000; 1769.000
466.841;  233.300; 1151.000; 1401.000
466.960;  111.100; 1069.000;  972.000
467.079;  357.300; 1971.000; 1786.000
467.198;  161.900; 1238.000; 1181.000
467.317;  262.200; 1768.000; 1162.000
467.436;  248.500; 1709.000; 1261.000
467.555;  366.800; 1796.000; 1746.000
467.674;  212.600; 1227.000; 1329.000
467.793;  176.800; 1376.000; 1374.000
467.912;  276.200; 1658.000; 1539.000
468.031;  370.000; 2038.000; 1930.000
468.150;  346.300; 1842.000; 1837.000
468.269;  459.000; 2313.000; 2090.000
468.388;  465.800; 2168.000; 2339.000
468.507;  578.700; 2884.000; 2903.000
468.626;  633.500; 2555.000; 2541.000
468.744;  379.100; 2018.000; 2174.000
468.863;  484.500; 2312.000; 2523.000
468.982;  273.700; 1503.000; 1555.000
469.101;  538.900; 2788.000; 2692.000
469.220;  345.500; 2333.000; 2176.000
469.338;  592.000; 2935.000; 3051.000
469.457;  473.300; 2719.000; 2545.000
469.576;  794.000; 3953.000; 3784.000
469.695;  571.700; 2877.000; 3066.000
469.813;  917.800; 4148.000; 4192.000
469.932;  862.000; 4255.000; 4485.000
470.051;  843.200; 4075.000; 4161.000
470.169; 1232.000; 4470.000; 4338.000
470.288; 1665.800; 4700.000; 4809.000
470.406; 1286.400; 5059.000; 5194.000
470.525; 1261.800; 6101.000; 5787.000
470.644; 1377.700; 6847.000; 6794.000
470.762; 1648.500; 8397.000; 7873.000
470.881; 1837.300; 8651.000; 8464.000
470.999; 2124.600; 9685.000; 9151.000
471.118; 2269.500;11174.000;10711.000

