
Integration time [ms]: 100.000
Averaging Nr. [scans]: 40
Smoothing Nr. [pixels]: 0
Data measured with spectrometer [name]: 2101012U2
Wave   ;Sample   ;Dark     ;Reference
[nm]   ;[counts] ;[counts] ;[counts] 

197.733;   64.200;  516.000;  404.000
197.879;  -90.375; -610.000; -634.000
198.025;  -45.750; -475.000; -420.000
198.171;  -79.550; -602.000; -612.000
198.317;  -36.350; -401.000; -316.000
198.463;  -53.975; -655.000; -404.000
198.609;   30.900;  181.000; -137.000
198.755;  -80.400; -644.000; -410.000
198.901;  -67.450; -505.000; -424.000
199.047;  -72.400; -615.000; -488.000
199.193;  -47.050; -230.000; -468.000
199.339;  -46.725; -222.000; -369.000
199.485;   40.350;  330.000;  271.000
199.631;   20.700;  227.000;  310.000
199.777;  -48.375; -466.000; -398.000
199.923;  -75.000; -610.000; -424.000
200.069;   -1.700; -141.000;  -58.000
200.215;   51.500;  128.000;  453.000
200.361;   44.475;  243.000;  477.000
200.507;  -69.700; -600.000; -373.000
200.653;  -33.225; -371.000; -194.000
200.798;  -35.475; -215.000; -125.000
200.944;  -11.650; -146.000;  -41.000
201.090;   16.375;   61.000;  222.000
201.236;    3.000; -116.000; -158.000
201.382;  132.925;  874.000;  903.000
201.528;   -9.600;  -58.000;  -48.000
201.674;  -39.500; -386.000; -293.000
201.819;  -71.175; -540.000; -439.000
201.965;  -93.325; -699.000; -447.000
202.111;  -13.400; -273.000; -226.000
202.257;  -34.375; -250.000; -238.000
202.402;   16.975;   13.000;  -36.000
202.548;  -26.150; -169.000; -116.000
202.694;   76.325;  410.000; -183.000
202.840;  -81.825; -603.000; -531.000
202.985;  -78.325; -681.000; -639.000
203.131; -111.325; -832.000; -666.000
203.277;  -20.575; -199.000; -262.000
203.423;  -52.550; -434.000; -520.000
203.568;  -44.550; -462.000; -237.000
203.714;  -66.775; -535.000; -542.000
203.860;  -74.650; -682.000; -641.000
204.005;   11.175;  112.000;  167.000
204.151;   76.425;  561.000;  556.000
204.296;  -40.875; -354.000; -221.000
204.442;  -74.900; -600.000; -547.000
204.588;  -79.500; -592.000; -579.000
204.733;   18.000;  178.000;  168.000
204.879; -132.725;-1018.000; -822.000
205.025;   14.775;  -99.000;  126.000
205.170;    0.800;  -17.000;   94.000
205.316;   81.775;  438.000;  661.000
205.461;  -98.275; -698.000; -554.000
205.607;   83.875;  609.000;  665.000
205.752;  -75.275; -626.000; -551.000
205.898;  -57.875; -501.000; -391.000
206.043;  -65.125; -578.000; -506.000
206.189;  -47.400; -243.000; -285.000
206.334;   77.875;  554.000;  606.000
206.480;   68.625;  409.000;  239.000
206.625;  -80.550; -529.000; -552.000
206.771;  -43.800; -451.000; -373.000
206.916;  -43.475; -210.000; -537.000
207.062;  -77.775; -545.000; -591.000
207.207;  -59.850; -546.000; -443.000
207.353;   48.725;  185.000;  460.000
207.498;   27.950;  196.000;   85.000
207.643;  -58.150; -501.000; -370.000
207.789; -137.500;-1069.000; -910.000
207.934;  -94.700; -665.000; -713.000
208.080;  -25.050; -154.000;   66.000
208.225;   -3.000;  -22.000;  -57.000
208.370;  -79.575; -727.000; -619.000
208.516;  -74.925; -741.000; -487.000
208.661;  -30.325; -127.000;  -69.000
208.806;  -13.300; -165.000; -171.000
208.952; -139.125;-1044.000; -731.000
209.097;   62.875;  378.000;  349.000
209.242;  -40.875; -307.000; -382.000
209.387;   53.000;  392.000;  350.000
209.533;  -54.775; -321.000; -350.000
209.678;   75.225;  472.000;  543.000
209.823;  -60.825; -408.000; -310.000
209.969; -106.200; -860.000; -757.000
210.114; -107.475; -907.000; -719.000
210.259; -110.850; -939.000; -889.000
210.404;  -16.125; -171.000;  103.000
210.549;    4.325;  108.000;    3.000
210.695;   -9.050;   -3.000;  -95.000
210.840;   15.775;   94.000;   67.000
210.985;  -54.900; -484.000; -303.000
211.130;   63.925;  268.000;  406.000
211.275;   17.675;  207.000;  199.000
211.420;  -49.875; -300.000; -289.000
211.566;  -75.650; -536.000; -489.000
211.711;   30.700;  218.000;  157.000
211.856;  -64.800; -545.000; -519.000
212.001;   -0.100;  151.000;   44.000
212.146;   16.325;  153.000;   49.000
212.291;  -26.275; -210.000; -186.000
212.436;  -42.500; -280.000;   -6.000
212.581;  -88.250; -685.000; -653.000
212.726;  -77.375; -487.000; -538.000
212.871;  -59.025; -552.000; -217.000
213.016; -145.650;-1172.000;-1029.000
213.161;   55.200;  406.000;  291.000
213.306;  -77.475; -435.000; -577.000
213.451;  -93.050; -778.000; -689.000
213.596;  -54.050; -455.000; -347.000
213.741;  -53.575; -448.000; -538.000
213.886;  -87.425; -498.000; -517.000
214.031;  -22.775; -294.000; -124.000
214.176;  -62.950; -408.000; -341.000
214.321;  -25.800; -296.000; -157.000
214.466;  -29.175; -163.000;  -43.000
214.611;   -7.200;  -61.000;  -10.000
214.756; -118.300; -948.000; -858.000
214.901;  -19.850; -388.000; -226.000
215.046; -120.900; -797.000; -825.000
215.191;    5.075;  128.000;   35.000
215.336;   -3.250; -157.000;  -19.000
215.480;  -80.750; -684.000; -505.000
215.625;  -11.675; -175.000;  -19.000
215.770;  -74.950; -757.000; -662.000
215.915;  -12.275;   -5.000;  -97.000
216.060;  -13.200; -113.000;  -21.000
216.205; -109.575; -731.000; -779.000
216.349;  -65.900; -470.000; -533.000
216.494; -140.325; -939.000; -867.000
216.639; -102.625; -823.000; -888.000
216.784;  -85.175; -577.000; -525.000
216.929;   36.125;  392.000;  281.000
217.073;  -17.800; -244.000;  -31.000
217.218;    3.650;   78.000;  -47.000
217.363;  -90.650; -656.000; -618.000
217.507;  -88.300; -623.000; -588.000
217.652; -129.525; -845.000; -874.000
217.797;  -82.075; -708.000; -659.000
217.942; -117.225; -856.000; -720.000
218.086;   76.150;  608.000;  539.000
218.231;  -35.825; -174.000;  -26.000
218.376;  -42.950; -337.000; -229.000
218.520;    8.825;  -41.000;   96.000
218.665;  -29.125; -338.000; -204.000
218.810;  -36.475; -275.000; -233.000
218.954;   22.275;  201.000;   35.000
219.099; -112.950; -713.000; -963.000
219.243;  -71.200; -589.000; -554.000
219.388;  -36.350; -264.000; -136.000
219.532;  -24.300; -116.000; -116.000
219.677;  -65.200; -564.000; -521.000
219.822;   10.575;   33.000;   89.000
219.966;  -10.900;   17.000;  -99.000
220.111;  -28.225; -328.000;  -40.000
220.255;  -94.000; -797.000; -750.000
220.400;  -22.800; -180.000; -146.000
220.544;  -79.050; -516.000; -450.000
220.689;  -60.575; -422.000; -451.000
220.833;  -24.900; -123.000;  -58.000
220.978;  -52.350; -393.000; -563.000
221.122;   15.750;  319.000;  307.000
221.267; -113.000; -906.000; -837.000
221.411;  -63.375; -478.000; -394.000
221.555;   -2.800; -104.000;  -23.000
221.700;  -53.600; -329.000; -222.000
221.844;   38.925;  255.000;  272.000
221.989;  -45.150; -328.000; -311.000
222.133;  -31.775; -289.000; -307.000
222.277;  -21.350;    5.000;   78.000
222.422;   21.600;  227.000;  113.000
222.566;  -32.050; -381.000; -214.000
222.711;  -60.775; -414.000; -479.000
222.855;  -87.125; -643.000; -586.000
222.999; -100.700; -642.000; -717.000
223.144;  -34.075; -195.000; -194.000
223.288;   49.550;  423.000;  251.000
223.432;   15.200;  184.000;  230.000
223.576;   23.075;  152.000;  -21.000
223.721;   36.600;  364.000;  273.000
223.865;  -58.900; -472.000; -475.000
224.009;  207.025; 1673.000; 1631.000
224.153;  -78.675; -660.000; -671.000
224.298;  -78.800; -531.000; -489.000
224.442;  -22.875;  -74.000;  -33.000
224.586;  -12.650; -169.000; -106.000
224.730;  -96.925; -858.000; -670.000
224.875; -110.925; -739.000; -688.000
225.019;   11.775;  102.000;  188.000
225.163;   48.625;  208.000;  341.000
225.307;   22.950;   97.000;  -91.000
225.451;   41.350;  360.000;  481.000
225.595;   29.475;  264.000;  176.000
225.739;  -16.650; -170.000;  -94.000
225.884;    3.950;   86.000;    5.000
226.028;  -95.200; -760.000; -626.000
226.172;  -29.125; -260.000; -273.000
226.316; -133.475; -941.000; -902.000
226.460;  -68.650; -645.000; -493.000
226.604;  -52.475; -406.000; -400.000
226.748; -100.575; -836.000; -733.000
226.892;  -32.975; -227.000; -181.000
227.036;  -40.325; -537.000; -447.000
227.180;  -59.175; -551.000; -375.000
227.324;  -72.150; -561.000; -580.000
227.468; -120.925; -819.000; -717.000
227.612;   21.575;  242.000;  -28.000
227.756;  -99.600; -845.000; -698.000
227.900;   44.050;  342.000;  441.000
228.044;  -59.625; -509.000; -290.000
228.188;   43.400;  448.000;  568.000
228.332;  -86.525; -546.000; -472.000
228.476;  -37.350; -223.000; -149.000
228.620;  -29.200; -210.000; -150.000
228.764;   67.625;  431.000;  349.000
228.908;  -18.075; -155.000;   30.000
229.052;  -62.925; -615.000; -528.000
229.195;  -26.750; -172.000;   13.000
229.339;  -32.600; -235.000; -305.000
229.483;  -36.400;    5.000; -162.000
229.627;   -3.075; -156.000;  139.000
229.771;  -50.525; -218.000; -294.000
229.915;    7.725;  230.000;   79.000
230.059;  -94.000; -648.000; -663.000
230.202;  -57.475; -370.000; -317.000
230.346;  -24.075; -107.000;  107.000
230.490;  -67.550; -489.000; -521.000
230.634; -116.175; -736.000; -553.000
230.777;   67.525;  478.000;  509.000
230.921;  -58.675; -450.000; -359.000
231.065;  -37.600; -246.000; -286.000
231.209;   20.675;  261.000;  265.000
231.352;   17.925;   54.000;   40.000
231.496;   14.300;  568.000;  188.000
231.640;  -87.400; -693.000; -621.000
231.783;   69.125;  546.000;  525.000
231.927;  -53.025; -294.000; -365.000
232.071; -119.500; -962.000; -736.000
232.214; -120.350; -980.000; -764.000
232.358; -111.700; -683.000; -599.000
232.502;    9.500;  -19.000;    7.000
232.645; -151.250;-1090.000; -927.000
232.789;  -31.950; -257.000; -218.000
232.933;  -34.700; -407.000; -224.000
233.076; -124.650;-1038.000; -897.000
233.220; -112.200; -752.000; -777.000
233.363;  -71.825; -669.000; -477.000
233.507;   48.425;  371.000;  129.000
233.650;  -99.775; -764.000; -834.000
233.794;   54.375;  438.000;  461.000
233.938;  -67.025; -530.000; -362.000
234.081;  -14.550;  -93.000;   31.000
234.225;  -65.050; -631.000; -539.000
234.368; -121.225; -773.000; -723.000
234.512;  -34.975; -385.000; -299.000
234.655;  -96.425; -582.000; -555.000
234.798;  -74.500; -493.000; -466.000
234.942; -143.725; -884.000;-1002.000
235.085;  -71.400; -651.000; -443.000
235.229;  -77.375; -405.000; -410.000
235.372;  -53.650; -247.000; -191.000
235.516;  -67.800; -397.000; -321.000
235.659;    7.575;   92.000;  121.000
235.802;  -20.575;  -38.000;  -22.000
235.946;   29.775;  335.000;  215.000
236.089;   24.875;  126.000;  250.000
236.233;   58.275;  275.000;  298.000
236.376;  -51.775; -235.000; -378.000
236.519;  -47.050; -297.000; -319.000
236.663;  -17.150; -215.000; -117.000
236.806; -135.100;-1029.000; -999.000
236.949;   63.725;  543.000;  431.000
237.092;   57.175;  412.000;  391.000
237.236;  -96.900; -589.000; -502.000
237.379;   59.900;  352.000;  428.000
237.522; -122.225; -879.000; -768.000
237.666;  -24.950; -271.000;   18.000
237.809; -134.000; -851.000; -823.000
237.952;   42.900;  469.000;  271.000
238.095;  -72.725; -447.000; -442.000
238.238;   70.250;  688.000;  700.000
238.382;    0.550;  166.000;  103.000
238.525;  -69.750; -598.000; -511.000
238.668; -138.875;-1060.000; -985.000
238.811;  -74.825; -638.000; -643.000
238.954;  -72.700; -483.000; -334.000
239.097;  104.050;  617.000;  664.000
239.241;   26.075;  394.000;  326.000
239.384;  -37.275; -254.000; -214.000
239.527;  -68.575; -424.000; -224.000
239.670; -142.850; -994.000;-1091.000
239.813; -105.350; -696.000; -658.000
239.956;   74.100;  579.000;  473.000
240.099; -105.900; -778.000; -725.000
240.242;   52.400;  428.000;  432.000
240.385;   34.325;  466.000;  450.000
240.528;  -71.250; -706.000; -473.000
240.671;    2.275;  189.000;  134.000
240.814;  -41.725; -441.000; -158.000
240.957; -103.275; -767.000; -578.000
241.100;  -98.650; -779.000; -755.000
241.243; -157.500;-1234.000; -893.000
241.386;  -73.625; -508.000; -379.000
241.529;  -82.625; -735.000; -547.000
241.672;  -67.600; -566.000; -495.000
241.815; -126.500; -832.000; -808.000
241.958;  -25.000; -125.000; -182.000
242.101;  -82.425; -545.000; -390.000
242.244;  -43.300; -270.000; -325.000
242.387;  -45.175; -304.000; -246.000
242.530;   44.650;  470.000;  134.000
242.673;  -46.150; -381.000; -309.000
242.815; -132.850; -925.000; -899.000
242.958;  -70.300; -482.000; -381.000
243.101;    2.200;  132.000;  187.000
243.244;  -90.875; -564.000; -521.000
243.387;  -50.175; -313.000; -316.000
243.530; -103.800; -657.000; -674.000
243.672;    3.675;   43.000;  -92.000
243.815;  -60.800; -355.000; -283.000
243.958;  -16.625;   98.000;  -26.000
244.101;   -0.050;   59.000;  -16.000
244.243;   -0.600;  -47.000;  101.000
244.386; -109.850; -761.000; -630.000
244.529;  -17.825; -132.000; -139.000
244.672; -159.150;-1154.000; -951.000
244.814; -100.275; -621.000; -794.000
244.957;  -67.750; -380.000; -304.000
245.100;  -68.950; -489.000; -489.000
245.242;  -62.300; -387.000; -374.000
245.385;  -12.275;  -59.000;  -39.000
245.528; -128.100; -871.000; -705.000
245.670;   79.700;  612.000;  634.000
245.813;  -98.225; -599.000; -547.000
245.956;  -35.750; -324.000; -275.000
246.098;  -77.125; -508.000; -650.000
246.241;   11.725;  194.000;   48.000
246.383;  -21.850; -119.000;  -73.000
246.526;  -80.750; -454.000; -525.000
246.669; -120.375; -889.000; -780.000
246.811;   15.525;  172.000;   -1.000
246.954;  -72.750; -512.000; -426.000
247.096;  -24.200;  -84.000;   -6.000
247.239;  -75.900; -482.000; -445.000
247.381;  -62.625; -647.000; -488.000
247.524;   76.700;  645.000;  679.000
247.666;  -13.350;   58.000;   11.000
247.809; -125.675; -887.000; -691.000
247.951;   -1.700;  -75.000;  138.000
248.094;   26.050;  432.000;  308.000
248.236; -161.325;-1262.000;-1238.000
248.378;   -4.200; -356.000;  -81.000
248.521;  -19.750; -334.000; -337.000
248.663;  -51.525; -236.000; -267.000
248.806;  -26.325; -300.000; -266.000
248.948; -112.425; -886.000; -763.000
249.090;  -63.175; -428.000; -398.000
249.233;  -53.650; -344.000; -381.000
249.375;  -75.025; -474.000; -451.000
249.518;  -22.025;  -83.000; -133.000
249.660;  -15.750; -103.000;    3.000
249.802; -172.525;-1303.000;-1189.000
249.945;  -68.350; -612.000; -540.000
250.087; -117.175; -834.000; -768.000
250.229;  -54.500; -362.000; -480.000
250.371;  -80.300; -494.000; -439.000
250.514;  -59.100; -310.000; -244.000
250.656;   -4.625;   69.000;  102.000
250.798; -128.625; -849.000; -800.000
250.940;  -69.575; -322.000; -322.000
251.083;  -33.075; -335.000; -111.000
251.225;   34.625;  338.000;  310.000
251.367;  -51.175; -274.000; -373.000
251.509;  -41.625; -265.000; -210.000
251.651;  -92.575; -731.000; -671.000
251.794;   55.275;  538.000;  632.000
251.936; -111.400; -821.000; -747.000
252.078;  -92.100; -540.000; -461.000
252.220;  -67.925; -645.000; -477.000
252.362;   73.650;  344.000;  462.000
252.504;  -77.975; -677.000; -584.000
252.646; -114.525; -875.000; -722.000
252.788;  -17.025;   14.000; -128.000
252.931;  -48.075; -257.000; -253.000
253.073;  -52.050; -376.000; -317.000
253.215;   -6.300;  141.000;  122.000
253.357;  -14.800;   82.000; -153.000
253.499;  -57.975; -374.000; -234.000
253.641;  -91.550; -749.000; -594.000
253.783; -106.050; -609.000; -527.000
253.925;  -89.100; -586.000; -591.000
254.067; -117.750; -744.000; -667.000
254.209;  -34.225; -391.000; -259.000
254.351; -127.425; -865.000; -883.000
254.493;  -63.075; -441.000; -417.000
254.635; -150.075; -936.000; -818.000
254.777;  -94.175; -752.000; -687.000
254.918;  -66.175; -512.000; -430.000
255.060;  -65.950; -551.000; -395.000
255.202;  -67.800; -473.000; -261.000
255.344;  -84.775; -658.000; -455.000
255.486;  -76.875; -471.000; -406.000
255.628; -105.350; -780.000; -781.000
255.770;  -98.775; -676.000; -536.000
255.912;  -80.950; -559.000; -468.000
256.053;  -97.225; -730.000; -508.000
256.195;  140.950; 1008.000;  903.000
256.337; -109.950; -861.000; -595.000
256.479;   52.200;  532.000;  416.000
256.621;  -55.250; -394.000; -212.000
256.762;  -96.375; -789.000; -742.000
256.904;   44.525;  485.000;  487.000
257.046;  -38.050; -381.000; -271.000
257.188;  -47.275; -351.000; -264.000
257.329;  -65.450; -525.000; -464.000
257.471; -127.300; -939.000; -807.000
257.613;  -58.300; -584.000; -498.000
257.755; -144.875;-1073.000; -982.000
257.896;   31.525;  286.000;  392.000
258.038;  -78.125; -403.000; -352.000
258.180;  -55.800; -354.000; -279.000
258.321;  -97.050; -581.000; -457.000
258.463;    0.075;  -71.000;  133.000
258.605;  -86.000; -562.000; -570.000
258.746; -106.425; -886.000; -772.000
258.888; -150.475;-1026.000;-1020.000
259.029;    4.050;  121.000;   -8.000
259.171;  -88.300; -614.000; -550.000
259.313;   -1.500;  -49.000;  -47.000
259.454;  -80.825; -536.000; -414.000
259.596;  -71.950; -483.000; -390.000
259.737;  -82.775; -590.000; -474.000
259.879;   34.850;  217.000;  311.000
260.020;   80.000;  901.000;  636.000
260.162;  -34.075; -146.000; -253.000
260.303; -121.175; -768.000; -687.000
260.445;  -95.150; -609.000; -613.000
260.586;   21.925;  392.000;  157.000
260.728;  -33.250; -360.000; -248.000
260.869; -115.850; -350.000; -343.000
261.011;   82.400;  706.000;  537.000
261.152;  -58.600; -479.000; -319.000
261.293;  -84.800; -576.000; -595.000
261.435;  -40.550; -219.000; -184.000
261.576;  -61.725; -455.000; -325.000
261.718;   42.225;  420.000;  470.000
261.859; -138.300; -940.000; -949.000
262.000; -128.425; -951.000;-1016.000
262.142;  -31.625;  -52.000;  -60.000
262.283; -121.150; -808.000; -691.000
262.424;  -90.200; -666.000; -625.000
262.566; -167.400;-1161.000; -983.000
262.707; -108.575; -840.000; -830.000
262.848; -119.750; -769.000; -726.000
262.990;  -70.300; -362.000; -345.000
263.131;   85.725;  650.000;  681.000
263.272;    1.575;  -61.000;  -41.000
263.413; -100.950; -589.000; -561.000
263.555;  -66.225; -669.000; -143.000
263.696;  -86.825; -550.000; -641.000
263.837;  -62.800; -449.000; -551.000
263.978;   -3.975;   -5.000;  -77.000
264.119;  -61.550; -283.000; -264.000
264.261; -118.075; -847.000; -630.000
264.402;   -3.025;   33.000;   40.000
264.543;  -81.475; -509.000; -524.000
264.684;  -14.900;   61.000;  -50.000
264.825;  -74.800; -816.000; -538.000
264.966;   -9.675;  -84.000;  -67.000
265.107; -112.925; -646.000; -670.000
265.248; -130.875; -825.000; -812.000
265.390;  -13.675;  152.000;   -9.000
265.531;  -24.750; -238.000; -107.000
265.672;  -98.900; -557.000; -630.000
265.813;   63.700;  563.000;  439.000
265.954; -152.925; -959.000; -940.000
266.095;  -25.025; -372.000; -322.000
266.236; -110.325; -686.000; -548.000
266.377;  -43.750; -243.000; -297.000
266.518;  -84.325; -619.000; -547.000
266.659;   29.375;  170.000;  268.000
266.800;  -11.175;   83.000;   85.000
266.941;  -71.575; -487.000; -478.000
267.082;    8.675;  354.000;   99.000
267.223;  -52.850; -344.000; -273.000
267.364; -120.650; -892.000; -686.000
267.504;  -27.375;    3.000;  135.000
267.645;   -8.350;  160.000;   67.000
267.786;  -29.850; -147.000;  -86.000
267.927;  -87.050; -473.000; -379.000
268.068;  -22.525; -186.000;  -61.000
268.209;  -45.950; -175.000; -413.000
268.350;  -69.700; -388.000; -532.000
268.490; -103.325; -648.000; -521.000
268.631;   29.300;  127.000;  225.000
268.772; -115.850; -874.000; -647.000
268.913;  -47.200; -328.000; -476.000
269.054;  -27.600; -117.000;   12.000
269.194;  -57.650; -418.000; -402.000
269.335; -169.550;-1137.000;-1074.000
269.476;  -40.350;   33.000;  -35.000
269.617;  -59.375; -347.000; -392.000
269.757;  -88.475; -713.000; -646.000
269.898; -112.500; -856.000; -613.000
270.039;  -68.375; -415.000; -405.000
270.180; -144.025; -952.000; -816.000
270.320;  -24.650; -190.000; -250.000
270.461;  -43.500; -277.000; -249.000
270.602;  -10.725; -186.000; -156.000
270.742; -122.925; -868.000; -943.000
270.883;  -59.875; -442.000; -390.000
271.023;  -54.750; -358.000; -357.000
271.164;  -84.300; -607.000; -528.000
271.305; -108.275; -666.000; -654.000
271.445;  -87.375; -722.000; -683.000
271.586;  -64.975; -462.000; -283.000
271.726;  -50.975; -397.000; -322.000
271.867;  -71.525; -594.000; -534.000
272.008;  156.650; -473.000; -285.000
272.148;  117.675;  462.000;  468.000
272.289;   13.175; -113.000; -181.000
272.429;   -3.625;   19.000;  185.000
272.570;  -98.625; -633.000; -737.000
272.710; -112.250; -825.000; -775.000
272.851;  -31.050;  113.000; -130.000
272.991; -170.475;-1173.000;-1077.000
273.131;  -77.625; -419.000; -459.000
273.272;  -99.025; -683.000; -723.000
273.412;   -1.225; -143.000;  -31.000
273.553;  -65.200; -488.000; -507.000
273.693;  117.725;  913.000;  858.000
273.834; -105.500; -894.000; -692.000
273.974;  -75.400; -664.000; -615.000
274.114; -107.500; -772.000; -560.000
274.255;   70.850;  414.000;  373.000
274.395;   -0.825; -180.000; -125.000
274.535;   29.750;  199.000;  350.000
274.676;   20.550;  225.000;   94.000
274.816;    0.125;  110.000;   34.000
274.956;  -86.975; -624.000; -690.000
275.097;  -74.950;-1014.000; -922.000
275.237; -115.425; -913.000; -803.000
275.377; -100.525; -778.000; -689.000
275.517; -149.250; -878.000; -937.000
275.658;  -63.475; -590.000; -555.000
275.798;  -81.100; -606.000; -413.000
275.938;   19.850;  215.000;  323.000
276.078; -101.425; -626.000; -395.000
276.218;   -1.650;   99.000;  104.000
276.359; -141.450;-1026.000;-1024.000
276.499;  -73.825; -605.000; -446.000
276.639;  -52.700; -305.000; -151.000
276.779;  -49.125; -475.000; -357.000
276.919; -116.100; -783.000; -624.000
277.059;  -19.075; -261.000; -212.000
277.199;  -42.400; -357.000; -259.000
277.340;   38.525;  287.000;  175.000
277.480; -123.800; -840.000; -693.000
277.620;   22.375;  192.000;   16.000
277.760; -197.375;-1533.000;-1294.000
277.900;    5.175;  113.000;   33.000
278.040;   10.050;  137.000;  159.000
278.180;   28.775;  270.000;  170.000
278.320;   -4.925;   21.000;   56.000
278.460;  -68.425; -443.000; -469.000
278.600;  -98.025; -708.000; -598.000
278.740;   42.825;  448.000;  224.000
278.880;  -77.600; -768.000; -791.000
279.020;  -27.025; -194.000; -144.000
279.160; -104.825; -672.000; -595.000
279.300; -119.425; -926.000; -873.000
279.440; -110.325; -709.000; -622.000
279.579;  -35.725;-1014.000; -929.000
279.719;  -69.625; -410.000; -394.000
279.859;   51.050;   -4.000;   41.000
279.999;   19.800; -208.000;  101.000
280.139;   -5.200; -435.000; -387.000
280.279;  -86.450; -708.000; -745.000
280.419;  -23.550; -229.000; -147.000
280.559;  -33.850; -259.000; -180.000
280.698;  -85.200; -790.000; -639.000
280.838; -107.125; -778.000; -800.000
280.978; -120.750; -846.000; -790.000
281.118; -111.150; -811.000; -704.000
281.257;   -2.375;   24.000;    6.000
281.397; -128.925;-1094.000; -960.000
281.537;  -93.150; -599.000; -712.000
281.677;  -20.475; -150.000; -101.000
281.816; -105.625; -700.000; -630.000
281.956;  -49.050; -193.000; -257.000
282.096;  -77.125; -539.000; -396.000
282.235; -121.525; -672.000; -638.000
282.375;  -28.050; -243.000;  -98.000
282.515; -110.075; -715.000; -707.000
282.654;   23.525;   29.000;  106.000
282.794;   18.475;  388.000;  244.000
282.934;  -60.450; -530.000; -491.000
283.073; -127.150;-1030.000; -857.000
283.213;  -65.300; -460.000; -467.000
283.353;  -47.875; -408.000; -349.000
283.492;  -40.975; -264.000; -296.000
283.632;  -43.375; -254.000; -168.000
283.771;  -97.325; -859.000; -730.000
283.911;  -75.250; -369.000; -260.000
284.050; -104.575; -794.000; -748.000
284.190; -168.025;-1229.000;-1096.000
284.329; -146.075;-1055.000; -964.000
284.469;  -65.150; -516.000; -591.000
284.608;  -66.675; -559.000; -598.000
284.748;  -87.075; -614.000; -570.000
284.887;   -3.275;  -87.000;  -20.000
285.027; -147.625; -844.000; -892.000
285.166;  -37.325; -192.000; -249.000
285.306;   -7.425; -116.000;  -33.000
285.445;  -48.525; -229.000; -343.000
285.584; -104.075; -630.000; -494.000
285.724;  -49.225; -282.000; -322.000
285.863; -125.600; -857.000; -507.000
286.002;  -68.100; -366.000; -276.000
286.142; -116.400; -715.000; -622.000
286.281;  -75.950; -525.000; -493.000
286.420;  -86.300; -554.000; -417.000
286.560;   87.400;  653.000;  623.000
286.699; -140.950; -958.000; -912.000
286.838;  -95.525; -590.000; -591.000
286.978;  -90.800; -533.000; -537.000
287.117; -125.775;-1085.000; -950.000
287.256;  -26.325; -228.000; -211.000
287.395;  -43.700; -197.000; -378.000
287.535;  -69.750; -370.000; -298.000
287.674;  -72.525; -509.000; -484.000
287.813;   42.575;  661.000;  533.000
287.952; -148.400;-1010.000; -871.000
288.091; -147.575;-1049.000; -915.000
288.231;   -2.825;   13.000;   15.000
288.370; -175.775;-1217.000;-1200.000
288.509;  -94.375; -728.000; -645.000
288.648;  -99.375; -770.000; -548.000
288.787;  -36.575; -243.000;  -87.000
288.926;  -72.900; -454.000; -475.000
289.065;  103.900;  859.000;  672.000
289.204;  -56.200; -377.000; -217.000
289.344; -106.625; -791.000; -690.000
289.483;    8.025;  416.000;  304.000
289.622;  -35.375; -291.000; -149.000
289.761;  -21.875; -309.000; -166.000
289.900; -115.050; -785.000; -626.000
290.039;  -25.725;  -12.000;  -95.000
290.178;  -47.500; -274.000; -180.000
290.317;  -87.075; -618.000; -479.000
290.456;  -70.575; -463.000; -451.000
290.595; -144.400; -961.000; -833.000
290.734; -142.825; -904.000; -891.000
290.873;  -78.200; -456.000; -420.000
291.011; -114.375; -833.000; -843.000
291.150; -120.525; -770.000; -682.000
291.289;  -33.925; -343.000; -110.000
291.428;  -92.500; -599.000; -480.000
291.567;  -61.175; -370.000; -442.000
291.706;  -27.075;  109.000;  154.000
291.845;  -95.575; -597.000; -505.000
291.984; -177.400;-1234.000;-1061.000
292.122;   65.050;  602.000;  582.000
292.261;   41.900;  620.000;  463.000
292.400;   -7.200; -144.000;  211.000
292.539; -143.400; -959.000; -813.000
292.678;  -31.250; -325.000; -300.000
292.816; -154.425;-1136.000; -965.000
292.955;  -99.500; -844.000; -684.000
293.094;  -38.075; -173.000; -337.000
293.233;  -58.550; -556.000; -400.000
293.371;  -54.450; -225.000;  -84.000
293.510; -112.775; -866.000; -780.000
293.649; -143.775; -959.000; -924.000
293.787;  -83.875;-1083.000;-1012.000
293.926;  -16.650; -113.000;  -32.000
294.065;  -43.150; -379.000; -290.000
294.203;   27.075;  298.000;  406.000
294.342;   18.950;   74.000;  156.000
294.481; 6906.050;51180.000; -836.000
294.619;  -30.175; -425.000; -582.000
294.758; -147.125;-1230.000;-1137.000
294.896;   32.700; -125.000;    5.000
295.035; -129.150;-1040.000;-1006.000
295.174; -139.350;-1082.000; -954.000
295.312;  -55.800; -323.000; -203.000
295.451;  -28.225; -307.000; -428.000
295.589;  -63.075; -389.000; -518.000
295.728;   11.925; -292.000; -165.000
295.866;   -8.600;  -36.000;  -51.000
296.005;  -73.575; -584.000; -341.000
296.143;  -77.550; -558.000; -596.000
296.282; -105.550; -957.000; -881.000
296.420;  -91.675; -657.000; -557.000
296.559; -100.025; -892.000; -633.000
296.697;  -11.050; -847.000; -665.000
296.835;   12.750;-1141.000;-1002.000
296.974;   33.750;  -23.000;   39.000
297.112;  -14.050; -443.000; -504.000
297.251;  -81.775; -815.000; -755.000
297.389;   57.875; -576.000; -438.000
297.527;   20.475; -145.000;  -83.000
297.666;  -52.525; -486.000; -438.000
297.804;  -62.850; -404.000; -264.000
297.942;  -27.375; -136.000; -161.000
298.081;  -18.950; -183.000;   63.000
298.219;   36.200;  -17.000;  -19.000
298.357;   27.575; -144.000;  -71.000
298.495;   -1.900; -810.000; -812.000
298.634;   62.950;  245.000;  219.000
298.772;   26.150; -220.000; -338.000
298.910;  -43.600; -309.000; -182.000
299.048;  -10.625; -130.000; -153.000
299.187;  -47.500; -350.000; -250.000
299.325;   16.325;   52.000;  122.000
299.463;   34.025; -389.000; -299.000
299.601;   72.450; -327.000; -271.000
299.739; -124.075; -908.000; -883.000
299.877;  -89.150; -791.000; -703.000
300.016;  -61.350;-1095.000; -935.000
300.154;  132.925;  -19.000; -161.000
300.292;   14.300; -428.000; -348.000
300.430;    9.100; -408.000; -291.000
300.568; -124.250; -940.000; -874.000
300.706;  -61.475; -366.000; -469.000
300.844;  -85.850;-1108.000; -979.000
300.982;  106.625;  246.000;  282.000
301.120; -114.500; -965.000; -866.000
301.258;  -76.975; -812.000; -705.000
301.396;   20.225;  104.000;  -41.000
301.534;   47.425; -218.000; -293.000
301.672;  -33.925; -664.000; -521.000
301.810;   -1.250; -613.000; -545.000
301.948;   96.475;   53.000;  149.000
302.086;  544.500; -250.000;  -32.000
302.224;  792.025; -610.000; -585.000
302.362;   17.350; -558.000; -622.000
302.500;  -64.225; -923.000; -893.000
302.638;   88.625;  128.000;  245.000
302.776;  -17.325; -352.000; -408.000
302.913;   52.050;  447.000;  236.000
303.051;  -37.275;  -86.000;  -23.000
303.189;   39.525;   90.000;  118.000
303.327;  -46.275; -341.000; -256.000
303.465; -105.825; -832.000; -588.000
303.603; -111.500; -805.000; -604.000
303.740;   84.450;  417.000;  241.000
303.878;  -13.025; -800.000; -759.000
304.016; -104.150; -915.000; -790.000
304.154; -138.250;-1123.000;-1152.000
304.291;  -52.150; -505.000; -554.000
304.429;   -0.175;  102.000;   74.000
304.567; -128.000; -908.000; -893.000
304.705;  -70.775; -408.000; -515.000
304.842;   71.050; -616.000; -540.000
304.980;   26.975;  215.000;   35.000
305.118;   16.450; -367.000; -365.000
305.255;  -97.450; -945.000; -927.000
305.393;   55.150;  178.000;  239.000
305.531; -119.700;-1173.000; -956.000
305.668;  -74.825; -663.000; -582.000
305.806;   84.000; -358.000; -439.000
305.943;   76.450; -629.000; -637.000
306.081;   45.925; -378.000; -267.000
306.219; -109.175; -863.000; -748.000
306.356;   -5.450;  158.000;   27.000
306.494;   97.975;  981.000;  761.000
306.631;  -17.750;  -11.000;  -55.000
306.769;  -15.450; -613.000; -485.000
306.906;  -28.275; -284.000; -258.000
307.044;  -74.175; -473.000; -488.000
307.181;  -67.725; -410.000; -332.000
307.319;   -2.200;  112.000;   87.000
307.456; -193.350;-1191.000;-1153.000
307.594; -110.775; -980.000; -727.000
307.731;  -28.950; -371.000; -164.000
307.868;   -2.000;  -15.000;   20.000
308.006; -142.700; -961.000; -847.000
308.143;  -74.400; -618.000; -330.000
308.281;  117.025;  -37.000; -254.000
308.418;  -38.750; -748.000; -640.000
308.555;  -80.825; -400.000; -250.000
308.693;  -88.250; -577.000; -573.000
308.830; -111.875; -712.000; -657.000
308.967;  -33.175; -215.000;  -95.000
309.105;  -74.575; -507.000; -396.000
309.242;    4.850; -468.000; -367.000
309.379;  225.025; -577.000; -655.000
309.517;  -75.375; -936.000; -948.000
309.654; -119.450; -910.000; -734.000
309.791;  -78.225; -662.000; -580.000
309.928; -135.475; -977.000; -914.000
310.065;  163.550;  819.000;  697.000
310.203;  -40.150; -825.000; -850.000
310.340;  -29.100; -465.000; -321.000
310.477;  -82.650; -412.000; -516.000
310.614;  -75.275; -383.000; -473.000
310.751;  -96.525; -427.000; -518.000
310.889;  -29.325;    1.000;   11.000
311.026; -155.200;-1161.000; -939.000
311.163;  -61.975; -386.000; -380.000
311.300;  -77.100; -512.000; -479.000
311.437;  -91.275; -658.000; -619.000
311.574; -167.350;-1226.000; -985.000
311.711;  -61.650; -595.000; -433.000
311.848;  -68.100; -380.000; -388.000
311.985;   -7.775;  270.000;   93.000
312.122; -130.750; -932.000; -762.000
312.259; -126.150; -941.000; -994.000
312.396;  -84.025; -508.000; -551.000
312.533;  -95.225; -812.000; -790.000
312.670; -137.175;-1070.000; -898.000
312.807;  -44.075; -352.000; -367.000
312.944;  -86.475; -513.000; -611.000
313.081;  -42.725; -150.000; -415.000
313.218; -121.500;-1111.000; -867.000
313.355;   -5.350; -531.000; -449.000
313.492;  -34.075; -455.000; -292.000
313.629;  127.100;  815.000;  735.000
313.766; -181.400;-1176.000;-1008.000
313.902;  -25.550; -186.000;   21.000
314.039;  -66.200; -372.000; -289.000
314.176;    0.025;  286.000;  192.000
314.313;  -72.950; -569.000; -473.000
314.450;  -81.500; -788.000; -684.000
314.587;  -69.600; -468.000; -480.000
314.723;  -10.875;  -78.000;  130.000
314.860;   20.150;  318.000;  332.000
314.997;   15.700;  223.000;  142.000
315.134;  -53.475; -385.000; -368.000
315.270;  -39.175; -480.000; -496.000
315.407; -138.525;-1094.000; -967.000
315.544;  -74.250; -657.000; -538.000
315.681;  -86.300; -681.000; -565.000
315.817;    9.525; -133.000; -176.000
315.954;  -12.375; -613.000; -392.000
316.091; -137.175;-1045.000;-1023.000
316.227;  -35.000;  -71.000; -179.000
316.364;   -5.350;   23.000;    6.000
316.500;  -60.425; -113.000; -300.000
316.637;  -46.725; -181.000; -302.000
316.774; -109.975; -625.000; -358.000
316.910;  -89.100; -598.000; -629.000
317.047;  -88.975; -487.000; -351.000
317.183;  -64.950; -435.000; -566.000
317.320;  -20.125; -367.000; -321.000
317.456;  -69.125; -733.000; -805.000
317.593;  -96.250; -598.000; -641.000
317.729;   -0.750;  168.000;  -67.000
317.866; -214.475;-1434.000;-1285.000
318.002; -104.425; -708.000; -948.000
318.139; -121.725; -883.000; -867.000
318.275; -105.300;-1003.000; -738.000
318.412;  -81.700; -517.000; -336.000
318.548;  -44.550; -751.000; -720.000
318.685; -104.450; -985.000; -888.000
318.821; -103.125; -762.000; -735.000
318.957;  -35.600;   34.000;  -23.000
319.094;   33.850;  297.000;  154.000
319.230;  -70.400; -756.000; -742.000
319.367;   92.650; -471.000; -520.000
319.503;   37.675; -538.000; -436.000
319.639; -111.750; -877.000; -793.000
319.775;  -91.550; -750.000; -685.000
319.912;  -63.550; -424.000; -519.000
320.048; -104.225;-1184.000;-1184.000
320.184;   64.100;   59.000;   70.000
320.321;  -67.450; -497.000; -467.000
320.457;   54.325;  475.000;  662.000
320.593;  -75.025; -375.000; -382.000
320.729; -119.350; -732.000; -734.000
320.866;  -86.775; -577.000; -635.000
321.002;  -84.650; -759.000; -809.000
321.138;  -21.350; -135.000; -211.000
321.274;   56.350; -148.000; -115.000
321.410;  -31.800; -585.000; -353.000
321.546;  -50.900;-1011.000; -911.000
321.683;   49.125;  400.000;  185.000
321.819;   -2.850;  -48.000; -117.000
321.955; -108.325; -743.000; -722.000
322.091;  -51.725; -585.000; -540.000
322.227;  -30.000; -382.000; -202.000
322.363;  -33.975; -320.000; -215.000
322.499;  -61.800; -343.000; -331.000
322.635;  146.075;  636.000;  443.000
322.771;    2.625; -139.000;   12.000
322.907;   69.750;  129.000;  327.000
323.043;  -33.550; -115.000; -206.000
323.179;  -58.225; -394.000; -363.000
323.315;  -20.775; -401.000; -371.000
323.451;   58.975; -328.000; -236.000
323.587;   36.250;  -60.000;  -77.000
323.723;   -1.075; -682.000; -601.000
323.859;  -24.425; -258.000;  -76.000
323.995;  -36.600; -467.000; -409.000
324.131; -125.025; -967.000; -892.000
324.267;  -43.350; -254.000; -276.000
324.402; -136.025; -960.000; -983.000
324.538;  -19.875; -279.000; -104.000
324.674;   16.400;  164.000;   77.000
324.810;   75.925;  226.000;  308.000
324.946;  -25.300; -810.000; -658.000
325.082;  -76.775; -568.000; -475.000
325.217;  -26.575;  -62.000;   16.000
325.353; -111.525; -764.000; -659.000
325.489;  -80.950; -540.000; -506.000
325.625;  -68.750; -579.000; -525.000
325.760;   51.325;  517.000;  376.000
325.896;  -49.225; -515.000; -702.000
326.032;  -68.500; -403.000; -352.000
326.168;  -63.925; -462.000; -369.000
326.303;  -76.650; -352.000; -461.000
326.439;  -30.150; -336.000; -276.000
326.575;   -8.050; -190.000;  -29.000
326.710;   -4.525; -156.000;  -30.000
326.846;  -15.625;  146.000;  103.000
326.982;  -93.525; -530.000; -548.000
327.117;  -78.175; -481.000; -442.000
327.253;  -97.300; -745.000; -742.000
327.388; -172.900;-1137.000;-1153.000
327.524;  -79.925; -811.000; -578.000
327.659;  -36.475;  -58.000;  -22.000
327.795;  -13.025;   69.000;   45.000
327.931;  -92.900; -723.000; -499.000
328.066;  -31.100; -417.000; -276.000
328.202;  -32.775;   12.000; -129.000
328.337;   89.000;  957.000;  713.000
328.473;   30.000;  -12.000;  -74.000
328.608;  -28.150; -256.000; -267.000
328.743;  -92.725; -799.000; -664.000
328.879;    6.050;  214.000;  114.000
329.014;  -44.825; -102.000; -122.000
329.150;  -87.075; -358.000; -483.000
329.285;  -82.450; -465.000; -466.000
329.421;  -63.575; -548.000; -246.000
329.556;  -42.900;  -36.000;   85.000
329.691; -114.250; -633.000; -615.000
329.827;  -99.150; -626.000; -480.000
329.962;  -53.700;  131.000; -301.000
330.097; -101.125; -673.000; -585.000
330.233;  -65.200; -410.000; -223.000
330.368; -130.500; -839.000; -628.000
330.503;  -20.575;    3.000;   98.000
330.638;  -19.800;  -93.000; -125.000
330.774;  -62.000; -609.000; -530.000
330.909;  -52.150; -434.000; -244.000
331.044; -111.000; -714.000; -708.000
331.179; -180.175;-1217.000;-1109.000
331.315;   -0.825;   77.000;   20.000
331.450;    2.225;  157.000;  285.000
331.585;  -95.000; -805.000; -706.000
331.720;  -95.750; -510.000; -460.000
331.855;   -9.375;  -35.000; -102.000
331.990;  262.500;   62.000;  138.000
332.126;  131.925; -110.000;   71.000
332.261;  -29.075; -379.000; -265.000
332.396;  -14.775; -135.000; -242.000
332.531; -103.550;-1074.000;-1031.000
332.666;   26.575; -519.000; -363.000
332.801; -118.250; -726.000; -807.000
332.936;  -41.425; -192.000; -122.000
333.071; -162.550; -870.000; -817.000
333.206;    2.425;  307.000;  379.000
333.341;    9.775;  344.000;  418.000
333.476;  -90.775; -627.000; -623.000
333.611;  -56.175; -251.000; -173.000
333.746;  -60.425; -381.000; -464.000
333.881; -132.750; -973.000; -935.000
334.016; -135.775; -936.000; -917.000
334.151; -134.000; -746.000; -702.000
334.286;   22.300;  152.000;  186.000
334.421;  -34.650; -125.000; -178.000
334.556;  -91.650; -611.000; -567.000
334.690; -108.750; -631.000; -577.000
334.825;   49.675;  381.000;   83.000
334.960;  -64.675; -285.000; -413.000
335.095;   -8.350;  135.000;  -91.000
335.230; -119.375; -722.000; -738.000
335.365; -153.250;-1084.000; -990.000
335.499; -160.900;-1108.000;-1037.000
335.634;   -4.625;    9.000;  534.000
335.769; -123.150; -755.000; -720.000
335.904;  -55.500; -603.000; -561.000
336.038;  -60.950; -735.000; -657.000
336.173; -138.450;-1206.000;-1194.000
336.308;   -7.775; -116.000; -189.000
336.443;   17.200; -544.000; -634.000
336.577;  -82.025; -936.000; -787.000
336.712;   48.425;   -4.000;  -12.000
336.847;  -57.050; -724.000; -607.000
336.981;   17.975; -272.000; -208.000
337.116;  244.150;  615.000;  501.000
337.250;  111.325; -434.000; -421.000
337.385;  268.350; -297.000; -208.000
337.520;   91.425; -632.000; -603.000
337.654;  -43.525; -215.000; -126.000
337.789; -133.200; -989.000; -933.000
337.923;  -42.350; -104.000; -205.000
338.058;  -96.475; -673.000; -738.000
338.192;  -57.825; -611.000; -488.000
338.327;  -38.000;  -18.000; -155.000
338.461;  -85.725; -299.000; -469.000
338.596;  -86.925; -780.000; -638.000
338.730; -116.925; -767.000; -803.000
338.865;   93.325;  -46.000; -140.000
338.999;  -59.200; -846.000; -702.000
339.134;  -31.625; -634.000; -536.000
339.268;  -13.850; -741.000; -603.000
339.403;  359.125; -740.000; -775.000
339.537;  122.150; -894.000; -820.000
339.671; -112.175; -829.000; -813.000
339.806;  -63.725; -556.000; -512.000
339.940;   -3.575; -261.000; -235.000
340.074;  -99.750; -685.000; -510.000
340.209;  -48.550; -351.000; -230.000
340.343; -106.750; -517.000; -573.000
340.477;  131.050;  998.000; 1036.000
340.612;  -63.575;-1033.000; -900.000
340.746;  141.925; -199.000; -243.000
340.880;  -84.100; -924.000; -785.000
341.014;  -23.075;  -45.000; -154.000
341.149; -127.450; -756.000; -718.000
341.283; -117.525; -839.000; -754.000
341.417; -117.975;-1124.000; -938.000
341.551;   81.875; -768.000; -708.000
341.685;  -48.400; -633.000; -611.000
341.820;  -72.175; -562.000; -493.000
341.954;  -68.500; -218.000; -349.000
342.088; -163.625;-1102.000;-1019.000
342.222;   32.600;  565.000;  618.000
342.356;  -71.350; -395.000; -335.000
342.490; -126.100; -880.000; -841.000
342.624;  -52.100; -339.000; -242.000
342.758;  -12.975; -364.000; -312.000
342.892;  -71.800; -710.000; -585.000
343.026;  -52.100;  -58.000; -116.000
343.160;  -67.150; -426.000; -376.000
343.294;  -98.150; -474.000; -337.000
343.428;  -48.475; -488.000; -448.000
343.562;  -22.150; -172.000;  -23.000
343.696;  -48.050; -385.000; -314.000
343.830;  -49.975; -362.000; -356.000
343.964;   -0.825; -231.000; -168.000
344.098;  757.600;  199.000;   70.000
344.232;  614.900; -266.000; -127.000
344.366;   71.825; -567.000; -453.000
344.500;   25.000; -665.000; -744.000
344.634;    4.400; -324.000; -164.000
344.768;  -33.525; -531.000; -341.000
344.902;   12.550;  278.000;  256.000
345.035;  -90.100; -556.000; -496.000
345.169; -142.850; -933.000; -656.000
345.303;  -48.125; -308.000; -482.000
345.437;  -94.750; -826.000; -717.000
345.571;  -82.775; -675.000; -594.000
345.704;  -81.650; -309.000; -532.000
345.838;  -33.625; -331.000; -284.000
345.972;  -61.575; -543.000; -495.000
346.106;  168.850; -179.000; -190.000
346.239;  373.675; -312.000; -243.000
346.373;   -6.250; -343.000; -302.000
346.507; -154.225; -950.000; -962.000
346.640;  103.875;  -30.000;   13.000
346.774;  -75.525; -650.000; -797.000
346.908;  -30.150; -138.000;  -11.000
347.041; -118.175; -646.000; -593.000
347.175;    5.100;  259.000;   27.000
347.309;  -74.475; -698.000; -628.000
347.442; -108.475; -883.000; -732.000
347.576;  227.625;  670.000;  668.000
347.709;  128.525; -123.000;  -52.000
347.843; -114.025; -933.000; -825.000
347.976;   26.575;  235.000;  294.000
348.110; -187.650;-1268.000;-1186.000
348.243; -117.750; -679.000; -772.000
348.377;   -2.025;  -26.000;   60.000
348.510;   46.400;  403.000;  540.000
348.644;  -45.350;  -37.000; -159.000
348.777;    0.200;  180.000;  191.000
348.911;  -62.275; -142.000; -112.000
349.044;  144.625;  471.000;  448.000
349.178;  105.925;-1069.000;-1006.000
349.311;  103.700;  141.000;  255.000
349.444;   -1.000; -927.000; -813.000
349.578;  -32.725; -347.000; -200.000
349.711; -110.000; -959.000; -862.000
349.845;  -36.800; -661.000; -591.000
349.978; -157.075;-1224.000;-1137.000
350.111; -101.250; -546.000; -612.000
350.244;  -86.600; -596.000; -700.000
350.378;  -17.475; -392.000; -393.000
350.511;  -85.100; -393.000; -426.000
350.644; -121.675; -808.000; -806.000
350.778;   -2.225;  168.000;  104.000
350.911;   -5.725;  134.000;  140.000
351.044; -101.050; -685.000; -615.000
351.177;  -47.900; -321.000; -281.000
351.310;  -45.775;    3.000; -131.000
351.444;  -92.175; -888.000; -788.000
351.577;   79.325;  140.000;   90.000
351.710;   87.100;  593.000;  417.000
351.843;  -38.500; -165.000;  -77.000
351.976;   -2.850;  149.000;  -79.000
352.109;  -97.100; -621.000; -612.000
352.242;  -47.950; -464.000; -419.000
352.376;  -76.200; -580.000; -636.000
352.509;  122.725; -437.000; -356.000
352.642;  -32.775; -654.000; -604.000
352.775;   24.825; -141.000;  -98.000
352.908; -130.675; -933.000; -904.000
353.041; -120.775; -814.000; -824.000
353.174;  -65.825; -551.000; -424.000
353.307; -102.675; -753.000; -764.000
353.440;   49.225;  541.000;  453.000
353.573; -115.400; -957.000;-1008.000
353.706;  -53.625; -384.000; -558.000
353.839;  -36.450; -264.000; -220.000
353.971;  -92.800; -657.000; -512.000
354.104;  -90.000; -896.000; -835.000
354.237;  -66.025; -627.000; -662.000
354.370;  -97.650; -846.000; -879.000
354.503; -194.900;-1231.000;-1308.000
354.636;  -46.800; -529.000; -348.000
354.769; -139.950; -937.000; -860.000
354.902;  -23.400; -230.000; -139.000
355.034;  -36.225; -164.000; -220.000
355.167;  -25.525; -262.000; -162.000
355.300; -104.825;-1061.000; -880.000
355.433;  988.400;  -71.000;  -14.000
355.565; 1538.250; -402.000; -384.000
355.698;  380.600; -356.000; -296.000
355.831;  -17.725; -882.000; -801.000
355.964;   65.075; -285.000; -170.000
356.096; -105.975; -856.000; -843.000
356.229;  -19.925; -523.000; -530.000
356.362;  322.125; -373.000; -266.000
356.494;  617.100; -229.000; -162.000
356.627;  392.425;  269.000;  377.000
356.760;  642.550;  120.000;   53.000
356.892;  977.825; -286.000; -601.000
357.025;  540.600;  403.000;  389.000
357.157;  472.250; -167.000; -179.000
357.290;  726.675; -856.000; -713.000
357.423;  213.625; -667.000; -556.000
357.555;   93.100; -217.000; -228.000
357.688;   91.175; -483.000; -364.000
357.820;  374.875; -870.000; -877.000
357.953; 3310.150; -563.000; -589.000
358.085;  681.100; -632.000; -612.000
358.218;  812.650;-1131.000; -932.000
358.350;  148.450;  -58.000;  312.000
358.483; -147.400;-1300.000;-1187.000
358.615;  -59.250;-1182.000;-1078.000
358.747; -101.100;-1187.000;-1058.000
358.880;  -21.200; -810.000; -744.000
359.012;  -24.350; -376.000; -202.000
359.145;  -45.325; -480.000; -511.000
359.277;   16.175; -962.000; -913.000
359.409; 2684.550;  536.000;  231.000
359.542;  683.925; -738.000; -688.000
359.674;   44.950;   46.000;   13.000
359.806;  -61.600; -565.000; -438.000
359.939;  -45.150; -617.000; -516.000
360.071;   -9.975; -583.000; -579.000
360.203;  -43.825; -411.000; -364.000
360.335;   49.200;  164.000;  -16.000
360.468;  188.275; -249.000; -307.000
360.600; 2229.075; -547.000; -454.000
360.732; 2977.475; -546.000; -423.000
360.864;  402.175;-1216.000;-1044.000
360.996;  185.550; -516.000; -554.000
361.129;    7.150; -389.000; -598.000
361.261;   10.575;  110.000; -113.000
361.393;  -45.125; -252.000; -214.000
361.525;   16.075;   94.000;  244.000
361.657;  -74.125; -821.000; -703.000
361.789;  -13.575; -139.000; -155.000
361.921;  129.725; -642.000; -593.000
362.053;  220.900;  524.000;  541.000
362.185;   28.850;  288.000;   72.000
362.318; -110.175; -709.000; -705.000
362.450;   74.725;  294.000;  444.000
362.582;   22.600; -913.000; -870.000
362.714;  -64.225; -353.000; -332.000
362.846;  -85.850; -606.000; -490.000
362.978; -152.450; -941.000; -811.000
363.109;   18.200; -161.000; -260.000
363.241;  321.175; -739.000; -749.000
363.373;  433.075; -649.000; -564.000
363.505;  681.475; -186.000;  -91.000
363.637;  148.400; -787.000; -601.000
363.769; -139.775;-1067.000;-1080.000
363.901;  -73.700; -596.000; -654.000
364.033; -133.150;-1103.000;-1062.000
364.165;  -30.875; -283.000; -283.000
364.296;   71.700; -316.000; -177.000
364.428;   72.800;-1344.000;-1220.000
364.560;  -79.825; -679.000; -661.000
364.692;  -87.925; -738.000; -835.000
364.824;  187.075; -588.000; -456.000
364.955;  415.500; -402.000; -564.000
365.087; 1012.800;-1097.000; -852.000
365.219;   16.625; -686.000; -816.000
365.351;  -70.100; -526.000; -572.000
365.482;   43.075;  300.000;  240.000
365.614;  -57.725; -402.000; -314.000
365.746; -112.500; -729.000; -752.000
365.877; -117.475; -706.000; -672.000
366.009;  270.650;  -35.000;  -62.000
366.141;  -93.850;-1249.000;-1134.000
366.272; -128.550; -803.000; -719.000
366.404; -139.000;-1005.000; -874.000
366.535;  -22.250; -139.000;  -12.000
366.667; -111.625; -644.000; -649.000
366.799;   18.250;  353.000;  203.000
366.930; -128.575; -862.000; -996.000
367.062;  121.475; -639.000; -613.000
367.193;  160.275; -872.000; -842.000
367.325;  -70.675; -580.000; -684.000
367.456;   10.225; -246.000;   31.000
367.588;  167.800; -371.000; -318.000
367.719;   12.500;  -44.000;  -45.000
367.851;  -41.150; -222.000; -241.000
367.982;  -75.800; -875.000; -732.000
368.113;   48.625; -475.000; -358.000
368.245; -127.525; -960.000; -841.000
368.376;  -38.100; -254.000; -302.000
368.508;  -60.975; -188.000; -263.000
368.639; -149.475;-1166.000;-1034.000
368.770;  -45.475; -670.000; -589.000
368.902;  -91.750; -836.000; -926.000
369.033; -112.225; -906.000; -855.000
369.164;  -52.450; -720.000; -653.000
369.296; -111.525; -452.000; -601.000
369.427;  -20.825; -209.000; -144.000
369.558;  -58.450; -593.000; -377.000
369.689; -101.875; -721.000; -569.000
369.821; -138.150; -951.000; -845.000
369.952;  -18.525;   42.000; -108.000
370.083;  -71.650; -229.000; -108.000
370.214;  -88.175; -735.000; -650.000
370.345;  -26.025;   65.000;   81.000
370.477; -107.100; -810.000; -790.000
370.608;  157.300; -328.000; -264.000
370.739;  -79.550;-1233.000;-1292.000
370.870;  -69.275;-1102.000; -923.000
371.001;   54.000; -378.000; -467.000
371.132;  -78.200; -754.000; -735.000
371.263;  -30.125;  -42.000; -148.000
371.394; -149.125; -841.000; -748.000
371.525;   36.775;  345.000;  225.000
371.657; -104.550; -808.000; -670.000
371.788;   50.000;  103.000;  199.000
371.919;  133.825; -384.000; -304.000
372.050; 3079.900;  -91.000; -156.000
372.181;  921.650; -188.000; -294.000
372.311;  275.275;   42.000; -127.000
372.442;   -4.475; -457.000; -451.000
372.573;  -33.625; -444.000; -340.000
372.704; -144.100;-1008.000; -980.000
372.835;   53.000; -228.000; -289.000
372.966;  -79.650; -646.000; -554.000
373.097;  -77.300; -575.000; -711.000
373.228;  -56.775; -717.000; -542.000
373.359;   62.875; -824.000; -536.000
373.490;  726.700; -881.000; -727.000
373.620;  948.200;-1001.000; -803.000
373.751; 1434.950; -332.000; -396.000
373.882;  634.425; -663.000; -733.000
374.013;   33.775; -449.000; -262.000
374.143;  -60.775; -581.000; -659.000
374.274; -127.600; -987.000; -908.000
374.405;  133.150; -388.000; -276.000
374.536;  304.100; -526.000; -387.000
374.666;  871.350; -759.000; -807.000
374.797;  148.825; -817.000; -868.000
374.928;  676.725; -710.000; -560.000
375.058;  714.275; -535.000; -500.000
375.189;   53.325;  -59.000;  -93.000
375.320; -137.800; -928.000;-1034.000
375.450;  -62.950; -625.000; -616.000
375.581;  -75.350; -526.000; -436.000
375.712;  -44.500; -574.000; -250.000
375.842;  206.900; -438.000; -415.000
375.973;  134.025; -554.000; -513.000
376.103;  -67.200; -665.000; -648.000
376.234;  -98.300; -531.000; -552.000
376.364;  -70.175; -944.000; -867.000
376.495;  270.000;  925.000;  529.000
376.625;  -49.950; -472.000; -485.000
376.756;   15.900; -709.000; -678.000
376.886; -110.800;-1178.000;-1026.000
377.017;   47.700;-1048.000;-1061.000
377.147;  379.400; -786.000; -782.000
377.278;   66.300;  174.000;  228.000
377.408; -136.400; -801.000; -815.000
377.538; -119.225; -707.000; -693.000
377.669; -105.700; -537.000; -613.000
377.799; -111.650; -645.000; -635.000
377.929;  -74.950; -610.000; -428.000
378.060; -137.025; -781.000; -847.000
378.190;  -72.200; -726.000; -531.000
378.320;  -60.250; -401.000; -406.000
378.451;  -22.150; -131.000;  -22.000
378.581;  -29.625;  -67.000; -110.000
378.711;  138.025; 1035.000;  866.000
378.841;  -50.650; -533.000; -675.000
378.972;  -96.475; -871.000; -751.000
379.102;  -25.375; -652.000; -579.000
379.232;  -50.475; -126.000;  -73.000
379.362; -128.275;-1001.000; -885.000
379.492;  -21.675; -373.000; -424.000
379.623;   71.150;    0.000;  111.000
379.753; -127.825;-1107.000; -974.000
379.883;  152.475;   59.000;  156.000
380.013;  -42.675;-1081.000;-1017.000
380.143; -127.075;-1097.000;-1056.000
380.273; -118.975; -985.000; -861.000
380.403;  -23.950; -344.000; -257.000
380.533;  -57.875; -651.000; -664.000
380.663;   41.025;  173.000;  128.000
380.793; -120.550;-1027.000;-1074.000
380.923;  -30.200; -103.000;  -34.000
381.053; -106.025; -613.000; -623.000
381.183;  -54.175; -106.000; -248.000
381.313;   -0.550; -656.000; -470.000
381.443;   -1.150; -692.000; -473.000
381.573;  115.650; -402.000; -409.000
381.703;  154.525;-1249.000;-1095.000
381.833; -151.425;-1454.000;-1336.000
381.963;   81.425; -134.000;  -87.000
382.093; 1168.100; -925.000; -909.000
382.223;  361.875; -713.000; -602.000
382.353;  -57.525; -801.000; -608.000
382.482;  261.050;-1091.000; -964.000
382.612;  619.675; -872.000; -644.000
382.742;  355.175; -695.000; -622.000
382.872;  184.500; -565.000; -551.000
383.002;   28.175;  347.000; -132.000
383.131;  -35.375; -226.000; -160.000
383.261;  -54.100; -706.000; -768.000
383.391;  261.225; -552.000; -377.000
383.521; 3414.775;  451.000;  263.000
383.650;  844.525; -947.000; -904.000
383.780;  -16.150; -783.000; -656.000
383.910;   86.225;  880.000;  802.000
384.039;   -3.550; -794.000; -656.000
384.169;  100.525;-1205.000;-1017.000
384.299;  -47.950; -650.000; -662.000
384.428; -109.700; -764.000; -680.000
384.558;  -64.500; -308.000; -275.000
384.687;  -72.950; -414.000; -334.000
384.817;  -11.550;   75.000;   -2.000
384.947;   -8.300; -234.000; -141.000
385.076;  221.375;  982.000;  912.000
385.206;   70.675;  369.000;  480.000
385.335;  -56.775; -549.000; -417.000
385.465; -101.075; -655.000; -663.000
385.594;   82.225;  -53.000;  -44.000
385.724;  304.275; -868.000; -838.000
385.853;   67.975; -296.000; -270.000
385.982; 1107.675; -743.000; -787.000
386.112; 1807.175;-1052.000; -871.000
386.241;   92.975; -307.000; -312.000
386.371;   -8.475; -174.000;  -87.000
386.500;  -44.900; -825.000; -789.000
386.629;    5.100; -874.000; -817.000
386.759;   40.675;  -43.000;   68.000
386.888;  -38.950; -170.000; -250.000
387.017;  -93.300; -648.000; -620.000
387.147; -100.700; -771.000; -798.000
387.276;  -39.275; -410.000; -397.000
387.405;  -13.150; -398.000; -342.000
387.535;  -72.775; -452.000; -361.000
387.664;  -69.425; -692.000; -620.000
387.793;   23.375; -198.000; -113.000
387.922;  399.000;  255.000;  200.000
388.052;  -20.400; -576.000; -423.000
388.181;  -24.100; -342.000; -472.000
388.310;  -50.575; -889.000; -710.000
388.439;  -79.375; -749.000; -742.000
388.568;  132.575;  365.000;  244.000
388.697;  833.425; -756.000; -653.000
388.826;  145.775; -768.000; -666.000
388.956;   28.075; -285.000; -307.000
389.085;  -64.125; -347.000; -287.000
389.214; -130.325; -842.000; -872.000
389.343;  -86.850; -645.000; -413.000
389.472;  390.400;  126.000;  149.000
389.601;  481.625;   91.000;    0.000
389.730;  -11.575; -568.000; -687.000
389.859;   43.975;  226.000;   46.000
389.988;  128.200; -423.000; -408.000
390.117;   98.600; -168.000; -146.000
390.246;  -38.375; -331.000; -320.000
390.375;   33.050; -673.000; -626.000
390.504;  -83.275; -703.000; -621.000
390.633; -121.750; -672.000; -726.000
390.761;  -95.150; -732.000; -645.000
390.890;  -10.450;   -4.000; -130.000
391.019;  -59.300; -421.000; -441.000
391.148; -136.600; -826.000; -855.000
391.277;  -81.600; -576.000; -493.000
391.406; -102.900; -821.000; -805.000
391.534;    6.425;  574.000; -301.000
391.663;  -86.375; -583.000; -645.000
391.792; -101.675; -673.000; -701.000
391.921;   52.525;   -3.000;   15.000
392.050;  108.925; -287.000; -228.000
392.178;  -85.950;-1206.000;-1061.000
392.307;   84.750; -758.000; -712.000
392.436;   19.575; -427.000; -641.000
392.564;    5.600;  166.000;   -6.000
392.693; -104.800; -860.000; -682.000
392.822;  130.200; -529.000; -534.000
392.950;   44.400; -880.000; -714.000
393.079;  235.125; -188.000; -328.000
393.208;    3.725; -488.000; -511.000
393.336;  -29.650; -170.000; -145.000
393.465;  -50.850; -317.000; -199.000
393.593;    4.525;   62.000;   79.000
393.722; -155.050;-1121.000; -916.000
393.850;  -32.025; -188.000;  -61.000
393.979; -168.825; -926.000; -805.000
394.107;  -68.175; -517.000; -537.000
394.236;  -64.225; -570.000; -507.000
394.364;  164.400;  383.000;  206.000
394.493;  275.400; -911.000; -767.000
394.621;  -36.050; -955.000; -916.000
394.750;  721.275; -873.000; -923.000
394.878; 3042.175; -247.000; -149.000
395.007; 4143.050; -721.000; -807.000
395.135;  310.300; -790.000; -721.000
395.263;  -82.375;-1038.000;-1040.000
395.392;   -1.975;  -25.000; -107.000
395.520; -149.275; -818.000; -679.000
395.648; -118.300; -865.000; -915.000
395.777;  -40.775; -366.000; -405.000
395.905;  -79.250; -449.000; -564.000
396.033;    3.100;  217.000;  172.000
396.162;  451.775; -399.000; -453.000
396.290;  390.800;  -17.000;   -2.000
396.418;   49.275; -555.000; -514.000
396.546;  -96.225; -571.000; -466.000
396.674; -117.150; -850.000; -878.000
396.803;  -14.475;  -72.000;  -23.000
396.931;   35.900; -179.000; -199.000
397.059;  -29.875;-1026.000; -989.000
397.187; -129.100;-1026.000; -975.000
397.315; -136.750; -884.000; -649.000
397.443; -111.150; -592.000; -443.000
397.572; -108.650; -578.000; -424.000
397.700;  -44.100; -607.000; -614.000
397.828;  -12.325;  120.000;  -90.000
397.956;  -63.350; -508.000; -478.000
398.084;  -71.325; -767.000; -626.000
398.212;   15.400;  137.000;  124.000
398.340;  -11.850;  -56.000;  159.000
398.468;   -4.200; -390.000; -169.000
398.596; -150.025; -993.000; -953.000
398.724; -131.000; -762.000; -767.000
398.852; -172.825;-1024.000; -976.000
398.980;  -81.325; -560.000; -560.000
399.108;  -73.525; -982.000; -735.000
399.236;    9.850;   13.000;    8.000
399.363;   -0.125;  222.000;  196.000
399.491;  -95.775; -404.000; -398.000
399.619; -137.325; -829.000; -800.000
399.747; -129.550; -859.000; -771.000
399.875;   55.450;  220.000;  234.000
400.003;  -59.250; -359.000; -284.000
400.130; -105.325; -421.000; -341.000
400.258;  -40.500;  -83.000;   38.000
400.386;  -75.575; -352.000; -168.000
400.514;  -70.325; -526.000; -587.000
400.641; -114.450; -928.000; -802.000
400.769; -161.075; -979.000; -888.000
400.897; -130.600; -838.000; -793.000
401.025;  -33.350; -166.000; -152.000
401.152;  -18.975;  220.000;   38.000
401.280;  -80.300; -430.000; -429.000
401.408; -126.100; -712.000; -576.000
401.535; -114.475; -735.000; -758.000
401.663; -195.850;-1134.000;-1054.000
401.790;  -94.425; -514.000; -525.000
401.918;   27.850;  436.000;  405.000
402.046;  -25.950;  134.000;  122.000
402.173;  -50.475;  -18.000;    7.000
402.301;  -82.675; -519.000; -397.000
402.428;   17.150;  528.000;  383.000
402.556; -148.750;-1188.000; -913.000
402.683;  -54.650;  -20.000;   -1.000
402.811;  -40.750;  -37.000; -206.000
402.938;  -23.200;   20.000;   27.000
403.066;  127.375; -574.000; -558.000
403.193;  256.300;  299.000;  239.000
403.321;  195.075; -396.000; -574.000
403.448;  256.525;   83.000;   27.000
403.575;  104.125;  -90.000;  -46.000
403.703; -110.400; -732.000; -557.000
403.830;  -71.925; -531.000; -496.000
403.957; -156.725;-1117.000;-1023.000
404.085;    7.725;  -61.000; -172.000
404.212;   80.425;  -50.000;   63.000
404.339;  264.625; -566.000; -306.000
404.467; 6033.325; -612.000; -524.000
404.594; 3784.950; -287.000; -227.000
404.721;  825.700; -869.000; -764.000
404.848;   80.925; -113.000; -202.000
404.976; -119.625; -856.000; -783.000
405.103;  -32.500;  -14.000;  -82.000
405.230;  -24.325;  190.000;  226.000
405.357;    4.100;  117.000;   44.000
405.484;  265.150;  -49.000;    5.000
405.612;   29.825; -548.000; -563.000
405.739;  -73.025; -488.000; -243.000
405.866;   67.150;  669.000;  385.000
405.993;  -61.225; -398.000; -102.000
406.120; -146.000; -801.000; -887.000
406.247;  -78.375; -323.000; -342.000
406.374;  323.100;  540.000;  629.000
406.501;   51.300; -632.000; -702.000
406.628;  -96.025; -621.000; -589.000
406.755; -109.925; -803.000; -620.000
406.882;  -54.400; -228.000; -277.000
407.009; -109.925; -719.000; -628.000
407.136;    2.425; -480.000; -401.000
407.263;   51.625; -939.000; -829.000
407.390;  -97.300; -692.000; -614.000
407.517; -198.650;-1139.000;-1187.000
407.644;  -74.625; -332.000; -256.000
407.771;  -69.250; -249.000; -287.000
407.898;   -7.325;  168.000;  328.000
408.025;  -96.675; -421.000; -313.000
408.151;  -15.300;   82.000;  153.000
408.278;  -99.625; -267.000; -216.000
408.405; -124.775; -931.000; -899.000
408.532;  -91.500; -549.000; -542.000
408.659; -124.075; -677.000; -648.000
408.785; -208.875;-1298.000;-1170.000
408.912;  -86.400; -412.000; -296.000
409.039; -113.150; -610.000; -686.000
409.166; -112.100; -591.000; -555.000
409.292; -118.025; -571.000; -534.000
409.419; -128.225; -665.000; -649.000
409.546;  -92.400; -431.000; -192.000
409.672; -105.575; -713.000; -545.000
409.799;  -46.725;  -36.000;   34.000
409.926;  -58.475; -180.000; -179.000
410.052; -184.200;-1127.000;-1091.000
410.179;  -75.400; -368.000; -392.000
410.305; -107.800; -375.000; -493.000
410.432;  -50.875; -220.000; -333.000
410.558;  -95.275; -305.000; -380.000
410.685; -119.450; -688.000; -431.000
410.812; -107.925; -409.000; -588.000
410.938; -155.225; -964.000; -808.000
411.065; -115.725; -671.000; -645.000
411.191;  -38.725; -189.000; -174.000
411.317; -133.125; -823.000; -742.000
411.444;  -80.275; -317.000; -246.000
411.570;  -91.525; -339.000; -294.000
411.697; -130.625; -758.000; -752.000
411.823; -187.250; -989.000; -999.000
411.949;  -47.400;  -56.000;   17.000
412.076; -128.900; -539.000; -519.000
412.202; -135.400; -758.000; -757.000
412.329; -147.925; -798.000; -752.000
412.455; -124.275; -821.000; -657.000
412.581;  -41.925;  -15.000;  172.000
412.707;  -92.100; -540.000; -457.000
412.834;    6.200;  156.000;  219.000
412.960;  -89.550; -785.000; -784.000
413.086; -114.300; -743.000; -701.000
413.212;  111.450;  604.000;  578.000
413.339;  -89.050; -685.000; -701.000
413.465;  -26.725; -364.000; -310.000
413.591; -108.175; -757.000; -474.000
413.717;  -58.175; -358.000; -366.000
413.843; -153.850; -839.000; -861.000
413.969;  -75.625;  -47.000; -292.000
414.096; -121.225; -679.000; -679.000
414.222;  -13.475;  -33.000;   85.000
414.348;  -64.525; -652.000; -385.000
414.474;   48.625;   38.000;  -52.000
414.600;  -34.300; -126.000; -144.000
414.726;  -24.750;  -96.000;  -55.000
414.852;  -84.150; -365.000; -342.000
414.978;   13.475;  104.000;  -18.000
415.104;   24.450;   38.000;   80.000
415.230;   27.550; -329.000; -330.000
415.356;   10.350; -409.000; -514.000
415.482;  173.000;   13.000;  -35.000
415.608;  276.550; -247.000; -323.000
415.734;  955.700;   67.000;   38.000
415.860;20164.925; -875.000; -767.000
415.986;15041.775; -685.000; -607.000
416.111; 1301.525; -798.000; -652.000
416.237;  252.750; -424.000; -571.000
416.363; 1155.450; -765.000; -733.000
416.489; 4409.600; -324.000; -251.000
416.615;  498.150; -707.000; -742.000
416.741;  -28.225; -677.000; -784.000
416.866; -111.925; -673.000; -736.000
416.992; -136.700; -801.000; -818.000
417.118;  -43.375;  -41.000;  -80.000
417.244;  -89.675; -798.000; -531.000
417.369;  -85.850; -801.000; -612.000
417.495;  -22.850; -325.000; -254.000
417.621; -106.950;-1015.000; -803.000
417.746;    4.700; -579.000; -572.000
417.872;   53.225; -254.000; -144.000
417.998;   42.825; -515.000; -530.000
418.123; 1062.400;-1073.000; -845.000
418.249; 5669.575; -512.000; -601.000
418.374;  803.775; -916.000; -824.000
418.500;  109.225; -383.000; -482.000
418.626;   98.900;   70.000;  -59.000
418.751;  103.100; -549.000; -448.000
418.877;  168.400; -637.000; -643.000
419.002; 1826.450; -688.000; -560.000
419.128;13124.100; -930.000; -721.000
419.253; 3319.850; -967.000; -837.000
419.379;  407.675; -391.000; -338.000
419.504;  418.000;  325.000;  415.000
419.629;  529.200; -393.000; -212.000
419.755; 3733.175; -317.000; -254.000
419.880;22566.125;  -98.000;   67.000
420.006;11929.525; -280.000; -221.000
420.131;30676.475; -662.000; -775.000
420.256; 4484.950; -315.000; -316.000
420.382;  588.650; -665.000; -687.000
420.507;   57.725; -649.000; -778.000
420.632;   68.750; -337.000; -339.000
420.758;  172.750; -251.000; -425.000
420.883;  -99.075; -876.000; -672.000
421.008; -107.175; -775.000; -619.000
421.133;  -91.625; -509.000; -467.000
421.259;  -57.100; -325.000; -259.000
421.384; -143.200; -834.000; -693.000
421.509;  -83.350;-1052.000; -862.000
421.634;  829.950; -936.000; -820.000
421.759;  362.825; -359.000; -327.000
421.885;  -83.675; -717.000; -656.000
422.010;  -95.225; -673.000; -542.000
422.135; -160.550; -695.000; -727.000
422.260;   19.425;  340.000;  280.000
422.385;  -45.425;   12.000;  -98.000
422.510;    4.425;  151.000;  -26.000
422.635;  -12.050;  -87.000;  -43.000
422.760;   73.450; -766.000; -791.000
422.885;   30.425;  -57.000;  -80.000
423.010;  -42.550; -112.000; -169.000
423.135; -109.350; -481.000; -561.000
423.260;  -36.325; -150.000; -245.000
423.385;   39.075;  476.000;  222.000
423.510;   20.425;   71.000;  -22.000
423.635;   43.525;  133.000;   45.000
423.760;   37.350;  383.000;  328.000
423.885;   32.450;  336.000;  391.000
424.010;   -4.050;  -68.000;  -13.000
424.135;  -43.250;    5.000;  -33.000
424.259;  -91.350; -654.000; -457.000
424.384;  -78.275; -279.000; -272.000
424.509;  -33.300; -260.000; -186.000
424.634; -113.900; -761.000; -623.000
424.759;  -55.650; -688.000; -544.000
424.883;  -21.300; -506.000; -527.000
425.008;  147.775; -502.000; -410.000
425.133; 2051.125; -679.000; -653.000
425.258;  986.950; -517.000; -381.000
425.382;  874.150; -867.000; -774.000
425.507; 2283.450; -487.000; -543.000
425.632;  399.575; -802.000; -663.000
425.756;  470.625; -256.000; -146.000
425.881; 6905.875; -831.000; -857.000
426.006;19416.225; -604.000; -355.000
426.130; 3024.700; -696.000; -508.000
426.255;  381.400; -611.000; -491.000
426.379;  157.775; -189.000; -577.000
426.504;  373.850;  660.000;  544.000
426.629; 4053.550; -519.000; -466.000
426.753; 2876.050;   64.000;  -46.000
426.878;  330.275; -252.000; -288.000
427.002;  142.225; -651.000; -668.000
427.127; 1587.800;  -35.000; -158.000
427.251;11928.825;  372.000;  401.000
427.375; 3484.175; -191.000; -173.000
427.500; 1989.550; -616.000; -610.000
427.624;  693.475; -234.000; -400.000
427.749;   74.700; -216.000; -225.000
427.873;  -53.750; -499.000; -412.000
427.997;  -64.725; -222.000; -230.000
428.122;   63.450;  795.000;  703.000
428.246;   55.900;  433.000;  434.000
428.371; -131.100; -869.000; -773.000
428.495; -116.450; -624.000; -646.000
428.619;  -61.300; -186.000; -117.000
428.743;   14.625;   65.000;  132.000
428.868;  -24.950; -732.000; -643.000
428.992; 1167.600; -219.000; -326.000
429.116;  445.225; -329.000; -357.000
429.240;  192.175;  419.000;  426.000
429.365;  -44.775; -454.000; -574.000
429.489;  -59.400; -638.000; -647.000
429.613;  -10.750; -236.000; -177.000
429.737;   28.600; -563.000; -432.000
429.861;  251.425; -247.000; -133.000
429.985; 5646.425; -425.000; -305.000
430.109; 6425.525; -770.000; -908.000
430.234;  735.425;   76.000;  -50.000
430.358;   59.925; -250.000; -160.000
430.482;  -75.050; -672.000; -564.000
430.606;  -73.175; -655.000; -375.000
430.730;  -20.975; -437.000; -388.000
430.854;   37.125; -909.000; -835.000
430.978;  -97.775; -795.000; -764.000
431.102; -107.300; -499.000; -422.000
431.226; -135.575; -874.000; -815.000
431.350;    9.775;  345.000;  422.000
431.474;  -86.400; -661.000; -373.000
431.597; -169.475;-1060.000; -848.000
431.721;  -83.975; -276.000; -267.000
431.845; -155.825; -704.000; -472.000
431.969;  -95.000; -304.000; -349.000
432.093; -108.000; -395.000; -317.000
432.217;  -11.200;   32.000;   82.000
432.341;  -96.750; -523.000; -518.000
432.464;  -10.850;   96.000;   40.000
432.588;  109.600; -401.000; -329.000
432.712;   65.000;  -52.000;  -52.000
432.836;   31.200;  213.000;  263.000
432.959;  -24.225; -372.000; -311.000
433.083;   84.025;   11.000;    2.000
433.207;  374.650;  285.000;  930.000
433.330; 5242.225; -391.000; -200.000
433.454; 6648.825; -654.000; -638.000
433.578; 3735.800;  583.000;  278.000
433.701;  706.225; -623.000; -675.000
433.825;  115.900; -292.000; -299.000
433.949;  112.175;   28.000;  -72.000
434.072;   20.025; -410.000; -323.000
434.196;  -30.425; -309.000; -117.000
434.319; 3641.675;25482.000;25124.000
434.443;  692.175; -656.000; -603.000
434.566; 2764.000;  281.000;   62.000
434.690;  493.550; -637.000; -383.000
434.813;   48.650; -251.000; -173.000
434.937;  -89.950; -569.000; -696.000
435.060;  -71.475; -423.000; -332.000
435.184;  176.225; -492.000; -217.000
435.307;   89.975;  159.000;  102.000
435.431;  -13.575;  -40.000;   24.000
435.554;  -94.425; -399.000; -240.000
435.677;  -92.900; -350.000; -258.000
435.801;  -49.650;  -25.000;   49.000
435.924;  -27.425;    1.000;  -67.000
436.048; -138.375;-1019.000; -732.000
436.171;  -87.175; -240.000;  -66.000
436.294;  -43.675; -248.000; -229.000
436.417;   91.775; -963.000; -849.000
436.541;  -94.900; -814.000; -840.000
436.664;  -70.700; -242.000; -316.000
436.787;  -42.925;   13.000;  113.000
436.910; -116.150; -792.000; -422.000
437.034;  -27.725;  142.000;  143.000
437.157;   12.525;  -11.000;    0.000
437.280;  -75.350; -392.000; -292.000
437.403; -111.400; -982.000; -869.000
437.526;  381.650; -903.000; -865.000
437.649; 1599.075; -505.000; -332.000
437.772;  198.100; -692.000; -540.000
437.896;   83.500;  700.000;  544.000
438.019; -117.200; -758.000; -503.000
438.142; -103.925; -596.000; -506.000
438.265;  -63.825; -639.000; -670.000
438.388;  391.850; -520.000; -410.000
438.511;   24.250; -597.000; -394.000
438.634;  -62.775; -247.000; -125.000
438.757; -142.400; -693.000; -619.000
438.880;  -33.550;  -34.000;  -57.000
439.003; -107.925; -417.000; -437.000
439.126;  -77.675; -287.000; -167.000
439.248;  -78.000;  -98.000; -139.000
439.371;  -40.800;    9.000;  -53.000
439.494;   11.775;  510.000;  439.000
439.617;  -68.325;   65.000;  -88.000
439.740; -167.450; -968.000; -816.000
439.863; -156.325; -755.000; -595.000
439.986; -113.525; -476.000; -431.000
440.108;  -69.900; -161.000; -112.000
440.231; -171.350; -950.000; -836.000
440.354;  -58.900;  -64.000; -150.000
440.477;  -27.725; -566.000; -542.000
440.599;  -31.025; -200.000; -225.000
440.722; -137.750; -709.000; -586.000
440.845;   52.150;  751.000;  928.000
440.968; -103.750; -415.000; -311.000
441.090;  -63.575; -199.000;  -33.000
441.213; -179.650;-1021.000; -825.000
441.336;  -66.625; -159.000;   -5.000
441.458; -102.925; -549.000; -396.000
441.581; -109.425; -628.000; -629.000
441.703;  -88.725; -152.000;   13.000
441.826; -132.400; -557.000; -400.000
441.948;  -59.575;   56.000;   51.000
442.071;    8.950;  555.000;  424.000
442.193; -129.925; -531.000; -485.000
442.316;    5.750;  152.000;   97.000
442.438;   25.875; -233.000;  -10.000
442.561;   66.025;  272.000;  262.000
442.683;  335.725; -809.000; -522.000
442.806;  821.575;   -8.000;   74.000
442.928;  -26.350; -859.000; -604.000
443.051;  -84.900; -577.000; -373.000
443.173;  -92.850; -341.000; -339.000
443.295;  -95.750; -263.000; -371.000
443.418;  -89.925; -321.000;  -29.000
443.540;  -30.900; -106.000;   -4.000
443.662; -141.100; -563.000; -465.000
443.785;  -18.050;  335.000;  199.000
443.907;  -96.275; -362.000; -208.000
444.029; -134.300; -767.000; -494.000
444.152; -156.475; -644.000; -554.000
444.274;  -34.000;  -18.000;  -24.000
444.396; -113.625; -461.000; -221.000
444.518; -131.700; -691.000; -454.000
444.640; -113.575; -268.000; -111.000
444.763;  -14.650;  388.000;  249.000
444.885; -124.500; -432.000; -392.000
445.007;  -43.450;   35.000;   86.000
445.129; -109.900; -610.000; -515.000
445.251; -121.925; -372.000; -439.000
445.373; -148.450; -537.000; -386.000
445.495;   -5.575;  242.000;  350.000
445.617;   37.450;  853.000;  753.000
445.739;  -74.400; -215.000;  -97.000
445.861;  -54.100; -245.000; -112.000
445.984;  -54.825; -267.000; -101.000
446.105;  115.550; -418.000; -251.000
446.227;  426.575; -176.000;  -19.000
446.349;  -23.025; -358.000; -249.000
446.471; -114.000; -615.000; -448.000
446.593;  -81.450; -316.000;   19.000
446.715;  -33.875;  -67.000;   41.000
446.837;   57.900;  697.000;  832.000
446.959; -108.500; -457.000; -478.000
447.081; -146.000; -628.000; -518.000
447.203;   36.100;  862.000;  834.000
447.325;  -96.300; -270.000;   42.000
447.446;  -18.200;  286.000;  530.000
447.568; -174.675; -921.000; -803.000
447.690;  -95.700; -236.000; -245.000
447.812; -153.775; -798.000; -519.000
447.933;  -31.500;  155.000;  127.000
448.055;  -92.525; -306.000; -261.000
448.177;   91.550;   31.000;   79.000
448.299;   18.200; -935.000; -727.000
448.420;   15.175;  -25.000;  159.000
448.542;  -52.450;   -3.000;   33.000
448.664;  -42.150;  109.000;  322.000
448.785;  -50.025;  265.000;   83.000
448.907; -109.150; -614.000; -353.000
449.028;  -56.625; -771.000; -471.000
449.150;   41.375;  492.000;  589.000
449.272; -181.450;-1044.000; -913.000
449.393;   12.275;  612.000;  694.000
449.515; -165.725; -634.000; -581.000
449.636;  -74.025; -264.000; -155.000
449.758;   53.450;  763.000;  622.000
449.879; -104.425; -498.000; -396.000
450.001;  -84.425; -149.000;  -49.000
450.122;  -42.925;  -95.000;  162.000
450.244;  -39.600;   37.000;  364.000
450.365;  -78.125; -495.000; -301.000
450.486;  -37.950;   80.000;  268.000
450.608;    7.700;  393.000;  326.000
450.729;   72.100;  578.000;  645.000
450.850;    0.450; -574.000; -466.000
450.972;  780.575; -552.000; -389.000
451.093; 5249.125;  190.000;  588.000
451.214; 2347.225; -516.000; -337.000
451.336;  404.325;  773.000;  579.000
451.457;   73.825;  264.000;  393.000
451.578;  -40.425; -118.000;  -74.000
451.699; -138.000; -546.000; -540.000
451.821;  -69.425; -284.000;  -50.000
451.942;  -17.175;  278.000;  285.000
452.063;   19.375;  228.000;  419.000
452.184;  568.525;  -54.000;  -49.000
452.305; 1138.900;  103.000;  170.000
452.427;  157.500; -549.000; -301.000
452.548;  -19.425;   23.000;   79.000
452.669;  -67.525; -257.000;  -89.000
452.790;  -46.450;    3.000;  -18.000
452.911;  -22.150;  195.000;  259.000
453.032;  -85.225; -289.000;  -60.000
453.153;  -66.050;  -29.000;   81.000
453.274;   58.425;  737.000;  868.000
453.395;  -58.600;  -51.000;  175.000
453.516;  117.475; 1317.000; 1388.000
453.637;  -73.200; -205.000; -150.000
453.758;  -60.850;   15.000;   69.000
453.879; -133.400; -462.000; -250.000
454.000;   79.325; 1086.000;  948.000
454.121; -128.075; -554.000; -326.000
454.242; -134.125; -599.000; -383.000
454.362;  -71.050;  -99.000;  114.000
454.483;  -48.925; -309.000; -229.000
454.604;   33.625;  512.000;  580.000
454.725; -140.300; -627.000; -555.000
454.846; -128.325; -474.000; -406.000
454.967;  -25.650;  230.000;  539.000
455.087;  -45.750;  179.000;  153.000
455.208;   -0.025;  554.000;  856.000
455.329;  -66.850;  -22.000;   82.000
455.450;   27.125;  473.000;  633.000
455.570;  -95.250; -234.000; -211.000
455.691;  -49.525;  201.000;  407.000
455.812; -130.475; -270.000;  -92.000
455.932;  -57.250;  107.000;  -97.000
456.053; -100.550;   36.000;   24.000
456.173; -118.550; -433.000; -355.000
456.294; -141.250; -476.000; -303.000
456.415;  -79.475;  -73.000;   70.000
456.535;  -61.100;  297.000;  273.000
456.656;  -50.650;  132.000;  240.000
456.776;  -77.150;    3.000;  298.000
456.897;  -24.800;  308.000;  513.000
457.017;  -88.200; -153.000;   -3.000
457.138; -114.125; -402.000; -249.000
457.258;  -22.725;  263.000;  224.000
457.379;  -27.025;  509.000;  521.000
457.499;  -34.975;  443.000;  432.000
457.620; -137.600; -407.000; -231.000
457.740; -112.775; -132.000;  -11.000
457.860;  -65.625;   87.000;   44.000
457.981;  -62.725;  132.000;  124.000
458.101;  -83.550;  -89.000;   40.000
458.221;  -39.500;  336.000;  402.000
458.342;  -71.850;   -4.000;  -37.000
458.462;   24.525;  617.000;  352.000
458.582;  -38.275; -302.000; -294.000
458.703;   10.100;  303.000;  154.000
458.823;  -32.800;   22.000;  163.000
458.943;   15.775;  341.000;  467.000
459.063;  -22.950; 1124.000;  192.000
459.183;  -35.025;  328.000;  313.000
459.304;   -0.875;  315.000;  517.000
459.424;  -72.950; -246.000;  -89.000
459.544;  341.525;  388.000;  764.000
459.664;  854.925;  499.000;  506.000
459.784;  325.700; 1004.000; 1175.000
459.904;   54.750;  867.000;  744.000
460.024;   59.300;  867.000;  684.000
460.144;  -22.925;  449.000;  554.000
460.264;   -8.200;  515.000;  327.000
460.385;  -98.675; -145.000; -119.000
460.505;   33.775;  905.000;  858.000
460.625;  -87.550;  -17.000;  -68.000
460.745;  -40.450;  396.000;  541.000
460.864;  -57.400;  153.000;  469.000
460.984;   -4.250;  499.000;  573.000
461.104;  125.750; 1656.000; 1775.000
461.224;   17.900;  657.000;  650.000
461.344;  -46.225;  431.000;  360.000
461.464;  -56.500;  258.000;  513.000
461.584;  -30.875;  283.000;  466.000
461.704;  -56.525;   58.000;  108.000
461.824;  -68.950;  238.000;  259.000
461.943;  -40.825;  191.000;  130.000
462.063;  -91.175;    2.000;  324.000
462.183;   32.825;  639.000;  717.000
462.303;   79.275; 1678.000; 1230.000
462.422;   11.575;  781.000;  840.000
462.542;  -62.600;  271.000;  391.000
462.662;   17.400;  353.000;  380.000
462.782;  245.800;  833.000;  572.000
462.901;  501.325;  545.000;  717.000
463.021;  293.450; 1702.000; 1638.000
463.141;   -9.525;  337.000;  770.000
463.260;  -21.175;  614.000;  474.000
463.380;    3.300;  902.000;  884.000
463.499;  -36.650;  342.000;  332.000
463.619;  -42.025;  581.000;  559.000
463.738;   88.425; 1644.000;  903.000
463.858;   -6.025;  657.000;  811.000
463.978;  -48.100;  542.000;  396.000
464.097;   44.175;  921.000; 1114.000
464.217;  110.750; 1196.000; 1143.000
464.336;  118.975; 1068.000; 1130.000
464.455;  -41.925;  328.000;  659.000
464.575;   14.925;  597.000;  602.000
464.694;  142.975; 1204.000; 1179.000
464.814;  111.850; 1190.000; 1138.000
464.933;   63.225; 1095.000; 1027.000
465.052;  100.775; 1412.000; 1054.000
465.172;   58.300;  922.000;  799.000
465.291;  132.450; 1376.000; 1320.000
465.410;    0.000;  462.000;  735.000
465.530;   79.250; 1355.000; 1310.000
465.649;   57.925; 1209.000; 1273.000
465.768;  116.200; 1673.000; 1508.000
465.888;   49.225;  941.000; 1174.000
466.007;   93.775; 1335.000; 1440.000
466.126;  -27.200;  721.000;  641.000
466.245;   32.925; 1176.000; 1187.000
466.364;   15.900;  950.000; 1060.000
466.484;   37.450; 1024.000; 1213.000
466.603;   22.250; 1101.000; 1222.000
466.722;   97.525; 1490.000; 1769.000
466.841;   76.450; 1151.000; 1401.000
466.960;   30.400; 1069.000;  972.000
467.079;  108.875; 1971.000; 1786.000
467.198;   38.100; 1238.000; 1181.000
467.317;   83.525; 1768.000; 1162.000
467.436;   53.100; 1709.000; 1261.000
467.555;  114.325; 1796.000; 1746.000
467.674;   48.525; 1227.000; 1329.000
467.793;   42.175; 1376.000; 1374.000
467.912;   80.300; 1658.000; 1539.000
468.031;  137.150; 2038.000; 1930.000
468.150;  125.475; 1842.000; 1837.000
468.269;  175.450; 2313.000; 2090.000
468.388;  179.625; 2168.000; 2339.000
468.507;  245.150; 2884.000; 2903.000
468.626;  273.575; 2555.000; 2541.000
468.744;  136.025; 2018.000; 2174.000
468.863;  182.925; 2312.000; 2523.000
468.982;   78.600; 1503.000; 1555.000
469.101;  219.025; 2788.000; 2692.000
469.220;  147.450; 2333.000; 2176.000
469.338;  232.250; 2935.000; 3051.000
469.457;  187.775; 2719.000; 2545.000
469.576;  357.775; 3953.000; 3784.000
469.695;  226.825; 2877.000; 3066.000
469.813;  411.675; 4148.000; 4192.000
469.932;  389.350; 4255.000; 4485.000
470.051;  424.250; 4075.000; 4161.000
470.169;  857.450; 4470.000; 4338.000
470.288; 1541.425; 4700.000; 4809.000
470.406;  891.200; 5059.000; 5194.000
470.525;  620.950; 6101.000; 5787.000
470.644;  638.550; 6847.000; 6794.000
470.762;  815.525; 8397.000; 7873.000
470.881;  907.375; 8651.000; 8464.000
470.999; 1029.250; 9685.000; 9151.000
471.118; 1095.900;11174.000;10711.000

