
Integration time [ms]: 200.000
Averaging Nr. [scans]: 10
Smoothing Nr. [pixels]: 0
Data measured with spectrometer [name]: 2101012U2
Wave   ;Sample   ;Dark     ;Reference
[nm]   ;[counts] ;[counts] ;[counts] 

197.733;  126.900;  516.000;  404.000
197.879; -164.500; -610.000; -634.000
198.025; -101.600; -475.000; -420.000
198.171; -165.100; -602.000; -612.000
198.317;  -58.700; -401.000; -316.000
198.463; -155.600; -655.000; -404.000
198.609;   48.800;  181.000; -137.000
198.755; -166.200; -644.000; -410.000
198.901; -140.100; -505.000; -424.000
199.047; -142.300; -615.000; -488.000
199.193;  -95.700; -230.000; -468.000
199.339;  -82.200; -222.000; -369.000
199.485;   94.400;  330.000;  271.000
199.631;   34.300;  227.000;  310.000
199.777;  -97.000; -466.000; -398.000
199.923; -129.400; -610.000; -424.000
200.069;  -25.400; -141.000;  -58.000
200.215;  120.300;  128.000;  453.000
200.361;   80.700;  243.000;  477.000
200.507; -142.400; -600.000; -373.000
200.653;  -28.800; -371.000; -194.000
200.798;  -85.500; -215.000; -125.000
200.944;  -21.200; -146.000;  -41.000
201.090;   84.300;   61.000;  222.000
201.236;   17.400; -116.000; -158.000
201.382;  284.600;  874.000;  903.000
201.528;    3.300;  -58.000;  -48.000
201.674;  -67.600; -386.000; -293.000
201.819; -149.400; -540.000; -439.000
201.965; -182.500; -699.000; -447.000
202.111;  -52.600; -273.000; -226.000
202.257;  -74.700; -250.000; -238.000
202.402;   41.200;   13.000;  -36.000
202.548;  -31.100; -169.000; -116.000
202.694;  173.600;  410.000; -183.000
202.840; -144.400; -603.000; -531.000
202.985; -143.700; -681.000; -639.000
203.131; -232.200; -832.000; -666.000
203.277;  -43.600; -199.000; -262.000
203.423;  -88.900; -434.000; -520.000
203.568;  -72.200; -462.000; -237.000
203.714; -131.400; -535.000; -542.000
203.860; -157.400; -682.000; -641.000
204.005;   33.400;  112.000;  167.000
204.151;  167.500;  561.000;  556.000
204.296;  -97.900; -354.000; -221.000
204.442; -147.400; -600.000; -547.000
204.588; -164.200; -592.000; -579.000
204.733;   43.700;  178.000;  168.000
204.879; -255.800;-1018.000; -822.000
205.025;    1.900;  -99.000;  126.000
205.170;   15.800;  -17.000;   94.000
205.316;  165.700;  438.000;  661.000
205.461; -186.100; -698.000; -554.000
205.607;  176.600;  609.000;  665.000
205.752; -176.100; -626.000; -551.000
205.898; -103.400; -501.000; -391.000
206.043; -140.200; -578.000; -506.000
206.189;  -83.100; -243.000; -285.000
206.334;  199.000;  554.000;  606.000
206.480;  148.100;  409.000;  239.000
206.625; -177.400; -529.000; -552.000
206.771;  -80.900; -451.000; -373.000
206.916;  -30.800; -210.000; -537.000
207.062; -146.000; -545.000; -591.000
207.207; -129.000; -546.000; -443.000
207.353;  127.200;  185.000;  460.000
207.498;   49.300;  196.000;   85.000
207.643; -112.500; -501.000; -370.000
207.789; -256.300;-1069.000; -910.000
207.934; -180.900; -665.000; -713.000
208.080;  -33.800; -154.000;   66.000
208.225;  -20.800;  -22.000;  -57.000
208.370; -156.100; -727.000; -619.000
208.516; -161.600; -741.000; -487.000
208.661;  -52.800; -127.000;  -69.000
208.806;  -25.300; -165.000; -171.000
208.952; -245.400;-1044.000; -731.000
209.097;  171.600;  378.000;  349.000
209.242;  -86.200; -307.000; -382.000
209.387;   97.100;  392.000;  350.000
209.533;  -63.200; -321.000; -350.000
209.678;  173.600;  472.000;  543.000
209.823; -104.100; -408.000; -310.000
209.969; -207.600; -860.000; -757.000
210.114; -226.100; -907.000; -719.000
210.259; -236.500; -939.000; -889.000
210.404;   -0.500; -171.000;  103.000
210.549;   20.900;  108.000;    3.000
210.695;  -27.500;   -3.000;  -95.000
210.840;   72.800;   94.000;   67.000
210.985; -117.900; -484.000; -303.000
211.130;  166.300;  268.000;  406.000
211.275;   31.300;  207.000;  199.000
211.420;  -96.200; -300.000; -289.000
211.566; -135.200; -536.000; -489.000
211.711;   44.900;  218.000;  157.000
211.856; -131.400; -545.000; -519.000
212.001;   55.500;  151.000;   44.000
212.146;    3.400;  153.000;   49.000
212.291;  -13.700; -210.000; -186.000
212.436;  -41.900; -280.000;   -6.000
212.581; -156.600; -685.000; -653.000
212.726; -158.200; -487.000; -538.000
212.871;  -91.100; -552.000; -217.000
213.016; -312.200;-1172.000;-1029.000
213.161;  137.900;  406.000;  291.000
213.306; -146.900; -435.000; -577.000
213.451; -192.900; -778.000; -689.000
213.596; -102.100; -455.000; -347.000
213.741; -134.100; -448.000; -538.000
213.886; -147.000; -498.000; -517.000
214.031;  -70.000; -294.000; -124.000
214.176;  -86.400; -408.000; -341.000
214.321;  -30.900; -296.000; -157.000
214.466;  -42.300; -163.000;  -43.000
214.611;   -4.200;  -61.000;  -10.000
214.756; -232.900; -948.000; -858.000
214.901;  -25.700; -388.000; -226.000
215.046; -250.600; -797.000; -825.000
215.191;   35.600;  128.000;   35.000
215.336;   -9.700; -157.000;  -19.000
215.480; -159.400; -684.000; -505.000
215.625;    1.800; -175.000;  -19.000
215.770; -176.100; -757.000; -662.000
215.915;  -15.300;   -5.000;  -97.000
216.060;   19.300; -113.000;  -21.000
216.205; -208.800; -731.000; -779.000
216.349; -172.600; -470.000; -533.000
216.494; -258.400; -939.000; -867.000
216.639; -260.400; -823.000; -888.000
216.784; -144.800; -577.000; -525.000
216.929;  120.500;  392.000;  281.000
217.073;  -40.300; -244.000;  -31.000
217.218;   21.200;   78.000;  -47.000
217.363; -143.900; -656.000; -618.000
217.507; -183.000; -623.000; -588.000
217.652; -256.700; -845.000; -874.000
217.797; -170.700; -708.000; -659.000
217.942; -221.600; -856.000; -720.000
218.086;  151.900;  608.000;  539.000
218.231;  -51.600; -174.000;  -26.000
218.376;  -45.200; -337.000; -229.000
218.520;   16.200;  -41.000;   96.000
218.665;  -63.100; -338.000; -204.000
218.810;  -67.400; -275.000; -233.000
218.954;   27.700;  201.000;   35.000
219.099; -244.300; -713.000; -963.000
219.243; -157.000; -589.000; -554.000
219.388;  -69.100; -264.000; -136.000
219.532;  -16.400; -116.000; -116.000
219.677; -140.500; -564.000; -521.000
219.822;   25.300;   33.000;   89.000
219.966;   28.200;   17.000;  -99.000
220.111;  -63.200; -328.000;  -40.000
220.255; -184.900; -797.000; -750.000
220.400;  -36.100; -180.000; -146.000
220.544; -135.800; -516.000; -450.000
220.689; -103.400; -422.000; -451.000
220.833;  -76.700; -123.000;  -58.000
220.978;  -67.900; -393.000; -563.000
221.122;   62.800;  319.000;  307.000
221.267; -245.900; -906.000; -837.000
221.411; -123.500; -478.000; -394.000
221.555;   13.100; -104.000;  -23.000
221.700;  -87.700; -329.000; -222.000
221.844;   84.200;  255.000;  272.000
221.989; -103.800; -328.000; -311.000
222.133;  -36.600; -289.000; -307.000
222.277;   16.600;    5.000;   78.000
222.422;   14.500;  227.000;  113.000
222.566;  -57.000; -381.000; -214.000
222.711; -122.800; -414.000; -479.000
222.855; -126.100; -643.000; -586.000
222.999; -190.300; -642.000; -717.000
223.144;  -51.400; -195.000; -194.000
223.288;  137.200;  423.000;  251.000
223.432;   50.800;  184.000;  230.000
223.576;   50.000;  152.000;  -21.000
223.721;  105.600;  364.000;  273.000
223.865;  -93.800; -472.000; -475.000
224.009;  544.400; 1673.000; 1631.000
224.153; -175.400; -660.000; -671.000
224.298; -138.200; -531.000; -489.000
224.442;  -29.700;  -74.000;  -33.000
224.586;    1.800; -169.000; -106.000
224.730; -204.800; -858.000; -670.000
224.875; -221.600; -739.000; -688.000
225.019;   31.600;  102.000;  188.000
225.163;  156.700;  208.000;  341.000
225.307;   57.000;   97.000;  -91.000
225.451;   98.800;  360.000;  481.000
225.595;   64.000;  264.000;  176.000
225.739;  -25.000; -170.000;  -94.000
225.884;   17.100;   86.000;    5.000
226.028; -177.200; -760.000; -626.000
226.172;  -83.000; -260.000; -273.000
226.316; -253.000; -941.000; -902.000
226.460; -114.800; -645.000; -493.000
226.604;  -88.100; -406.000; -400.000
226.748; -216.700; -836.000; -733.000
226.892;  -36.400; -227.000; -181.000
227.036; -126.900; -537.000; -447.000
227.180; -137.000; -551.000; -375.000
227.324; -133.300; -561.000; -580.000
227.468; -215.400; -819.000; -717.000
227.612;   31.600;  242.000;  -28.000
227.756; -208.800; -845.000; -698.000
227.900;   99.700;  342.000;  441.000
228.044; -113.900; -509.000; -290.000
228.188;  110.100;  448.000;  568.000
228.332; -158.700; -546.000; -472.000
228.476;  -75.900; -223.000; -149.000
228.620;  -47.200; -210.000; -150.000
228.764;  154.200;  431.000;  349.000
228.908;  -54.400; -155.000;   30.000
229.052; -135.000; -615.000; -528.000
229.195;  -51.400; -172.000;   13.000
229.339;  -36.100; -235.000; -305.000
229.483;  -56.300;    5.000; -162.000
229.627;   -0.900; -156.000;  139.000
229.771;  -81.100; -218.000; -294.000
229.915;   14.600;  230.000;   79.000
230.059; -184.600; -648.000; -663.000
230.202;  -59.700; -370.000; -317.000
230.346;  -18.500; -107.000;  107.000
230.490; -127.800; -489.000; -521.000
230.634; -243.500; -736.000; -553.000
230.777;  179.900;  478.000;  509.000
230.921; -104.700; -450.000; -359.000
231.065;  -36.000; -246.000; -286.000
231.209;   89.700;  261.000;  265.000
231.352;   65.600;   54.000;   40.000
231.496;   29.000;  568.000;  188.000
231.640; -167.500; -693.000; -621.000
231.783;  122.500;  546.000;  525.000
231.927;  -81.600; -294.000; -365.000
232.071; -252.300; -962.000; -736.000
232.214; -210.100; -980.000; -764.000
232.358; -209.000; -683.000; -599.000
232.502;   24.200;  -19.000;    7.000
232.645; -275.500;-1090.000; -927.000
232.789;  -59.400; -257.000; -218.000
232.933;  -83.800; -407.000; -224.000
233.076; -236.200;-1038.000; -897.000
233.220; -208.900; -752.000; -777.000
233.363; -151.300; -669.000; -477.000
233.507;  108.100;  371.000;  129.000
233.650; -180.300; -764.000; -834.000
233.794;  114.600;  438.000;  461.000
233.938; -127.700; -530.000; -362.000
234.081;    6.900;  -93.000;   31.000
234.225; -128.200; -631.000; -539.000
234.368; -226.800; -773.000; -723.000
234.512;  -42.400; -385.000; -299.000
234.655; -177.600; -582.000; -555.000
234.798; -115.300; -493.000; -466.000
234.942; -266.100; -884.000;-1002.000
235.085; -172.900; -651.000; -443.000
235.229; -139.800; -405.000; -410.000
235.372;  -76.900; -247.000; -191.000
235.516; -108.800; -397.000; -321.000
235.659;   32.800;   92.000;  121.000
235.802;   12.800;  -38.000;  -22.000
235.946;   82.700;  335.000;  215.000
236.089;   71.800;  126.000;  250.000
236.233;  102.600;  275.000;  298.000
236.376;  -99.900; -235.000; -378.000
236.519;  -77.800; -297.000; -319.000
236.663;  -62.300; -215.000; -117.000
236.806; -264.900;-1029.000; -999.000
236.949;  166.100;  543.000;  431.000
237.092;  148.900;  412.000;  391.000
237.236; -152.000; -589.000; -502.000
237.379;  133.500;  352.000;  428.000
237.522; -221.900; -879.000; -768.000
237.666;  -60.200; -271.000;   18.000
237.809; -242.000; -851.000; -823.000
237.952;   89.600;  469.000;  271.000
238.095; -133.500; -447.000; -442.000
238.238;  186.600;  688.000;  700.000
238.382;  -10.300;  166.000;  103.000
238.525; -113.100; -598.000; -511.000
238.668; -269.900;-1060.000; -985.000
238.811; -171.500; -638.000; -643.000
238.954; -125.100; -483.000; -334.000
239.097;  232.800;  617.000;  664.000
239.241;   82.600;  394.000;  326.000
239.384;  -47.900; -254.000; -214.000
239.527; -121.600; -424.000; -224.000
239.670; -300.700; -994.000;-1091.000
239.813; -215.100; -696.000; -658.000
239.956;  210.300;  579.000;  473.000
240.099; -218.500; -778.000; -725.000
240.242;  110.500;  428.000;  432.000
240.385;  111.900;  466.000;  450.000
240.528; -143.300; -706.000; -473.000
240.671;   54.800;  189.000;  134.000
240.814; -104.500; -441.000; -158.000
240.957; -186.300; -767.000; -578.000
241.100; -183.400; -779.000; -755.000
241.243; -284.700;-1234.000; -893.000
241.386; -143.100; -508.000; -379.000
241.529; -172.100; -735.000; -547.000
241.672; -128.100; -566.000; -495.000
241.815; -229.900; -832.000; -808.000
241.958;  -34.300; -125.000; -182.000
242.101; -145.200; -545.000; -390.000
242.244;  -83.800; -270.000; -325.000
242.387;  -94.700; -304.000; -246.000
242.530;  128.300;  470.000;  134.000
242.673;  -91.600; -381.000; -309.000
242.815; -228.800; -925.000; -899.000
242.958; -122.000; -482.000; -381.000
243.101;   66.600;  132.000;  187.000
243.244; -143.200; -564.000; -521.000
243.387;  -75.300; -313.000; -316.000
243.530; -184.800; -657.000; -674.000
243.672;  -16.100;   43.000;  -92.000
243.815; -105.900; -355.000; -283.000
243.958;   -2.500;   98.000;  -26.000
244.101;   26.600;   59.000;  -16.000
244.243;  -31.900;  -47.000;  101.000
244.386; -185.400; -761.000; -630.000
244.529;  -34.900; -132.000; -139.000
244.672; -328.900;-1154.000; -951.000
244.814; -193.100; -621.000; -794.000
244.957;  -96.600; -380.000; -304.000
245.100; -127.900; -489.000; -489.000
245.242;  -87.100; -387.000; -374.000
245.385;   21.600;  -59.000;  -39.000
245.528; -231.800; -871.000; -705.000
245.670;  196.400;  612.000;  634.000
245.813; -145.600; -599.000; -547.000
245.956;  -50.600; -324.000; -275.000
246.098; -144.900; -508.000; -650.000
246.241;   39.100;  194.000;   48.000
246.383;  -23.000; -119.000;  -73.000
246.526; -152.400; -454.000; -525.000
246.669; -235.400; -889.000; -780.000
246.811;   56.400;  172.000;   -1.000
246.954; -130.600; -512.000; -426.000
247.096;  -20.600;  -84.000;   -6.000
247.239; -141.100; -482.000; -445.000
247.381; -138.300; -647.000; -488.000
247.524;  178.900;  645.000;  679.000
247.666;  -21.000;   58.000;   11.000
247.809; -213.800; -887.000; -691.000
247.951;   14.200;  -75.000;  138.000
248.094;   97.900;  432.000;  308.000
248.236; -322.900;-1262.000;-1238.000
248.378;   -1.000; -356.000;  -81.000
248.521;  -45.700; -334.000; -337.000
248.663;  -74.100; -236.000; -267.000
248.806;  -24.400; -300.000; -266.000
248.948; -196.400; -886.000; -763.000
249.090;  -95.500; -428.000; -398.000
249.233;  -80.700; -344.000; -381.000
249.375; -146.000; -474.000; -451.000
249.518;  -49.800;  -83.000; -133.000
249.660;   28.600; -103.000;    3.000
249.802; -366.500;-1303.000;-1189.000
249.945; -135.700; -612.000; -540.000
250.087; -212.400; -834.000; -768.000
250.229; -105.100; -362.000; -480.000
250.371; -133.900; -494.000; -439.000
250.514;  -87.000; -310.000; -244.000
250.656;   28.700;   69.000;  102.000
250.798; -231.000; -849.000; -800.000
250.940; -148.900; -322.000; -322.000
251.083;  -48.200; -335.000; -111.000
251.225;  139.500;  338.000;  310.000
251.367; -108.800; -274.000; -373.000
251.509;  -70.800; -265.000; -210.000
251.651; -168.100; -731.000; -671.000
251.794;  191.200;  538.000;  632.000
251.936; -219.700; -821.000; -747.000
252.078; -136.300; -540.000; -461.000
252.220; -106.700; -645.000; -477.000
252.362;  143.700;  344.000;  462.000
252.504; -120.300; -677.000; -584.000
252.646; -212.700; -875.000; -722.000
252.788;   42.800;   14.000; -128.000
252.931;  -68.300; -257.000; -253.000
253.073;  -82.200; -376.000; -317.000
253.215;   21.600;  141.000;  122.000
253.357;  -23.300;   82.000; -153.000
253.499;  -90.400; -374.000; -234.000
253.641; -177.700; -749.000; -594.000
253.783; -185.400; -609.000; -527.000
253.925; -165.200; -586.000; -591.000
254.067; -193.700; -744.000; -667.000
254.209;  -54.200; -391.000; -259.000
254.351; -273.300; -865.000; -883.000
254.493;  -98.000; -441.000; -417.000
254.635; -232.000; -936.000; -818.000
254.777; -148.900; -752.000; -687.000
254.918; -146.400; -512.000; -430.000
255.060; -106.400; -551.000; -395.000
255.202; -108.600; -473.000; -261.000
255.344; -121.600; -658.000; -455.000
255.486; -131.000; -471.000; -406.000
255.628; -198.900; -780.000; -781.000
255.770; -186.600; -676.000; -536.000
255.912; -136.600; -559.000; -468.000
256.053; -158.600; -730.000; -508.000
256.195;  353.400; 1008.000;  903.000
256.337; -208.000; -861.000; -595.000
256.479;  159.700;  532.000;  416.000
256.621;  -85.200; -394.000; -212.000
256.762; -187.200; -789.000; -742.000
256.904;  143.300;  485.000;  487.000
257.046;  -77.300; -381.000; -271.000
257.188;  -70.200; -351.000; -264.000
257.329; -129.300; -525.000; -464.000
257.471; -238.300; -939.000; -807.000
257.613; -113.600; -584.000; -498.000
257.755; -295.800;-1073.000; -982.000
257.896;   87.300;  286.000;  392.000
258.038; -138.200; -403.000; -352.000
258.180;  -73.300; -354.000; -279.000
258.321; -119.300; -581.000; -457.000
258.463;   19.500;  -71.000;  133.000
258.605; -186.600; -562.000; -570.000
258.746; -184.200; -886.000; -772.000
258.888; -284.800;-1026.000;-1020.000
259.029;   56.100;  121.000;   -8.000
259.171; -150.900; -614.000; -550.000
259.313;   23.500;  -49.000;  -47.000
259.454;  -96.800; -536.000; -414.000
259.596; -106.000; -483.000; -390.000
259.737; -145.200; -590.000; -474.000
259.879;  110.700;  217.000;  311.000
260.020;  195.200;  901.000;  636.000
260.162;  -42.000; -146.000; -253.000
260.303; -217.400; -768.000; -687.000
260.445; -160.500; -609.000; -613.000
260.586;  115.600;  392.000;  157.000
260.728;  -85.900; -360.000; -248.000
260.869;  -99.500; -350.000; -343.000
261.011;  187.900;  706.000;  537.000
261.152; -105.200; -479.000; -319.000
261.293; -152.800; -576.000; -595.000
261.435;  -39.800; -219.000; -184.000
261.576; -110.200; -455.000; -325.000
261.718;  117.500;  420.000;  470.000
261.859; -258.600; -940.000; -949.000
262.000; -260.300; -951.000;-1016.000
262.142;  -26.800;  -52.000;  -60.000
262.283; -194.500; -808.000; -691.000
262.424; -162.600; -666.000; -625.000
262.566; -274.100;-1161.000; -983.000
262.707; -190.800; -840.000; -830.000
262.848; -209.500; -769.000; -726.000
262.990; -101.000; -362.000; -345.000
263.131;  192.800;  650.000;  681.000
263.272;    8.700;  -61.000;  -41.000
263.413; -180.900; -589.000; -561.000
263.555; -109.600; -669.000; -143.000
263.696; -134.000; -550.000; -641.000
263.837; -100.200; -449.000; -551.000
263.978;  -37.400;   -5.000;  -77.000
264.119;  -77.800; -283.000; -264.000
264.261; -212.900; -847.000; -630.000
264.402;   37.200;   33.000;   40.000
264.543; -135.300; -509.000; -524.000
264.684;   10.100;   61.000;  -50.000
264.825; -107.500; -816.000; -538.000
264.966;   26.900;  -84.000;  -67.000
265.107; -220.900; -646.000; -670.000
265.248; -226.800; -825.000; -812.000
265.390;   -7.300;  152.000;   -9.000
265.531;   15.400; -238.000; -107.000
265.672; -165.500; -557.000; -630.000
265.813;  164.600;  563.000;  439.000
265.954; -289.300; -959.000; -940.000
266.095;   29.200; -372.000; -322.000
266.236; -173.200; -686.000; -548.000
266.377;  -52.900; -243.000; -297.000
266.518; -110.700; -619.000; -547.000
266.659;   73.900;  170.000;  268.000
266.800;   61.700;   83.000;   85.000
266.941; -124.200; -487.000; -478.000
267.082;   55.600;  354.000;   99.000
267.223; -104.900; -344.000; -273.000
267.364; -217.100; -892.000; -686.000
267.504;    7.700;    3.000;  135.000
267.645;   11.700;  160.000;   67.000
267.786;  -53.100; -147.000;  -86.000
267.927; -111.500; -473.000; -379.000
268.068;  -37.300; -186.000;  -61.000
268.209;  -87.000; -175.000; -413.000
268.350;  -89.400; -388.000; -532.000
268.490; -143.400; -648.000; -521.000
268.631;   97.600;  127.000;  225.000
268.772; -189.100; -874.000; -647.000
268.913;  -86.400; -328.000; -476.000
269.054;   -2.700; -117.000;   12.000
269.194;  -63.800; -418.000; -402.000
269.335; -292.200;-1137.000;-1074.000
269.476;  -12.500;   33.000;  -35.000
269.617;  -78.100; -347.000; -392.000
269.757; -181.400; -713.000; -646.000
269.898; -203.800; -856.000; -613.000
270.039;  -93.600; -415.000; -405.000
270.180; -261.100; -952.000; -816.000
270.320;  -47.900; -190.000; -250.000
270.461;  -67.900; -277.000; -249.000
270.602;   -8.800; -186.000; -156.000
270.742; -217.800; -868.000; -943.000
270.883;  -66.700; -442.000; -390.000
271.023;  -84.200; -358.000; -357.000
271.164; -136.900; -607.000; -528.000
271.305; -189.700; -666.000; -654.000
271.445; -191.600; -722.000; -683.000
271.586; -136.100; -462.000; -283.000
271.726;  -72.300; -397.000; -322.000
271.867; -118.300; -594.000; -534.000
272.008;  323.900; -473.000; -285.000
272.148;  272.100;  462.000;  468.000
272.289;    9.800; -113.000; -181.000
272.429;   61.000;   19.000;  185.000
272.570; -181.500; -633.000; -737.000
272.710; -184.300; -825.000; -775.000
272.851;  -30.300;  113.000; -130.000
272.991; -328.300;-1173.000;-1077.000
273.131; -154.400; -419.000; -459.000
273.272; -182.100; -683.000; -723.000
273.412;   36.000; -143.000;  -31.000
273.553;  -92.300; -488.000; -507.000
273.693;  298.800;  913.000;  858.000
273.834; -154.300; -894.000; -692.000
273.974; -169.100; -664.000; -615.000
274.114; -194.400; -772.000; -560.000
274.255;  188.800;  414.000;  373.000
274.395;   27.200; -180.000; -125.000
274.535;  126.500;  199.000;  350.000
274.676;   46.600;  225.000;   94.000
274.816;   43.500;  110.000;   34.000
274.956; -137.100; -624.000; -690.000
275.097; -129.100;-1014.000; -922.000
275.237; -202.000; -913.000; -803.000
275.377; -190.000; -778.000; -689.000
275.517; -291.900; -878.000; -937.000
275.658; -104.500; -590.000; -555.000
275.798; -110.300; -606.000; -413.000
275.938;   25.200;  215.000;  323.000
276.078; -137.400; -626.000; -395.000
276.218;   38.400;   99.000;  104.000
276.359; -275.200;-1026.000;-1024.000
276.499; -124.000; -605.000; -446.000
276.639;  -14.100; -305.000; -151.000
276.779;  -58.800; -475.000; -357.000
276.919; -187.500; -783.000; -624.000
277.059;   -9.700; -261.000; -212.000
277.199;  -68.600; -357.000; -259.000
277.340;  120.200;  287.000;  175.000
277.480; -211.300; -840.000; -693.000
277.620;   82.400;  192.000;   16.000
277.760; -401.200;-1533.000;-1294.000
277.900;   27.800;  113.000;   33.000
278.040;   58.600;  137.000;  159.000
278.180;   87.600;  270.000;  170.000
278.320;   23.500;   21.000;   56.000
278.460; -113.200; -443.000; -469.000
278.600; -146.400; -708.000; -598.000
278.740;  150.000;  448.000;  224.000
278.880;  -83.100; -768.000; -791.000
279.020;   68.400; -194.000; -144.000
279.160; -180.500; -672.000; -595.000
279.300; -222.200; -926.000; -873.000
279.440; -186.800; -709.000; -622.000
279.579;  -40.700;-1014.000; -929.000
279.719;  -76.300; -410.000; -394.000
279.859;  123.300;   -4.000;   41.000
279.999;   66.900; -208.000;  101.000
280.139;  -48.900; -435.000; -387.000
280.279; -117.200; -708.000; -745.000
280.419;   -7.600; -229.000; -147.000
280.559;  -17.600; -259.000; -180.000
280.698; -119.900; -790.000; -639.000
280.838; -159.800; -778.000; -800.000
280.978; -171.800; -846.000; -790.000
281.118; -207.600; -811.000; -704.000
281.257;   76.100;   24.000;    6.000
281.397; -203.100;-1094.000; -960.000
281.537; -153.700; -599.000; -712.000
281.677;  -26.000; -150.000; -101.000
281.816; -146.400; -700.000; -630.000
281.956;  -50.500; -193.000; -257.000
282.096; -108.500; -539.000; -396.000
282.235; -170.700; -672.000; -638.000
282.375;   -6.800; -243.000;  -98.000
282.515; -208.800; -715.000; -707.000
282.654;   76.700;   29.000;  106.000
282.794;  114.900;  388.000;  244.000
282.934;  -86.800; -530.000; -491.000
283.073; -235.000;-1030.000; -857.000
283.213;  -83.500; -460.000; -467.000
283.353;  -16.100; -408.000; -349.000
283.492;  -47.200; -264.000; -296.000
283.632;  -79.700; -254.000; -168.000
283.771; -166.600; -859.000; -730.000
283.911;  -74.600; -369.000; -260.000
284.050; -180.100; -794.000; -748.000
284.190; -294.700;-1229.000;-1096.000
284.329; -247.200;-1055.000; -964.000
284.469;  -99.300; -516.000; -591.000
284.608;  -96.600; -559.000; -598.000
284.748; -103.500; -614.000; -570.000
284.887;  -20.600;  -87.000;  -20.000
285.027; -218.800; -844.000; -892.000
285.166;  -38.400; -192.000; -249.000
285.306;   67.500; -116.000;  -33.000
285.445;  -48.000; -229.000; -343.000
285.584; -163.700; -630.000; -494.000
285.724;  -82.100; -282.000; -322.000
285.863; -190.500; -857.000; -507.000
286.002;  -68.900; -366.000; -276.000
286.142; -203.100; -715.000; -622.000
286.281; -120.500; -525.000; -493.000
286.420; -125.700; -554.000; -417.000
286.560;  226.900;  653.000;  623.000
286.699; -238.400; -958.000; -912.000
286.838; -145.200; -590.000; -591.000
286.978; -158.400; -533.000; -537.000
287.117; -217.700;-1085.000; -950.000
287.256;  -27.900; -228.000; -211.000
287.395;  -85.100; -197.000; -378.000
287.535;  -67.600; -370.000; -298.000
287.674; -117.000; -509.000; -484.000
287.813;  181.100;  661.000;  533.000
287.952; -232.000;-1010.000; -871.000
288.091; -265.400;-1049.000; -915.000
288.231;   76.600;   13.000;   15.000
288.370; -350.100;-1217.000;-1200.000
288.509; -153.500; -728.000; -645.000
288.648; -119.900; -770.000; -548.000
288.787;  -30.500; -243.000;  -87.000
288.926;  -92.700; -454.000; -475.000
289.065;  294.500;  859.000;  672.000
289.204;  -74.600; -377.000; -217.000
289.344; -170.300; -791.000; -690.000
289.483;   83.200;  416.000;  304.000
289.622;  -23.500; -291.000; -149.000
289.761;   27.300; -309.000; -166.000
289.900; -196.400; -785.000; -626.000
290.039;  -13.300;  -12.000;  -95.000
290.178;  -61.000; -274.000; -180.000
290.317; -135.500; -618.000; -479.000
290.456; -107.800; -463.000; -451.000
290.595; -265.700; -961.000; -833.000
290.734; -267.000; -904.000; -891.000
290.873; -103.200; -456.000; -420.000
291.011; -209.100; -833.000; -843.000
291.150; -160.000; -770.000; -682.000
291.289;  -16.600; -343.000; -110.000
291.428; -164.700; -599.000; -480.000
291.567;  -82.200; -370.000; -442.000
291.706;   38.500;  109.000;  154.000
291.845; -191.900; -597.000; -505.000
291.984; -304.800;-1234.000;-1061.000
292.122;  177.900;  602.000;  582.000
292.261;  119.100;  620.000;  463.000
292.400;   20.500; -144.000;  211.000
292.539; -235.100; -959.000; -813.000
292.678;    8.800; -325.000; -300.000
292.816; -275.400;-1136.000; -965.000
292.955; -152.500; -844.000; -684.000
293.094;    3.000; -173.000; -337.000
293.233;  -81.000; -556.000; -400.000
293.371;  -41.900; -225.000;  -84.000
293.510; -178.200; -866.000; -780.000
293.649; -212.700; -959.000; -924.000
293.787; -116.200;-1083.000;-1012.000
293.926;   53.800; -113.000;  -32.000
294.065;  -46.700; -379.000; -290.000
294.203;  103.800;  298.000;  406.000
294.342;  108.700;   74.000;  156.000
294.481;11341.200;51180.000; -836.000
294.619;  -42.100; -425.000; -582.000
294.758; -262.500;-1230.000;-1137.000
294.896;  159.700; -125.000;    5.000
295.035; -214.600;-1040.000;-1006.000
295.174; -220.300;-1082.000; -954.000
295.312;  -49.600; -323.000; -203.000
295.451;   20.400; -307.000; -428.000
295.589;  -91.200; -389.000; -518.000
295.728;   65.400; -292.000; -165.000
295.866;   76.700;  -36.000;  -51.000
296.005; -113.300; -584.000; -341.000
296.143;  -92.200; -558.000; -596.000
296.282; -184.900; -957.000; -881.000
296.420; -144.600; -657.000; -557.000
296.559; -109.700; -892.000; -633.000
296.697;   69.300; -847.000; -665.000
296.835;  133.200;-1141.000;-1002.000
296.974;  167.800;  -23.000;   39.000
297.112;   56.900; -443.000; -504.000
297.251; -127.600; -815.000; -755.000
297.389;  202.000; -576.000; -438.000
297.527;  148.300; -145.000;  -83.000
297.666;  -67.600; -486.000; -438.000
297.804;  -74.000; -404.000; -264.000
297.942;   18.000; -136.000; -161.000
298.081;   19.700; -183.000;   63.000
298.219;  157.100;  -17.000;  -19.000
298.357;  132.100; -144.000;  -71.000
298.495;   77.100; -810.000; -812.000
298.634;  189.100;  245.000;  219.000
298.772;  163.500; -220.000; -338.000
298.910;  -24.700; -309.000; -182.000
299.048;   15.000; -130.000; -153.000
299.187;  -13.600; -350.000; -250.000
299.325;   61.300;   52.000;  122.000
299.463;   62.100; -389.000; -299.000
299.601;  240.000; -327.000; -271.000
299.739; -195.600; -908.000; -883.000
299.877; -131.900; -791.000; -703.000
300.016;  -94.300;-1095.000; -935.000
300.154;  345.700;  -19.000; -161.000
300.292;  147.000; -428.000; -348.000
300.430;   81.700; -408.000; -291.000
300.568; -148.400; -940.000; -874.000
300.706;  -52.700; -366.000; -469.000
300.844; -154.800;-1108.000; -979.000
300.982;  245.600;  246.000;  282.000
301.120; -199.100; -965.000; -866.000
301.258; -115.000; -812.000; -705.000
301.396;  119.700;  104.000;  -41.000
301.534;  189.100; -218.000; -293.000
301.672;   14.600; -664.000; -521.000
301.810;  113.500; -613.000; -545.000
301.948;  298.000;   53.000;  149.000
302.086; 1134.400; -250.000;  -32.000
302.224; 1803.900; -610.000; -585.000
302.362;  106.500; -558.000; -622.000
302.500;  -16.700; -923.000; -893.000
302.638;  228.300;  128.000;  245.000
302.776;   49.900; -352.000; -408.000
302.913;  120.900;  447.000;  236.000
303.051;   43.900;  -86.000;  -23.000
303.189;  137.400;   90.000;  118.000
303.327;  -40.300; -341.000; -256.000
303.465; -128.700; -832.000; -588.000
303.603; -162.700; -805.000; -604.000
303.740;  227.400;  417.000;  241.000
303.878;   76.300; -800.000; -759.000
304.016; -165.900; -915.000; -790.000
304.154; -220.200;-1123.000;-1152.000
304.291;  -54.100; -505.000; -554.000
304.429;   62.700;  102.000;   74.000
304.567; -211.300; -908.000; -893.000
304.705;  -83.400; -408.000; -515.000
304.842;  214.700; -616.000; -540.000
304.980;  153.700;  215.000;   35.000
305.118;   99.500; -367.000; -365.000
305.255;  -94.600; -945.000; -927.000
305.393;  145.000;  178.000;  239.000
305.531; -186.900;-1173.000; -956.000
305.668;  -68.700; -663.000; -582.000
305.806;  173.200; -358.000; -439.000
305.943;  201.300; -629.000; -637.000
306.081;  162.600; -378.000; -267.000
306.219; -190.000; -863.000; -748.000
306.356;   55.400;  158.000;   27.000
306.494;  317.100;  981.000;  761.000
306.631;   60.300;  -11.000;  -55.000
306.769;   72.600; -613.000; -485.000
306.906;   44.400; -284.000; -258.000
307.044;  -55.100; -473.000; -488.000
307.181;  -71.800; -410.000; -332.000
307.319;   65.700;  112.000;   87.000
307.456; -319.800;-1191.000;-1153.000
307.594; -155.000; -980.000; -727.000
307.731;   37.700; -371.000; -164.000
307.868;   15.900;  -15.000;   20.000
308.006; -223.000; -961.000; -847.000
308.143;  -83.800; -618.000; -330.000
308.281;  403.500;  -37.000; -254.000
308.418;   41.400; -748.000; -640.000
308.555; -110.600; -400.000; -250.000
308.693;  -85.200; -577.000; -573.000
308.830; -156.400; -712.000; -657.000
308.967;   42.900; -215.000;  -95.000
309.105;    0.300; -507.000; -396.000
309.242;  154.500; -468.000; -367.000
309.379;  797.900; -577.000; -655.000
309.517;  -59.800; -936.000; -948.000
309.654; -148.700; -910.000; -734.000
309.791;  -94.500; -662.000; -580.000
309.928; -183.900; -977.000; -914.000
310.065;  388.700;  819.000;  697.000
310.203;   12.000; -825.000; -850.000
310.340;   32.600; -465.000; -321.000
310.477; -109.900; -412.000; -516.000
310.614;  -89.100; -383.000; -473.000
310.751;  -59.000; -427.000; -518.000
310.889;   -8.000;    1.000;   11.000
311.026; -260.400;-1161.000; -939.000
311.163;  -73.800; -386.000; -380.000
311.300;  -89.800; -512.000; -479.000
311.437;  -94.500; -658.000; -619.000
311.574; -258.000;-1226.000; -985.000
311.711;  -89.600; -595.000; -433.000
311.848;  -18.400; -380.000; -388.000
311.985;   83.200;  270.000;   93.000
312.122; -187.100; -932.000; -762.000
312.259; -195.000; -941.000; -994.000
312.396;  -87.800; -508.000; -551.000
312.533; -104.200; -812.000; -790.000
312.670; -206.400;-1070.000; -898.000
312.807;    8.100; -352.000; -367.000
312.944;  -77.700; -513.000; -611.000
313.081;   -1.100; -150.000; -415.000
313.218; -159.900;-1111.000; -867.000
313.355;   68.200; -531.000; -449.000
313.492;   58.800; -455.000; -292.000
313.629;  343.200;  815.000;  735.000
313.766; -255.600;-1176.000;-1008.000
313.902;   24.200; -186.000;   21.000
314.039;  -33.100; -372.000; -289.000
314.176;  120.500;  286.000;  192.000
314.313; -119.400; -569.000; -473.000
314.450; -124.600; -788.000; -684.000
314.587;  -39.200; -468.000; -480.000
314.723;   48.300;  -78.000;  130.000
314.860;  121.500;  318.000;  332.000
314.997;  137.100;  223.000;  142.000
315.134;  -42.900; -385.000; -368.000
315.270;    5.900; -480.000; -496.000
315.407; -211.400;-1094.000; -967.000
315.544;  -74.000; -657.000; -538.000
315.681;  -90.600; -681.000; -565.000
315.817;  108.400; -133.000; -176.000
315.954;   53.100; -613.000; -392.000
316.091; -213.600;-1045.000;-1023.000
316.227;  -18.400;  -71.000; -179.000
316.364;   58.000;   23.000;    6.000
316.500;  -25.100; -113.000; -300.000
316.637;  -49.400; -181.000; -302.000
316.774; -152.000; -625.000; -358.000
316.910; -149.900; -598.000; -629.000
317.047;  -83.100; -487.000; -351.000
317.183;  -26.600; -435.000; -566.000
317.320;  -49.000; -367.000; -321.000
317.456; -135.400; -733.000; -805.000
317.593; -122.300; -598.000; -641.000
317.729;   42.600;  168.000;  -67.000
317.866; -354.100;-1434.000;-1285.000
318.002; -154.200; -708.000; -948.000
318.139; -145.800; -883.000; -867.000
318.275; -165.900;-1003.000; -738.000
318.412;  -64.100; -517.000; -336.000
318.548;  -58.600; -751.000; -720.000
318.685; -171.100; -985.000; -888.000
318.821; -165.500; -762.000; -735.000
318.957;    3.500;   34.000;  -23.000
319.094;  127.300;  297.000;  154.000
319.230;  -77.600; -756.000; -742.000
319.367;  284.600; -471.000; -520.000
319.503;  131.300; -538.000; -436.000
319.639; -156.100; -877.000; -793.000
319.775;  -94.400; -750.000; -685.000
319.912;  -73.900; -424.000; -519.000
320.048; -142.100;-1184.000;-1184.000
320.184;  188.300;   59.000;   70.000
320.321;  -81.700; -497.000; -467.000
320.457;  187.400;  475.000;  662.000
320.593; -110.300; -375.000; -382.000
320.729; -167.500; -732.000; -734.000
320.866;  -76.700; -577.000; -635.000
321.002; -130.600; -759.000; -809.000
321.138;  -22.600; -135.000; -211.000
321.274;  125.100; -148.000; -115.000
321.410;  -22.100; -585.000; -353.000
321.546;  -26.100;-1011.000; -911.000
321.683;  144.200;  400.000;  185.000
321.819;   79.100;  -48.000; -117.000
321.955; -170.900; -743.000; -722.000
322.091;  -54.100; -585.000; -540.000
322.227;    1.900; -382.000; -202.000
322.363;  -21.000; -320.000; -215.000
322.499;  -30.600; -343.000; -331.000
322.635;  365.600;  636.000;  443.000
322.771;  109.000; -139.000;   12.000
322.907;  185.500;  129.000;  327.000
323.043;   28.000; -115.000; -206.000
323.179;  -35.000; -394.000; -363.000
323.315;  120.200; -401.000; -371.000
323.451;  246.000; -328.000; -236.000
323.587;  196.400;  -60.000;  -77.000
323.723;   35.500; -682.000; -601.000
323.859;  -34.900; -258.000;  -76.000
323.995;  -33.400; -467.000; -409.000
324.131; -222.100; -967.000; -892.000
324.267;  -19.300; -254.000; -276.000
324.402; -224.100; -960.000; -983.000
324.538;   13.800; -279.000; -104.000
324.674;   73.700;  164.000;   77.000
324.810;  388.900;  226.000;  308.000
324.946;  109.000; -810.000; -658.000
325.082;  -97.600; -568.000; -475.000
325.217;   32.800;  -62.000;   16.000
325.353; -151.000; -764.000; -659.000
325.489; -100.100; -540.000; -506.000
325.625;  -90.600; -579.000; -525.000
325.760;  129.200;  517.000;  376.000
325.896;  -44.200; -515.000; -702.000
326.032;  -59.000; -403.000; -352.000
326.168;  -80.500; -462.000; -369.000
326.303;  -81.300; -352.000; -461.000
326.439;  -11.700; -336.000; -276.000
326.575;   53.200; -190.000;  -29.000
326.710;   25.600; -156.000;  -30.000
326.846;   38.300;  146.000;  103.000
326.982; -158.300; -530.000; -548.000
327.117; -110.600; -481.000; -442.000
327.253; -143.100; -745.000; -742.000
327.388; -237.100;-1137.000;-1153.000
327.524;   15.800; -811.000; -578.000
327.659;    0.200;  -58.000;  -22.000
327.795;   -5.900;   69.000;   45.000
327.931; -124.400; -723.000; -499.000
328.066;   -3.000; -417.000; -276.000
328.202;   55.500;   12.000; -129.000
328.337;  256.500;  957.000;  713.000
328.473;   32.300;  -12.000;  -74.000
328.608;   -5.100; -256.000; -267.000
328.743; -153.400; -799.000; -664.000
328.879;  102.200;  214.000;  114.000
329.014;  -88.000; -102.000; -122.000
329.150; -126.400; -358.000; -483.000
329.285; -121.300; -465.000; -466.000
329.421;  -77.400; -548.000; -246.000
329.556;  -12.700;  -36.000;   85.000
329.691; -132.800; -633.000; -615.000
329.827; -121.200; -626.000; -480.000
329.962;  -31.600;  131.000; -301.000
330.097; -103.000; -673.000; -585.000
330.233;  -70.300; -410.000; -223.000
330.368; -208.800; -839.000; -628.000
330.503;   10.500;    3.000;   98.000
330.638;   52.300;  -93.000; -125.000
330.774;  -92.300; -609.000; -530.000
330.909;  -26.600; -434.000; -244.000
331.044; -162.100; -714.000; -708.000
331.179; -289.800;-1217.000;-1109.000
331.315;   64.800;   77.000;   20.000
331.450;   63.500;  157.000;  285.000
331.585; -154.700; -805.000; -706.000
331.720; -131.500; -510.000; -460.000
331.855;    3.800;  -35.000; -102.000
331.990;  429.900;   62.000;  138.000
332.126;  276.500; -110.000;   71.000
332.261;   -6.900; -379.000; -265.000
332.396;   20.300; -135.000; -242.000
332.531; -166.100;-1074.000;-1031.000
332.666;   91.000; -519.000; -363.000
332.801; -182.400; -726.000; -807.000
332.936;   35.000; -192.000; -122.000
333.071; -225.200; -870.000; -817.000
333.206;   98.200;  307.000;  379.000
333.341;  110.000;  344.000;  418.000
333.476; -144.400; -627.000; -623.000
333.611;  -11.400; -251.000; -173.000
333.746;  -28.400; -381.000; -464.000
333.881; -196.100; -973.000; -935.000
334.016; -204.300; -936.000; -917.000
334.151; -224.100; -746.000; -702.000
334.286;  125.900;  152.000;  186.000
334.421;   23.800; -125.000; -178.000
334.556; -108.600; -611.000; -567.000
334.690; -110.100; -631.000; -577.000
334.825;  160.800;  381.000;   83.000
334.960;  -70.000; -285.000; -413.000
335.095;   80.700;  135.000;  -91.000
335.230; -152.100; -722.000; -738.000
335.365; -216.500;-1084.000; -990.000
335.499; -222.600;-1108.000;-1037.000
335.634;   99.800;    9.000;  534.000
335.769; -188.300; -755.000; -720.000
335.904;  -64.200; -603.000; -561.000
336.038;  -44.400; -735.000; -657.000
336.173; -170.900;-1206.000;-1194.000
336.308;   38.400; -116.000; -189.000
336.443;  105.900; -544.000; -634.000
336.577; -101.600; -936.000; -787.000
336.712;  163.900;   -4.000;  -12.000
336.847;  -28.100; -724.000; -607.000
336.981;  165.600; -272.000; -208.000
337.116;  659.500;  615.000;  501.000
337.250;  367.300; -434.000; -421.000
337.385;  443.700; -297.000; -208.000
337.520;  123.000; -632.000; -603.000
337.654;  -49.200; -215.000; -126.000
337.789; -195.700; -989.000; -933.000
337.923;  -18.000; -104.000; -205.000
338.058; -147.500; -673.000; -738.000
338.192;  -29.100; -611.000; -488.000
338.327;   44.800;  -18.000; -155.000
338.461;  -81.500; -299.000; -469.000
338.596; -155.800; -780.000; -638.000
338.730; -169.000; -767.000; -803.000
338.865;  181.500;  -46.000; -140.000
338.999;  -89.800; -846.000; -702.000
339.134;  -44.100; -634.000; -536.000
339.268;   56.400; -741.000; -603.000
339.403;  587.400; -740.000; -775.000
339.537;  207.700; -894.000; -820.000
339.671; -189.000; -829.000; -813.000
339.806;  -78.200; -556.000; -512.000
339.940;   28.300; -261.000; -235.000
340.074; -128.800; -685.000; -510.000
340.209;  -72.100; -351.000; -230.000
340.343; -148.100; -517.000; -573.000
340.477;  353.200;  998.000; 1036.000
340.612; -100.100;-1033.000; -900.000
340.746;  226.100; -199.000; -243.000
340.880; -119.200; -924.000; -785.000
341.014;   -4.600;  -45.000; -154.000
341.149; -193.600; -756.000; -718.000
341.283; -154.500; -839.000; -754.000
341.417; -150.800;-1124.000; -938.000
341.551;  293.200; -768.000; -708.000
341.685;  -27.000; -633.000; -611.000
341.820;  -80.700; -562.000; -493.000
341.954;  -61.000; -218.000; -349.000
342.088; -261.600;-1102.000;-1019.000
342.222;  155.300;  565.000;  618.000
342.356;  -74.500; -395.000; -335.000
342.490; -138.600; -880.000; -841.000
342.624;  -22.500; -339.000; -242.000
342.758;   34.400; -364.000; -312.000
342.892;  -98.100; -710.000; -585.000
343.026;    0.400;  -58.000; -116.000
343.160;  -46.600; -426.000; -376.000
343.294; -113.800; -474.000; -337.000
343.428;  -19.900; -488.000; -448.000
343.562;   40.400; -172.000;  -23.000
343.696;  -11.700; -385.000; -314.000
343.830;   25.800; -362.000; -356.000
343.964;   91.000; -231.000; -168.000
344.098; 1802.300;  199.000;   70.000
344.232; 1520.400; -266.000; -127.000
344.366;  174.800; -567.000; -453.000
344.500;  109.900; -665.000; -744.000
344.634;  104.700; -324.000; -164.000
344.768;   43.200; -531.000; -341.000
344.902;  116.800;  278.000;  256.000
345.035; -112.500; -556.000; -496.000
345.169; -239.400; -933.000; -656.000
345.303;   -8.800; -308.000; -482.000
345.437;  -70.600; -826.000; -717.000
345.571; -123.700; -675.000; -594.000
345.704;  -71.300; -309.000; -532.000
345.838;   20.600; -331.000; -284.000
345.972;  -45.300; -543.000; -495.000
346.106;  316.700; -179.000; -190.000
346.239;  768.700; -312.000; -243.000
346.373;   51.200; -343.000; -302.000
346.507; -237.200; -950.000; -962.000
346.640;  345.400;  -30.000;   13.000
346.774;  -35.900; -650.000; -797.000
346.908;   12.500; -138.000;  -11.000
347.041; -117.200; -646.000; -593.000
347.175;   83.100;  259.000;   27.000
347.309;  -98.400; -698.000; -628.000
347.442; -166.300; -883.000; -732.000
347.576;  590.300;  670.000;  668.000
347.709;  446.100; -123.000;  -52.000
347.843; -126.500; -933.000; -825.000
347.976;  136.900;  235.000;  294.000
348.110; -334.200;-1268.000;-1186.000
348.243; -152.500; -679.000; -772.000
348.377;   26.900;  -26.000;   60.000
348.510;  201.800;  403.000;  540.000
348.644;   -3.100;  -37.000; -159.000
348.777;   48.900;  180.000;  191.000
348.911;  -41.200; -142.000; -112.000
349.044;  382.900;  471.000;  448.000
349.178;  275.900;-1069.000;-1006.000
349.311;  255.200;  141.000;  255.000
349.444;  -34.500; -927.000; -813.000
349.578;   13.200; -347.000; -200.000
349.711; -146.300; -959.000; -862.000
349.845;   45.600; -661.000; -591.000
349.978; -243.000;-1224.000;-1137.000
350.111;  -97.500; -546.000; -612.000
350.244; -133.500; -596.000; -700.000
350.378;   65.800; -392.000; -393.000
350.511;  -93.000; -393.000; -426.000
350.644; -150.400; -808.000; -806.000
350.778;   92.400;  168.000;  104.000
350.911;   42.500;  134.000;  140.000
351.044; -124.100; -685.000; -615.000
351.177;   11.900; -321.000; -281.000
351.310;   30.000;    3.000; -131.000
351.444;  -92.700; -888.000; -788.000
351.577;  282.000;  140.000;   90.000
351.710;  217.300;  593.000;  417.000
351.843;  -11.200; -165.000;  -77.000
351.976;   34.300;  149.000;  -79.000
352.109; -106.400; -621.000; -612.000
352.242;   18.700; -464.000; -419.000
352.376;  -68.200; -580.000; -636.000
352.509;  411.600; -437.000; -356.000
352.642;   49.100; -654.000; -604.000
352.775;  159.600; -141.000;  -98.000
352.908; -184.200; -933.000; -904.000
353.041; -158.900; -814.000; -824.000
353.174;  -82.900; -551.000; -424.000
353.307; -129.300; -753.000; -764.000
353.440;  216.700;  541.000;  453.000
353.573; -194.400; -957.000;-1008.000
353.706;  -21.400; -384.000; -558.000
353.839;   16.000; -264.000; -220.000
353.971; -170.900; -657.000; -512.000
354.104; -153.400; -896.000; -835.000
354.237;  -18.900; -627.000; -662.000
354.370; -143.500; -846.000; -879.000
354.503; -307.700;-1231.000;-1308.000
354.636;    8.200; -529.000; -348.000
354.769; -212.300; -937.000; -860.000
354.902;    8.400; -230.000; -139.000
355.034;   14.700; -164.000; -220.000
355.167;   -8.200; -262.000; -162.000
355.300; -173.500;-1061.000; -880.000
355.433; 1647.500;  -71.000;  -14.000
355.565; 2536.200; -402.000; -384.000
355.698;  668.500; -356.000; -296.000
355.831;   35.800; -882.000; -801.000
355.964;  232.300; -285.000; -170.000
356.096;  -82.700; -856.000; -843.000
356.229;   89.600; -523.000; -530.000
356.362;  546.000; -373.000; -266.000
356.494; 1004.200; -229.000; -162.000
356.627;  998.900;  269.000;  377.000
356.760; 1169.800;  120.000;   53.000
356.892; 1615.900; -286.000; -601.000
357.025; 1301.300;  403.000;  389.000
357.157; 1202.500; -167.000; -179.000
357.290; 1036.100; -856.000; -713.000
357.423;  335.100; -667.000; -556.000
357.555;  246.200; -217.000; -228.000
357.688;  261.800; -483.000; -364.000
357.820;  776.800; -870.000; -877.000
357.953; 6515.900; -563.000; -589.000
358.085; 1457.600; -632.000; -612.000
358.218; 2442.300;-1131.000; -932.000
358.350;  471.300;  -58.000;  312.000
358.483; -198.200;-1300.000;-1187.000
358.615;   49.500;-1182.000;-1078.000
358.747;  -53.700;-1187.000;-1058.000
358.880;  101.200; -810.000; -744.000
359.012;   38.200; -376.000; -202.000
359.145;  -38.700; -480.000; -511.000
359.277;  120.700; -962.000; -913.000
359.409; 5502.600;  536.000;  231.000
359.542; 1407.900; -738.000; -688.000
359.674;  168.900;   46.000;   13.000
359.806;  -76.100; -565.000; -438.000
359.939;  -34.700; -617.000; -516.000
360.071;   -0.700; -583.000; -579.000
360.203;  -25.900; -411.000; -364.000
360.335;  135.000;  164.000;  -16.000
360.468;  349.400; -249.000; -307.000
360.600; 4384.500; -547.000; -454.000
360.732; 4524.600; -546.000; -423.000
360.864;  644.700;-1216.000;-1044.000
360.996;  610.900; -516.000; -554.000
361.129;  132.500; -389.000; -598.000
361.261;   85.700;  110.000; -113.000
361.393;  -13.400; -252.000; -214.000
361.525;  119.500;   94.000;  244.000
361.657;  -41.400; -821.000; -703.000
361.789;   74.100; -139.000; -155.000
361.921;  503.900; -642.000; -593.000
362.053;  602.300;  524.000;  541.000
362.185;  169.100;  288.000;   72.000
362.318; -103.700; -709.000; -705.000
362.450;  308.400;  294.000;  444.000
362.582;  352.700; -913.000; -870.000
362.714;  -40.100; -353.000; -332.000
362.846; -139.100; -606.000; -490.000
362.978; -223.800; -941.000; -811.000
363.109;  147.500; -161.000; -260.000
363.241;  890.100; -739.000; -749.000
363.373;  778.400; -649.000; -564.000
363.505; 1110.000; -186.000;  -91.000
363.637;  294.300; -787.000; -601.000
363.769; -207.900;-1067.000;-1080.000
363.901;  -83.100; -596.000; -654.000
364.033; -194.900;-1103.000;-1062.000
364.165;   73.700; -283.000; -283.000
364.296;  160.900; -316.000; -177.000
364.428;   95.100;-1344.000;-1220.000
364.560; -105.500; -679.000; -661.000
364.692;  -86.200; -738.000; -835.000
364.824;  598.600; -588.000; -456.000
364.955;  773.800; -402.000; -564.000
365.087; 1367.600;-1097.000; -852.000
365.219;   28.700; -686.000; -816.000
365.351;  -95.500; -526.000; -572.000
365.482;  148.500;  300.000;  240.000
365.614;  -50.200; -402.000; -314.000
365.746; -134.800; -729.000; -752.000
365.877; -159.900; -706.000; -672.000
366.009;  473.700;  -35.000;  -62.000
366.141; -165.000;-1249.000;-1134.000
366.272; -189.900; -803.000; -719.000
366.404; -203.700;-1005.000; -874.000
366.535;   10.900; -139.000;  -12.000
366.667; -171.300; -644.000; -649.000
366.799;  154.000;  353.000;  203.000
366.930; -198.600; -862.000; -996.000
367.062;  281.500; -639.000; -613.000
367.193;  217.200; -872.000; -842.000
367.325;  -91.900; -580.000; -684.000
367.456;  214.200; -246.000;   31.000
367.588;  327.600; -371.000; -318.000
367.719;   67.700;  -44.000;  -45.000
367.851;    7.200; -222.000; -241.000
367.982;  -59.400; -875.000; -732.000
368.113;  217.800; -475.000; -358.000
368.245; -179.900; -960.000; -841.000
368.376;   38.600; -254.000; -302.000
368.508;   -6.100; -188.000; -263.000
368.639; -239.000;-1166.000;-1034.000
368.770;   -1.200; -670.000; -589.000
368.902;  -63.800; -836.000; -926.000
369.033; -161.200; -906.000; -855.000
369.164;  -45.300; -720.000; -653.000
369.296; -162.800; -452.000; -601.000
369.427;   78.200; -209.000; -144.000
369.558;  -25.000; -593.000; -377.000
369.689; -116.800; -721.000; -569.000
369.821; -236.900; -951.000; -845.000
369.952;    5.300;   42.000; -108.000
370.083;  -32.000; -229.000; -108.000
370.214; -121.600; -735.000; -650.000
370.345;   35.900;   65.000;   81.000
370.477; -123.100; -810.000; -790.000
370.608;  509.200; -328.000; -264.000
370.739;  -65.700;-1233.000;-1292.000
370.870;  -33.200;-1102.000; -923.000
371.001;  253.800; -378.000; -467.000
371.132;  -84.700; -754.000; -735.000
371.263;   -8.700;  -42.000; -148.000
371.394; -221.700; -841.000; -748.000
371.525;  106.000;  345.000;  225.000
371.657; -136.200; -808.000; -670.000
371.788;  190.400;  103.000;  199.000
371.919;  342.200; -384.000; -304.000
372.050; 6764.400;  -91.000; -156.000
372.181; 1988.600; -188.000; -294.000
372.311;  747.300;   42.000; -127.000
372.442;   98.700; -457.000; -451.000
372.573;   24.300; -444.000; -340.000
372.704; -180.700;-1008.000; -980.000
372.835;  244.600; -228.000; -289.000
372.966;  -65.600; -646.000; -554.000
373.097;  -87.600; -575.000; -711.000
373.228;  -32.800; -717.000; -542.000
373.359;  318.000; -824.000; -536.000
373.490; 1839.200; -881.000; -727.000
373.620; 2229.300;-1001.000; -803.000
373.751; 3535.100; -332.000; -396.000
373.882; 1520.300; -663.000; -733.000
374.013;  185.800; -449.000; -262.000
374.143;  -32.000; -581.000; -659.000
374.274; -156.100; -987.000; -908.000
374.405;  355.800; -388.000; -276.000
374.536;  871.500; -526.000; -387.000
374.666; 2208.200; -759.000; -807.000
374.797;  456.200; -817.000; -868.000
374.928; 1757.700; -710.000; -560.000
375.058; 1778.000; -535.000; -500.000
375.189;  206.600;  -59.000;  -93.000
375.320; -168.700; -928.000;-1034.000
375.450;  -28.400; -625.000; -616.000
375.581;  -36.000; -526.000; -436.000
375.712;  -15.800; -574.000; -250.000
375.842;  662.100; -438.000; -415.000
375.973;  425.600; -554.000; -513.000
376.103;    5.000; -665.000; -648.000
376.234; -115.300; -531.000; -552.000
376.364;  -36.000; -944.000; -867.000
376.495;  750.200;  925.000;  529.000
376.625;   47.300; -472.000; -485.000
376.756;  184.400; -709.000; -678.000
376.886;  -74.700;-1178.000;-1026.000
377.017;   76.200;-1048.000;-1061.000
377.147;  593.000; -786.000; -782.000
377.278;  172.500;  174.000;  228.000
377.408; -194.700; -801.000; -815.000
377.538; -139.800; -707.000; -693.000
377.669;  -88.000; -537.000; -613.000
377.799; -115.500; -645.000; -635.000
377.929;  -45.800; -610.000; -428.000
378.060; -201.500; -781.000; -847.000
378.190;  -79.400; -726.000; -531.000
378.320;   -6.900; -401.000; -406.000
378.451;   38.000; -131.000;  -22.000
378.581;   69.400;  -67.000; -110.000
378.711;  431.700; 1035.000;  866.000
378.841;    4.300; -533.000; -675.000
378.972; -108.200; -871.000; -751.000
379.102;   72.500; -652.000; -579.000
379.232;   29.200; -126.000;  -73.000
379.362; -166.300;-1001.000; -885.000
379.492;   99.600; -373.000; -424.000
379.623;  316.500;    0.000;  111.000
379.753; -132.700;-1107.000; -974.000
379.883;  514.600;   59.000;  156.000
380.013;   26.800;-1081.000;-1017.000
380.143; -168.300;-1097.000;-1056.000
380.273; -127.100; -985.000; -861.000
380.403;   85.700; -344.000; -257.000
380.533;    9.500; -651.000; -664.000
380.663;  199.900;  173.000;  128.000
380.793; -125.400;-1027.000;-1074.000
380.923;   35.600; -103.000;  -34.000
381.053;  -99.900; -613.000; -623.000
381.183;    9.600; -106.000; -248.000
381.313;  140.900; -656.000; -470.000
381.443;  126.100; -692.000; -473.000
381.573;  470.600; -402.000; -409.000
381.703;  657.800;-1249.000;-1095.000
381.833; -166.200;-1454.000;-1336.000
381.963;  265.500; -134.000;  -87.000
382.093; 2557.900; -925.000; -909.000
382.223;  774.200; -713.000; -602.000
382.353;   54.100; -801.000; -608.000
382.482;  799.400;-1091.000; -964.000
382.612; 1504.600; -872.000; -644.000
382.742;  850.500; -695.000; -622.000
382.872;  605.700; -565.000; -551.000
383.002;  216.900;  347.000; -132.000
383.131;   58.500; -226.000; -160.000
383.261;   -9.600; -706.000; -768.000
383.391;  556.200; -552.000; -377.000
383.521; 5189.900;  451.000;  263.000
383.650; 1101.100; -947.000; -904.000
383.780;   20.000; -783.000; -656.000
383.910;  299.400;  880.000;  802.000
384.039;   78.500; -794.000; -656.000
384.169;  469.500;-1205.000;-1017.000
384.299;   55.300; -650.000; -662.000
384.428;  -98.200; -764.000; -680.000
384.558;    1.000; -308.000; -275.000
384.687;   12.700; -414.000; -334.000
384.817;  129.600;   75.000;   -2.000
384.947;  121.300; -234.000; -141.000
385.076;  657.300;  982.000;  912.000
385.206;  308.600;  369.000;  480.000
385.335;   -2.000; -549.000; -417.000
385.465;  -54.200; -655.000; -663.000
385.594;  382.700;  -53.000;  -44.000
385.724;  906.100; -868.000; -838.000
385.853;  287.800; -296.000; -270.000
385.982; 2756.800; -743.000; -787.000
386.112; 4058.000;-1052.000; -871.000
386.241;  381.300; -307.000; -312.000
386.371;  125.100; -174.000;  -87.000
386.500;  136.700; -825.000; -789.000
386.629;  123.500; -874.000; -817.000
386.759;  185.100;  -43.000;   68.000
386.888;   94.100; -170.000; -250.000
387.017;  -20.700; -648.000; -620.000
387.147;  -35.400; -771.000; -798.000
387.276;  103.500; -410.000; -397.000
387.405;  143.400; -398.000; -342.000
387.535;    9.600; -452.000; -361.000
387.664;  -48.700; -692.000; -620.000
387.793;  198.300; -198.000; -113.000
387.922; 1129.700;  255.000;  200.000
388.052;  129.800; -576.000; -423.000
388.181;  173.400; -342.000; -472.000
388.310;  156.500; -889.000; -710.000
388.439;    1.600; -749.000; -742.000
388.568;  415.100;  365.000;  244.000
388.697; 2127.900; -756.000; -653.000
388.826;  410.900; -768.000; -666.000
388.956;  178.000; -285.000; -307.000
389.085;   36.500; -347.000; -287.000
389.214; -139.800; -842.000; -872.000
389.343;  -68.900; -645.000; -413.000
389.472;  798.700;  126.000;  149.000
389.601;  943.400;   91.000;    0.000
389.730;  101.100; -568.000; -687.000
389.859;  238.400;  226.000;   46.000
389.988;  429.200; -423.000; -408.000
390.117;  328.200; -168.000; -146.000
390.246;   53.600; -331.000; -320.000
390.375;  319.200; -673.000; -626.000
390.504;  -58.500; -703.000; -621.000
390.633; -127.300; -672.000; -726.000
390.761;  -80.400; -732.000; -645.000
390.890;  118.500;   -4.000; -130.000
391.019;   25.800; -421.000; -441.000
391.148; -170.000; -826.000; -855.000
391.277;  -58.900; -576.000; -493.000
391.406;  -73.500; -821.000; -805.000
391.534;   89.700;  574.000; -301.000
391.663;  -64.300; -583.000; -645.000
391.792; -103.200; -673.000; -701.000
391.921;  275.400;   -3.000;   15.000
392.050;  468.200; -287.000; -228.000
392.178;  -10.500;-1206.000;-1061.000
392.307;  372.500; -758.000; -712.000
392.436;  152.800; -427.000; -641.000
392.564;  124.700;  166.000;   -6.000
392.693; -100.500; -860.000; -682.000
392.822;  458.300; -529.000; -534.000
392.950;  199.900; -880.000; -714.000
393.079;  662.500; -188.000; -328.000
393.208;   97.000; -488.000; -511.000
393.336;   42.800; -170.000; -145.000
393.465;   -2.500; -317.000; -199.000
393.593;   90.100;   62.000;   79.000
393.722; -258.200;-1121.000; -916.000
393.850;    9.200; -188.000;  -61.000
393.979; -268.200; -926.000; -805.000
394.107;  -54.700; -517.000; -537.000
394.236;    8.900; -570.000; -507.000
394.364;  558.000;  383.000;  206.000
394.493;  831.800; -911.000; -767.000
394.621;   23.400; -955.000; -916.000
394.750; 1248.300; -873.000; -923.000
394.878; 5170.000; -247.000; -149.000
395.007; 6654.500; -721.000; -807.000
395.135;  494.800; -790.000; -721.000
395.263; -111.600;-1038.000;-1040.000
395.392;   69.100;  -25.000; -107.000
395.520; -120.000; -818.000; -679.000
395.648; -153.000; -865.000; -915.000
395.777;   22.800; -366.000; -405.000
395.905;  -48.500; -449.000; -564.000
396.033;  114.500;  217.000;  172.000
396.162; 1397.800; -399.000; -453.000
396.290; 1225.400;  -17.000;   -2.000
396.418;  242.600; -555.000; -514.000
396.546;  -96.400; -571.000; -466.000
396.674; -153.800; -850.000; -878.000
396.803;   79.500;  -72.000;  -23.000
396.931;  272.800; -179.000; -199.000
397.059;  169.100;-1026.000; -989.000
397.187; -135.100;-1026.000; -975.000
397.315; -219.100; -884.000; -649.000
397.443; -149.400; -592.000; -443.000
397.572; -132.300; -578.000; -424.000
397.700;   17.500; -607.000; -614.000
397.828;  100.100;  120.000;  -90.000
397.956;  -93.800; -508.000; -478.000
398.084;  -91.800; -767.000; -626.000
398.212;  163.900;  137.000;  124.000
398.340;  110.200;  -56.000;  159.000
398.468;  128.300; -390.000; -169.000
398.596; -212.100; -993.000; -953.000
398.724; -191.000; -762.000; -767.000
398.852; -242.300;-1024.000; -976.000
398.980;  -81.100; -560.000; -560.000
399.108;  -38.900; -982.000; -735.000
399.236;  132.600;   13.000;    8.000
399.363;   93.400;  222.000;  196.000
399.491;  -45.300; -404.000; -398.000
399.619; -200.500; -829.000; -800.000
399.747; -139.100; -859.000; -771.000
399.875;  211.900;  220.000;  234.000
400.003;  -29.300; -359.000; -284.000
400.130; -111.700; -421.000; -341.000
400.258;   17.600;  -83.000;   38.000
400.386;  -70.800; -352.000; -168.000
400.514;   14.500; -526.000; -587.000
400.641; -137.500; -928.000; -802.000
400.769; -221.400; -979.000; -888.000
400.897; -100.900; -838.000; -793.000
401.025;   36.500; -166.000; -152.000
401.152;   31.800;  220.000;   38.000
401.280; -109.600; -430.000; -429.000
401.408; -168.200; -712.000; -576.000
401.535; -136.500; -735.000; -758.000
401.663; -297.400;-1134.000;-1054.000
401.790; -119.300; -514.000; -525.000
401.918;  129.900;  436.000;  405.000
402.046;   33.000;  134.000;  122.000
402.173;    4.100;  -18.000;    7.000
402.301;  -58.500; -519.000; -397.000
402.428;  148.100;  528.000;  383.000
402.556; -230.000;-1188.000; -913.000
402.683;   25.000;  -20.000;   -1.000
402.811;    5.700;  -37.000; -206.000
402.938;   64.800;   20.000;   27.000
403.066;  407.200; -574.000; -558.000
403.193;  627.700;  299.000;  239.000
403.321;  509.900; -396.000; -574.000
403.448;  655.300;   83.000;   27.000
403.575;  328.700;  -90.000;  -46.000
403.703; -147.400; -732.000; -557.000
403.830;  -85.900; -531.000; -496.000
403.957; -212.200;-1117.000;-1023.000
404.085;  115.000;  -61.000; -172.000
404.212;  272.500;  -50.000;   63.000
404.339;  520.600; -566.000; -306.000
404.467;10047.600; -612.000; -524.000
404.594; 6516.800; -287.000; -227.000
404.721; 1638.200; -869.000; -764.000
404.848;  221.500; -113.000; -202.000
404.976; -140.200; -856.000; -783.000
405.103;   39.300;  -14.000;  -82.000
405.230;   76.900;  190.000;  226.000
405.357;  144.800;  117.000;   44.000
405.484;  507.900;  -49.000;    5.000
405.612;  124.100; -548.000; -563.000
405.739;  -55.200; -488.000; -243.000
405.866;  208.100;  669.000;  385.000
405.993;   -5.600; -398.000; -102.000
406.120; -199.800; -801.000; -887.000
406.247;  -15.100; -323.000; -342.000
406.374; 1016.500;  540.000;  629.000
406.501;  298.900; -632.000; -702.000
406.628; -109.300; -621.000; -589.000
406.755; -140.900; -803.000; -620.000
406.882;  -17.900; -228.000; -277.000
407.009; -143.200; -719.000; -628.000
407.136;  200.900; -480.000; -401.000
407.263;  349.200; -939.000; -829.000
407.390; -113.000; -692.000; -614.000
407.517; -263.800;-1139.000;-1187.000
407.644;  -42.600; -332.000; -256.000
407.771; -106.200; -249.000; -287.000
407.898;  121.000;  168.000;  328.000
408.025;  -60.200; -421.000; -313.000
408.151;   43.100;   82.000;  153.000
408.278;  -40.600; -267.000; -216.000
408.405; -181.500; -931.000; -899.000
408.532;  -96.800; -549.000; -542.000
408.659; -177.500; -677.000; -648.000
408.785; -344.100;-1298.000;-1170.000
408.912;  -47.700; -412.000; -296.000
409.039; -148.000; -610.000; -686.000
409.166; -148.600; -591.000; -555.000
409.292; -133.500; -571.000; -534.000
409.419; -170.700; -665.000; -649.000
409.546;  -81.400; -431.000; -192.000
409.672; -129.100; -713.000; -545.000
409.799;   39.300;  -36.000;   34.000
409.926;  -39.100; -180.000; -179.000
410.052; -283.900;-1127.000;-1091.000
410.179;  -28.100; -368.000; -392.000
410.305;  -85.500; -375.000; -493.000
410.432;  -13.900; -220.000; -333.000
410.558; -112.800; -305.000; -380.000
410.685; -149.900; -688.000; -431.000
410.812;  -86.200; -409.000; -588.000
410.938; -224.600; -964.000; -808.000
411.065; -133.200; -671.000; -645.000
411.191;   23.400; -189.000; -174.000
411.317; -144.900; -823.000; -742.000
411.444;  -44.000; -317.000; -246.000
411.570; -104.400; -339.000; -294.000
411.697; -200.000; -758.000; -752.000
411.823; -266.300; -989.000; -999.000
411.949;   -1.200;  -56.000;   17.000
412.076; -145.000; -539.000; -519.000
412.202; -156.800; -758.000; -757.000
412.329; -165.200; -798.000; -752.000
412.455; -186.300; -821.000; -657.000
412.581;    9.400;  -15.000;  172.000
412.707;  -70.000; -540.000; -457.000
412.834;   65.000;  156.000;  219.000
412.960; -129.100; -785.000; -784.000
413.086; -121.200; -743.000; -701.000
413.212;  375.500;  604.000;  578.000
413.339;  -76.100; -685.000; -701.000
413.465;   41.700; -364.000; -310.000
413.591; -139.300; -757.000; -474.000
413.717;  -52.900; -358.000; -366.000
413.843; -222.300; -839.000; -861.000
413.969;  -69.100;  -47.000; -292.000
414.096; -133.700; -679.000; -679.000
414.222;   72.900;  -33.000;   85.000
414.348;   26.200; -652.000; -385.000
414.474;  251.400;   38.000;  -52.000
414.600;   34.300; -126.000; -144.000
414.726;   74.700;  -96.000;  -55.000
414.852;  -73.800; -365.000; -342.000
414.978;  115.200;  104.000;  -18.000
415.104;  149.200;   38.000;   80.000
415.230;   86.800; -329.000; -330.000
415.356;  158.400; -409.000; -514.000
415.482;  418.700;   13.000;  -35.000
415.608;  513.900; -247.000; -323.000
415.734; 1831.400;   67.000;   38.000
415.860;36836.000; -875.000; -767.000
415.986;24329.800; -685.000; -607.000
416.111; 2006.800; -798.000; -652.000
416.237;  452.200; -424.000; -571.000
416.363; 2137.200; -765.000; -733.000
416.489; 7054.500; -324.000; -251.000
416.615;  659.800; -707.000; -742.000
416.741;    0.900; -677.000; -784.000
416.866; -115.800; -673.000; -736.000
416.992; -204.100; -801.000; -818.000
417.118;    2.900;  -41.000;  -80.000
417.244;  -66.800; -798.000; -531.000
417.369; -101.200; -801.000; -612.000
417.495;   63.400; -325.000; -254.000
417.621; -113.800;-1015.000; -803.000
417.746;   58.000; -579.000; -572.000
417.872;  138.500; -254.000; -144.000
417.998;  148.300; -515.000; -530.000
418.123; 2003.400;-1073.000; -845.000
418.249; 9153.000; -512.000; -601.000
418.374; 1184.700; -916.000; -824.000
418.500;  230.300; -383.000; -482.000
418.626;  271.500;   70.000;  -59.000
418.751;  261.400; -549.000; -448.000
418.877;  365.400; -637.000; -643.000
419.002; 3419.300; -688.000; -560.000
419.128;21778.600; -930.000; -721.000
419.253; 4678.400; -967.000; -837.000
419.379;  678.000; -391.000; -338.000
419.504;  760.200;  325.000;  415.000
419.629;  904.100; -393.000; -212.000
419.755; 6465.000; -317.000; -254.000
419.880;34797.600;  -98.000;   67.000
420.006;20032.900; -280.000; -221.000
420.131;49489.300; -662.000; -775.000
420.256; 6556.800; -315.000; -316.000
420.382;  859.600; -665.000; -687.000
420.507;  147.100; -649.000; -778.000
420.632;  344.900; -337.000; -339.000
420.758;  571.400; -251.000; -425.000
420.883; -119.200; -876.000; -672.000
421.008; -142.200; -775.000; -619.000
421.133;  -93.800; -509.000; -467.000
421.259;  -14.600; -325.000; -259.000
421.384; -161.700; -834.000; -693.000
421.509;   32.800;-1052.000; -862.000
421.634; 2517.100; -936.000; -820.000
421.759;  998.900; -359.000; -327.000
421.885;  -65.600; -717.000; -656.000
422.010;  -80.900; -673.000; -542.000
422.135; -197.700; -695.000; -727.000
422.260;  146.100;  340.000;  280.000
422.385;    6.700;   12.000;  -98.000
422.510;  111.500;  151.000;  -26.000
422.635;  126.600;  -87.000;  -43.000
422.760;  221.300; -766.000; -791.000
422.885;  141.300;  -57.000;  -80.000
423.010;   12.900; -112.000; -169.000
423.135; -134.900; -481.000; -561.000
423.260;   73.500; -150.000; -245.000
423.385;  225.100;  476.000;  222.000
423.510;  143.500;   71.000;  -22.000
423.635;  204.300;  133.000;   45.000
423.760;  182.200;  383.000;  328.000
423.885;  157.200;  336.000;  391.000
424.010;   73.300;  -68.000;  -13.000
424.135;   13.500;    5.000;  -33.000
424.259; -107.900; -654.000; -457.000
424.384;  -39.900; -279.000; -272.000
424.509;   28.300; -260.000; -186.000
424.634; -151.000; -761.000; -623.000
424.759;   -9.700; -688.000; -544.000
424.883;   41.600; -506.000; -527.000
425.008;  376.200; -502.000; -410.000
425.133; 3538.200; -679.000; -653.000
425.258; 1515.500; -517.000; -381.000
425.382; 2057.700; -867.000; -774.000
425.507; 4757.500; -487.000; -543.000
425.632;  714.200; -802.000; -663.000
425.756;  827.200; -256.000; -146.000
425.881;11483.000; -831.000; -857.000
426.006;27737.900; -604.000; -355.000
426.130; 4078.000; -696.000; -508.000
426.255;  606.300; -611.000; -491.000
426.379;  289.800; -189.000; -577.000
426.504;  752.600;  660.000;  544.000
426.629; 7585.700; -519.000; -466.000
426.753; 4690.700;   64.000;  -46.000
426.878;  595.100; -252.000; -288.000
427.002;  400.800; -651.000; -668.000
427.127; 3042.600;  -35.000; -158.000
427.251;19819.300;  372.000;  401.000
427.375; 5059.700; -191.000; -173.000
427.500; 4314.900; -616.000; -610.000
427.624; 1325.500; -234.000; -400.000
427.749;  260.300; -216.000; -225.000
427.873;  -28.700; -499.000; -412.000
427.997;   27.200; -222.000; -230.000
428.122;  253.100;  795.000;  703.000
428.246;  275.000;  433.000;  434.000
428.371; -196.300; -869.000; -773.000
428.495; -132.800; -624.000; -646.000
428.619;   24.500; -186.000; -117.000
428.743;  118.400;   65.000;  132.000
428.868;  106.600; -732.000; -643.000
428.992; 2797.400; -219.000; -326.000
429.116; 1106.100; -329.000; -357.000
429.240;  608.700;  419.000;  426.000
429.365;   37.000; -454.000; -574.000
429.489;  -37.400; -638.000; -647.000
429.613;   94.100; -236.000; -177.000
429.737;  138.000; -563.000; -432.000
429.861;  611.500; -247.000; -133.000
429.985;10344.700; -425.000; -305.000
430.109;10188.100; -770.000; -908.000
430.234; 1198.600;   76.000;  -50.000
430.358;  210.400; -250.000; -160.000
430.482;  -65.700; -672.000; -564.000
430.606;  -44.400; -655.000; -375.000
430.730;  184.600; -437.000; -388.000
430.854;  375.800; -909.000; -835.000
430.978;  -54.000; -795.000; -764.000
431.102;  -42.900; -499.000; -422.000
431.226;  -54.200; -874.000; -815.000
431.350;  189.900;  345.000;  422.000
431.474;  -56.800; -661.000; -373.000
431.597; -215.200;-1060.000; -848.000
431.721;  -74.000; -276.000; -267.000
431.845; -218.700; -704.000; -472.000
431.969;  -83.200; -304.000; -349.000
432.093; -120.800; -395.000; -317.000
432.217;   44.600;   32.000;   82.000
432.341; -116.600; -523.000; -518.000
432.464;   61.500;   96.000;   40.000
432.588;  501.300; -401.000; -329.000
432.712;  249.300;  -52.000;  -52.000
432.836;  150.500;  213.000;  263.000
432.959;   -6.800; -372.000; -311.000
433.083;  236.100;   11.000;    2.000
433.207;  738.300;  285.000;  930.000
433.330; 9217.000; -391.000; -200.000
433.454;10363.300; -654.000; -638.000
433.578; 6100.700;  583.000;  278.000
433.701; 1079.700; -623.000; -675.000
433.825;  382.900; -292.000; -299.000
433.949;  498.900;   28.000;  -72.000
434.072;  184.300; -410.000; -323.000
434.196;   28.800; -309.000; -117.000
434.319; 7832.400;25482.000;25124.000
434.443; 1508.200; -656.000; -603.000
434.566; 4650.700;  281.000;   62.000
434.690;  722.300; -637.000; -383.000
434.813;  124.200; -251.000; -173.000
434.937;  -96.000; -569.000; -696.000
435.060;   12.400; -423.000; -332.000
435.184;  808.200; -492.000; -217.000
435.307;  415.500;  159.000;  102.000
435.431;   71.600;  -40.000;   24.000
435.554;  -51.600; -399.000; -240.000
435.677;  -95.800; -350.000; -258.000
435.801;    9.400;  -25.000;   49.000
435.924;   81.900;    1.000;  -67.000
436.048; -159.000;-1019.000; -732.000
436.171;  -63.500; -240.000;  -66.000
436.294;   37.600; -248.000; -229.000
436.417;  207.200; -963.000; -849.000
436.541; -132.800; -814.000; -840.000
436.664;  -24.700; -242.000; -316.000
436.787;   53.600;   13.000;  113.000
436.910; -130.600; -792.000; -422.000
437.034;  122.500;  142.000;  143.000
437.157;  225.200;  -11.000;    0.000
437.280;  -21.100; -392.000; -292.000
437.403;  -77.800; -982.000; -869.000
437.526; 1569.600; -903.000; -865.000
437.649; 4822.200; -505.000; -332.000
437.772;  702.500; -692.000; -540.000
437.896;  323.100;  700.000;  544.000
438.019; -138.900; -758.000; -503.000
438.142;  -93.500; -596.000; -506.000
438.265;   68.600; -639.000; -670.000
438.388; 1247.000; -520.000; -410.000
438.511;  255.800; -597.000; -394.000
438.634;    0.200; -247.000; -125.000
438.757; -188.000; -693.000; -619.000
438.880;   -4.400;  -34.000;  -57.000
439.003; -116.900; -417.000; -437.000
439.126;  -50.700; -287.000; -167.000
439.248;  -53.300;  -98.000; -139.000
439.371;    9.400;    9.000;  -53.000
439.494;  131.200;  510.000;  439.000
439.617;  -32.300;   65.000;  -88.000
439.740; -302.200; -968.000; -816.000
439.863; -214.500; -755.000; -595.000
439.986; -150.500; -476.000; -431.000
440.108;  -28.200; -161.000; -112.000
440.231; -272.600; -950.000; -836.000
440.354;    1.400;  -64.000; -150.000
440.477;  156.500; -566.000; -542.000
440.599;   79.800; -200.000; -225.000
440.722; -193.700; -709.000; -586.000
440.845;  204.100;  751.000;  928.000
440.968; -161.900; -415.000; -311.000
441.090;  -67.400; -199.000;  -33.000
441.213; -274.700;-1021.000; -825.000
441.336;  -51.100; -159.000;   -5.000
441.458;  -63.800; -549.000; -396.000
441.581;  -93.700; -628.000; -629.000
441.703;  -66.100; -152.000;   13.000
441.826; -142.600; -557.000; -400.000
441.948;  -23.900;   56.000;   51.000
442.071;  110.200;  555.000;  424.000
442.193; -148.700; -531.000; -485.000
442.316;  119.100;  152.000;   97.000
442.438;  158.000; -233.000;  -10.000
442.561;  241.400;  272.000;  262.000
442.683; 1256.800; -809.000; -522.000
442.806; 2407.700;   -8.000;   74.000
442.928;   41.300; -859.000; -604.000
443.051;  -57.800; -577.000; -373.000
443.173; -127.700; -341.000; -339.000
443.295;  -60.500; -263.000; -371.000
443.418;  -97.500; -321.000;  -29.000
443.540;   75.100; -106.000;   -4.000
443.662; -174.100; -563.000; -465.000
443.785;   36.600;  335.000;  199.000
443.907; -159.800; -362.000; -208.000
444.029; -186.100; -767.000; -494.000
444.152; -227.800; -644.000; -554.000
444.274;   25.100;  -18.000;  -24.000
444.396; -165.000; -461.000; -221.000
444.518; -210.900; -691.000; -454.000
444.640; -139.800; -268.000; -111.000
444.763;   51.400;  388.000;  249.000
444.885; -177.700; -432.000; -392.000
445.007;   15.300;   35.000;   86.000
445.129; -182.800; -610.000; -515.000
445.251; -145.200; -372.000; -439.000
445.373; -223.300; -537.000; -386.000
445.495;  103.000;  242.000;  350.000
445.617;  186.900;  853.000;  753.000
445.739;  -61.100; -215.000;  -97.000
445.861;   35.600; -245.000; -112.000
445.984;   13.900; -267.000; -101.000
446.105;  484.300; -418.000; -251.000
446.227; 1224.300; -176.000;  -19.000
446.349;   14.000; -358.000; -249.000
446.471; -153.800; -615.000; -448.000
446.593;  -59.700; -316.000;   19.000
446.715;   61.500;  -67.000;   41.000
446.837;  206.000;  697.000;  832.000
446.959; -135.600; -457.000; -478.000
447.081; -219.300; -628.000; -518.000
447.203;  169.400;  862.000;  834.000
447.325;  -98.700; -270.000;   42.000
447.446;   56.900;  286.000;  530.000
447.568; -252.600; -921.000; -803.000
447.690;  -77.400; -236.000; -245.000
447.812; -224.000; -798.000; -519.000
447.933;   36.400;  155.000;  127.000
448.055;  -81.800; -306.000; -261.000
448.177;  403.900;   31.000;   79.000
448.299;  197.900; -935.000; -727.000
448.420;  108.700;  -25.000;  159.000
448.542;    0.800;   -3.000;   33.000
448.664;   37.300;  109.000;  322.000
448.785;   15.000;  265.000;   83.000
448.907; -107.600; -614.000; -353.000
449.028;  -29.300; -771.000; -471.000
449.150;  215.600;  492.000;  589.000
449.272; -317.400;-1044.000; -913.000
449.393;  143.800;  612.000;  694.000
449.515; -218.800; -634.000; -581.000
449.636;  -29.000; -264.000; -155.000
449.758;  233.000;  763.000;  622.000
449.879; -109.100; -498.000; -396.000
450.001;  -86.700; -149.000;  -49.000
450.122;   -6.100;  -95.000;  162.000
450.244;   12.800;   37.000;  364.000
450.365; -148.000; -495.000; -301.000
450.486;    6.500;   80.000;  268.000
450.608;  110.900;  393.000;  326.000
450.729;  168.800;  578.000;  645.000
450.850;   30.800; -574.000; -466.000
450.972; 1347.700; -552.000; -389.000
451.093; 8513.800;  190.000;  588.000
451.214; 3182.500; -516.000; -337.000
451.336;  667.100;  773.000;  579.000
451.457;  179.900;  264.000;  393.000
451.578;   12.100; -118.000;  -74.000
451.699; -192.800; -546.000; -540.000
451.821;  -80.500; -284.000;  -50.000
451.942;   67.800;  278.000;  285.000
452.063;  113.200;  228.000;  419.000
452.184; 1086.400;  -54.000;  -49.000
452.305; 1891.700;  103.000;  170.000
452.427;  209.800; -549.000; -301.000
452.548;    9.800;   23.000;   79.000
452.669;  -71.300; -257.000;  -89.000
452.790;  -18.000;    3.000;  -18.000
452.911;   43.700;  195.000;  259.000
453.032;  -86.600; -289.000;  -60.000
453.153;  -13.400;  -29.000;   81.000
453.274;  205.200;  737.000;  868.000
453.395;  -12.600;  -51.000;  175.000
453.516;  335.400; 1317.000; 1388.000
453.637;  -56.000; -205.000; -150.000
453.758;  -48.100;   15.000;   69.000
453.879; -156.500; -462.000; -250.000
454.000;  217.500; 1086.000;  948.000
454.121; -158.500; -554.000; -326.000
454.242; -186.500; -599.000; -383.000
454.362;  -48.900;  -99.000;  114.000
454.483;    0.700; -309.000; -229.000
454.604;  177.300;  512.000;  580.000
454.725; -195.500; -627.000; -555.000
454.846; -193.100; -474.000; -406.000
454.967;   44.600;  230.000;  539.000
455.087;   -8.200;  179.000;  153.000
455.208;   95.700;  554.000;  856.000
455.329;  -31.800;  -22.000;   82.000
455.450;  143.100;  473.000;  633.000
455.570; -122.700; -234.000; -211.000
455.691;   -6.600;  201.000;  407.000
455.812; -145.000; -270.000;  -92.000
455.932;  -26.000;  107.000;  -97.000
456.053;  -81.800;   36.000;   24.000
456.173; -188.500; -433.000; -355.000
456.294; -219.800; -476.000; -303.000
456.415;  -30.600;  -73.000;   70.000
456.535;   36.500;  297.000;  273.000
456.656;  -36.200;  132.000;  240.000
456.776;  -79.800;    3.000;  298.000
456.897;   66.100;  308.000;  513.000
457.017;  -75.800; -153.000;   -3.000
457.138; -165.300; -402.000; -249.000
457.258;   29.200;  263.000;  224.000
457.379;   29.900;  509.000;  521.000
457.499;    5.400;  443.000;  432.000
457.620; -183.000; -407.000; -231.000
457.740; -150.700; -132.000;  -11.000
457.860;  -19.300;   87.000;   44.000
457.981;  -42.800;  132.000;  124.000
458.101;  -77.200;  -89.000;   40.000
458.221;   36.600;  336.000;  402.000
458.342;  -52.900;   -4.000;  -37.000
458.462;   95.900;  617.000;  352.000
458.582;  -20.600; -302.000; -294.000
458.703;   51.200;  303.000;  154.000
458.823;   -1.000;   22.000;  163.000
458.943;  121.000;  341.000;  467.000
459.063;   56.300; 1124.000;  192.000
459.183;   38.000;  328.000;  313.000
459.304;  112.900;  315.000;  517.000
459.424;  -48.400; -246.000;  -89.000
459.544;  683.100;  388.000;  764.000
459.664; 1553.200;  499.000;  506.000
459.784;  612.400; 1004.000; 1175.000
459.904;  209.300;  867.000;  744.000
460.024;  226.400;  867.000;  684.000
460.144;  103.500;  449.000;  554.000
460.264;   83.100;  515.000;  327.000
460.385; -106.200; -145.000; -119.000
460.505;  133.400;  905.000;  858.000
460.625; -117.200;  -17.000;  -68.000
460.745;   55.200;  396.000;  541.000
460.864;  -28.700;  153.000;  469.000
460.984;  119.600;  499.000;  573.000
461.104;  373.300; 1656.000; 1775.000
461.224;  129.700;  657.000;  650.000
461.344;   37.100;  431.000;  360.000
461.464;   20.200;  258.000;  513.000
461.584;   46.600;  283.000;  466.000
461.704;    7.000;   58.000;  108.000
461.824;  -38.600;  238.000;  259.000
461.943;   -7.000;  191.000;  130.000
462.063;  -95.900;    2.000;  324.000
462.183;  125.400;  639.000;  717.000
462.303;  266.100; 1678.000; 1230.000
462.422;  112.900;  781.000;  840.000
462.542;    0.800;  271.000;  391.000
462.662;  146.100;  353.000;  380.000
462.782;  528.500;  833.000;  572.000
462.901;  897.300;  545.000;  717.000
463.021;  562.200; 1702.000; 1638.000
463.141;   17.200;  337.000;  770.000
463.260;   26.900;  614.000;  474.000
463.380;  130.100;  902.000;  884.000
463.499;    4.100;  342.000;  332.000
463.619;    2.100;  581.000;  559.000
463.738;  323.900; 1644.000;  903.000
463.858;  105.300;  657.000;  811.000
463.978;    4.700;  542.000;  396.000
464.097;  181.200;  921.000; 1114.000
464.217;  304.500; 1196.000; 1143.000
464.336;  259.600; 1068.000; 1130.000
464.455;    0.600;  328.000;  659.000
464.575;  165.500;  597.000;  602.000
464.694;  421.900; 1204.000; 1179.000
464.814;  311.100; 1190.000; 1138.000
464.933;  229.900; 1095.000; 1027.000
465.052;  257.900; 1412.000; 1054.000
465.172;  244.200;  922.000;  799.000
465.291;  376.700; 1376.000; 1320.000
465.410;  115.400;  462.000;  735.000
465.530;  268.000; 1355.000; 1310.000
465.649;  193.100; 1209.000; 1273.000
465.768;  409.200; 1673.000; 1508.000
465.888;  201.600;  941.000; 1174.000
466.007;  264.000; 1335.000; 1440.000
466.126;  111.700;  721.000;  641.000
466.245;  157.500; 1176.000; 1187.000
466.364;  146.200;  950.000; 1060.000
466.484;  185.900; 1024.000; 1213.000
466.603;  163.200; 1101.000; 1222.000
466.722;  341.000; 1490.000; 1769.000
466.841;  218.400; 1151.000; 1401.000
466.960;  194.800; 1069.000;  972.000
467.079;  344.400; 1971.000; 1786.000
467.198;  181.900; 1238.000; 1181.000
467.317;  255.100; 1768.000; 1162.000
467.436;  261.600; 1709.000; 1261.000
467.555;  341.000; 1796.000; 1746.000
467.674;  189.700; 1227.000; 1329.000
467.793;  172.900; 1376.000; 1374.000
467.912;  258.900; 1658.000; 1539.000
468.031;  391.900; 2038.000; 1930.000
468.150;  408.700; 1842.000; 1837.000
468.269;  463.800; 2313.000; 2090.000
468.388;  488.700; 2168.000; 2339.000
468.507;  615.600; 2884.000; 2903.000
468.626;  634.400; 2555.000; 2541.000
468.744;  379.700; 2018.000; 2174.000
468.863;  454.800; 2312.000; 2523.000
468.982;  301.400; 1503.000; 1555.000
469.101;  534.300; 2788.000; 2692.000
469.220;  357.500; 2333.000; 2176.000
469.338;  621.900; 2935.000; 3051.000
469.457;  457.700; 2719.000; 2545.000
469.576;  774.300; 3953.000; 3784.000
469.695;  585.600; 2877.000; 3066.000
469.813;  975.800; 4148.000; 4192.000
469.932;  865.300; 4255.000; 4485.000
470.051;  884.100; 4075.000; 4161.000
470.169; 1750.300; 4470.000; 4338.000
470.288; 2770.700; 4700.000; 4809.000
470.406; 1599.900; 5059.000; 5194.000
470.525; 1324.400; 6101.000; 5787.000
470.644; 1343.200; 6847.000; 6794.000
470.762; 1710.300; 8397.000; 7873.000
470.881; 1915.500; 8651.000; 8464.000
470.999; 2117.300; 9685.000; 9151.000
471.118; 2298.300;11174.000;10711.000

