
Integration time [ms]: 100.000
Averaging Nr. [scans]: 40
Smoothing Nr. [pixels]: 0
Data measured with spectrometer [name]: 2101012U2
Wave   ;Sample   ;Dark     ;Reference
[nm]   ;[counts] ;[counts] ;[counts] 

197.733;   63.800;  516.000;  404.000
197.879;  -90.050; -610.000; -634.000
198.025;  -46.225; -475.000; -420.000
198.171;  -83.550; -602.000; -612.000
198.317;  -27.225; -401.000; -316.000
198.463;  -78.375; -655.000; -404.000
198.609;   37.950;  181.000; -137.000
198.755;  -86.575; -644.000; -410.000
198.901;  -75.650; -505.000; -424.000
199.047;  -72.675; -615.000; -488.000
199.193;  -39.875; -230.000; -468.000
199.339;  -34.800; -222.000; -369.000
199.485;   32.450;  330.000;  271.000
199.631;    4.750;  227.000;  310.000
199.777;  -59.500; -466.000; -398.000
199.923;  -59.925; -610.000; -424.000
200.069;   -8.800; -141.000;  -58.000
200.215;   55.350;  128.000;  453.000
200.361;   49.125;  243.000;  477.000
200.507;  -66.425; -600.000; -373.000
200.653;  -31.300; -371.000; -194.000
200.798;  -28.275; -215.000; -125.000
200.944;  -13.975; -146.000;  -41.000
201.090;   34.550;   61.000;  222.000
201.236;   -4.925; -116.000; -158.000
201.382;  126.375;  874.000;  903.000
201.528;    0.925;  -58.000;  -48.000
201.674;  -67.325; -386.000; -293.000
201.819;  -60.150; -540.000; -439.000
201.965;  -90.475; -699.000; -447.000
202.111;  -29.625; -273.000; -226.000
202.257;  -45.050; -250.000; -238.000
202.402;   15.600;   13.000;  -36.000
202.548;  -32.175; -169.000; -116.000
202.694;   96.325;  410.000; -183.000
202.840;  -86.800; -603.000; -531.000
202.985;  -61.500; -681.000; -639.000
203.131; -117.250; -832.000; -666.000
203.277;  -28.950; -199.000; -262.000
203.423;  -55.775; -434.000; -520.000
203.568;  -42.200; -462.000; -237.000
203.714;  -65.900; -535.000; -542.000
203.860;  -76.050; -682.000; -641.000
204.005;   14.625;  112.000;  167.000
204.151;   69.300;  561.000;  556.000
204.296;  -56.225; -354.000; -221.000
204.442;  -69.300; -600.000; -547.000
204.588;  -81.075; -592.000; -579.000
204.733;   32.225;  178.000;  168.000
204.879; -129.925;-1018.000; -822.000
205.025;   10.775;  -99.000;  126.000
205.170;    3.225;  -17.000;   94.000
205.316;   74.200;  438.000;  661.000
205.461;  -94.475; -698.000; -554.000
205.607;   89.075;  609.000;  665.000
205.752;  -79.325; -626.000; -551.000
205.898;  -42.525; -501.000; -391.000
206.043;  -75.625; -578.000; -506.000
206.189;  -45.525; -243.000; -285.000
206.334;   74.600;  554.000;  606.000
206.480;   80.950;  409.000;  239.000
206.625;  -81.400; -529.000; -552.000
206.771;  -51.350; -451.000; -373.000
206.916;  -31.825; -210.000; -537.000
207.062;  -80.525; -545.000; -591.000
207.207;  -73.550; -546.000; -443.000
207.353;   48.050;  185.000;  460.000
207.498;   12.950;  196.000;   85.000
207.643;  -55.825; -501.000; -370.000
207.789; -123.000;-1069.000; -910.000
207.934;  -93.450; -665.000; -713.000
208.080;  -23.550; -154.000;   66.000
208.225;  -18.050;  -22.000;  -57.000
208.370;  -77.025; -727.000; -619.000
208.516;  -64.625; -741.000; -487.000
208.661;  -36.875; -127.000;  -69.000
208.806;  -19.150; -165.000; -171.000
208.952; -131.250;-1044.000; -731.000
209.097;   71.400;  378.000;  349.000
209.242;  -54.825; -307.000; -382.000
209.387;   70.700;  392.000;  350.000
209.533;  -60.950; -321.000; -350.000
209.678;   87.275;  472.000;  543.000
209.823;  -60.750; -408.000; -310.000
209.969; -103.150; -860.000; -757.000
210.114; -106.250; -907.000; -719.000
210.259; -119.175; -939.000; -889.000
210.404;  -15.025; -171.000;  103.000
210.549;   24.075;  108.000;    3.000
210.695;  -25.750;   -3.000;  -95.000
210.840;   36.075;   94.000;   67.000
210.985;  -66.475; -484.000; -303.000
211.130;   79.750;  268.000;  406.000
211.275;    3.100;  207.000;  199.000
211.420;  -49.350; -300.000; -289.000
211.566;  -72.700; -536.000; -489.000
211.711;   32.375;  218.000;  157.000
211.856;  -73.250; -545.000; -519.000
212.001;   -7.125;  151.000;   44.000
212.146;   25.050;  153.000;   49.000
212.291;  -20.625; -210.000; -186.000
212.436;  -28.000; -280.000;   -6.000
212.581;  -86.250; -685.000; -653.000
212.726;  -78.975; -487.000; -538.000
212.871;  -53.350; -552.000; -217.000
213.016; -144.375;-1172.000;-1029.000
213.161;   59.600;  406.000;  291.000
213.306;  -71.900; -435.000; -577.000
213.451;  -94.425; -778.000; -689.000
213.596;  -53.200; -455.000; -347.000
213.741;  -54.425; -448.000; -538.000
213.886;  -75.050; -498.000; -517.000
214.031;  -16.250; -294.000; -124.000
214.176;  -56.325; -408.000; -341.000
214.321;  -19.200; -296.000; -157.000
214.466;  -26.900; -163.000;  -43.000
214.611;   10.375;  -61.000;  -10.000
214.756; -124.625; -948.000; -858.000
214.901;  -30.475; -388.000; -226.000
215.046; -114.975; -797.000; -825.000
215.191;   14.775;  128.000;   35.000
215.336;   -5.300; -157.000;  -19.000
215.480;  -76.675; -684.000; -505.000
215.625;  -27.250; -175.000;  -19.000
215.770;  -82.000; -757.000; -662.000
215.915;   -9.475;   -5.000;  -97.000
216.060;    2.450; -113.000;  -21.000
216.205; -117.750; -731.000; -779.000
216.349;  -73.125; -470.000; -533.000
216.494; -138.775; -939.000; -867.000
216.639; -113.450; -823.000; -888.000
216.784;  -93.175; -577.000; -525.000
216.929;   57.525;  392.000;  281.000
217.073;  -16.600; -244.000;  -31.000
217.218;    7.800;   78.000;  -47.000
217.363;  -93.825; -656.000; -618.000
217.507;  -86.600; -623.000; -588.000
217.652; -130.225; -845.000; -874.000
217.797;  -90.850; -708.000; -659.000
217.942; -119.150; -856.000; -720.000
218.086;   84.975;  608.000;  539.000
218.231;  -27.975; -174.000;  -26.000
218.376;  -32.250; -337.000; -229.000
218.520;    1.950;  -41.000;   96.000
218.665;  -29.800; -338.000; -204.000
218.810;  -60.100; -275.000; -233.000
218.954;   10.550;  201.000;   35.000
219.099; -124.075; -713.000; -963.000
219.243;  -71.600; -589.000; -554.000
219.388;  -34.475; -264.000; -136.000
219.532;   -6.800; -116.000; -116.000
219.677;  -81.150; -564.000; -521.000
219.822;    4.250;   33.000;   89.000
219.966;    5.625;   17.000;  -99.000
220.111;  -35.750; -328.000;  -40.000
220.255; -105.625; -797.000; -750.000
220.400;  -15.375; -180.000; -146.000
220.544;  -75.725; -516.000; -450.000
220.689;  -46.950; -422.000; -451.000
220.833;  -22.500; -123.000;  -58.000
220.978;  -43.725; -393.000; -563.000
221.122;   17.125;  319.000;  307.000
221.267; -122.150; -906.000; -837.000
221.411;  -52.650; -478.000; -394.000
221.555;  -10.200; -104.000;  -23.000
221.700;  -54.800; -329.000; -222.000
221.844;   31.125;  255.000;  272.000
221.989;  -41.575; -328.000; -311.000
222.133;  -26.800; -289.000; -307.000
222.277;   -3.600;    5.000;   78.000
222.422;    8.900;  227.000;  113.000
222.566;  -53.450; -381.000; -214.000
222.711;  -52.875; -414.000; -479.000
222.855;  -82.675; -643.000; -586.000
222.999;  -81.425; -642.000; -717.000
223.144;  -37.500; -195.000; -194.000
223.288;   41.950;  423.000;  251.000
223.432;   35.100;  184.000;  230.000
223.576;   22.350;  152.000;  -21.000
223.721;   29.450;  364.000;  273.000
223.865;  -43.075; -472.000; -475.000
224.009;  254.850; 1673.000; 1631.000
224.153;  -85.900; -660.000; -671.000
224.298;  -75.800; -531.000; -489.000
224.442;   -6.650;  -74.000;  -33.000
224.586;  -13.000; -169.000; -106.000
224.730; -105.175; -858.000; -670.000
224.875; -113.125; -739.000; -688.000
225.019;    4.125;  102.000;  188.000
225.163;   50.000;  208.000;  341.000
225.307;   20.900;   97.000;  -91.000
225.451;   43.350;  360.000;  481.000
225.595;   38.975;  264.000;  176.000
225.739;  -16.825; -170.000;  -94.000
225.884;    4.675;   86.000;    5.000
226.028; -105.700; -760.000; -626.000
226.172;  -34.275; -260.000; -273.000
226.316; -124.050; -941.000; -902.000
226.460;  -68.325; -645.000; -493.000
226.604;  -49.100; -406.000; -400.000
226.748; -113.600; -836.000; -733.000
226.892;  -38.075; -227.000; -181.000
227.036;  -51.225; -537.000; -447.000
227.180;  -57.775; -551.000; -375.000
227.324;  -65.950; -561.000; -580.000
227.468; -130.950; -819.000; -717.000
227.612;   17.700;  242.000;  -28.000
227.756; -109.825; -845.000; -698.000
227.900;   54.075;  342.000;  441.000
228.044;  -57.350; -509.000; -290.000
228.188;   45.875;  448.000;  568.000
228.332;  -87.600; -546.000; -472.000
228.476;  -29.475; -223.000; -149.000
228.620;  -28.600; -210.000; -150.000
228.764;   71.025;  431.000;  349.000
228.908;  -20.900; -155.000;   30.000
229.052;  -61.375; -615.000; -528.000
229.195;  -24.400; -172.000;   13.000
229.339;  -25.900; -235.000; -305.000
229.483;  -43.050;    5.000; -162.000
229.627;   -3.725; -156.000;  139.000
229.771;  -51.400; -218.000; -294.000
229.915;   18.000;  230.000;   79.000
230.059; -101.625; -648.000; -663.000
230.202;  -25.075; -370.000; -317.000
230.346;  -26.600; -107.000;  107.000
230.490;  -72.325; -489.000; -521.000
230.634; -123.900; -736.000; -553.000
230.777;   73.075;  478.000;  509.000
230.921;  -53.550; -450.000; -359.000
231.065;  -49.725; -246.000; -286.000
231.209;   31.825;  261.000;  265.000
231.352;   29.650;   54.000;   40.000
231.496;   14.100;  568.000;  188.000
231.640;  -84.925; -693.000; -621.000
231.783;   61.450;  546.000;  525.000
231.927;  -46.675; -294.000; -365.000
232.071; -135.700; -962.000; -736.000
232.214; -125.425; -980.000; -764.000
232.358; -106.750; -683.000; -599.000
232.502;   -6.800;  -19.000;    7.000
232.645; -153.100;-1090.000; -927.000
232.789;  -11.475; -257.000; -218.000
232.933;  -31.675; -407.000; -224.000
233.076; -134.650;-1038.000; -897.000
233.220; -109.325; -752.000; -777.000
233.363;  -63.725; -669.000; -477.000
233.507;   58.475;  371.000;  129.000
233.650;  -86.850; -764.000; -834.000
233.794;   37.400;  438.000;  461.000
233.938;  -74.825; -530.000; -362.000
234.081;  -21.300;  -93.000;   31.000
234.225;  -63.075; -631.000; -539.000
234.368; -116.025; -773.000; -723.000
234.512;  -48.900; -385.000; -299.000
234.655;  -88.800; -582.000; -555.000
234.798;  -63.600; -493.000; -466.000
234.942; -138.725; -884.000;-1002.000
235.085;  -76.525; -651.000; -443.000
235.229;  -98.200; -405.000; -410.000
235.372;  -45.125; -247.000; -191.000
235.516;  -59.050; -397.000; -321.000
235.659;   25.400;   92.000;  121.000
235.802;  -19.650;  -38.000;  -22.000
235.946;   31.625;  335.000;  215.000
236.089;   30.400;  126.000;  250.000
236.233;   49.850;  275.000;  298.000
236.376;  -49.975; -235.000; -378.000
236.519;  -41.750; -297.000; -319.000
236.663;  -12.850; -215.000; -117.000
236.806; -141.475;-1029.000; -999.000
236.949;   42.450;  543.000;  431.000
237.092;   66.250;  412.000;  391.000
237.236;  -86.275; -589.000; -502.000
237.379;   81.225;  352.000;  428.000
237.522; -126.375; -879.000; -768.000
237.666;   -1.700; -271.000;   18.000
237.809; -122.500; -851.000; -823.000
237.952;   21.125;  469.000;  271.000
238.095;  -78.750; -447.000; -442.000
238.238;   79.125;  688.000;  700.000
238.382;    6.325;  166.000;  103.000
238.525;  -75.900; -598.000; -511.000
238.668; -142.200;-1060.000; -985.000
238.811;  -84.850; -638.000; -643.000
238.954;  -58.250; -483.000; -334.000
239.097;   91.975;  617.000;  664.000
239.241;   19.075;  394.000;  326.000
239.384;  -39.500; -254.000; -214.000
239.527;  -54.975; -424.000; -224.000
239.670; -158.600; -994.000;-1091.000
239.813; -108.275; -696.000; -658.000
239.956;   81.450;  579.000;  473.000
240.099; -111.925; -778.000; -725.000
240.242;   68.700;  428.000;  432.000
240.385;   48.025;  466.000;  450.000
240.528;  -66.175; -706.000; -473.000
240.671;    5.000;  189.000;  134.000
240.814;  -47.975; -441.000; -158.000
240.957; -100.350; -767.000; -578.000
241.100; -106.500; -779.000; -755.000
241.243; -147.725;-1234.000; -893.000
241.386;  -67.425; -508.000; -379.000
241.529;  -95.975; -735.000; -547.000
241.672;  -70.150; -566.000; -495.000
241.815; -122.450; -832.000; -808.000
241.958;  -41.475; -125.000; -182.000
242.101;  -81.325; -545.000; -390.000
242.244;  -47.775; -270.000; -325.000
242.387;  -45.400; -304.000; -246.000
242.530;   53.000;  470.000;  134.000
242.673;  -52.375; -381.000; -309.000
242.815; -112.125; -925.000; -899.000
242.958;  -65.700; -482.000; -381.000
243.101;    1.025;  132.000;  187.000
243.244;  -91.450; -564.000; -521.000
243.387;  -54.175; -313.000; -316.000
243.530;  -97.850; -657.000; -674.000
243.672;   -6.200;   43.000;  -92.000
243.815;  -61.525; -355.000; -283.000
243.958;   -4.650;   98.000;  -26.000
244.101;  -13.750;   59.000;  -16.000
244.243;  -12.000;  -47.000;  101.000
244.386; -126.675; -761.000; -630.000
244.529;  -26.925; -132.000; -139.000
244.672; -156.350;-1154.000; -951.000
244.814;  -92.075; -621.000; -794.000
244.957;  -36.850; -380.000; -304.000
245.100;  -82.250; -489.000; -489.000
245.242;  -64.050; -387.000; -374.000
245.385;  -13.825;  -59.000;  -39.000
245.528; -125.700; -871.000; -705.000
245.670;   86.975;  612.000;  634.000
245.813;  -81.925; -599.000; -547.000
245.956;  -30.175; -324.000; -275.000
246.098;  -86.575; -508.000; -650.000
246.241;    4.850;  194.000;   48.000
246.383;  -24.200; -119.000;  -73.000
246.526;  -73.575; -454.000; -525.000
246.669; -126.950; -889.000; -780.000
246.811;   13.850;  172.000;   -1.000
246.954;  -71.175; -512.000; -426.000
247.096;  -20.900;  -84.000;   -6.000
247.239;  -77.625; -482.000; -445.000
247.381;  -56.925; -647.000; -488.000
247.524;   80.400;  645.000;  679.000
247.666;  -12.925;   58.000;   11.000
247.809; -124.825; -887.000; -691.000
247.951;  -15.750;  -75.000;  138.000
248.094;   18.400;  432.000;  308.000
248.236; -154.050;-1262.000;-1238.000
248.378;  -10.700; -356.000;  -81.000
248.521;  -20.225; -334.000; -337.000
248.663;  -41.475; -236.000; -267.000
248.806;  -23.375; -300.000; -266.000
248.948;  -88.025; -886.000; -763.000
249.090;  -45.125; -428.000; -398.000
249.233;  -46.225; -344.000; -381.000
249.375;  -76.025; -474.000; -451.000
249.518;  -28.200;  -83.000; -133.000
249.660;    2.150; -103.000;    3.000
249.802; -174.225;-1303.000;-1189.000
249.945;  -68.300; -612.000; -540.000
250.087; -117.775; -834.000; -768.000
250.229;  -39.050; -362.000; -480.000
250.371;  -84.450; -494.000; -439.000
250.514;  -62.350; -310.000; -244.000
250.656;  -23.575;   69.000;  102.000
250.798; -119.200; -849.000; -800.000
250.940;  -83.675; -322.000; -322.000
251.083;  -22.550; -335.000; -111.000
251.225;   55.550;  338.000;  310.000
251.367;  -47.675; -274.000; -373.000
251.509;  -41.575; -265.000; -210.000
251.651;  -95.075; -731.000; -671.000
251.794;   79.450;  538.000;  632.000
251.936; -115.375; -821.000; -747.000
252.078;  -87.125; -540.000; -461.000
252.220;  -65.900; -645.000; -477.000
252.362;   87.825;  344.000;  462.000
252.504;  -61.650; -677.000; -584.000
252.646; -118.450; -875.000; -722.000
252.788;  -12.375;   14.000; -128.000
252.931;  -35.125; -257.000; -253.000
253.073;  -38.850; -376.000; -317.000
253.215;  -16.400;  141.000;  122.000
253.357;   -6.525;   82.000; -153.000
253.499;  -67.875; -374.000; -234.000
253.641;  -80.175; -749.000; -594.000
253.783; -106.450; -609.000; -527.000
253.925;  -87.600; -586.000; -591.000
254.067; -108.200; -744.000; -667.000
254.209;  -29.825; -391.000; -259.000
254.351; -131.125; -865.000; -883.000
254.493;  -65.550; -441.000; -417.000
254.635; -142.850; -936.000; -818.000
254.777;  -86.225; -752.000; -687.000
254.918;  -69.000; -512.000; -430.000
255.060;  -58.100; -551.000; -395.000
255.202;  -55.325; -473.000; -261.000
255.344;  -77.650; -658.000; -455.000
255.486;  -79.325; -471.000; -406.000
255.628; -104.175; -780.000; -781.000
255.770;  -97.075; -676.000; -536.000
255.912;  -51.800; -559.000; -468.000
256.053; -100.600; -730.000; -508.000
256.195;  146.800; 1008.000;  903.000
256.337; -110.500; -861.000; -595.000
256.479;   62.950;  532.000;  416.000
256.621;  -65.900; -394.000; -212.000
256.762; -100.425; -789.000; -742.000
256.904;   46.800;  485.000;  487.000
257.046;  -49.975; -381.000; -271.000
257.188;  -45.650; -351.000; -264.000
257.329;  -74.275; -525.000; -464.000
257.471; -125.000; -939.000; -807.000
257.613;  -68.100; -584.000; -498.000
257.755; -154.550;-1073.000; -982.000
257.896;   27.900;  286.000;  392.000
258.038;  -79.475; -403.000; -352.000
258.180;  -29.100; -354.000; -279.000
258.321;  -96.925; -581.000; -457.000
258.463;    3.600;  -71.000;  133.000
258.605;  -74.850; -562.000; -570.000
258.746; -117.500; -886.000; -772.000
258.888; -149.800;-1026.000;-1020.000
259.029;   15.625;  121.000;   -8.000
259.171;  -97.500; -614.000; -550.000
259.313;    6.475;  -49.000;  -47.000
259.454;  -89.825; -536.000; -414.000
259.596;  -53.950; -483.000; -390.000
259.737;  -83.525; -590.000; -474.000
259.879;   36.425;  217.000;  311.000
260.020;   85.625;  901.000;  636.000
260.162;  -24.175; -146.000; -253.000
260.303; -131.600; -768.000; -687.000
260.445;  -74.275; -609.000; -613.000
260.586;   37.300;  392.000;  157.000
260.728;  -44.300; -360.000; -248.000
260.869; -112.300; -350.000; -343.000
261.011;   66.850;  706.000;  537.000
261.152;  -66.300; -479.000; -319.000
261.293;  -88.050; -576.000; -595.000
261.435;  -40.700; -219.000; -184.000
261.576;  -59.975; -455.000; -325.000
261.718;   48.925;  420.000;  470.000
261.859; -132.025; -940.000; -949.000
262.000; -138.125; -951.000;-1016.000
262.142;  -20.175;  -52.000;  -60.000
262.283; -125.475; -808.000; -691.000
262.424;  -90.925; -666.000; -625.000
262.566; -167.525;-1161.000; -983.000
262.707; -127.800; -840.000; -830.000
262.848; -136.225; -769.000; -726.000
262.990;  -44.300; -362.000; -345.000
263.131;   73.700;  650.000;  681.000
263.272;   -4.350;  -61.000;  -41.000
263.413;  -84.400; -589.000; -561.000
263.555;  -66.700; -669.000; -143.000
263.696; -101.500; -550.000; -641.000
263.837;  -56.700; -449.000; -551.000
263.978;   -3.150;   -5.000;  -77.000
264.119;  -51.650; -283.000; -264.000
264.261; -129.075; -847.000; -630.000
264.402;   -2.950;   33.000;   40.000
264.543;  -85.375; -509.000; -524.000
264.684;   -4.675;   61.000;  -50.000
264.825;  -79.650; -816.000; -538.000
264.966;    5.675;  -84.000;  -67.000
265.107; -115.375; -646.000; -670.000
265.248; -125.400; -825.000; -812.000
265.390;  -11.025;  152.000;   -9.000
265.531;  -11.150; -238.000; -107.000
265.672;  -86.175; -557.000; -630.000
265.813;   69.825;  563.000;  439.000
265.954; -158.725; -959.000; -940.000
266.095;   -9.025; -372.000; -322.000
266.236; -106.575; -686.000; -548.000
266.377;  -47.675; -243.000; -297.000
266.518;  -80.725; -619.000; -547.000
266.659;   17.050;  170.000;  268.000
266.800;   -2.125;   83.000;   85.000
266.941;  -92.400; -487.000; -478.000
267.082;   32.475;  354.000;   99.000
267.223;  -55.950; -344.000; -273.000
267.364; -120.900; -892.000; -686.000
267.504;  -10.900;    3.000;  135.000
267.645;   -2.900;  160.000;   67.000
267.786;  -25.100; -147.000;  -86.000
267.927;  -79.225; -473.000; -379.000
268.068;   -3.750; -186.000;  -61.000
268.209;  -48.275; -175.000; -413.000
268.350;  -64.200; -388.000; -532.000
268.490; -106.775; -648.000; -521.000
268.631;   21.375;  127.000;  225.000
268.772; -117.350; -874.000; -647.000
268.913;  -52.150; -328.000; -476.000
269.054;  -15.600; -117.000;   12.000
269.194;  -43.400; -418.000; -402.000
269.335; -161.725;-1137.000;-1074.000
269.476;  -22.850;   33.000;  -35.000
269.617;  -50.775; -347.000; -392.000
269.757;  -91.225; -713.000; -646.000
269.898; -109.275; -856.000; -613.000
270.039;  -57.275; -415.000; -405.000
270.180; -139.650; -952.000; -816.000
270.320;  -23.875; -190.000; -250.000
270.461;  -25.825; -277.000; -249.000
270.602;  -16.075; -186.000; -156.000
270.742; -133.125; -868.000; -943.000
270.883;  -60.300; -442.000; -390.000
271.023;  -59.750; -358.000; -357.000
271.164;  -74.700; -607.000; -528.000
271.305; -107.200; -666.000; -654.000
271.445;  -94.975; -722.000; -683.000
271.586;  -64.400; -462.000; -283.000
271.726;  -59.800; -397.000; -322.000
271.867;  -66.625; -594.000; -534.000
272.008;  218.125; -473.000; -285.000
272.148;  134.700;  462.000;  468.000
272.289;   19.450; -113.000; -181.000
272.429;    8.000;   19.000;  185.000
272.570;  -92.250; -633.000; -737.000
272.710;  -94.300; -825.000; -775.000
272.851;  -15.250;  113.000; -130.000
272.991; -169.250;-1173.000;-1077.000
273.131;  -61.150; -419.000; -459.000
273.272; -100.950; -683.000; -723.000
273.412;   20.700; -143.000;  -31.000
273.553;  -56.625; -488.000; -507.000
273.693;  130.475;  913.000;  858.000
273.834;  -90.025; -894.000; -692.000
273.974;  -70.475; -664.000; -615.000
274.114;  -99.100; -772.000; -560.000
274.255;   83.525;  414.000;  373.000
274.395;   13.325; -180.000; -125.000
274.535;   54.025;  199.000;  350.000
274.676;   27.575;  225.000;   94.000
274.816;   -4.150;  110.000;   34.000
274.956;  -80.925; -624.000; -690.000
275.097;  -56.125;-1014.000; -922.000
275.237; -113.225; -913.000; -803.000
275.377; -100.675; -778.000; -689.000
275.517; -153.000; -878.000; -937.000
275.658;  -57.750; -590.000; -555.000
275.798;  -77.075; -606.000; -413.000
275.938;   26.750;  215.000;  323.000
276.078; -123.675; -626.000; -395.000
276.218;   10.850;   99.000;  104.000
276.359; -135.875;-1026.000;-1024.000
276.499;  -76.250; -605.000; -446.000
276.639;  -31.200; -305.000; -151.000
276.779;  -42.275; -475.000; -357.000
276.919; -105.600; -783.000; -624.000
277.059;  -24.800; -261.000; -212.000
277.199;  -35.350; -357.000; -259.000
277.340;   45.000;  287.000;  175.000
277.480; -115.275; -840.000; -693.000
277.620;   31.325;  192.000;   16.000
277.760; -193.075;-1533.000;-1294.000
277.900;   23.975;  113.000;   33.000
278.040;   26.275;  137.000;  159.000
278.180;   38.100;  270.000;  170.000
278.320;  -12.100;   21.000;   56.000
278.460;  -73.950; -443.000; -469.000
278.600;  -98.600; -708.000; -598.000
278.740;   47.275;  448.000;  224.000
278.880;  -32.525; -768.000; -791.000
279.020;   -1.000; -194.000; -144.000
279.160; -100.900; -672.000; -595.000
279.300; -120.275; -926.000; -873.000
279.440; -100.800; -709.000; -622.000
279.579;  -14.125;-1014.000; -929.000
279.719;  -50.775; -410.000; -394.000
279.859;   86.300;   -4.000;   41.000
279.999;   27.525; -208.000;  101.000
280.139;  -20.050; -435.000; -387.000
280.279;  -70.000; -708.000; -745.000
280.419;  -17.200; -229.000; -147.000
280.559;  -40.300; -259.000; -180.000
280.698;  -83.875; -790.000; -639.000
280.838;  -91.200; -778.000; -800.000
280.978; -100.600; -846.000; -790.000
281.118; -110.675; -811.000; -704.000
281.257;    4.475;   24.000;    6.000
281.397;  -95.450;-1094.000; -960.000
281.537;  -82.625; -599.000; -712.000
281.677;  -37.275; -150.000; -101.000
281.816;  -81.025; -700.000; -630.000
281.956;  -29.050; -193.000; -257.000
282.096;  -49.850; -539.000; -396.000
282.235; -115.250; -672.000; -638.000
282.375;  -19.400; -243.000;  -98.000
282.515; -112.625; -715.000; -707.000
282.654;   45.175;   29.000;  106.000
282.794;   32.575;  388.000;  244.000
282.934;  -47.600; -530.000; -491.000
283.073; -128.725;-1030.000; -857.000
283.213;  -46.825; -460.000; -467.000
283.353;  -41.625; -408.000; -349.000
283.492;  -23.925; -264.000; -296.000
283.632;  -44.175; -254.000; -168.000
283.771;  -91.275; -859.000; -730.000
283.911;  -55.025; -369.000; -260.000
284.050;  -97.800; -794.000; -748.000
284.190; -166.975;-1229.000;-1096.000
284.329; -143.675;-1055.000; -964.000
284.469;  -51.275; -516.000; -591.000
284.608;  -55.750; -559.000; -598.000
284.748;  -77.975; -614.000; -570.000
284.887;   -3.275;  -87.000;  -20.000
285.027; -128.000; -844.000; -892.000
285.166;  -20.125; -192.000; -249.000
285.306;   14.750; -116.000;  -33.000
285.445;  -32.200; -229.000; -343.000
285.584;  -99.650; -630.000; -494.000
285.724;  -48.925; -282.000; -322.000
285.863; -126.750; -857.000; -507.000
286.002;  -52.425; -366.000; -276.000
286.142; -121.225; -715.000; -622.000
286.281;  -80.300; -525.000; -493.000
286.420;  -74.900; -554.000; -417.000
286.560;   89.700;  653.000;  623.000
286.699; -147.625; -958.000; -912.000
286.838;  -78.700; -590.000; -591.000
286.978; -104.075; -533.000; -537.000
287.117; -130.975;-1085.000; -950.000
287.256;  -38.675; -228.000; -211.000
287.395;  -36.100; -197.000; -378.000
287.535;  -58.800; -370.000; -298.000
287.674;  -80.375; -509.000; -484.000
287.813;   74.525;  661.000;  533.000
287.952; -133.050;-1010.000; -871.000
288.091; -139.025;-1049.000; -915.000
288.231;   25.700;   13.000;   15.000
288.370; -169.550;-1217.000;-1200.000
288.509;  -94.950; -728.000; -645.000
288.648;  -89.600; -770.000; -548.000
288.787;  -23.475; -243.000;  -87.000
288.926;  -57.825; -454.000; -475.000
289.065;  109.625;  859.000;  672.000
289.204;  -54.675; -377.000; -217.000
289.344;  -81.900; -791.000; -690.000
289.483;   39.150;  416.000;  304.000
289.622;  -28.325; -291.000; -149.000
289.761;   -5.500; -309.000; -166.000
289.900;  -97.200; -785.000; -626.000
290.039;  -14.500;  -12.000;  -95.000
290.178;  -29.700; -274.000; -180.000
290.317;  -86.350; -618.000; -479.000
290.456;  -55.675; -463.000; -451.000
290.595; -143.800; -961.000; -833.000
290.734; -136.650; -904.000; -891.000
290.873;  -64.850; -456.000; -420.000
291.011; -111.300; -833.000; -843.000
291.150; -103.975; -770.000; -682.000
291.289;  -28.625; -343.000; -110.000
291.428;  -93.575; -599.000; -480.000
291.567;  -58.325; -370.000; -442.000
291.706;   -5.675;  109.000;  154.000
291.845;  -97.525; -597.000; -505.000
291.984; -168.750;-1234.000;-1061.000
292.122;   63.125;  602.000;  582.000
292.261;   30.675;  620.000;  463.000
292.400;    9.275; -144.000;  211.000
292.539; -129.850; -959.000; -813.000
292.678;  -42.250; -325.000; -300.000
292.816; -159.575;-1136.000; -965.000
292.955;  -77.900; -844.000; -684.000
293.094;  -15.300; -173.000; -337.000
293.233;  -66.500; -556.000; -400.000
293.371;  -27.775; -225.000;  -84.000
293.510; -107.525; -866.000; -780.000
293.649; -134.425; -959.000; -924.000
293.787;  -26.950;-1083.000;-1012.000
293.926;   -2.200; -113.000;  -32.000
294.065;  -28.400; -379.000; -290.000
294.203;   67.600;  298.000;  406.000
294.342;   28.325;   74.000;  156.000
294.481; 6258.450;51180.000; -836.000
294.619;  -22.150; -425.000; -582.000
294.758; -155.375;-1230.000;-1137.000
294.896;   95.650; -125.000;    5.000
295.035; -113.100;-1040.000;-1006.000
295.174; -121.250;-1082.000; -954.000
295.312;  -45.525; -323.000; -203.000
295.451;    0.975; -307.000; -428.000
295.589;  -57.150; -389.000; -518.000
295.728;   24.725; -292.000; -165.000
295.866;    0.175;  -36.000;  -51.000
296.005;  -54.250; -584.000; -341.000
296.143;  -56.175; -558.000; -596.000
296.282;  -88.525; -957.000; -881.000
296.420;  -85.500; -657.000; -557.000
296.559;  -72.475; -892.000; -633.000
296.697;   51.850; -847.000; -665.000
296.835;  117.275;-1141.000;-1002.000
296.974;   52.050;  -23.000;   39.000
297.112;   30.675; -443.000; -504.000
297.251;  -81.525; -815.000; -755.000
297.389;  132.075; -576.000; -438.000
297.527;   57.075; -145.000;  -83.000
297.666;  -45.400; -486.000; -438.000
297.804;  -58.175; -404.000; -264.000
297.942;  -14.300; -136.000; -161.000
298.081;   -1.425; -183.000;   63.000
298.219;   91.075;  -17.000;  -19.000
298.357;   56.850; -144.000;  -71.000
298.495;   58.925; -810.000; -812.000
298.634;  100.175;  245.000;  219.000
298.772;   92.250; -220.000; -338.000
298.910;  -23.675; -309.000; -182.000
299.048;   -4.650; -130.000; -153.000
299.187;  -26.125; -350.000; -250.000
299.325;   26.800;   52.000;  122.000
299.463;   94.775; -389.000; -299.000
299.601;  147.600; -327.000; -271.000
299.739;  -97.950; -908.000; -883.000
299.877;  -82.925; -791.000; -703.000
300.016;  -41.800;-1095.000; -935.000
300.154;  180.825;  -19.000; -161.000
300.292;   88.375; -428.000; -348.000
300.430;   56.675; -408.000; -291.000
300.568; -102.125; -940.000; -874.000
300.706;  -38.025; -366.000; -469.000
300.844;  -55.575;-1108.000; -979.000
300.982;  149.825;  246.000;  282.000
301.120;  -97.750; -965.000; -866.000
301.258;  -57.300; -812.000; -705.000
301.396;   48.175;  104.000;  -41.000
301.534;  124.650; -218.000; -293.000
301.672;   18.825; -664.000; -521.000
301.810;   73.450; -613.000; -545.000
301.948;  148.225;   53.000;  149.000
302.086;  750.525; -250.000;  -32.000
302.224; 1174.550; -610.000; -585.000
302.362;   73.375; -558.000; -622.000
302.500;   15.450; -923.000; -893.000
302.638;  148.125;  128.000;  245.000
302.776;    2.775; -352.000; -408.000
302.913;   56.750;  447.000;  236.000
303.051;    6.875;  -86.000;  -23.000
303.189;   64.375;   90.000;  118.000
303.327;  -48.575; -341.000; -256.000
303.465;  -76.475; -832.000; -588.000
303.603; -100.225; -805.000; -604.000
303.740;  117.600;  417.000;  241.000
303.878;   41.525; -800.000; -759.000
304.016;  -96.050; -915.000; -790.000
304.154; -116.300;-1123.000;-1152.000
304.291;  -33.075; -505.000; -554.000
304.429;   21.925;  102.000;   74.000
304.567; -124.750; -908.000; -893.000
304.705;  -49.800; -408.000; -515.000
304.842;  137.125; -616.000; -540.000
304.980;   55.600;  215.000;   35.000
305.118;   83.350; -367.000; -365.000
305.255;  -59.525; -945.000; -927.000
305.393;   66.700;  178.000;  239.000
305.531;  -89.100;-1173.000; -956.000
305.668;  -66.375; -663.000; -582.000
305.806;  114.775; -358.000; -439.000
305.943;  146.550; -629.000; -637.000
306.081;   73.975; -378.000; -267.000
306.219; -103.150; -863.000; -748.000
306.356;    3.650;  158.000;   27.000
306.494;  111.900;  981.000;  761.000
306.631;   14.075;  -11.000;  -55.000
306.769;   15.775; -613.000; -485.000
306.906;  -11.525; -284.000; -258.000
307.044;  -62.375; -473.000; -488.000
307.181;  -51.625; -410.000; -332.000
307.319;    6.100;  112.000;   87.000
307.456; -176.300;-1191.000;-1153.000
307.594;  -87.650; -980.000; -727.000
307.731;  -20.150; -371.000; -164.000
307.868;   -2.550;  -15.000;   20.000
308.006; -128.825; -961.000; -847.000
308.143;  -62.850; -618.000; -330.000
308.281;  139.525;  -37.000; -254.000
308.418;  -24.750; -748.000; -640.000
308.555;  -74.375; -400.000; -250.000
308.693;  -79.200; -577.000; -573.000
308.830; -114.850; -712.000; -657.000
308.967;  -12.750; -215.000;  -95.000
309.105;  -59.975; -507.000; -396.000
309.242;   18.825; -468.000; -367.000
309.379;  290.925; -577.000; -655.000
309.517;  -56.625; -936.000; -948.000
309.654; -102.500; -910.000; -734.000
309.791;  -75.625; -662.000; -580.000
309.928; -115.500; -977.000; -914.000
310.065;  202.300;  819.000;  697.000
310.203;   15.775; -825.000; -850.000
310.340;    5.975; -465.000; -321.000
310.477;  -78.700; -412.000; -516.000
310.614;  -64.475; -383.000; -473.000
310.751;  -85.325; -427.000; -518.000
310.889;  -15.800;    1.000;   11.000
311.026; -152.850;-1161.000; -939.000
311.163;  -44.900; -386.000; -380.000
311.300;  -81.300; -512.000; -479.000
311.437;  -74.125; -658.000; -619.000
311.574; -149.300;-1226.000; -985.000
311.711;  -61.325; -595.000; -433.000
311.848;  -35.175; -380.000; -388.000
311.985;   22.675;  270.000;   93.000
312.122; -120.000; -932.000; -762.000
312.259; -128.125; -941.000; -994.000
312.396;  -82.400; -508.000; -551.000
312.533;  -97.300; -812.000; -790.000
312.670; -148.100;-1070.000; -898.000
312.807;  -32.950; -352.000; -367.000
312.944;  -76.400; -513.000; -611.000
313.081;  -28.300; -150.000; -415.000
313.218;  -97.175;-1111.000; -867.000
313.355;   23.025; -531.000; -449.000
313.492;   24.725; -455.000; -292.000
313.629;  144.500;  815.000;  735.000
313.766; -171.575;-1176.000;-1008.000
313.902;  -11.500; -186.000;   21.000
314.039;  -42.200; -372.000; -289.000
314.176;   23.375;  286.000;  192.000
314.313;  -72.525; -569.000; -473.000
314.450;  -71.825; -788.000; -684.000
314.587;  -47.575; -468.000; -480.000
314.723;   11.925;  -78.000;  130.000
314.860;   54.475;  318.000;  332.000
314.997;   40.625;  223.000;  142.000
315.134;  -28.950; -385.000; -368.000
315.270;  -19.100; -480.000; -496.000
315.407; -109.150;-1094.000; -967.000
315.544;  -36.500; -657.000; -538.000
315.681;  -70.750; -681.000; -565.000
315.817;   36.450; -133.000; -176.000
315.954;   26.625; -613.000; -392.000
316.091; -129.250;-1045.000;-1023.000
316.227;  -12.650;  -71.000; -179.000
316.364;    1.775;   23.000;    6.000
316.500;  -45.250; -113.000; -300.000
316.637;  -45.575; -181.000; -302.000
316.774;  -90.675; -625.000; -358.000
316.910;  -93.425; -598.000; -629.000
317.047;  -77.225; -487.000; -351.000
317.183;  -51.250; -435.000; -566.000
317.320;  -23.000; -367.000; -321.000
317.456;  -85.325; -733.000; -805.000
317.593;  -91.675; -598.000; -641.000
317.729;    8.650;  168.000;  -67.000
317.866; -194.325;-1434.000;-1285.000
318.002;  -90.800; -708.000; -948.000
318.139;  -97.100; -883.000; -867.000
318.275;  -98.475;-1003.000; -738.000
318.412;  -72.900; -517.000; -336.000
318.548;  -14.600; -751.000; -720.000
318.685;  -84.725; -985.000; -888.000
318.821;  -95.900; -762.000; -735.000
318.957;  -20.500;   34.000;  -23.000
319.094;   40.000;  297.000;  154.000
319.230;  -44.525; -756.000; -742.000
319.367;  165.250; -471.000; -520.000
319.503;   71.325; -538.000; -436.000
319.639;  -80.325; -877.000; -793.000
319.775;  -45.675; -750.000; -685.000
319.912;  -43.125; -424.000; -519.000
320.048;  -70.825;-1184.000;-1184.000
320.184;   71.375;   59.000;   70.000
320.321;  -59.400; -497.000; -467.000
320.457;   61.700;  475.000;  662.000
320.593;  -70.000; -375.000; -382.000
320.729;  -89.800; -732.000; -734.000
320.866;  -79.525; -577.000; -635.000
321.002;  -68.475; -759.000; -809.000
321.138;   -9.725; -135.000; -211.000
321.274;   76.750; -148.000; -115.000
321.410;  -20.925; -585.000; -353.000
321.546;   -4.050;-1011.000; -911.000
321.683;   60.425;  400.000;  185.000
321.819;   17.700;  -48.000; -117.000
321.955; -106.125; -743.000; -722.000
322.091;  -35.525; -585.000; -540.000
322.227;   -5.300; -382.000; -202.000
322.363;  -14.950; -320.000; -215.000
322.499;  -42.950; -343.000; -331.000
322.635;  185.200;  636.000;  443.000
322.771;   21.850; -139.000;   12.000
322.907;  112.150;  129.000;  327.000
323.043;  -20.775; -115.000; -206.000
323.179;  -37.000; -394.000; -363.000
323.315;   51.500; -401.000; -371.000
323.451;  151.225; -328.000; -236.000
323.587;   58.350;  -60.000;  -77.000
323.723;   45.000; -682.000; -601.000
323.859;   -2.700; -258.000;  -76.000
323.995;  -39.725; -467.000; -409.000
324.131; -125.250; -967.000; -892.000
324.267;  -29.175; -254.000; -276.000
324.402; -126.475; -960.000; -983.000
324.538;   -1.375; -279.000; -104.000
324.674;   30.750;  164.000;   77.000
324.810;  178.425;  226.000;  308.000
324.946;   31.500; -810.000; -658.000
325.082;  -70.900; -568.000; -475.000
325.217;   -0.075;  -62.000;   16.000
325.353; -101.825; -764.000; -659.000
325.489;  -77.900; -540.000; -506.000
325.625;  -74.950; -579.000; -525.000
325.760;   51.975;  517.000;  376.000
325.896;  -36.800; -515.000; -702.000
326.032;  -48.500; -403.000; -352.000
326.168;  -71.200; -462.000; -369.000
326.303;  -62.125; -352.000; -461.000
326.439;   -8.850; -336.000; -276.000
326.575;   11.975; -190.000;  -29.000
326.710;   -2.700; -156.000;  -30.000
326.846;   -9.900;  146.000;  103.000
326.982; -100.425; -530.000; -548.000
327.117;  -77.275; -481.000; -442.000
327.253;  -94.125; -745.000; -742.000
327.388; -132.625;-1137.000;-1153.000
327.524;  -40.675; -811.000; -578.000
327.659;  -19.900;  -58.000;  -22.000
327.795;  -14.950;   69.000;   45.000
327.931; -106.000; -723.000; -499.000
328.066;  -37.100; -417.000; -276.000
328.202;   -4.925;   12.000; -129.000
328.337;  101.925;  957.000;  713.000
328.473;   21.575;  -12.000;  -74.000
328.608;  -19.875; -256.000; -267.000
328.743;  -79.625; -799.000; -664.000
328.879;   28.300;  214.000;  114.000
329.014;  -29.925; -102.000; -122.000
329.150;  -84.775; -358.000; -483.000
329.285;  -71.250; -465.000; -466.000
329.421;  -61.550; -548.000; -246.000
329.556;  -14.600;  -36.000;   85.000
329.691; -107.225; -633.000; -615.000
329.827;  -86.275; -626.000; -480.000
329.962;  -42.850;  131.000; -301.000
330.097; -101.350; -673.000; -585.000
330.233;  -46.125; -410.000; -223.000
330.368; -129.475; -839.000; -628.000
330.503;  -11.000;    3.000;   98.000
330.638;    6.400;  -93.000; -125.000
330.774;  -44.225; -609.000; -530.000
330.909;  -55.350; -434.000; -244.000
331.044;  -87.650; -714.000; -708.000
331.179; -188.200;-1217.000;-1109.000
331.315;   -1.825;   77.000;   20.000
331.450;   22.700;  157.000;  285.000
331.585;  -86.350; -805.000; -706.000
331.720;  -86.175; -510.000; -460.000
331.855;  -14.725;  -35.000; -102.000
331.990;  195.275;   62.000;  138.000
332.126;  111.850; -110.000;   71.000
332.261;  -16.625; -379.000; -265.000
332.396;   -2.525; -135.000; -242.000
332.531; -107.550;-1074.000;-1031.000
332.666;   21.025; -519.000; -363.000
332.801;  -96.750; -726.000; -807.000
332.936;  -14.650; -192.000; -122.000
333.071; -132.550; -870.000; -817.000
333.206;   26.550;  307.000;  379.000
333.341;   42.950;  344.000;  418.000
333.476;  -90.350; -627.000; -623.000
333.611;  -46.000; -251.000; -173.000
333.746;  -31.750; -381.000; -464.000
333.881;  -98.775; -973.000; -935.000
334.016; -118.350; -936.000; -917.000
334.151; -125.700; -746.000; -702.000
334.286;   35.925;  152.000;  186.000
334.421;  -13.725; -125.000; -178.000
334.556;  -66.900; -611.000; -567.000
334.690;  -85.475; -631.000; -577.000
334.825;   85.725;  381.000;   83.000
334.960;  -45.200; -285.000; -413.000
335.095;   19.375;  135.000;  -91.000
335.230;  -91.275; -722.000; -738.000
335.365; -125.650;-1084.000; -990.000
335.499; -131.175;-1108.000;-1037.000
335.634;   43.600;    9.000;  534.000
335.769;  -82.550; -755.000; -720.000
335.904;  -32.000; -603.000; -561.000
336.038;  -46.000; -735.000; -657.000
336.173; -100.800;-1206.000;-1194.000
336.308;   20.025; -116.000; -189.000
336.443;   12.200; -544.000; -634.000
336.577;  -70.175; -936.000; -787.000
336.712;   93.600;   -4.000;  -12.000
336.847;  -10.150; -724.000; -607.000
336.981;  124.800; -272.000; -208.000
337.116;  339.925;  615.000;  501.000
337.250;  212.400; -434.000; -421.000
337.385;  184.400; -297.000; -208.000
337.520;   45.950; -632.000; -603.000
337.654;  -37.775; -215.000; -126.000
337.789; -124.050; -989.000; -933.000
337.923;  -37.925; -104.000; -205.000
338.058;  -65.400; -673.000; -738.000
338.192;  -23.625; -611.000; -488.000
338.327;    0.050;  -18.000; -155.000
338.461;  -66.975; -299.000; -469.000
338.596;  -92.775; -780.000; -638.000
338.730; -117.925; -767.000; -803.000
338.865;   65.525;  -46.000; -140.000
338.999;  -67.825; -846.000; -702.000
339.134;  -36.100; -634.000; -536.000
339.268;   19.450; -741.000; -603.000
339.403;  323.350; -740.000; -775.000
339.537;   71.800; -894.000; -820.000
339.671; -122.325; -829.000; -813.000
339.806;  -64.525; -556.000; -512.000
339.940;   -6.425; -261.000; -235.000
340.074;  -94.350; -685.000; -510.000
340.209;  -46.850; -351.000; -230.000
340.343;  -87.025; -517.000; -573.000
340.477;  146.925;  998.000; 1036.000
340.612;  -80.950;-1033.000; -900.000
340.746;   82.300; -199.000; -243.000
340.880;  -69.000; -924.000; -785.000
341.014;  -20.875;  -45.000; -154.000
341.149; -116.650; -756.000; -718.000
341.283; -106.175; -839.000; -754.000
341.417;  -71.600;-1124.000; -938.000
341.551;  226.850; -768.000; -708.000
341.685;  -25.000; -633.000; -611.000
341.820;  -50.050; -562.000; -493.000
341.954;  -57.125; -218.000; -349.000
342.088; -145.525;-1102.000;-1019.000
342.222;   71.000;  565.000;  618.000
342.356;  -55.025; -395.000; -335.000
342.490;  -88.225; -880.000; -841.000
342.624;  -45.225; -339.000; -242.000
342.758;   24.800; -364.000; -312.000
342.892;  -48.875; -710.000; -585.000
343.026;  -30.100;  -58.000; -116.000
343.160;  -58.375; -426.000; -376.000
343.294;  -80.725; -474.000; -337.000
343.428;   -5.075; -488.000; -448.000
343.562;   -4.675; -172.000;  -23.000
343.696;  -13.275; -385.000; -314.000
343.830;  -12.500; -362.000; -356.000
343.964;   25.175; -231.000; -168.000
344.098; 1146.375;  199.000;   70.000
344.232;  965.925; -266.000; -127.000
344.366;   91.200; -567.000; -453.000
344.500;   95.000; -665.000; -744.000
344.634;   57.350; -324.000; -164.000
344.768;    6.400; -531.000; -341.000
344.902;   31.700;  278.000;  256.000
345.035;  -73.025; -556.000; -496.000
345.169; -145.325; -933.000; -656.000
345.303;    4.450; -308.000; -482.000
345.437;  -61.975; -826.000; -717.000
345.571;  -73.775; -675.000; -594.000
345.704;  -56.550; -309.000; -532.000
345.838;  -16.900; -331.000; -284.000
345.972;  -25.300; -543.000; -495.000
346.106;  139.525; -179.000; -190.000
346.239;  427.675; -312.000; -243.000
346.373;   21.925; -343.000; -302.000
346.507; -146.275; -950.000; -962.000
346.640;  192.450;  -30.000;   13.000
346.774;  -46.450; -650.000; -797.000
346.908;  -11.950; -138.000;  -11.000
347.041; -104.975; -646.000; -593.000
347.175;   12.525;  259.000;   27.000
347.309;  -67.100; -698.000; -628.000
347.442;  -95.925; -883.000; -732.000
347.576;  326.650;  670.000;  668.000
347.709;  261.550; -123.000;  -52.000
347.843;  -79.925; -933.000; -825.000
347.976;   40.325;  235.000;  294.000
348.110; -187.000;-1268.000;-1186.000
348.243; -111.850; -679.000; -772.000
348.377;   -1.125;  -26.000;   60.000
348.510;   57.050;  403.000;  540.000
348.644;  -34.775;  -37.000; -159.000
348.777;    6.925;  180.000;  191.000
348.911;  -46.050; -142.000; -112.000
349.044;  201.675;  471.000;  448.000
349.178;  223.800;-1069.000;-1006.000
349.311;  121.375;  141.000;  255.000
349.444;  -11.575; -927.000; -813.000
349.578;   -2.525; -347.000; -200.000
349.711;  -87.900; -959.000; -862.000
349.845;   20.425; -661.000; -591.000
349.978; -140.850;-1224.000;-1137.000
350.111;  -89.625; -546.000; -612.000
350.244;  -67.125; -596.000; -700.000
350.378;   11.200; -392.000; -393.000
350.511;  -62.200; -393.000; -426.000
350.644; -109.750; -808.000; -806.000
350.778;    2.725;  168.000;  104.000
350.911;   16.825;  134.000;  140.000
351.044;  -92.775; -685.000; -615.000
351.177;  -23.475; -321.000; -281.000
351.310;  -17.025;    3.000; -131.000
351.444;  -61.450; -888.000; -788.000
351.577;  152.400;  140.000;   90.000
351.710;  109.200;  593.000;  417.000
351.843;  -27.525; -165.000;  -77.000
351.976;   17.750;  149.000;  -79.000
352.109;  -82.300; -621.000; -612.000
352.242;   -2.625; -464.000; -419.000
352.376;  -37.825; -580.000; -636.000
352.509;  250.825; -437.000; -356.000
352.642;   46.800; -654.000; -604.000
352.775;   85.150; -141.000;  -98.000
352.908; -113.800; -933.000; -904.000
353.041;  -97.175; -814.000; -824.000
353.174;  -64.025; -551.000; -424.000
353.307;  -81.350; -753.000; -764.000
353.440;   65.300;  541.000;  453.000
353.573; -105.575; -957.000;-1008.000
353.706;  -59.700; -384.000; -558.000
353.839;  -12.275; -264.000; -220.000
353.971;  -95.450; -657.000; -512.000
354.104;  -67.600; -896.000; -835.000
354.237;  -29.025; -627.000; -662.000
354.370;  -67.075; -846.000; -879.000
354.503; -176.450;-1231.000;-1308.000
354.636;  -39.075; -529.000; -348.000
354.769; -130.350; -937.000; -860.000
354.902;   -7.750; -230.000; -139.000
355.034;  -14.725; -164.000; -220.000
355.167;  -19.050; -262.000; -162.000
355.300; -100.700;-1061.000; -880.000
355.433;  862.725;  -71.000;  -14.000
355.565; 1323.500; -402.000; -384.000
355.698;  342.875; -356.000; -296.000
355.831;    2.250; -882.000; -801.000
355.964;  123.275; -285.000; -170.000
356.096;  -87.850; -856.000; -843.000
356.229;   35.800; -523.000; -530.000
356.362;  271.350; -373.000; -266.000
356.494;  544.700; -229.000; -162.000
356.627;  575.725;  269.000;  377.000
356.760;  610.575;  120.000;   53.000
356.892;  813.550; -286.000; -601.000
357.025;  804.200;  403.000;  389.000
357.157;  757.425; -167.000; -179.000
357.290;  524.425; -856.000; -713.000
357.423;  158.025; -667.000; -556.000
357.555;  147.400; -217.000; -228.000
357.688;  173.300; -483.000; -364.000
357.820;  542.700; -870.000; -877.000
357.953; 4270.125; -563.000; -589.000
358.085;  991.550; -632.000; -612.000
358.218; 1621.475;-1131.000; -932.000
358.350;  289.400;  -58.000;  312.000
358.483; -113.925;-1300.000;-1187.000
358.615;   49.925;-1182.000;-1078.000
358.747;  -15.300;-1187.000;-1058.000
358.880;   57.475; -810.000; -744.000
359.012;   15.850; -376.000; -202.000
359.145;  -23.650; -480.000; -511.000
359.277;   80.750; -962.000; -913.000
359.409; 3568.350;  536.000;  231.000
359.542;  933.000; -738.000; -688.000
359.674;   87.475;   46.000;   13.000
359.806;  -68.675; -565.000; -438.000
359.939;  -47.375; -617.000; -516.000
360.071;  -41.225; -583.000; -579.000
360.203;  -15.125; -411.000; -364.000
360.335;   54.600;  164.000;  -16.000
360.468;  215.925; -249.000; -307.000
360.600; 2776.200; -547.000; -454.000
360.732; 2408.825; -546.000; -423.000
360.864;  323.800;-1216.000;-1044.000
360.996;  396.400; -516.000; -554.000
361.129;   66.400; -389.000; -598.000
361.261;   34.725;  110.000; -113.000
361.393;  -39.000; -252.000; -214.000
361.525;   27.100;   94.000;  244.000
361.657;  -39.925; -821.000; -703.000
361.789;   24.050; -139.000; -155.000
361.921;  337.550; -642.000; -593.000
362.053;  322.300;  524.000;  541.000
362.185;   58.000;  288.000;   72.000
362.318;  -59.400; -709.000; -705.000
362.450;  183.525;  294.000;  444.000
362.582;  238.675; -913.000; -870.000
362.714;  -20.950; -353.000; -332.000
362.846;  -79.825; -606.000; -490.000
362.978; -145.575; -941.000; -811.000
363.109;   81.450; -161.000; -260.000
363.241;  585.450; -739.000; -749.000
363.373;  378.050; -649.000; -564.000
363.505;  510.600; -186.000;  -91.000
363.637;  120.325; -787.000; -601.000
363.769; -123.750;-1067.000;-1080.000
363.901;  -61.900; -596.000; -654.000
364.033; -102.050;-1103.000;-1062.000
364.165;    9.825; -283.000; -283.000
364.296;   60.525; -316.000; -177.000
364.428;   40.050;-1344.000;-1220.000
364.560;  -68.625; -679.000; -661.000
364.692;  -54.750; -738.000; -835.000
364.824;  399.775; -588.000; -456.000
364.955;  449.425; -402.000; -564.000
365.087;  662.525;-1097.000; -852.000
365.219;   14.350; -686.000; -816.000
365.351;  -61.850; -526.000; -572.000
365.482;   68.025;  300.000;  240.000
365.614;  -48.125; -402.000; -314.000
365.746;  -98.600; -729.000; -752.000
365.877; -112.975; -706.000; -672.000
366.009;  220.600;  -35.000;  -62.000
366.141; -117.450;-1249.000;-1134.000
366.272; -116.225; -803.000; -719.000
366.404; -103.025;-1005.000; -874.000
366.535;   -1.775; -139.000;  -12.000
366.667; -102.925; -644.000; -649.000
366.799;   40.050;  353.000;  203.000
366.930; -109.650; -862.000; -996.000
367.062;  119.425; -639.000; -613.000
367.193;   96.750; -872.000; -842.000
367.325;  -58.900; -580.000; -684.000
367.456;  125.025; -246.000;   31.000
367.588;  157.375; -371.000; -318.000
367.719;   24.700;  -44.000;  -45.000
367.851;   -3.150; -222.000; -241.000
367.982;  -10.400; -875.000; -732.000
368.113;  163.275; -475.000; -358.000
368.245; -106.000; -960.000; -841.000
368.376;  -15.050; -254.000; -302.000
368.508;  -26.750; -188.000; -263.000
368.639; -117.650;-1166.000;-1034.000
368.770;   11.225; -670.000; -589.000
368.902;  -46.475; -836.000; -926.000
369.033;  -95.975; -906.000; -855.000
369.164;  -33.450; -720.000; -653.000
369.296; -124.350; -452.000; -601.000
369.427;    5.975; -209.000; -144.000
369.558;  -35.325; -593.000; -377.000
369.689;  -79.225; -721.000; -569.000
369.821; -138.300; -951.000; -845.000
369.952;  -16.750;   42.000; -108.000
370.083;  -50.525; -229.000; -108.000
370.214;  -76.600; -735.000; -650.000
370.345;    5.975;   65.000;   81.000
370.477;  -72.575; -810.000; -790.000
370.608;  310.275; -328.000; -264.000
370.739;  -22.275;-1233.000;-1292.000
370.870;  -14.150;-1102.000; -923.000
371.001;  125.075; -378.000; -467.000
371.132;  -60.425; -754.000; -735.000
371.263;    4.900;  -42.000; -148.000
371.394; -136.100; -841.000; -748.000
371.525;   40.200;  345.000;  225.000
371.657;  -86.350; -808.000; -670.000
371.788;  109.325;  103.000;  199.000
371.919;  236.900; -384.000; -304.000
372.050; 4508.075;  -91.000; -156.000
372.181; 1303.750; -188.000; -294.000
372.311;  494.350;   42.000; -127.000
372.442;   69.350; -457.000; -451.000
372.573;   -9.375; -444.000; -340.000
372.704; -118.300;-1008.000; -980.000
372.835;  122.075; -228.000; -289.000
372.966;  -45.525; -646.000; -554.000
373.097;  -63.100; -575.000; -711.000
373.228;  -25.200; -717.000; -542.000
373.359;  209.600; -824.000; -536.000
373.490; 1219.900; -881.000; -727.000
373.620; 1515.650;-1001.000; -803.000
373.751; 2300.250; -332.000; -396.000
373.882; 1030.350; -663.000; -733.000
374.013;  116.525; -449.000; -262.000
374.143;  -27.950; -581.000; -659.000
374.274;  -92.900; -987.000; -908.000
374.405;  203.725; -388.000; -276.000
374.536;  594.825; -526.000; -387.000
374.666; 1473.825; -759.000; -807.000
374.797;  317.975; -817.000; -868.000
374.928; 1149.625; -710.000; -560.000
375.058; 1168.300; -535.000; -500.000
375.189;  118.250;  -59.000;  -93.000
375.320;  -89.250; -928.000;-1034.000
375.450;  -30.825; -625.000; -616.000
375.581;  -48.825; -526.000; -436.000
375.712;  -21.075; -574.000; -250.000
375.842;  408.275; -438.000; -415.000
375.973;  321.050; -554.000; -513.000
376.103;  -21.500; -665.000; -648.000
376.234;  -81.725; -531.000; -552.000
376.364;    6.225; -944.000; -867.000
376.495;  393.300;  925.000;  529.000
376.625;   53.475; -472.000; -485.000
376.756;  111.900; -709.000; -678.000
376.886;  -48.500;-1178.000;-1026.000
377.017;   28.700;-1048.000;-1061.000
377.147;  243.475; -786.000; -782.000
377.278;   63.050;  174.000;  228.000
377.408; -132.600; -801.000; -815.000
377.538; -103.225; -707.000; -693.000
377.669;  -77.725; -537.000; -613.000
377.799;  -76.050; -645.000; -635.000
377.929;  -35.950; -610.000; -428.000
378.060; -127.125; -781.000; -847.000
378.190;  -69.900; -726.000; -531.000
378.320;  -42.025; -401.000; -406.000
378.451;  -10.750; -131.000;  -22.000
378.581;   -0.675;  -67.000; -110.000
378.711;  180.375; 1035.000;  866.000
378.841;    7.625; -533.000; -675.000
378.972;  -47.050; -871.000; -751.000
379.102;   37.850; -652.000; -579.000
379.232;   -2.800; -126.000;  -73.000
379.362; -106.100;-1001.000; -885.000
379.492;   45.325; -373.000; -424.000
379.623;  151.525;    0.000;  111.000
379.753;  -92.875;-1107.000; -974.000
379.883;  246.675;   59.000;  156.000
380.013;   43.600;-1081.000;-1017.000
380.143;  -84.550;-1097.000;-1056.000
380.273;  -91.925; -985.000; -861.000
380.403;   15.050; -344.000; -257.000
380.533;   -9.850; -651.000; -664.000
380.663;   88.300;  173.000;  128.000
380.793;  -70.850;-1027.000;-1074.000
380.923;   -9.850; -103.000;  -34.000
381.053;  -91.625; -613.000; -623.000
381.183;  -26.675; -106.000; -248.000
381.313;   76.100; -656.000; -470.000
381.443;   94.825; -692.000; -473.000
381.573;  297.125; -402.000; -409.000
381.703;  422.875;-1249.000;-1095.000
381.833; -107.500;-1454.000;-1336.000
381.963;  153.825; -134.000;  -87.000
382.093; 1693.650; -925.000; -909.000
382.223;  529.650; -713.000; -602.000
382.353;    4.700; -801.000; -608.000
382.482;  548.225;-1091.000; -964.000
382.612;  961.650; -872.000; -644.000
382.742;  523.100; -695.000; -622.000
382.872;  366.500; -565.000; -551.000
383.002;   94.075;  347.000; -132.000
383.131;    2.475; -226.000; -160.000
383.261;  -29.450; -706.000; -768.000
383.391;  287.925; -552.000; -377.000
383.521; 2647.175;  451.000;  263.000
383.650;  560.175; -947.000; -904.000
383.780;  -27.100; -783.000; -656.000
383.910;  109.500;  880.000;  802.000
384.039;   59.575; -794.000; -656.000
384.169;  311.275;-1205.000;-1017.000
384.299;   15.500; -650.000; -662.000
384.428;  -84.775; -764.000; -680.000
384.558;  -46.325; -308.000; -275.000
384.687;  -33.400; -414.000; -334.000
384.817;   28.450;   75.000;   -2.000
384.947;   50.400; -234.000; -141.000
385.076;  339.550;  982.000;  912.000
385.206;  128.700;  369.000;  480.000
385.335;   -6.875; -549.000; -417.000
385.465;  -72.375; -655.000; -663.000
385.594;  201.900;  -53.000;  -44.000
385.724;  589.500; -868.000; -838.000
385.853;  169.875; -296.000; -270.000
385.982; 1806.100; -743.000; -787.000
386.112; 2762.950;-1052.000; -871.000
386.241;  166.725; -307.000; -312.000
386.371;   35.650; -174.000;  -87.000
386.500;   26.050; -825.000; -789.000
386.629;   37.425; -874.000; -817.000
386.759;   73.350;  -43.000;   68.000
386.888;   15.000; -170.000; -250.000
387.017;  -62.250; -648.000; -620.000
387.147;  -80.750; -771.000; -798.000
387.276;   17.525; -410.000; -397.000
387.405;   41.250; -398.000; -342.000
387.535;  -25.575; -452.000; -361.000
387.664;  -68.225; -692.000; -620.000
387.793;  102.550; -198.000; -113.000
387.922;  686.800;  255.000;  200.000
388.052;   50.875; -576.000; -423.000
388.181;   71.725; -342.000; -472.000
388.310;   79.150; -889.000; -710.000
388.439;   -5.400; -749.000; -742.000
388.568;  239.800;  365.000;  244.000
388.697; 1412.200; -756.000; -653.000
388.826;  282.475; -768.000; -666.000
388.956;  108.400; -285.000; -307.000
389.085;  -27.825; -347.000; -287.000
389.214;  -86.300; -842.000; -872.000
389.343;  -49.975; -645.000; -413.000
389.472;  368.200;  126.000;  149.000
389.601;  497.125;   91.000;    0.000
389.730;   39.200; -568.000; -687.000
389.859;   74.250;  226.000;   46.000
389.988;  259.250; -423.000; -408.000
390.117;  197.650; -168.000; -146.000
390.246;   17.650; -331.000; -320.000
390.375;  183.150; -673.000; -626.000
390.504;  -52.800; -703.000; -621.000
390.633;  -85.025; -672.000; -726.000
390.761;  -46.775; -732.000; -645.000
390.890;   40.025;   -4.000; -130.000
391.019;   -2.475; -421.000; -441.000
391.148; -132.225; -826.000; -855.000
391.277;  -58.125; -576.000; -493.000
391.406;  -56.250; -821.000; -805.000
391.534;   22.150;  574.000; -301.000
391.663;  -41.400; -583.000; -645.000
391.792;  -63.350; -673.000; -701.000
391.921;  166.750;   -3.000;   15.000
392.050;  289.825; -287.000; -228.000
392.178;   -5.800;-1206.000;-1061.000
392.307;  234.725; -758.000; -712.000
392.436;  122.350; -427.000; -641.000
392.564;   34.625;  166.000;   -6.000
392.693;  -82.825; -860.000; -682.000
392.822;  311.475; -529.000; -534.000
392.950;  147.325; -880.000; -714.000
393.079;  453.900; -188.000; -328.000
393.208;   45.675; -488.000; -511.000
393.336;  -14.150; -170.000; -145.000
393.465;  -39.750; -317.000; -199.000
393.593;    7.425;   62.000;   79.000
393.722; -146.700;-1121.000; -916.000
393.850;  -36.600; -188.000;  -61.000
393.979; -156.675; -926.000; -805.000
394.107;  -71.100; -517.000; -537.000
394.236;   -5.750; -570.000; -507.000
394.364;  221.975;  383.000;  206.000
394.493;  337.650; -911.000; -767.000
394.621;  -21.050; -955.000; -916.000
394.750;  596.125; -873.000; -923.000
394.878; 2574.175; -247.000; -149.000
395.007; 3421.975; -721.000; -807.000
395.135;  248.975; -790.000; -721.000
395.263;  -98.500;-1038.000;-1040.000
395.392;   -4.125;  -25.000; -107.000
395.520; -138.825; -818.000; -679.000
395.648;  -86.775; -865.000; -915.000
395.777;    3.625; -366.000; -405.000
395.905;  -55.625; -449.000; -564.000
396.033;   15.375;  217.000;  172.000
396.162;  544.425; -399.000; -453.000
396.290;  487.275;  -17.000;   -2.000
396.418;  147.450; -555.000; -514.000
396.546;  -73.275; -571.000; -466.000
396.674;  -95.700; -850.000; -878.000
396.803;   16.825;  -72.000;  -23.000
396.931;  138.800; -179.000; -199.000
397.059;  142.125;-1026.000; -989.000
397.187;  -98.200;-1026.000; -975.000
397.315; -132.275; -884.000; -649.000
397.443;  -87.750; -592.000; -443.000
397.572;  -97.925; -578.000; -424.000
397.700;   13.225; -607.000; -614.000
397.828;    6.300;  120.000;  -90.000
397.956;  -38.500; -508.000; -478.000
398.084;  -76.600; -767.000; -626.000
398.212;   39.700;  137.000;  124.000
398.340;   11.925;  -56.000;  159.000
398.468;   67.575; -390.000; -169.000
398.596; -124.875; -993.000; -953.000
398.724; -121.900; -762.000; -767.000
398.852; -165.725;-1024.000; -976.000
398.980;  -50.550; -560.000; -560.000
399.108;  -40.175; -982.000; -735.000
399.236;   51.325;   13.000;    8.000
399.363;   14.925;  222.000;  196.000
399.491;  -67.725; -404.000; -398.000
399.619; -122.150; -829.000; -800.000
399.747;  -97.075; -859.000; -771.000
399.875;   80.550;  220.000;  234.000
400.003;  -54.825; -359.000; -284.000
400.130;  -91.200; -421.000; -341.000
400.258;  -23.825;  -83.000;   38.000
400.386;  -70.800; -352.000; -168.000
400.514;  -27.250; -526.000; -587.000
400.641;  -79.425; -928.000; -802.000
400.769; -149.725; -979.000; -888.000
400.897;  -96.300; -838.000; -793.000
401.025;   -6.000; -166.000; -152.000
401.152;   -6.750;  220.000;   38.000
401.280;  -84.625; -430.000; -429.000
401.408; -106.500; -712.000; -576.000
401.535;  -93.825; -735.000; -758.000
401.663; -194.775;-1134.000;-1054.000
401.790;  -77.625; -514.000; -525.000
401.918;   44.750;  436.000;  405.000
402.046;  -22.650;  134.000;  122.000
402.173;  -43.700;  -18.000;    7.000
402.301;  -65.050; -519.000; -397.000
402.428;   42.350;  528.000;  383.000
402.556; -138.900;-1188.000; -913.000
402.683;  -31.350;  -20.000;   -1.000
402.811;  -13.325;  -37.000; -206.000
402.938;  -12.400;   20.000;   27.000
403.066;  280.975; -574.000; -558.000
403.193;  445.550;  299.000;  239.000
403.321;  359.250; -396.000; -574.000
403.448;  423.675;   83.000;   27.000
403.575;  192.225;  -90.000;  -46.000
403.703;  -98.225; -732.000; -557.000
403.830;  -67.575; -531.000; -496.000
403.957; -153.900;-1117.000;-1023.000
404.085;    5.775;  -61.000; -172.000
404.212;  124.775;  -50.000;   63.000
404.339;  229.225; -566.000; -306.000
404.467; 5046.475; -612.000; -524.000
404.594; 3611.925; -287.000; -227.000
404.721;  966.900; -869.000; -764.000
404.848;  100.225; -113.000; -202.000
404.976; -104.600; -856.000; -783.000
405.103;   -3.850;  -14.000;  -82.000
405.230;  -18.625;  190.000;  226.000
405.357;   17.300;  117.000;   44.000
405.484;  220.175;  -49.000;    5.000
405.612;   27.275; -548.000; -563.000
405.739;  -54.575; -488.000; -243.000
405.866;  100.075;  669.000;  385.000
405.993;  -33.550; -398.000; -102.000
406.120; -134.500; -801.000; -887.000
406.247;  -53.425; -323.000; -342.000
406.374;  588.025;  540.000;  629.000
406.501;  190.750; -632.000; -702.000
406.628;  -75.500; -621.000; -589.000
406.755;  -92.350; -803.000; -620.000
406.882;  -35.200; -228.000; -277.000
407.009; -101.825; -719.000; -628.000
407.136;   84.975; -480.000; -401.000
407.263;  223.225; -939.000; -829.000
407.390;  -66.250; -692.000; -614.000
407.517; -171.600;-1139.000;-1187.000
407.644;  -50.800; -332.000; -256.000
407.771;  -81.500; -249.000; -287.000
407.898;   10.400;  168.000;  328.000
408.025;  -56.375; -421.000; -313.000
408.151;   -3.500;   82.000;  153.000
408.278;  -65.700; -267.000; -216.000
408.405; -112.950; -931.000; -899.000
408.532;  -75.950; -549.000; -542.000
408.659; -129.450; -677.000; -648.000
408.785; -206.350;-1298.000;-1170.000
408.912;  -76.375; -412.000; -296.000
409.039; -118.525; -610.000; -686.000
409.166; -105.925; -591.000; -555.000
409.292; -109.775; -571.000; -534.000
409.419; -116.475; -665.000; -649.000
409.546; -103.100; -431.000; -192.000
409.672; -106.950; -713.000; -545.000
409.799;  -30.800;  -36.000;   34.000
409.926;  -38.525; -180.000; -179.000
410.052; -189.000;-1127.000;-1091.000
410.179;  -57.525; -368.000; -392.000
410.305;  -98.700; -375.000; -493.000
410.432;  -35.775; -220.000; -333.000
410.558;  -82.075; -305.000; -380.000
410.685; -123.950; -688.000; -431.000
410.812; -103.750; -409.000; -588.000
410.938; -132.000; -964.000; -808.000
411.065; -112.075; -671.000; -645.000
411.191;  -19.375; -189.000; -174.000
411.317; -115.125; -823.000; -742.000
411.444;  -67.450; -317.000; -246.000
411.570;  -71.425; -339.000; -294.000
411.697; -121.425; -758.000; -752.000
411.823; -161.600; -989.000; -999.000
411.949;  -28.925;  -56.000;   17.000
412.076; -103.925; -539.000; -519.000
412.202; -117.650; -758.000; -757.000
412.329; -131.500; -798.000; -752.000
412.455; -119.225; -821.000; -657.000
412.581;  -31.200;  -15.000;  172.000
412.707;  -49.925; -540.000; -457.000
412.834;   20.825;  156.000;  219.000
412.960;  -82.925; -785.000; -784.000
413.086;  -99.950; -743.000; -701.000
413.212;  195.125;  604.000;  578.000
413.339;  -58.175; -685.000; -701.000
413.465;   36.400; -364.000; -310.000
413.591;  -83.550; -757.000; -474.000
413.717;  -64.825; -358.000; -366.000
413.843; -145.700; -839.000; -861.000
413.969;  -68.025;  -47.000; -292.000
414.096; -102.600; -679.000; -679.000
414.222;  -17.075;  -33.000;   85.000
414.348;  -12.925; -652.000; -385.000
414.474;  134.700;   38.000;  -52.000
414.600;  -13.075; -126.000; -144.000
414.726;  -20.350;  -96.000;  -55.000
414.852;  -73.975; -365.000; -342.000
414.978;   24.950;  104.000;  -18.000
415.104;   32.800;   38.000;   80.000
415.230;   28.350; -329.000; -330.000
415.356;   39.875; -409.000; -514.000
415.482;  201.575;   13.000;  -35.000
415.608;  245.075; -247.000; -323.000
415.734;  936.125;   67.000;   38.000
415.860;18693.950; -875.000; -767.000
415.986;13074.800; -685.000; -607.000
416.111; 1078.975; -798.000; -652.000
416.237;  209.900; -424.000; -571.000
416.363;  995.900; -765.000; -733.000
416.489; 3628.200; -324.000; -251.000
416.615;  344.625; -707.000; -742.000
416.741;  -44.175; -677.000; -784.000
416.866; -105.250; -673.000; -736.000
416.992; -121.875; -801.000; -818.000
417.118;  -34.975;  -41.000;  -80.000
417.244;  -54.750; -798.000; -531.000
417.369;  -76.875; -801.000; -612.000
417.495;   -1.275; -325.000; -254.000
417.621;  -65.750;-1015.000; -803.000
417.746;   -0.425; -579.000; -572.000
417.872;   27.025; -254.000; -144.000
417.998;   36.425; -515.000; -530.000
418.123;  927.000;-1073.000; -845.000
418.249; 4740.975; -512.000; -601.000
418.374;  600.150; -916.000; -824.000
418.500;   90.200; -383.000; -482.000
418.626;   98.650;   70.000;  -59.000
418.751;  105.425; -549.000; -448.000
418.877;  171.675; -637.000; -643.000
419.002; 1639.250; -688.000; -560.000
419.128;11015.475; -930.000; -721.000
419.253; 2597.075; -967.000; -837.000
419.379;  306.350; -391.000; -338.000
419.504;  349.425;  325.000;  415.000
419.629;  441.525; -393.000; -212.000
419.755; 3069.600; -317.000; -254.000
419.880;17727.775;  -98.000;   67.000
420.006;10092.100; -280.000; -221.000
420.131;26147.275; -662.000; -775.000
420.256; 3670.050; -315.000; -316.000
420.382;  483.475; -665.000; -687.000
420.507;   52.200; -649.000; -778.000
420.632;  177.675; -337.000; -339.000
420.758;  375.725; -251.000; -425.000
420.883;  -66.150; -876.000; -672.000
421.008;  -95.250; -775.000; -619.000
421.133;  -88.400; -509.000; -467.000
421.259;  -63.600; -325.000; -259.000
421.384; -103.100; -834.000; -693.000
421.509;   -6.325;-1052.000; -862.000
421.634; 1696.300; -936.000; -820.000
421.759;  709.300; -359.000; -327.000
421.885;  -38.275; -717.000; -656.000
422.010;  -74.500; -673.000; -542.000
422.135; -140.475; -695.000; -727.000
422.260;   42.900;  340.000;  280.000
422.385;  -46.975;   12.000;  -98.000
422.510;    5.200;  151.000;  -26.000
422.635;   26.425;  -87.000;  -43.000
422.760;  104.475; -766.000; -791.000
422.885;   50.350;  -57.000;  -80.000
423.010;  -25.325; -112.000; -169.000
423.135;  -95.800; -481.000; -561.000
423.260;    6.275; -150.000; -245.000
423.385;   87.850;  476.000;  222.000
423.510;   55.550;   71.000;  -22.000
423.635;   90.375;  133.000;   45.000
423.760;   54.975;  383.000;  328.000
423.885;   53.700;  336.000;  391.000
424.010;    9.550;  -68.000;  -13.000
424.135;  -29.475;    5.000;  -33.000
424.259;  -92.975; -654.000; -457.000
424.384;  -67.075; -279.000; -272.000
424.509;  -26.950; -260.000; -186.000
424.634; -100.725; -761.000; -623.000
424.759;  -30.750; -688.000; -544.000
424.883;  -23.150; -506.000; -527.000
425.008;  152.925; -502.000; -410.000
425.133; 1778.400; -679.000; -653.000
425.258;  788.325; -517.000; -381.000
425.382; 1273.350; -867.000; -774.000
425.507; 3191.300; -487.000; -543.000
425.632;  462.825; -802.000; -663.000
425.756;  405.200; -256.000; -146.000
425.881; 5484.750; -831.000; -857.000
426.006;14100.675; -604.000; -355.000
426.130; 2238.650; -696.000; -508.000
426.255;  290.900; -611.000; -491.000
426.379;  123.975; -189.000; -577.000
426.504;  350.275;  660.000;  544.000
426.629; 3806.875; -519.000; -466.000
426.753; 2515.225;   64.000;  -46.000
426.878;  263.275; -252.000; -288.000
427.002;  154.025; -651.000; -668.000
427.127; 1481.200;  -35.000; -158.000
427.251;10096.875;  372.000;  401.000
427.375; 2818.975; -191.000; -173.000
427.500; 2744.875; -616.000; -610.000
427.624;  923.725; -234.000; -400.000
427.749;  117.600; -216.000; -225.000
427.873;  -35.075; -499.000; -412.000
427.997;  -40.275; -222.000; -230.000
428.122;   77.100;  795.000;  703.000
428.246;   79.400;  433.000;  434.000
428.371; -132.025; -869.000; -773.000
428.495;  -92.150; -624.000; -646.000
428.619;  -36.525; -186.000; -117.000
428.743;   26.450;   65.000;  132.000
428.868;   49.775; -732.000; -643.000
428.992; 1776.450; -219.000; -326.000
429.116;  722.675; -329.000; -357.000
429.240;  349.425;  419.000;  426.000
429.365;  -15.600; -454.000; -574.000
429.489;  -27.100; -638.000; -647.000
429.613;   22.475; -236.000; -177.000
429.737;   53.200; -563.000; -432.000
429.861;  259.300; -247.000; -133.000
429.985; 5075.150; -425.000; -305.000
430.109; 5349.575; -770.000; -908.000
430.234;  609.675;   76.000;  -50.000
430.358;   37.675; -250.000; -160.000
430.482;  -73.975; -672.000; -564.000
430.606;  -73.425; -655.000; -375.000
430.730;   45.350; -437.000; -388.000
430.854;  210.775; -909.000; -835.000
430.978;  -55.425; -795.000; -764.000
431.102;  -75.825; -499.000; -422.000
431.226; -108.800; -874.000; -815.000
431.350;   40.100;  345.000;  422.000
431.474;  -66.425; -661.000; -373.000
431.597; -138.250;-1060.000; -848.000
431.721;  -79.125; -276.000; -267.000
431.845; -143.100; -704.000; -472.000
431.969;  -82.350; -304.000; -349.000
432.093;  -90.575; -395.000; -317.000
432.217;   -7.225;   32.000;   82.000
432.341;  -86.025; -523.000; -518.000
432.464;    7.800;   96.000;   40.000
432.588;  300.025; -401.000; -329.000
432.712;  130.275;  -52.000;  -52.000
432.836;   39.300;  213.000;  263.000
432.959;  -25.575; -372.000; -311.000
433.083;   61.850;   11.000;    2.000
433.207;  353.900;  285.000;  930.000
433.330; 4437.925; -391.000; -200.000
433.454; 5313.725; -654.000; -638.000
433.578; 3157.925;  583.000;  278.000
433.701;  589.650; -623.000; -675.000
433.825;  191.700; -292.000; -299.000
433.949;  268.275;   28.000;  -72.000
434.072;  111.150; -410.000; -323.000
434.196;   -6.650; -309.000; -117.000
434.319; 3807.975;25482.000;25124.000
434.443;  771.725; -656.000; -603.000
434.566; 2343.800;  281.000;   62.000
434.690;  352.750; -637.000; -383.000
434.813;   37.525; -251.000; -173.000
434.937;  -76.175; -569.000; -696.000
435.060;  -29.050; -423.000; -332.000
435.184;  516.025; -492.000; -217.000
435.307;  254.225;  159.000;  102.000
435.431;   -4.600;  -40.000;   24.000
435.554;  -93.075; -399.000; -240.000
435.677;  -82.700; -350.000; -258.000
435.801;  -59.700;  -25.000;   49.000
435.924;   10.500;    1.000;  -67.000
436.048;  -95.525;-1019.000; -732.000
436.171;  -61.625; -240.000;  -66.000
436.294;  -41.850; -248.000; -229.000
436.417;   65.975; -963.000; -849.000
436.541;  -98.550; -814.000; -840.000
436.664;  -59.800; -242.000; -316.000
436.787;  -35.425;   13.000;  113.000
436.910; -111.350; -792.000; -422.000
437.034;   15.525;  142.000;  143.000
437.157;   96.625;  -11.000;    0.000
437.280;  -33.025; -392.000; -292.000
437.403;  -45.175; -982.000; -869.000
437.526;  994.025; -903.000; -865.000
437.649; 3359.575; -505.000; -332.000
437.772;  514.625; -692.000; -540.000
437.896;  151.450;  700.000;  544.000
438.019;  -87.075; -758.000; -503.000
438.142;  -73.350; -596.000; -506.000
438.265;   14.375; -639.000; -670.000
438.388;  791.325; -520.000; -410.000
438.511;  162.825; -597.000; -394.000
438.634;  -31.525; -247.000; -125.000
438.757; -139.450; -693.000; -619.000
438.880;  -23.825;  -34.000;  -57.000
439.003;  -85.575; -417.000; -437.000
439.126;  -67.300; -287.000; -167.000
439.248;  -75.700;  -98.000; -139.000
439.371;  -55.800;    9.000;  -53.000
439.494;   24.825;  510.000;  439.000
439.617;  -58.850;   65.000;  -88.000
439.740; -183.000; -968.000; -816.000
439.863; -154.100; -755.000; -595.000
439.986; -128.900; -476.000; -431.000
440.108;  -45.400; -161.000; -112.000
440.231; -169.075; -950.000; -836.000
440.354;  -32.200;  -64.000; -150.000
440.477;   84.125; -566.000; -542.000
440.599;   25.625; -200.000; -225.000
440.722; -130.875; -709.000; -586.000
440.845;   71.575;  751.000;  928.000
440.968; -111.100; -415.000; -311.000
441.090;  -74.250; -199.000;  -33.000
441.213; -181.000;-1021.000; -825.000
441.336;  -59.100; -159.000;   -5.000
441.458;  -90.200; -549.000; -396.000
441.581;  -75.250; -628.000; -629.000
441.703;  -72.425; -152.000;   13.000
441.826; -112.700; -557.000; -400.000
441.948;  -55.600;   56.000;   51.000
442.071;   23.325;  555.000;  424.000
442.193; -118.800; -531.000; -485.000
442.316;   15.400;  152.000;   97.000
442.438;   39.675; -233.000;  -10.000
442.561;   84.025;  272.000;  262.000
442.683;  824.525; -809.000; -522.000
442.806; 1665.550;   -8.000;   74.000
442.928;   85.050; -859.000; -604.000
443.051;  -52.800; -577.000; -373.000
443.173;  -87.850; -341.000; -339.000
443.295;  -88.550; -263.000; -371.000
443.418;  -72.000; -321.000;  -29.000
443.540;    3.700; -106.000;   -4.000
443.662; -128.650; -563.000; -465.000
443.785;  -18.225;  335.000;  199.000
443.907; -114.450; -362.000; -208.000
444.029; -148.750; -767.000; -494.000
444.152; -163.825; -644.000; -554.000
444.274;  -39.300;  -18.000;  -24.000
444.396; -122.100; -461.000; -221.000
444.518; -136.400; -691.000; -454.000
444.640; -107.525; -268.000; -111.000
444.763;  -22.550;  388.000;  249.000
444.885; -139.275; -432.000; -392.000
445.007;  -30.150;   35.000;   86.000
445.129; -120.975; -610.000; -515.000
445.251;  -91.525; -372.000; -439.000
445.373; -129.800; -537.000; -386.000
445.495;   -5.625;  242.000;  350.000
445.617;   49.750;  853.000;  753.000
445.739;  -70.775; -215.000;  -97.000
445.861;  -24.425; -245.000; -112.000
445.984;  -24.000; -267.000; -101.000
446.105;  295.775; -418.000; -251.000
446.227;  842.400; -176.000;  -19.000
446.349;   37.075; -358.000; -249.000
446.471;  -92.675; -615.000; -448.000
446.593;  -71.825; -316.000;   19.000
446.715;    1.550;  -67.000;   41.000
446.837;   60.425;  697.000;  832.000
446.959; -102.150; -457.000; -478.000
447.081; -129.975; -628.000; -518.000
447.203;   60.025;  862.000;  834.000
447.325;  -84.500; -270.000;   42.000
447.446;  -13.500;  286.000;  530.000
447.568; -157.900; -921.000; -803.000
447.690;  -72.025; -236.000; -245.000
447.812; -155.150; -798.000; -519.000
447.933;  -41.900;  155.000;  127.000
448.055;  -79.075; -306.000; -261.000
448.177;  198.050;   31.000;   79.000
448.299;  155.400; -935.000; -727.000
448.420;   32.625;  -25.000;  159.000
448.542;  -51.025;   -3.000;   33.000
448.664;  -26.750;  109.000;  322.000
448.785;  -58.425;  265.000;   83.000
448.907;  -73.225; -614.000; -353.000
449.028;  -26.200; -771.000; -471.000
449.150;   57.950;  492.000;  589.000
449.272; -182.700;-1044.000; -913.000
449.393;   10.525;  612.000;  694.000
449.515; -148.925; -634.000; -581.000
449.636;  -57.475; -264.000; -155.000
449.758;   81.150;  763.000;  622.000
449.879; -100.150; -498.000; -396.000
450.001;  -91.425; -149.000;  -49.000
450.122;  -25.425;  -95.000;  162.000
450.244;  -35.600;   37.000;  364.000
450.365;  -98.275; -495.000; -301.000
450.486;  -46.275;   80.000;  268.000
450.608;    3.900;  393.000;  326.000
450.729;   63.625;  578.000;  645.000
450.850;  -13.750; -574.000; -466.000
450.972;  620.325; -552.000; -389.000
451.093; 4166.900;  190.000;  588.000
451.214; 1709.400; -516.000; -337.000
451.336;  311.150;  773.000;  579.000
451.457;   29.525;  264.000;  393.000
451.578;  -43.050; -118.000;  -74.000
451.699; -121.025; -546.000; -540.000
451.821;  -63.875; -284.000;  -50.000
451.942;   -2.800;  278.000;  285.000
452.063;   22.975;  228.000;  419.000
452.184;  485.950;  -54.000;  -49.000
452.305;  963.875;  103.000;  170.000
452.427;   75.400; -549.000; -301.000
452.548;  -33.625;   23.000;   79.000
452.669;  -51.725; -257.000;  -89.000
452.790;  -49.225;    3.000;  -18.000
452.911;    0.425;  195.000;  259.000
453.032;  -65.000; -289.000;  -60.000
453.153;  -48.975;  -29.000;   81.000
453.274;   53.600;  737.000;  868.000
453.395;  -58.475;  -51.000;  175.000
453.516;  130.775; 1317.000; 1388.000
453.637;  -60.450; -205.000; -150.000
453.758;  -53.225;   15.000;   69.000
453.879; -123.575; -462.000; -250.000
454.000;   87.575; 1086.000;  948.000
454.121; -122.950; -554.000; -326.000
454.242; -123.350; -599.000; -383.000
454.362;  -58.300;  -99.000;  114.000
454.483;  -44.450; -309.000; -229.000
454.604;   73.925;  512.000;  580.000
454.725; -129.700; -627.000; -555.000
454.846; -132.700; -474.000; -406.000
454.967;  -28.575;  230.000;  539.000
455.087;  -56.300;  179.000;  153.000
455.208;   14.775;  554.000;  856.000
455.329;  -74.925;  -22.000;   82.000
455.450;   24.275;  473.000;  633.000
455.570;  -90.475; -234.000; -211.000
455.691;  -40.425;  201.000;  407.000
455.812; -112.275; -270.000;  -92.000
455.932;  -70.825;  107.000;  -97.000
456.053;  -88.400;   36.000;   24.000
456.173; -113.900; -433.000; -355.000
456.294; -146.025; -476.000; -303.000
456.415;  -69.500;  -73.000;   70.000
456.535;  -43.775;  297.000;  273.000
456.656;  -49.775;  132.000;  240.000
456.776;  -76.050;    3.000;  298.000
456.897;   -6.725;  308.000;  513.000
457.017;  -68.350; -153.000;   -3.000
457.138; -114.600; -402.000; -249.000
457.258;  -30.600;  263.000;  224.000
457.379;  -20.100;  509.000;  521.000
457.499;  -33.525;  443.000;  432.000
457.620; -124.500; -407.000; -231.000
457.740; -109.275; -132.000;  -11.000
457.860;  -52.775;   87.000;   44.000
457.981;  -50.525;  132.000;  124.000
458.101;  -79.875;  -89.000;   40.000
458.221;  -21.675;  336.000;  402.000
458.342;  -74.650;   -4.000;  -37.000
458.462;   -0.725;  617.000;  352.000
458.582;  -52.500; -302.000; -294.000
458.703;  -19.500;  303.000;  154.000
458.823;  -43.775;   22.000;  163.000
458.943;   13.075;  341.000;  467.000
459.063;  -20.300; 1124.000;  192.000
459.183;  -26.750;  328.000;  313.000
459.304;   -5.800;  315.000;  517.000
459.424;  -80.075; -246.000;  -89.000
459.544;  298.200;  388.000;  764.000
459.664;  727.650;  499.000;  506.000
459.784;  287.450; 1004.000; 1175.000
459.904;   43.900;  867.000;  744.000
460.024;   77.700;  867.000;  684.000
460.144;    3.500;  449.000;  554.000
460.264;    1.050;  515.000;  327.000
460.385; -101.000; -145.000; -119.000
460.505;   20.500;  905.000;  858.000
460.625; -108.250;  -17.000;  -68.000
460.745;  -27.950;  396.000;  541.000
460.864;  -60.625;  153.000;  469.000
460.984;   11.775;  499.000;  573.000
461.104;  125.325; 1656.000; 1775.000
461.224;   17.275;  657.000;  650.000
461.344;  -31.175;  431.000;  360.000
461.464;  -33.600;  258.000;  513.000
461.584;  -19.200;  283.000;  466.000
461.704;  -40.050;   58.000;  108.000
461.824;  -62.750;  238.000;  259.000
461.943;  -52.525;  191.000;  130.000
462.063;  -86.500;    2.000;  324.000
462.183;   28.150;  639.000;  717.000
462.303;   94.575; 1678.000; 1230.000
462.422;   36.275;  781.000;  840.000
462.542;  -50.825;  271.000;  391.000
462.662;   38.950;  353.000;  380.000
462.782;  222.075;  833.000;  572.000
462.901;  434.950;  545.000;  717.000
463.021;  251.525; 1702.000; 1638.000
463.141;   -8.600;  337.000;  770.000
463.260;  -23.925;  614.000;  474.000
463.380;   13.200;  902.000;  884.000
463.499;  -34.150;  342.000;  332.000
463.619;  -24.625;  581.000;  559.000
463.738;  128.750; 1644.000;  903.000
463.858;    3.150;  657.000;  811.000
463.978;  -40.625;  542.000;  396.000
464.097;   49.025;  921.000; 1114.000
464.217;   81.500; 1196.000; 1143.000
464.336;   99.525; 1068.000; 1130.000
464.455;  -41.825;  328.000;  659.000
464.575;   66.475;  597.000;  602.000
464.694;  173.175; 1204.000; 1179.000
464.814;  102.350; 1190.000; 1138.000
464.933;   65.975; 1095.000; 1027.000
465.052;  106.675; 1412.000; 1054.000
465.172;   85.100;  922.000;  799.000
465.291;  147.075; 1376.000; 1320.000
465.410;    9.925;  462.000;  735.000
465.530;   81.675; 1355.000; 1310.000
465.649;   69.200; 1209.000; 1273.000
465.768;  143.775; 1673.000; 1508.000
465.888;   58.600;  941.000; 1174.000
466.007;   91.925; 1335.000; 1440.000
466.126;   -5.775;  721.000;  641.000
466.245;   35.700; 1176.000; 1187.000
466.364;   18.025;  950.000; 1060.000
466.484;   58.450; 1024.000; 1213.000
466.603;   37.875; 1101.000; 1222.000
466.722;  108.925; 1490.000; 1769.000
466.841;   81.625; 1151.000; 1401.000
466.960;   45.550; 1069.000;  972.000
467.079;  123.925; 1971.000; 1786.000
467.198;   50.475; 1238.000; 1181.000
467.317;   77.025; 1768.000; 1162.000
467.436;   69.875; 1709.000; 1261.000
467.555;  121.725; 1796.000; 1746.000
467.674;   46.750; 1227.000; 1329.000
467.793;   45.825; 1376.000; 1374.000
467.912;   87.550; 1658.000; 1539.000
468.031;  129.725; 2038.000; 1930.000
468.150;  145.475; 1842.000; 1837.000
468.269;  193.250; 2313.000; 2090.000
468.388;  189.750; 2168.000; 2339.000
468.507;  234.750; 2884.000; 2903.000
468.626;  221.075; 2555.000; 2541.000
468.744;  146.725; 2018.000; 2174.000
468.863;  197.250; 2312.000; 2523.000
468.982;   86.925; 1503.000; 1555.000
469.101;  225.025; 2788.000; 2692.000
469.220;  134.850; 2333.000; 2176.000
469.338;  245.700; 2935.000; 3051.000
469.457;  192.100; 2719.000; 2545.000
469.576;  333.775; 3953.000; 3784.000
469.695;  224.925; 2877.000; 3066.000
469.813;  435.600; 4148.000; 4192.000
469.932;  414.000; 4255.000; 4485.000
470.051;  428.550; 4075.000; 4161.000
470.169;  801.525; 4470.000; 4338.000
470.288; 1362.425; 4700.000; 4809.000
470.406;  808.225; 5059.000; 5194.000
470.525;  636.075; 6101.000; 5787.000
470.644;  653.750; 6847.000; 6794.000
470.762;  828.250; 8397.000; 7873.000
470.881;  891.225; 8651.000; 8464.000
470.999; 1043.775; 9685.000; 9151.000
471.118; 1118.650;11174.000;10711.000

