
Integration time [ms]: 200.000
Averaging Nr. [scans]: 10
Smoothing Nr. [pixels]: 0
Data measured with spectrometer [name]: 2101012U2
Wave   ;Sample   ;Dark     ;Reference
[nm]   ;[counts] ;[counts] ;[counts] 

197.733;  148.100;  516.000;  404.000
197.879; -159.000; -610.000; -634.000
198.025;  -83.600; -475.000; -420.000
198.171; -142.300; -602.000; -612.000
198.317;  -56.800; -401.000; -316.000
198.463; -120.800; -655.000; -404.000
198.609;   61.700;  181.000; -137.000
198.755; -157.300; -644.000; -410.000
198.901; -126.300; -505.000; -424.000
199.047; -121.100; -615.000; -488.000
199.193;  -54.300; -230.000; -468.000
199.339;  -85.100; -222.000; -369.000
199.485;   85.500;  330.000;  271.000
199.631;   46.700;  227.000;  310.000
199.777; -101.100; -466.000; -398.000
199.923; -119.200; -610.000; -424.000
200.069;  -13.500; -141.000;  -58.000
200.215;   96.100;  128.000;  453.000
200.361;   87.800;  243.000;  477.000
200.507; -145.100; -600.000; -373.000
200.653;  -58.100; -371.000; -194.000
200.798;  -70.500; -215.000; -125.000
200.944;    8.200; -146.000;  -41.000
201.090;   95.200;   61.000;  222.000
201.236;   15.000; -116.000; -158.000
201.382;  267.400;  874.000;  903.000
201.528;   -8.100;  -58.000;  -48.000
201.674;  -46.400; -386.000; -293.000
201.819; -138.100; -540.000; -439.000
201.965; -149.100; -699.000; -447.000
202.111;  -27.400; -273.000; -226.000
202.257;  -84.000; -250.000; -238.000
202.402;   34.900;   13.000;  -36.000
202.548;  -54.600; -169.000; -116.000
202.694;  188.700;  410.000; -183.000
202.840; -151.600; -603.000; -531.000
202.985; -141.500; -681.000; -639.000
203.131; -211.500; -832.000; -666.000
203.277;  -59.500; -199.000; -262.000
203.423; -109.200; -434.000; -520.000
203.568;  -92.500; -462.000; -237.000
203.714; -102.400; -535.000; -542.000
203.860; -168.500; -682.000; -641.000
204.005;   39.500;  112.000;  167.000
204.151;  147.200;  561.000;  556.000
204.296;  -76.500; -354.000; -221.000
204.442; -127.200; -600.000; -547.000
204.588; -154.800; -592.000; -579.000
204.733;   70.800;  178.000;  168.000
204.879; -258.600;-1018.000; -822.000
205.025;   46.000;  -99.000;  126.000
205.170;    5.800;  -17.000;   94.000
205.316;  193.900;  438.000;  661.000
205.461; -179.100; -698.000; -554.000
205.607;  221.100;  609.000;  665.000
205.752; -172.200; -626.000; -551.000
205.898;  -92.800; -501.000; -391.000
206.043; -113.100; -578.000; -506.000
206.189;  -67.000; -243.000; -285.000
206.334;  173.200;  554.000;  606.000
206.480;  180.400;  409.000;  239.000
206.625; -142.900; -529.000; -552.000
206.771;  -80.300; -451.000; -373.000
206.916;  -39.700; -210.000; -537.000
207.062; -130.800; -545.000; -591.000
207.207; -118.200; -546.000; -443.000
207.353;  120.300;  185.000;  460.000
207.498;   37.600;  196.000;   85.000
207.643; -105.600; -501.000; -370.000
207.789; -252.800;-1069.000; -910.000
207.934; -200.600; -665.000; -713.000
208.080;  -35.600; -154.000;   66.000
208.225;   21.300;  -22.000;  -57.000
208.370; -173.400; -727.000; -619.000
208.516; -160.400; -741.000; -487.000
208.661;  -64.500; -127.000;  -69.000
208.806;  -43.600; -165.000; -171.000
208.952; -240.100;-1044.000; -731.000
209.097;  164.200;  378.000;  349.000
209.242; -114.800; -307.000; -382.000
209.387;  144.900;  392.000;  350.000
209.533; -102.600; -321.000; -350.000
209.678;  186.800;  472.000;  543.000
209.823;  -99.700; -408.000; -310.000
209.969; -182.000; -860.000; -757.000
210.114; -225.300; -907.000; -719.000
210.259; -212.200; -939.000; -889.000
210.404;  -13.500; -171.000;  103.000
210.549;   31.900;  108.000;    3.000
210.695;  -27.000;   -3.000;  -95.000
210.840;  100.100;   94.000;   67.000
210.985; -138.300; -484.000; -303.000
211.130;  160.100;  268.000;  406.000
211.275;   15.000;  207.000;  199.000
211.420;  -97.800; -300.000; -289.000
211.566; -125.600; -536.000; -489.000
211.711;   81.700;  218.000;  157.000
211.856; -109.600; -545.000; -519.000
212.001;   26.300;  151.000;   44.000
212.146;    1.700;  153.000;   49.000
212.291;  -12.000; -210.000; -186.000
212.436;  -19.800; -280.000;   -6.000
212.581; -169.100; -685.000; -653.000
212.726; -154.600; -487.000; -538.000
212.871;  -93.900; -552.000; -217.000
213.016; -313.400;-1172.000;-1029.000
213.161;  134.700;  406.000;  291.000
213.306; -128.300; -435.000; -577.000
213.451; -192.000; -778.000; -689.000
213.596;  -94.500; -455.000; -347.000
213.741; -122.700; -448.000; -538.000
213.886; -135.200; -498.000; -517.000
214.031;  -26.100; -294.000; -124.000
214.176; -105.600; -408.000; -341.000
214.321;  -20.000; -296.000; -157.000
214.466;  -61.700; -163.000;  -43.000
214.611;    3.000;  -61.000;  -10.000
214.756; -220.700; -948.000; -858.000
214.901;  -56.400; -388.000; -226.000
215.046; -244.600; -797.000; -825.000
215.191;   53.200;  128.000;   35.000
215.336;  -22.800; -157.000;  -19.000
215.480; -117.100; -684.000; -505.000
215.625;    0.100; -175.000;  -19.000
215.770; -171.100; -757.000; -662.000
215.915;    7.600;   -5.000;  -97.000
216.060;    9.400; -113.000;  -21.000
216.205; -226.300; -731.000; -779.000
216.349; -157.000; -470.000; -533.000
216.494; -266.400; -939.000; -867.000
216.639; -222.700; -823.000; -888.000
216.784; -163.000; -577.000; -525.000
216.929;   77.100;  392.000;  281.000
217.073;  -32.200; -244.000;  -31.000
217.218;   50.500;   78.000;  -47.000
217.363; -176.900; -656.000; -618.000
217.507; -141.500; -623.000; -588.000
217.652; -228.200; -845.000; -874.000
217.797; -175.100; -708.000; -659.000
217.942; -236.900; -856.000; -720.000
218.086;  187.600;  608.000;  539.000
218.231;  -46.200; -174.000;  -26.000
218.376;  -92.200; -337.000; -229.000
218.520;   19.400;  -41.000;   96.000
218.665;  -76.200; -338.000; -204.000
218.810;  -96.100; -275.000; -233.000
218.954;   43.400;  201.000;   35.000
219.099; -230.500; -713.000; -963.000
219.243; -119.800; -589.000; -554.000
219.388;  -51.800; -264.000; -136.000
219.532;  -27.900; -116.000; -116.000
219.677; -136.000; -564.000; -521.000
219.822;   28.500;   33.000;   89.000
219.966;   47.200;   17.000;  -99.000
220.111;  -45.000; -328.000;  -40.000
220.255; -189.700; -797.000; -750.000
220.400;  -26.800; -180.000; -146.000
220.544; -131.800; -516.000; -450.000
220.689;  -96.800; -422.000; -451.000
220.833;  -40.700; -123.000;  -58.000
220.978; -112.900; -393.000; -563.000
221.122;   76.200;  319.000;  307.000
221.267; -243.100; -906.000; -837.000
221.411; -115.500; -478.000; -394.000
221.555;   12.000; -104.000;  -23.000
221.700;  -89.400; -329.000; -222.000
221.844;   85.700;  255.000;  272.000
221.989;  -94.100; -328.000; -311.000
222.133;  -56.500; -289.000; -307.000
222.277;  -17.900;    5.000;   78.000
222.422;   35.000;  227.000;  113.000
222.566;  -55.200; -381.000; -214.000
222.711; -100.700; -414.000; -479.000
222.855; -167.400; -643.000; -586.000
222.999; -168.600; -642.000; -717.000
223.144;  -70.100; -195.000; -194.000
223.288;  135.700;  423.000;  251.000
223.432;   33.000;  184.000;  230.000
223.576;   75.900;  152.000;  -21.000
223.721;   78.800;  364.000;  273.000
223.865; -126.600; -472.000; -475.000
224.009;  574.300; 1673.000; 1631.000
224.153; -165.200; -660.000; -671.000
224.298; -114.200; -531.000; -489.000
224.442;  -17.100;  -74.000;  -33.000
224.586;  -26.200; -169.000; -106.000
224.730; -189.700; -858.000; -670.000
224.875; -223.500; -739.000; -688.000
225.019;   47.700;  102.000;  188.000
225.163;  159.500;  208.000;  341.000
225.307;   47.200;   97.000;  -91.000
225.451;  113.600;  360.000;  481.000
225.595;   62.600;  264.000;  176.000
225.739;  -27.100; -170.000;  -94.000
225.884;   32.100;   86.000;    5.000
226.028; -188.200; -760.000; -626.000
226.172;  -45.300; -260.000; -273.000
226.316; -225.800; -941.000; -902.000
226.460; -138.000; -645.000; -493.000
226.604;  -87.400; -406.000; -400.000
226.748; -180.300; -836.000; -733.000
226.892;  -70.500; -227.000; -181.000
227.036; -102.500; -537.000; -447.000
227.180; -107.400; -551.000; -375.000
227.324; -114.700; -561.000; -580.000
227.468; -231.000; -819.000; -717.000
227.612;   31.100;  242.000;  -28.000
227.756; -228.000; -845.000; -698.000
227.900;  123.400;  342.000;  441.000
228.044;  -95.600; -509.000; -290.000
228.188;  149.200;  448.000;  568.000
228.332; -156.000; -546.000; -472.000
228.476;  -69.800; -223.000; -149.000
228.620;  -43.100; -210.000; -150.000
228.764;  168.600;  431.000;  349.000
228.908;  -11.500; -155.000;   30.000
229.052; -120.600; -615.000; -528.000
229.195;  -37.400; -172.000;   13.000
229.339;  -47.100; -235.000; -305.000
229.483;  -55.100;    5.000; -162.000
229.627;    5.300; -156.000;  139.000
229.771;  -73.100; -218.000; -294.000
229.915;    1.200;  230.000;   79.000
230.059; -167.100; -648.000; -663.000
230.202;  -90.000; -370.000; -317.000
230.346;  -29.100; -107.000;  107.000
230.490;  -95.900; -489.000; -521.000
230.634; -186.900; -736.000; -553.000
230.777;  132.400;  478.000;  509.000
230.921;  -84.700; -450.000; -359.000
231.065;  -73.900; -246.000; -286.000
231.209;   26.300;  261.000;  265.000
231.352;   40.500;   54.000;   40.000
231.496;   67.200;  568.000;  188.000
231.640; -175.900; -693.000; -621.000
231.783;  159.900;  546.000;  525.000
231.927;  -53.700; -294.000; -365.000
232.071; -242.700; -962.000; -736.000
232.214; -199.800; -980.000; -764.000
232.358; -223.600; -683.000; -599.000
232.502;   46.900;  -19.000;    7.000
232.645; -298.700;-1090.000; -927.000
232.789;  -31.000; -257.000; -218.000
232.933;  -81.400; -407.000; -224.000
233.076; -246.200;-1038.000; -897.000
233.220; -229.000; -752.000; -777.000
233.363; -153.800; -669.000; -477.000
233.507;  133.700;  371.000;  129.000
233.650; -171.700; -764.000; -834.000
233.794;  102.700;  438.000;  461.000
233.938; -116.200; -530.000; -362.000
234.081;  -27.000;  -93.000;   31.000
234.225; -159.100; -631.000; -539.000
234.368; -220.700; -773.000; -723.000
234.512;  -55.500; -385.000; -299.000
234.655; -181.500; -582.000; -555.000
234.798; -128.500; -493.000; -466.000
234.942; -244.200; -884.000;-1002.000
235.085; -121.600; -651.000; -443.000
235.229; -111.600; -405.000; -410.000
235.372;  -74.600; -247.000; -191.000
235.516; -143.900; -397.000; -321.000
235.659;   80.700;   92.000;  121.000
235.802;  -38.700;  -38.000;  -22.000
235.946;   87.500;  335.000;  215.000
236.089;   74.700;  126.000;  250.000
236.233;  111.600;  275.000;  298.000
236.376;  -92.200; -235.000; -378.000
236.519;  -87.700; -297.000; -319.000
236.663;  -31.900; -215.000; -117.000
236.806; -268.400;-1029.000; -999.000
236.949;  158.900;  543.000;  431.000
237.092;  147.000;  412.000;  391.000
237.236; -149.500; -589.000; -502.000
237.379;  139.700;  352.000;  428.000
237.522; -251.100; -879.000; -768.000
237.666;   -8.000; -271.000;   18.000
237.809; -225.800; -851.000; -823.000
237.952;  112.500;  469.000;  271.000
238.095; -139.700; -447.000; -442.000
238.238;  206.600;  688.000;  700.000
238.382;   38.500;  166.000;  103.000
238.525; -125.900; -598.000; -511.000
238.668; -253.500;-1060.000; -985.000
238.811; -158.000; -638.000; -643.000
238.954; -111.900; -483.000; -334.000
239.097;  198.900;  617.000;  664.000
239.241;   45.800;  394.000;  326.000
239.384;  -38.000; -254.000; -214.000
239.527; -122.500; -424.000; -224.000
239.670; -286.900; -994.000;-1091.000
239.813; -217.500; -696.000; -658.000
239.956;  212.300;  579.000;  473.000
240.099; -217.400; -778.000; -725.000
240.242;  107.000;  428.000;  432.000
240.385;  106.100;  466.000;  450.000
240.528; -148.100; -706.000; -473.000
240.671;   36.500;  189.000;  134.000
240.814;  -58.400; -441.000; -158.000
240.957; -192.100; -767.000; -578.000
241.100; -169.500; -779.000; -755.000
241.243; -275.300;-1234.000; -893.000
241.386;  -96.100; -508.000; -379.000
241.529; -150.400; -735.000; -547.000
241.672; -122.300; -566.000; -495.000
241.815; -226.900; -832.000; -808.000
241.958;  -61.600; -125.000; -182.000
242.101; -165.200; -545.000; -390.000
242.244;  -72.100; -270.000; -325.000
242.387;  -93.200; -304.000; -246.000
242.530;  129.200;  470.000;  134.000
242.673;  -76.200; -381.000; -309.000
242.815; -244.600; -925.000; -899.000
242.958; -126.500; -482.000; -381.000
243.101;   24.900;  132.000;  187.000
243.244; -141.500; -564.000; -521.000
243.387;  -86.000; -313.000; -316.000
243.530; -179.200; -657.000; -674.000
243.672;   37.800;   43.000;  -92.000
243.815;  -72.700; -355.000; -283.000
243.958;   12.800;   98.000;  -26.000
244.101;   26.600;   59.000;  -16.000
244.243;   -6.500;  -47.000;  101.000
244.386; -232.300; -761.000; -630.000
244.529;  -37.100; -132.000; -139.000
244.672; -306.700;-1154.000; -951.000
244.814; -195.100; -621.000; -794.000
244.957;  -77.200; -380.000; -304.000
245.100; -111.500; -489.000; -489.000
245.242; -114.500; -387.000; -374.000
245.385;   20.500;  -59.000;  -39.000
245.528; -234.200; -871.000; -705.000
245.670;  216.500;  612.000;  634.000
245.813; -181.300; -599.000; -547.000
245.956;  -20.500; -324.000; -275.000
246.098; -132.700; -508.000; -650.000
246.241;   44.400;  194.000;   48.000
246.383;  -24.100; -119.000;  -73.000
246.526; -163.400; -454.000; -525.000
246.669; -224.500; -889.000; -780.000
246.811;   38.400;  172.000;   -1.000
246.954; -105.100; -512.000; -426.000
247.096;   -9.700;  -84.000;   -6.000
247.239; -126.000; -482.000; -445.000
247.381; -145.300; -647.000; -488.000
247.524;  191.100;  645.000;  679.000
247.666;  -15.600;   58.000;   11.000
247.809; -223.800; -887.000; -691.000
247.951;   18.700;  -75.000;  138.000
248.094;   82.900;  432.000;  308.000
248.236; -319.500;-1262.000;-1238.000
248.378;    2.200; -356.000;  -81.000
248.521;  -31.000; -334.000; -337.000
248.663;  -78.500; -236.000; -267.000
248.806;  -42.500; -300.000; -266.000
248.948; -191.600; -886.000; -763.000
249.090;  -58.800; -428.000; -398.000
249.233;  -93.800; -344.000; -381.000
249.375;  -97.400; -474.000; -451.000
249.518;  -48.800;  -83.000; -133.000
249.660;   13.800; -103.000;    3.000
249.802; -332.900;-1303.000;-1189.000
249.945; -112.800; -612.000; -540.000
250.087; -209.100; -834.000; -768.000
250.229;  -91.300; -362.000; -480.000
250.371; -137.400; -494.000; -439.000
250.514;  -77.700; -310.000; -244.000
250.656; -123.800;   69.000;  102.000
250.798; -215.900; -849.000; -800.000
250.940; -101.500; -322.000; -322.000
251.083;  -61.500; -335.000; -111.000
251.225;  126.100;  338.000;  310.000
251.367;  -42.200; -274.000; -373.000
251.509;  -42.700; -265.000; -210.000
251.651; -158.800; -731.000; -671.000
251.794;  160.800;  538.000;  632.000
251.936; -206.200; -821.000; -747.000
252.078; -142.000; -540.000; -461.000
252.220; -125.000; -645.000; -477.000
252.362;  154.300;  344.000;  462.000
252.504; -147.500; -677.000; -584.000
252.646; -246.000; -875.000; -722.000
252.788;   14.300;   14.000; -128.000
252.931;  -59.100; -257.000; -253.000
253.073;  -81.700; -376.000; -317.000
253.215;   31.900;  141.000;  122.000
253.357;  -16.900;   82.000; -153.000
253.499; -107.400; -374.000; -234.000
253.641; -160.500; -749.000; -594.000
253.783; -174.700; -609.000; -527.000
253.925; -192.200; -586.000; -591.000
254.067; -229.600; -744.000; -667.000
254.209;  -77.000; -391.000; -259.000
254.351; -276.000; -865.000; -883.000
254.493; -105.600; -441.000; -417.000
254.635; -227.800; -936.000; -818.000
254.777; -163.400; -752.000; -687.000
254.918; -159.600; -512.000; -430.000
255.060;  -72.000; -551.000; -395.000
255.202; -108.000; -473.000; -261.000
255.344; -133.300; -658.000; -455.000
255.486; -119.100; -471.000; -406.000
255.628; -210.200; -780.000; -781.000
255.770; -153.800; -676.000; -536.000
255.912; -124.700; -559.000; -468.000
256.053; -164.600; -730.000; -508.000
256.195;  380.600; 1008.000;  903.000
256.337; -207.800; -861.000; -595.000
256.479;  128.700;  532.000;  416.000
256.621;  -87.300; -394.000; -212.000
256.762; -154.300; -789.000; -742.000
256.904;  127.200;  485.000;  487.000
257.046;  -85.300; -381.000; -271.000
257.188;  -69.500; -351.000; -264.000
257.329; -117.600; -525.000; -464.000
257.471; -224.600; -939.000; -807.000
257.613;  -98.300; -584.000; -498.000
257.755; -285.000;-1073.000; -982.000
257.896;   89.500;  286.000;  392.000
258.038;  -95.600; -403.000; -352.000
258.180;  -72.100; -354.000; -279.000
258.321; -168.000; -581.000; -457.000
258.463;   20.800;  -71.000;  133.000
258.605; -147.500; -562.000; -570.000
258.746; -187.700; -886.000; -772.000
258.888; -287.900;-1026.000;-1020.000
259.029;   69.700;  121.000;   -8.000
259.171; -170.400; -614.000; -550.000
259.313;   36.100;  -49.000;  -47.000
259.454; -126.700; -536.000; -414.000
259.596; -118.600; -483.000; -390.000
259.737; -125.900; -590.000; -474.000
259.879;  120.600;  217.000;  311.000
260.020;  227.700;  901.000;  636.000
260.162;  -32.700; -146.000; -253.000
260.303; -197.600; -768.000; -687.000
260.445; -139.900; -609.000; -613.000
260.586;   77.700;  392.000;  157.000
260.728;  -70.700; -360.000; -248.000
260.869; -118.400; -350.000; -343.000
261.011;  185.800;  706.000;  537.000
261.152; -115.100; -479.000; -319.000
261.293; -122.200; -576.000; -595.000
261.435;  -40.100; -219.000; -184.000
261.576;  -77.700; -455.000; -325.000
261.718;  133.200;  420.000;  470.000
261.859; -223.600; -940.000; -949.000
262.000; -249.300; -951.000;-1016.000
262.142;  -13.300;  -52.000;  -60.000
262.283; -213.300; -808.000; -691.000
262.424; -151.500; -666.000; -625.000
262.566; -264.800;-1161.000; -983.000
262.707; -249.300; -840.000; -830.000
262.848; -237.600; -769.000; -726.000
262.990; -105.200; -362.000; -345.000
263.131;  173.500;  650.000;  681.000
263.272;   34.900;  -61.000;  -41.000
263.413; -171.800; -589.000; -561.000
263.555;  -95.700; -669.000; -143.000
263.696; -155.600; -550.000; -641.000
263.837; -103.600; -449.000; -551.000
263.978;    9.300;   -5.000;  -77.000
264.119;  -77.200; -283.000; -264.000
264.261; -242.000; -847.000; -630.000
264.402;   40.500;   33.000;   40.000
264.543; -132.900; -509.000; -524.000
264.684;   11.700;   61.000;  -50.000
264.825; -101.400; -816.000; -538.000
264.966;   18.600;  -84.000;  -67.000
265.107; -211.600; -646.000; -670.000
265.248; -204.000; -825.000; -812.000
265.390;    5.500;  152.000;   -9.000
265.531;  -19.500; -238.000; -107.000
265.672; -158.700; -557.000; -630.000
265.813;  136.500;  563.000;  439.000
265.954; -275.700; -959.000; -940.000
266.095;   -4.900; -372.000; -322.000
266.236; -181.000; -686.000; -548.000
266.377;  -54.600; -243.000; -297.000
266.518; -141.600; -619.000; -547.000
266.659;  104.700;  170.000;  268.000
266.800;   43.500;   83.000;   85.000
266.941; -145.100; -487.000; -478.000
267.082;   86.400;  354.000;   99.000
267.223;  -66.700; -344.000; -273.000
267.364; -255.800; -892.000; -686.000
267.504;  -17.700;    3.000;  135.000
267.645;  -13.900;  160.000;   67.000
267.786;  -55.200; -147.000;  -86.000
267.927; -137.700; -473.000; -379.000
268.068;  -26.000; -186.000;  -61.000
268.209;  -94.500; -175.000; -413.000
268.350; -102.100; -388.000; -532.000
268.490; -117.300; -648.000; -521.000
268.631;   77.400;  127.000;  225.000
268.772; -235.500; -874.000; -647.000
268.913;  -64.300; -328.000; -476.000
269.054;    0.600; -117.000;   12.000
269.194;  -68.700; -418.000; -402.000
269.335; -309.500;-1137.000;-1074.000
269.476;  -12.200;   33.000;  -35.000
269.617;  -75.100; -347.000; -392.000
269.757; -182.000; -713.000; -646.000
269.898; -217.700; -856.000; -613.000
270.039; -114.400; -415.000; -405.000
270.180; -258.500; -952.000; -816.000
270.320;  -36.100; -190.000; -250.000
270.461;  -88.100; -277.000; -249.000
270.602;   20.800; -186.000; -156.000
270.742; -265.000; -868.000; -943.000
270.883;  -93.700; -442.000; -390.000
271.023;  -57.200; -358.000; -357.000
271.164; -101.000; -607.000; -528.000
271.305; -191.900; -666.000; -654.000
271.445; -165.700; -722.000; -683.000
271.586; -141.700; -462.000; -283.000
271.726; -100.800; -397.000; -322.000
271.867; -128.400; -594.000; -534.000
272.008;  248.900; -473.000; -285.000
272.148;  196.600;  462.000;  468.000
272.289;   17.500; -113.000; -181.000
272.429;   34.000;   19.000;  185.000
272.570; -175.500; -633.000; -737.000
272.710; -189.400; -825.000; -775.000
272.851;  -26.400;  113.000; -130.000
272.991; -307.900;-1173.000;-1077.000
273.131;  -97.000; -419.000; -459.000
273.272; -190.100; -683.000; -723.000
273.412;   13.500; -143.000;  -31.000
273.553; -109.900; -488.000; -507.000
273.693;  274.400;  913.000;  858.000
273.834; -199.300; -894.000; -692.000
273.974; -118.500; -664.000; -615.000
274.114; -182.800; -772.000; -560.000
274.255;  167.500;  414.000;  373.000
274.395;   40.000; -180.000; -125.000
274.535;  104.200;  199.000;  350.000
274.676;   70.900;  225.000;   94.000
274.816;   14.200;  110.000;   34.000
274.956; -175.100; -624.000; -690.000
275.097; -139.100;-1014.000; -922.000
275.237; -210.000; -913.000; -803.000
275.377; -220.400; -778.000; -689.000
275.517; -281.100; -878.000; -937.000
275.658; -121.600; -590.000; -555.000
275.798; -152.500; -606.000; -413.000
275.938;   76.500;  215.000;  323.000
276.078; -134.800; -626.000; -395.000
276.218;   36.100;   99.000;  104.000
276.359; -268.700;-1026.000;-1024.000
276.499; -125.500; -605.000; -446.000
276.639;  -45.500; -305.000; -151.000
276.779;  -71.800; -475.000; -357.000
276.919; -188.400; -783.000; -624.000
277.059;  -37.700; -261.000; -212.000
277.199;  -48.000; -357.000; -259.000
277.340;  114.700;  287.000;  175.000
277.480; -195.100; -840.000; -693.000
277.620;  105.300;  192.000;   16.000
277.760; -379.200;-1533.000;-1294.000
277.900;   56.700;  113.000;   33.000
278.040;   37.700;  137.000;  159.000
278.180;   70.500;  270.000;  170.000
278.320;   -0.800;   21.000;   56.000
278.460; -120.400; -443.000; -469.000
278.600; -150.600; -708.000; -598.000
278.740;  149.700;  448.000;  224.000
278.880; -161.100; -768.000; -791.000
279.020;   33.500; -194.000; -144.000
279.160; -149.400; -672.000; -595.000
279.300; -219.700; -926.000; -873.000
279.440; -188.800; -709.000; -622.000
279.579;  -92.400;-1014.000; -929.000
279.719; -114.200; -410.000; -394.000
279.859;  118.200;   -4.000;   41.000
279.999;   49.700; -208.000;  101.000
280.139;  -42.900; -435.000; -387.000
280.279; -185.200; -708.000; -745.000
280.419;    4.600; -229.000; -147.000
280.559;  -50.400; -259.000; -180.000
280.698; -138.400; -790.000; -639.000
280.838; -214.100; -778.000; -800.000
280.978; -194.300; -846.000; -790.000
281.118; -190.400; -811.000; -704.000
281.257;   37.800;   24.000;    6.000
281.397; -248.700;-1094.000; -960.000
281.537; -168.200; -599.000; -712.000
281.677;  -27.300; -150.000; -101.000
281.816; -145.000; -700.000; -630.000
281.956;  -49.900; -193.000; -257.000
282.096; -102.600; -539.000; -396.000
282.235; -201.300; -672.000; -638.000
282.375;  -36.900; -243.000;  -98.000
282.515; -195.700; -715.000; -707.000
282.654;   81.500;   29.000;  106.000
282.794;   54.500;  388.000;  244.000
282.934;  -78.300; -530.000; -491.000
283.073; -241.700;-1030.000; -857.000
283.213; -117.000; -460.000; -467.000
283.353; -110.600; -408.000; -349.000
283.492;  -23.000; -264.000; -296.000
283.632;  -67.700; -254.000; -168.000
283.771; -182.300; -859.000; -730.000
283.911;  -86.100; -369.000; -260.000
284.050; -188.600; -794.000; -748.000
284.190; -309.000;-1229.000;-1096.000
284.329; -264.600;-1055.000; -964.000
284.469; -156.000; -516.000; -591.000
284.608;  -87.700; -559.000; -598.000
284.748; -164.500; -614.000; -570.000
284.887;   13.000;  -87.000;  -20.000
285.027; -218.700; -844.000; -892.000
285.166;  -55.800; -192.000; -249.000
285.306;   36.900; -116.000;  -33.000
285.445;  -47.500; -229.000; -343.000
285.584; -168.100; -630.000; -494.000
285.724;  -52.700; -282.000; -322.000
285.863; -191.600; -857.000; -507.000
286.002;  -87.100; -366.000; -276.000
286.142; -199.000; -715.000; -622.000
286.281; -107.800; -525.000; -493.000
286.420; -157.500; -554.000; -417.000
286.560;  211.600;  653.000;  623.000
286.699; -245.900; -958.000; -912.000
286.838; -178.200; -590.000; -591.000
286.978; -183.700; -533.000; -537.000
287.117; -262.200;-1085.000; -950.000
287.256;  -43.900; -228.000; -211.000
287.395;  -52.800; -197.000; -378.000
287.535;  -66.200; -370.000; -298.000
287.674; -113.400; -509.000; -484.000
287.813;  138.100;  661.000;  533.000
287.952; -254.100;-1010.000; -871.000
288.091; -291.400;-1049.000; -915.000
288.231;   55.000;   13.000;   15.000
288.370; -331.300;-1217.000;-1200.000
288.509; -135.700; -728.000; -645.000
288.648; -178.300; -770.000; -548.000
288.787;  -38.300; -243.000;  -87.000
288.926; -110.300; -454.000; -475.000
289.065;  262.900;  859.000;  672.000
289.204;  -99.500; -377.000; -217.000
289.344; -189.500; -791.000; -690.000
289.483;   84.600;  416.000;  304.000
289.622;  -20.500; -291.000; -149.000
289.761;  -11.700; -309.000; -166.000
289.900; -175.800; -785.000; -626.000
290.039;   -2.500;  -12.000;  -95.000
290.178;  -38.800; -274.000; -180.000
290.317; -163.900; -618.000; -479.000
290.456;  -86.600; -463.000; -451.000
290.595; -281.200; -961.000; -833.000
290.734; -242.000; -904.000; -891.000
290.873;  -86.500; -456.000; -420.000
291.011; -206.400; -833.000; -843.000
291.150; -243.200; -770.000; -682.000
291.289;  -23.400; -343.000; -110.000
291.428; -163.200; -599.000; -480.000
291.567; -104.200; -370.000; -442.000
291.706;    4.900;  109.000;  154.000
291.845; -119.500; -597.000; -505.000
291.984; -326.800;-1234.000;-1061.000
292.122;  159.700;  602.000;  582.000
292.261;  103.800;  620.000;  463.000
292.400;   12.500; -144.000;  211.000
292.539; -231.900; -959.000; -813.000
292.678;  -72.100; -325.000; -300.000
292.816; -291.800;-1136.000; -965.000
292.955; -155.300; -844.000; -684.000
293.094;  -38.400; -173.000; -337.000
293.233;  -66.000; -556.000; -400.000
293.371;  -30.700; -225.000;  -84.000
293.510; -176.800; -866.000; -780.000
293.649; -251.800; -959.000; -924.000
293.787; -176.800;-1083.000;-1012.000
293.926;  -31.700; -113.000;  -32.000
294.065;  -67.100; -379.000; -290.000
294.203;  124.400;  298.000;  406.000
294.342;   70.800;   74.000;  156.000
294.481;11726.800;51180.000; -836.000
294.619;  -35.300; -425.000; -582.000
294.758; -301.900;-1230.000;-1137.000
294.896;  126.000; -125.000;    5.000
295.035; -269.800;-1040.000;-1006.000
295.174; -248.500;-1082.000; -954.000
295.312;  -86.100; -323.000; -203.000
295.451;  -23.000; -307.000; -428.000
295.589; -102.600; -389.000; -518.000
295.728;   65.200; -292.000; -165.000
295.866;    2.700;  -36.000;  -51.000
296.005;  -96.100; -584.000; -341.000
296.143; -134.500; -558.000; -596.000
296.282; -219.700; -957.000; -881.000
296.420; -121.600; -657.000; -557.000
296.559; -164.100; -892.000; -633.000
296.697;  -52.800; -847.000; -665.000
296.835;   -3.200;-1141.000;-1002.000
296.974;  105.100;  -23.000;   39.000
297.112;    4.400; -443.000; -504.000
297.251; -131.400; -815.000; -755.000
297.389;   74.200; -576.000; -438.000
297.527;   44.700; -145.000;  -83.000
297.666;  -83.400; -486.000; -438.000
297.804;  -54.500; -404.000; -264.000
297.942;  -12.900; -136.000; -161.000
298.081;   -4.500; -183.000;   63.000
298.219;   84.100;  -17.000;  -19.000
298.357;   76.700; -144.000;  -71.000
298.495;  -34.300; -810.000; -812.000
298.634;  124.100;  245.000;  219.000
298.772;   59.800; -220.000; -338.000
298.910;  -46.700; -309.000; -182.000
299.048;   22.800; -130.000; -153.000
299.187;   -7.900; -350.000; -250.000
299.325;   47.700;   52.000;  122.000
299.463;   37.100; -389.000; -299.000
299.601;  147.700; -327.000; -271.000
299.739; -213.900; -908.000; -883.000
299.877; -151.100; -791.000; -703.000
300.016; -157.400;-1095.000; -935.000
300.154;  238.700;  -19.000; -161.000
300.292;   59.800; -428.000; -348.000
300.430;   32.600; -408.000; -291.000
300.568; -229.500; -940.000; -874.000
300.706;  -99.100; -366.000; -469.000
300.844; -195.900;-1108.000; -979.000
300.982;  242.300;  246.000;  282.000
301.120; -197.900; -965.000; -866.000
301.258; -143.700; -812.000; -705.000
301.396;   99.000;  104.000;  -41.000
301.534;   61.700; -218.000; -293.000
301.672;  -55.400; -664.000; -521.000
301.810;  -21.800; -613.000; -545.000
301.948;  209.400;   53.000;  149.000
302.086;  794.600; -250.000;  -32.000
302.224; 1191.500; -610.000; -585.000
302.362;   21.700; -558.000; -622.000
302.500;  -88.500; -923.000; -893.000
302.638;  172.900;  128.000;  245.000
302.776;  -16.400; -352.000; -408.000
302.913;  112.100;  447.000;  236.000
303.051;   -0.100;  -86.000;  -23.000
303.189;  102.700;   90.000;  118.000
303.327;  -51.700; -341.000; -256.000
303.465; -150.500; -832.000; -588.000
303.603; -176.400; -805.000; -604.000
303.740;  174.800;  417.000;  241.000
303.878;  -43.700; -800.000; -759.000
304.016; -184.500; -915.000; -790.000
304.154; -276.200;-1123.000;-1152.000
304.291;  -48.700; -505.000; -554.000
304.429;   20.500;  102.000;   74.000
304.567; -249.100; -908.000; -893.000
304.705;  -93.300; -408.000; -515.000
304.842;   78.900; -616.000; -540.000
304.980;  101.500;  215.000;   35.000
305.118;   77.900; -367.000; -365.000
305.255; -194.500; -945.000; -927.000
305.393;  104.400;  178.000;  239.000
305.531; -256.100;-1173.000; -956.000
305.668;  -97.700; -663.000; -582.000
305.806;   73.300; -358.000; -439.000
305.943;  101.300; -629.000; -637.000
306.081;   54.600; -378.000; -267.000
306.219; -178.400; -863.000; -748.000
306.356;   26.400;  158.000;   27.000
306.494;  268.100;  981.000;  761.000
306.631;   28.300;  -11.000;  -55.000
306.769;    1.400; -613.000; -485.000
306.906;  -39.200; -284.000; -258.000
307.044;  -87.200; -473.000; -488.000
307.181; -103.000; -410.000; -332.000
307.319;   53.700;  112.000;   87.000
307.456; -339.800;-1191.000;-1153.000
307.594; -187.600; -980.000; -727.000
307.731;  -18.800; -371.000; -164.000
307.868;   44.500;  -15.000;   20.000
308.006; -268.000; -961.000; -847.000
308.143; -119.900; -618.000; -330.000
308.281;  301.000;  -37.000; -254.000
308.418;  -28.200; -748.000; -640.000
308.555; -130.600; -400.000; -250.000
308.693; -117.100; -577.000; -573.000
308.830; -217.500; -712.000; -657.000
308.967;   -5.700; -215.000;  -95.000
309.105;  -40.900; -507.000; -396.000
309.242;   89.600; -468.000; -367.000
309.379;  589.100; -577.000; -655.000
309.517; -106.200; -936.000; -948.000
309.654; -179.100; -910.000; -734.000
309.791; -108.500; -662.000; -580.000
309.928; -205.900; -977.000; -914.000
310.065;  351.400;  819.000;  697.000
310.203;  -57.000; -825.000; -850.000
310.340;  -19.600; -465.000; -321.000
310.477; -139.200; -412.000; -516.000
310.614; -125.300; -383.000; -473.000
310.751; -144.900; -427.000; -518.000
310.889;   51.800;    1.000;   11.000
311.026; -303.800;-1161.000; -939.000
311.163;  -81.600; -386.000; -380.000
311.300; -110.500; -512.000; -479.000
311.437; -117.900; -658.000; -619.000
311.574; -306.700;-1226.000; -985.000
311.711; -101.600; -595.000; -433.000
311.848;  -30.700; -380.000; -388.000
311.985;   56.800;  270.000;   93.000
312.122; -206.200; -932.000; -762.000
312.259; -207.600; -941.000; -994.000
312.396; -125.200; -508.000; -551.000
312.533; -165.000; -812.000; -790.000
312.670; -233.300;-1070.000; -898.000
312.807;  -61.700; -352.000; -367.000
312.944; -120.700; -513.000; -611.000
313.081;  -21.200; -150.000; -415.000
313.218; -187.900;-1111.000; -867.000
313.355;   35.600; -531.000; -449.000
313.492;    1.200; -455.000; -292.000
313.629;  284.000;  815.000;  735.000
313.766; -279.700;-1176.000;-1008.000
313.902;    5.500; -186.000;   21.000
314.039;  -71.300; -372.000; -289.000
314.176;  100.400;  286.000;  192.000
314.313; -151.300; -569.000; -473.000
314.450; -128.600; -788.000; -684.000
314.587; -122.900; -468.000; -480.000
314.723;   55.400;  -78.000;  130.000
314.860;   82.200;  318.000;  332.000
314.997;   83.200;  223.000;  142.000
315.134;  -51.400; -385.000; -368.000
315.270;  -56.400; -480.000; -496.000
315.407; -264.600;-1094.000; -967.000
315.544; -115.500; -657.000; -538.000
315.681; -102.700; -681.000; -565.000
315.817;   54.400; -133.000; -176.000
315.954;  -15.100; -613.000; -392.000
316.091; -228.200;-1045.000;-1023.000
316.227;  -11.200;  -71.000; -179.000
316.364;   49.600;   23.000;    6.000
316.500;  -38.000; -113.000; -300.000
316.637;  -44.000; -181.000; -302.000
316.774; -145.100; -625.000; -358.000
316.910; -138.000; -598.000; -629.000
317.047; -105.700; -487.000; -351.000
317.183; -112.200; -435.000; -566.000
317.320;  -29.600; -367.000; -321.000
317.456; -123.600; -733.000; -805.000
317.593; -146.100; -598.000; -641.000
317.729;   25.000;  168.000;  -67.000
317.866; -367.800;-1434.000;-1285.000
318.002; -138.400; -708.000; -948.000
318.139; -200.800; -883.000; -867.000
318.275; -184.500;-1003.000; -738.000
318.412; -129.000; -517.000; -336.000
318.548; -105.800; -751.000; -720.000
318.685; -190.900; -985.000; -888.000
318.821; -159.700; -762.000; -735.000
318.957;  -13.000;   34.000;  -23.000
319.094;   92.800;  297.000;  154.000
319.230; -125.000; -756.000; -742.000
319.367;  177.800; -471.000; -520.000
319.503;   80.400; -538.000; -436.000
319.639; -168.300; -877.000; -793.000
319.775; -121.300; -750.000; -685.000
319.912;  -89.100; -424.000; -519.000
320.048; -177.900;-1184.000;-1184.000
320.184;  157.000;   59.000;   70.000
320.321;  -80.000; -497.000; -467.000
320.457;  144.600;  475.000;  662.000
320.593; -125.500; -375.000; -382.000
320.729; -216.300; -732.000; -734.000
320.866;  -98.600; -577.000; -635.000
321.002; -180.400; -759.000; -809.000
321.138;  -30.800; -135.000; -211.000
321.274;  124.600; -148.000; -115.000
321.410;  -41.400; -585.000; -353.000
321.546; -107.100;-1011.000; -911.000
321.683;  104.400;  400.000;  185.000
321.819;   26.400;  -48.000; -117.000
321.955; -202.200; -743.000; -722.000
322.091;  -66.600; -585.000; -540.000
322.227;  -30.300; -382.000; -202.000
322.363;  -30.700; -320.000; -215.000
322.499; -101.200; -343.000; -331.000
322.635;  258.600;  636.000;  443.000
322.771;   35.300; -139.000;   12.000
322.907;  164.600;  129.000;  327.000
323.043;  -35.400; -115.000; -206.000
323.179;  -73.600; -394.000; -363.000
323.315;   10.900; -401.000; -371.000
323.451;  103.800; -328.000; -236.000
323.587;  128.300;  -60.000;  -77.000
323.723;  -12.400; -682.000; -601.000
323.859;  -19.800; -258.000;  -76.000
323.995;  -63.600; -467.000; -409.000
324.131; -217.900; -967.000; -892.000
324.267;  -40.900; -254.000; -276.000
324.402; -244.400; -960.000; -983.000
324.538;    6.200; -279.000; -104.000
324.674;   49.600;  164.000;   77.000
324.810;  243.500;  226.000;  308.000
324.946;   15.900; -810.000; -658.000
325.082;  -99.500; -568.000; -475.000
325.217;   17.500;  -62.000;   16.000
325.353; -151.400; -764.000; -659.000
325.489; -166.800; -540.000; -506.000
325.625; -123.200; -579.000; -525.000
325.760;  142.200;  517.000;  376.000
325.896;  -48.700; -515.000; -702.000
326.032;  -95.400; -403.000; -352.000
326.168;  -68.800; -462.000; -369.000
326.303;  -97.700; -352.000; -461.000
326.439;  -29.900; -336.000; -276.000
326.575;   27.300; -190.000;  -29.000
326.710;   32.400; -156.000;  -30.000
326.846;    9.800;  146.000;  103.000
326.982; -148.600; -530.000; -548.000
327.117; -101.100; -481.000; -442.000
327.253; -156.600; -745.000; -742.000
327.388; -258.800;-1137.000;-1153.000
327.524;  -95.200; -811.000; -578.000
327.659;   -4.700;  -58.000;  -22.000
327.795;   15.600;   69.000;   45.000
327.931; -168.100; -723.000; -499.000
328.066;  -28.200; -417.000; -276.000
328.202;  -44.200;   12.000; -129.000
328.337;  234.400;  957.000;  713.000
328.473;   34.500;  -12.000;  -74.000
328.608;   -0.800; -256.000; -267.000
328.743; -163.400; -799.000; -664.000
328.879;   89.800;  214.000;  114.000
329.014;  -76.000; -102.000; -122.000
329.150; -130.700; -358.000; -483.000
329.285; -165.600; -465.000; -466.000
329.421;  -57.200; -548.000; -246.000
329.556;   -7.700;  -36.000;   85.000
329.691; -157.400; -633.000; -615.000
329.827; -117.900; -626.000; -480.000
329.962;   -9.400;  131.000; -301.000
330.097; -157.300; -673.000; -585.000
330.233;  -70.900; -410.000; -223.000
330.368; -225.400; -839.000; -628.000
330.503;   -7.800;    3.000;   98.000
330.638;   -3.700;  -93.000; -125.000
330.774; -127.700; -609.000; -530.000
330.909;  -79.300; -434.000; -244.000
331.044; -168.400; -714.000; -708.000
331.179; -348.400;-1217.000;-1109.000
331.315;   35.200;   77.000;   20.000
331.450;   79.300;  157.000;  285.000
331.585; -157.100; -805.000; -706.000
331.720; -155.600; -510.000; -460.000
331.855;   -6.800;  -35.000; -102.000
331.990;  449.600;   62.000;  138.000
332.126;  236.200; -110.000;   71.000
332.261;   -9.800; -379.000; -265.000
332.396;   14.700; -135.000; -242.000
332.531; -209.200;-1074.000;-1031.000
332.666;   68.500; -519.000; -363.000
332.801; -197.500; -726.000; -807.000
332.936;  -55.800; -192.000; -122.000
333.071; -268.900; -870.000; -817.000
333.206;   81.900;  307.000;  379.000
333.341;   85.600;  344.000;  418.000
333.476; -151.000; -627.000; -623.000
333.611;  -74.000; -251.000; -173.000
333.746; -120.200; -381.000; -464.000
333.881; -222.500; -973.000; -935.000
334.016; -242.800; -936.000; -917.000
334.151; -243.700; -746.000; -702.000
334.286;   71.200;  152.000;  186.000
334.421;  -12.700; -125.000; -178.000
334.556; -126.800; -611.000; -567.000
334.690; -174.200; -631.000; -577.000
334.825;  159.400;  381.000;   83.000
334.960; -100.300; -285.000; -413.000
335.095;   42.900;  135.000;  -91.000
335.230; -177.800; -722.000; -738.000
335.365; -242.400;-1084.000; -990.000
335.499; -236.800;-1108.000;-1037.000
335.634;   69.800;    9.000;  534.000
335.769; -198.600; -755.000; -720.000
335.904; -144.700; -603.000; -561.000
336.038; -146.200; -735.000; -657.000
336.173; -231.500;-1206.000;-1194.000
336.308;    0.600; -116.000; -189.000
336.443;   24.800; -544.000; -634.000
336.577; -172.100; -936.000; -787.000
336.712;   93.900;   -4.000;  -12.000
336.847; -132.500; -724.000; -607.000
336.981;   45.700; -272.000; -208.000
337.116;  408.100;  615.000;  501.000
337.250;  143.000; -434.000; -421.000
337.385;  407.700; -297.000; -208.000
337.520;  100.400; -632.000; -603.000
337.654;  -36.200; -215.000; -126.000
337.789; -220.400; -989.000; -933.000
337.923;  -28.500; -104.000; -205.000
338.058; -147.800; -673.000; -738.000
338.192;  -97.200; -611.000; -488.000
338.327;   21.400;  -18.000; -155.000
338.461; -116.300; -299.000; -469.000
338.596; -157.100; -780.000; -638.000
338.730; -188.600; -767.000; -803.000
338.865;  186.800;  -46.000; -140.000
338.999;  -91.000; -846.000; -702.000
339.134;  -77.400; -634.000; -536.000
339.268;    9.500; -741.000; -603.000
339.403;  510.700; -740.000; -775.000
339.537;  141.400; -894.000; -820.000
339.671; -185.200; -829.000; -813.000
339.806; -110.500; -556.000; -512.000
339.940;   32.900; -261.000; -235.000
340.074; -147.800; -685.000; -510.000
340.209;  -51.600; -351.000; -230.000
340.343; -179.400; -517.000; -573.000
340.477;  358.600;  998.000; 1036.000
340.612; -100.000;-1033.000; -900.000
340.746;  242.400; -199.000; -243.000
340.880; -165.900; -924.000; -785.000
341.014;    0.900;  -45.000; -154.000
341.149; -191.200; -756.000; -718.000
341.283; -186.600; -839.000; -754.000
341.417; -248.500;-1124.000; -938.000
341.551;  115.000; -768.000; -708.000
341.685;  -96.800; -633.000; -611.000
341.820; -127.400; -562.000; -493.000
341.954;  -95.500; -218.000; -349.000
342.088; -266.700;-1102.000;-1019.000
342.222;  103.500;  565.000;  618.000
342.356;  -99.600; -395.000; -335.000
342.490; -207.200; -880.000; -841.000
342.624;  -81.000; -339.000; -242.000
342.758;  -23.400; -364.000; -312.000
342.892; -163.000; -710.000; -585.000
343.026;  -49.000;  -58.000; -116.000
343.160;  -42.800; -426.000; -376.000
343.294; -143.500; -474.000; -337.000
343.428;  -35.300; -488.000; -448.000
343.562;   -9.200; -172.000;  -23.000
343.696;  -20.100; -385.000; -314.000
343.830;  -27.500; -362.000; -356.000
343.964;   21.200; -231.000; -168.000
344.098; 1191.000;  199.000;   70.000
344.232;  989.600; -266.000; -127.000
344.366;  101.200; -567.000; -453.000
344.500;   45.500; -665.000; -744.000
344.634;   45.600; -324.000; -164.000
344.768;  -52.400; -531.000; -341.000
344.902;   56.300;  278.000;  256.000
345.035; -140.400; -556.000; -496.000
345.169; -229.500; -933.000; -656.000
345.303;  -37.400; -308.000; -482.000
345.437; -146.100; -826.000; -717.000
345.571; -133.600; -675.000; -594.000
345.704;  -74.200; -309.000; -532.000
345.838;    1.900; -331.000; -284.000
345.972;  -71.000; -543.000; -495.000
346.106;  310.500; -179.000; -190.000
346.239;  633.300; -312.000; -243.000
346.373;   46.000; -343.000; -302.000
346.507; -264.000; -950.000; -962.000
346.640;  188.500;  -30.000;   13.000
346.774; -116.600; -650.000; -797.000
346.908;   18.500; -138.000;  -11.000
347.041; -157.300; -646.000; -593.000
347.175;   33.600;  259.000;   27.000
347.309; -141.400; -698.000; -628.000
347.442; -161.200; -883.000; -732.000
347.576;  464.800;  670.000;  668.000
347.709;  255.300; -123.000;  -52.000
347.843; -208.000; -933.000; -825.000
347.976;  136.500;  235.000;  294.000
348.110; -321.300;-1268.000;-1186.000
348.243; -172.600; -679.000; -772.000
348.377;   51.900;  -26.000;   60.000
348.510;  133.600;  403.000;  540.000
348.644;  -43.800;  -37.000; -159.000
348.777;   59.500;  180.000;  191.000
348.911;  -38.400; -142.000; -112.000
349.044;  297.800;  471.000;  448.000
349.178;  155.000;-1069.000;-1006.000
349.311;  248.500;  141.000;  255.000
349.444;    3.100; -927.000; -813.000
349.578;   28.700; -347.000; -200.000
349.711; -216.200; -959.000; -862.000
349.845;  -48.200; -661.000; -591.000
349.978; -287.000;-1224.000;-1137.000
350.111; -158.900; -546.000; -612.000
350.244; -144.500; -596.000; -700.000
350.378;  -31.400; -392.000; -393.000
350.511; -109.000; -393.000; -426.000
350.644; -189.000; -808.000; -806.000
350.778;   31.000;  168.000;  104.000
350.911;   36.200;  134.000;  140.000
351.044; -172.200; -685.000; -615.000
351.177;  -56.300; -321.000; -281.000
351.310;  -35.800;    3.000; -131.000
351.444; -175.600; -888.000; -788.000
351.577;  222.400;  140.000;   90.000
351.710;  207.700;  593.000;  417.000
351.843;  -48.400; -165.000;  -77.000
351.976;   33.700;  149.000;  -79.000
352.109; -172.500; -621.000; -612.000
352.242;  -54.400; -464.000; -419.000
352.376; -183.100; -580.000; -636.000
352.509;  191.800; -437.000; -356.000
352.642;  -78.100; -654.000; -604.000
352.775;   99.200; -141.000;  -98.000
352.908; -211.500; -933.000; -904.000
353.041; -191.200; -814.000; -824.000
353.174;  -90.700; -551.000; -424.000
353.307; -208.100; -753.000; -764.000
353.440;  166.900;  541.000;  453.000
353.573; -196.800; -957.000;-1008.000
353.706;  -42.000; -384.000; -558.000
353.839;  -38.500; -264.000; -220.000
353.971; -162.400; -657.000; -512.000
354.104; -142.200; -896.000; -835.000
354.237;  -91.600; -627.000; -662.000
354.370; -167.700; -846.000; -879.000
354.503; -374.100;-1231.000;-1308.000
354.636;  -59.200; -529.000; -348.000
354.769; -239.200; -937.000; -860.000
354.902;  -38.200; -230.000; -139.000
355.034;  -28.400; -164.000; -220.000
355.167;  -44.700; -262.000; -162.000
355.300; -185.400;-1061.000; -880.000
355.433; 1584.400;  -71.000;  -14.000
355.565; 2366.900; -402.000; -384.000
355.698;  586.200; -356.000; -296.000
355.831;  -65.300; -882.000; -801.000
355.964;   90.400; -285.000; -170.000
356.096; -195.300; -856.000; -843.000
356.229;  -35.900; -523.000; -530.000
356.362;  538.300; -373.000; -266.000
356.494;  981.400; -229.000; -162.000
356.627;  665.700;  269.000;  377.000
356.760; 1051.700;  120.000;   53.000
356.892; 1487.600; -286.000; -601.000
357.025;  928.700;  403.000;  389.000
357.157;  801.700; -167.000; -179.000
357.290; 1066.000; -856.000; -713.000
357.423;  271.700; -667.000; -556.000
357.555;  179.500; -217.000; -228.000
357.688;  131.100; -483.000; -364.000
357.820;  554.200; -870.000; -877.000
357.953; 4919.800; -563.000; -589.000
358.085;  999.400; -632.000; -612.000
358.218; 1303.800;-1131.000; -932.000
358.350;  276.100;  -58.000;  312.000
358.483; -286.600;-1300.000;-1187.000
358.615; -134.700;-1182.000;-1078.000
358.747; -195.900;-1187.000;-1058.000
358.880;  -52.400; -810.000; -744.000
359.012;   10.700; -376.000; -202.000
359.145;  -85.700; -480.000; -511.000
359.277;  -39.100; -962.000; -913.000
359.409; 4108.800;  536.000;  231.000
359.542;  948.600; -738.000; -688.000
359.674;  116.900;   46.000;   13.000
359.806; -105.400; -565.000; -438.000
359.939;  -51.100; -617.000; -516.000
360.071;    7.800; -583.000; -579.000
360.203;  -10.500; -411.000; -364.000
360.335;   90.800;  164.000;  -16.000
360.468;  263.500; -249.000; -307.000
360.600; 3324.900; -547.000; -454.000
360.732; 4425.400; -546.000; -423.000
360.864;  489.300;-1216.000;-1044.000
360.996;  319.000; -516.000; -554.000
361.129;  -24.400; -389.000; -598.000
361.261;   71.200;  110.000; -113.000
361.393;  -35.600; -252.000; -214.000
361.525;   87.000;   94.000;  244.000
361.657; -132.200; -821.000; -703.000
361.789;   31.300; -139.000; -155.000
361.921;  236.200; -642.000; -593.000
362.053;  399.700;  524.000;  541.000
362.185;  106.900;  288.000;   72.000
362.318; -159.600; -709.000; -705.000
362.450;  208.300;  294.000;  444.000
362.582;   59.300; -913.000; -870.000
362.714;  -29.200; -353.000; -332.000
362.846; -149.400; -606.000; -490.000
362.978; -253.300; -941.000; -811.000
363.109;   51.200; -161.000; -260.000
363.241;  520.900; -739.000; -749.000
363.373;  622.600; -649.000; -564.000
363.505; 1137.000; -186.000;  -91.000
363.637;  258.700; -787.000; -601.000
363.769; -253.200;-1067.000;-1080.000
363.901; -106.200; -596.000; -654.000
364.033; -243.200;-1103.000;-1062.000
364.165;   17.000; -283.000; -283.000
364.296;  143.400; -316.000; -177.000
364.428;   70.900;-1344.000;-1220.000
364.560; -115.200; -679.000; -661.000
364.692; -122.800; -738.000; -835.000
364.824;  291.400; -588.000; -456.000
364.955;  677.000; -402.000; -564.000
365.087; 1476.400;-1097.000; -852.000
365.219;   25.700; -686.000; -816.000
365.351; -139.800; -526.000; -572.000
365.482;  113.100;  300.000;  240.000
365.614;  -53.400; -402.000; -314.000
365.746; -173.200; -729.000; -752.000
365.877; -151.600; -706.000; -672.000
366.009;  493.700;  -35.000;  -62.000
366.141; -220.300;-1249.000;-1134.000
366.272; -159.400; -803.000; -719.000
366.404; -195.200;-1005.000; -874.000
366.535;   23.500; -139.000;  -12.000
366.667; -198.600; -644.000; -649.000
366.799;  134.300;  353.000;  203.000
366.930; -242.100; -862.000; -996.000
367.062;  178.700; -639.000; -613.000
367.193;  198.800; -872.000; -842.000
367.325; -115.800; -580.000; -684.000
367.456;   34.600; -246.000;   31.000
367.588;  262.700; -371.000; -318.000
367.719;   36.500;  -44.000;  -45.000
367.851;  -30.300; -222.000; -241.000
367.982; -104.400; -875.000; -732.000
368.113;  147.800; -475.000; -358.000
368.245; -246.800; -960.000; -841.000
368.376;  -19.400; -254.000; -302.000
368.508;  -73.300; -188.000; -263.000
368.639; -258.100;-1166.000;-1034.000
368.770;  -81.900; -670.000; -589.000
368.902; -153.000; -836.000; -926.000
369.033; -183.700; -906.000; -855.000
369.164;  -86.100; -720.000; -653.000
369.296; -182.300; -452.000; -601.000
369.427;   -9.700; -209.000; -144.000
369.558;  -79.800; -593.000; -377.000
369.689; -129.600; -721.000; -569.000
369.821; -246.000; -951.000; -845.000
369.952;    8.200;   42.000; -108.000
370.083;  -62.700; -229.000; -108.000
370.214; -139.800; -735.000; -650.000
370.345;    8.500;   65.000;   81.000
370.477; -184.400; -810.000; -790.000
370.608;  326.900; -328.000; -264.000
370.739; -134.200;-1233.000;-1292.000
370.870; -115.100;-1102.000; -923.000
371.001;   65.600; -378.000; -467.000
371.132; -165.700; -754.000; -735.000
371.263;   -4.500;  -42.000; -148.000
371.394; -240.500; -841.000; -748.000
371.525;  121.400;  345.000;  225.000
371.657; -169.900; -808.000; -670.000
371.788;  127.400;  103.000;  199.000
371.919;  195.800; -384.000; -304.000
372.050; 4803.500;  -91.000; -156.000
372.181; 1425.500; -188.000; -294.000
372.311;  489.500;   42.000; -127.000
372.442;    6.500; -457.000; -451.000
372.573;  -13.400; -444.000; -340.000
372.704; -229.300;-1008.000; -980.000
372.835;   93.700; -228.000; -289.000
372.966; -107.700; -646.000; -554.000
373.097; -111.700; -575.000; -711.000
373.228; -102.100; -717.000; -542.000
373.359;   90.000; -824.000; -536.000
373.490; 1145.100; -881.000; -727.000
373.620; 1361.800;-1001.000; -803.000
373.751; 2300.500; -332.000; -396.000
373.882;  985.800; -663.000; -733.000
374.013;   64.300; -449.000; -262.000
374.143;  -84.300; -581.000; -659.000
374.274; -171.700; -987.000; -908.000
374.405;  199.800; -388.000; -276.000
374.536;  558.000; -526.000; -387.000
374.666; 1353.000; -759.000; -807.000
374.797;  221.400; -817.000; -868.000
374.928; 1058.500; -710.000; -560.000
375.058; 1068.900; -535.000; -500.000
375.189;  116.800;  -59.000;  -93.000
375.320; -223.200; -928.000;-1034.000
375.450;  -93.800; -625.000; -616.000
375.581; -105.600; -526.000; -436.000
375.712;  -48.900; -574.000; -250.000
375.842;  372.100; -438.000; -415.000
375.973;  241.900; -554.000; -513.000
376.103; -106.400; -665.000; -648.000
376.234; -150.800; -531.000; -552.000
376.364; -127.000; -944.000; -867.000
376.495;  553.200;  925.000;  529.000
376.625;  -33.900; -472.000; -485.000
376.756;   57.400; -709.000; -678.000
376.886; -179.700;-1178.000;-1026.000
377.017;   57.100;-1048.000;-1061.000
377.147;  550.900; -786.000; -782.000
377.278;  174.000;  174.000;  228.000
377.408; -256.100; -801.000; -815.000
377.538; -178.400; -707.000; -693.000
377.669; -118.200; -537.000; -613.000
377.799; -178.400; -645.000; -635.000
377.929; -115.100; -610.000; -428.000
378.060; -235.500; -781.000; -847.000
378.190; -102.900; -726.000; -531.000
378.320;  -64.200; -401.000; -406.000
378.451;   16.200; -131.000;  -22.000
378.581;   -0.600;  -67.000; -110.000
378.711;  323.700; 1035.000;  866.000
378.841;  -58.200; -533.000; -675.000
378.972; -171.100; -871.000; -751.000
379.102;  -17.000; -652.000; -579.000
379.232;  -73.700; -126.000;  -73.000
379.362; -198.300;-1001.000; -885.000
379.492;  -39.900; -373.000; -424.000
379.623;  197.300;    0.000;  111.000
379.753; -179.300;-1107.000; -974.000
379.883;  381.700;   59.000;  156.000
380.013; -105.100;-1081.000;-1017.000
380.143; -219.600;-1097.000;-1056.000
380.273; -192.000; -985.000; -861.000
380.403;  -19.600; -344.000; -257.000
380.533; -124.800; -651.000; -664.000
380.663;  140.600;  173.000;  128.000
380.793; -221.500;-1027.000;-1074.000
380.923;  -22.800; -103.000;  -34.000
381.053; -167.700; -613.000; -623.000
381.183;    1.600; -106.000; -248.000
381.313;   13.500; -656.000; -470.000
381.443;   35.200; -692.000; -473.000
381.573;  183.500; -402.000; -409.000
381.703;  218.500;-1249.000;-1095.000
381.833; -279.100;-1454.000;-1336.000
381.963;  204.600; -134.000;  -87.000
382.093; 1813.300; -925.000; -909.000
382.223;  454.300; -713.000; -602.000
382.353; -105.500; -801.000; -608.000
382.482;  392.100;-1091.000; -964.000
382.612; 1035.400; -872.000; -644.000
382.742;  502.700; -695.000; -622.000
382.872;  332.800; -565.000; -551.000
383.002;  141.200;  347.000; -132.000
383.131;  -12.700; -226.000; -160.000
383.261;  -69.200; -706.000; -768.000
383.391;  403.800; -552.000; -377.000
383.521; 5138.900;  451.000;  263.000
383.650; 1132.300; -947.000; -904.000
383.780;  -20.100; -783.000; -656.000
383.910;  255.900;  880.000;  802.000
384.039;  -18.200; -794.000; -656.000
384.169;  154.900;-1205.000;-1017.000
384.299;  -53.200; -650.000; -662.000
384.428; -174.900; -764.000; -680.000
384.558;  -63.700; -308.000; -275.000
384.687;  -59.300; -414.000; -334.000
384.817;   43.600;   75.000;   -2.000
384.947;   22.200; -234.000; -141.000
385.076;  502.500;  982.000;  912.000
385.206;  197.900;  369.000;  480.000
385.335;  -50.900; -549.000; -417.000
385.465; -168.300; -655.000; -663.000
385.594;  195.900;  -53.000;  -44.000
385.724;  453.500; -868.000; -838.000
385.853;  150.100; -296.000; -270.000
385.982; 1761.200; -743.000; -787.000
386.112; 2647.500;-1052.000; -871.000
386.241;  163.800; -307.000; -312.000
386.371;   82.500; -174.000;  -87.000
386.500;  -65.500; -825.000; -789.000
386.629;    5.800; -874.000; -817.000
386.759;  113.800;  -43.000;   68.000
386.888;   11.200; -170.000; -250.000
387.017; -141.000; -648.000; -620.000
387.147; -163.200; -771.000; -798.000
387.276;   -8.900; -410.000; -397.000
387.405;   36.500; -398.000; -342.000
387.535;  -76.500; -452.000; -361.000
387.664; -104.400; -692.000; -620.000
387.793;   82.900; -198.000; -113.000
387.922;  685.100;  255.000;  200.000
388.052;  -13.100; -576.000; -423.000
388.181;   17.400; -342.000; -472.000
388.310; -106.800; -889.000; -710.000
388.439; -116.700; -749.000; -742.000
388.568;  288.800;  365.000;  244.000
388.697; 1321.700; -756.000; -653.000
388.826;  179.500; -768.000; -666.000
388.956;   73.500; -285.000; -307.000
389.085;  -48.300; -347.000; -287.000
389.214; -218.200; -842.000; -872.000
389.343; -113.600; -645.000; -413.000
389.472;  682.900;  126.000;  149.000
389.601;  832.700;   91.000;    0.000
389.730;   11.600; -568.000; -687.000
389.859;  100.400;  226.000;   46.000
389.988;  247.300; -423.000; -408.000
390.117;  153.500; -168.000; -146.000
390.246;  -23.600; -331.000; -320.000
390.375;   73.700; -673.000; -626.000
390.504; -123.800; -703.000; -621.000
390.633; -199.200; -672.000; -726.000
390.761; -109.100; -732.000; -645.000
390.890;   27.300;   -4.000; -130.000
391.019;  -42.800; -421.000; -441.000
391.148; -207.500; -826.000; -855.000
391.277; -111.300; -576.000; -493.000
391.406; -181.000; -821.000; -805.000
391.534;   76.600;  574.000; -301.000
391.663; -129.400; -583.000; -645.000
391.792; -147.400; -673.000; -701.000
391.921;  123.000;   -3.000;   15.000
392.050;  244.000; -287.000; -228.000
392.178; -139.900;-1206.000;-1061.000
392.307;  133.300; -758.000; -712.000
392.436;   66.300; -427.000; -641.000
392.564;   81.300;  166.000;   -6.000
392.693; -182.300; -860.000; -682.000
392.822;  270.700; -529.000; -534.000
392.950;   64.100; -880.000; -714.000
393.079;  433.700; -188.000; -328.000
393.208;    6.600; -488.000; -511.000
393.336;  -36.400; -170.000; -145.000
393.465;  -40.200; -317.000; -199.000
393.593;   74.100;   62.000;   79.000
393.722; -287.900;-1121.000; -916.000
393.850;  -27.500; -188.000;  -61.000
393.979; -251.200; -926.000; -805.000
394.107;  -91.500; -517.000; -537.000
394.236;  -67.800; -570.000; -507.000
394.364;  444.800;  383.000;  206.000
394.493;  589.900; -911.000; -767.000
394.621;  -37.300; -955.000; -916.000
394.750; 1120.800; -873.000; -923.000
394.878; 4680.700; -247.000; -149.000
395.007; 6062.900; -721.000; -807.000
395.135;  437.800; -790.000; -721.000
395.263; -152.300;-1038.000;-1040.000
395.392;   56.900;  -25.000; -107.000
395.520; -179.800; -818.000; -679.000
395.648; -183.500; -865.000; -915.000
395.777;  -42.400; -366.000; -405.000
395.905;  -80.500; -449.000; -564.000
396.033;   73.900;  217.000;  172.000
396.162; 1074.400; -399.000; -453.000
396.290;  921.100;  -17.000;   -2.000
396.418;  120.800; -555.000; -514.000
396.546; -176.700; -571.000; -466.000
396.674; -197.600; -850.000; -878.000
396.803;   28.700;  -72.000;  -23.000
396.931;  107.100; -179.000; -199.000
397.059;  -80.300;-1026.000; -989.000
397.187; -204.100;-1026.000; -975.000
397.315; -259.200; -884.000; -649.000
397.443; -140.000; -592.000; -443.000
397.572; -185.800; -578.000; -424.000
397.700;  -64.300; -607.000; -614.000
397.828;   25.200;  120.000;  -90.000
397.956;  -41.300; -508.000; -478.000
398.084; -119.000; -767.000; -626.000
398.212;   91.300;  137.000;  124.000
398.340;   40.000;  -56.000;  159.000
398.468;   -9.900; -390.000; -169.000
398.596; -230.100; -993.000; -953.000
398.724; -193.600; -762.000; -767.000
398.852; -276.000;-1024.000; -976.000
398.980;  -95.100; -560.000; -560.000
399.108; -117.200; -982.000; -735.000
399.236;   68.800;   13.000;    8.000
399.363;   64.500;  222.000;  196.000
399.491; -109.000; -404.000; -398.000
399.619; -234.900; -829.000; -800.000
399.747; -203.900; -859.000; -771.000
399.875;  160.300;  220.000;  234.000
400.003;  -53.700; -359.000; -284.000
400.130; -170.700; -421.000; -341.000
400.258;   14.800;  -83.000;   38.000
400.386;  -92.100; -352.000; -168.000
400.514;  -89.000; -526.000; -587.000
400.641; -227.600; -928.000; -802.000
400.769; -247.200; -979.000; -888.000
400.897; -196.700; -838.000; -793.000
401.025;   25.400; -166.000; -152.000
401.152;   28.700;  220.000;   38.000
401.280; -111.200; -430.000; -429.000
401.408; -203.000; -712.000; -576.000
401.535; -146.700; -735.000; -758.000
401.663; -342.700;-1134.000;-1054.000
401.790; -126.900; -514.000; -525.000
401.918;  126.000;  436.000;  405.000
402.046;   23.700;  134.000;  122.000
402.173;  -26.200;  -18.000;    7.000
402.301;  -88.700; -519.000; -397.000
402.428;  124.300;  528.000;  383.000
402.556; -252.500;-1188.000; -913.000
402.683;  -17.300;  -20.000;   -1.000
402.811;   19.500;  -37.000; -206.000
402.938;    4.400;   20.000;   27.000
403.066;  228.600; -574.000; -558.000
403.193;  429.400;  299.000;  239.000
403.321;  330.600; -396.000; -574.000
403.448;  434.600;   83.000;   27.000
403.575;  184.800;  -90.000;  -46.000
403.703; -189.700; -732.000; -557.000
403.830;  -59.500; -531.000; -496.000
403.957; -257.300;-1117.000;-1023.000
404.085;   71.800;  -61.000; -172.000
404.212;  178.000;  -50.000;   63.000
404.339;  444.300; -566.000; -306.000
404.467; 9259.500; -612.000; -524.000
404.594; 5475.400; -287.000; -227.000
404.721; 1107.900; -869.000; -764.000
404.848;  118.900; -113.000; -202.000
404.976; -175.100; -856.000; -783.000
405.103;   39.400;  -14.000;  -82.000
405.230;   16.000;  190.000;  226.000
405.357;   69.400;  117.000;   44.000
405.484;  449.400;  -49.000;    5.000
405.612;   77.300; -548.000; -563.000
405.739;  -91.300; -488.000; -243.000
405.866;  194.200;  669.000;  385.000
405.993;  -65.300; -398.000; -102.000
406.120; -220.900; -801.000; -887.000
406.247;  -62.400; -323.000; -342.000
406.374;  652.700;  540.000;  629.000
406.501;   48.300; -632.000; -702.000
406.628; -128.400; -621.000; -589.000
406.755; -153.700; -803.000; -620.000
406.882;  -63.200; -228.000; -277.000
407.009; -195.900; -719.000; -628.000
407.136;   71.900; -480.000; -401.000
407.263;   59.900; -939.000; -829.000
407.390; -126.500; -692.000; -614.000
407.517; -301.600;-1139.000;-1187.000
407.644;  -73.700; -332.000; -256.000
407.771; -238.300; -249.000; -287.000
407.898;   53.000;  168.000;  328.000
408.025;  -88.300; -421.000; -313.000
408.151;   39.800;   82.000;  153.000
408.278;  -98.200; -267.000; -216.000
408.405; -177.600; -931.000; -899.000
408.532; -100.300; -549.000; -542.000
408.659; -200.300; -677.000; -648.000
408.785; -354.400;-1298.000;-1170.000
408.912;  -55.500; -412.000; -296.000
409.039; -175.600; -610.000; -686.000
409.166; -147.500; -591.000; -555.000
409.292; -189.200; -571.000; -534.000
409.419; -213.900; -665.000; -649.000
409.546; -148.600; -431.000; -192.000
409.672; -161.000; -713.000; -545.000
409.799;   26.300;  -36.000;   34.000
409.926;  -30.500; -180.000; -179.000
410.052; -301.100;-1127.000;-1091.000
410.179; -130.500; -368.000; -392.000
410.305; -132.500; -375.000; -493.000
410.432;  -49.900; -220.000; -333.000
410.558; -141.400; -305.000; -380.000
410.685; -162.300; -688.000; -431.000
410.812; -155.000; -409.000; -588.000
410.938; -206.400; -964.000; -808.000
411.065; -203.600; -671.000; -645.000
411.191;  -22.600; -189.000; -174.000
411.317; -218.100; -823.000; -742.000
411.444;  -72.400; -317.000; -246.000
411.570; -115.000; -339.000; -294.000
411.697; -186.300; -758.000; -752.000
411.823; -315.700; -989.000; -999.000
411.949;   -0.400;  -56.000;   17.000
412.076; -196.100; -539.000; -519.000
412.202; -201.400; -758.000; -757.000
412.329; -218.900; -798.000; -752.000
412.455; -192.700; -821.000; -657.000
412.581;  -34.800;  -15.000;  172.000
412.707; -133.800; -540.000; -457.000
412.834;   71.500;  156.000;  219.000
412.960; -144.900; -785.000; -784.000
413.086; -176.000; -743.000; -701.000
413.212;  262.700;  604.000;  578.000
413.339; -131.900; -685.000; -701.000
413.465;  -23.500; -364.000; -310.000
413.591; -184.100; -757.000; -474.000
413.717;  -49.500; -358.000; -366.000
413.843; -237.100; -839.000; -861.000
413.969;  -60.700;  -47.000; -292.000
414.096; -183.700; -679.000; -679.000
414.222;   53.300;  -33.000;   85.000
414.348;  -46.600; -652.000; -385.000
414.474;  156.700;   38.000;  -52.000
414.600;  -45.100; -126.000; -144.000
414.726;   33.100;  -96.000;  -55.000
414.852; -107.000; -365.000; -342.000
414.978;  104.200;  104.000;  -18.000
415.104;   95.900;   38.000;   80.000
415.230;   62.900; -329.000; -330.000
415.356;   62.400; -409.000; -514.000
415.482;  333.600;   13.000;  -35.000
415.608;  407.800; -247.000; -323.000
415.734; 1609.400;   67.000;   38.000
415.860;32175.200; -875.000; -767.000
415.986;21193.300; -685.000; -607.000
416.111; 1739.200; -798.000; -652.000
416.237;  406.600; -424.000; -571.000
416.363; 1923.000; -765.000; -733.000
416.489; 6503.500; -324.000; -251.000
416.615;  631.600; -707.000; -742.000
416.741;  -54.700; -677.000; -784.000
416.866; -164.200; -673.000; -736.000
416.992; -185.900; -801.000; -818.000
417.118;   13.300;  -41.000;  -80.000
417.244; -120.100; -798.000; -531.000
417.369; -141.600; -801.000; -612.000
417.495;    4.600; -325.000; -254.000
417.621; -174.300;-1015.000; -803.000
417.746;   22.800; -579.000; -572.000
417.872;  137.800; -254.000; -144.000
417.998;   77.800; -515.000; -530.000
418.123; 1816.200;-1073.000; -845.000
418.249; 8447.000; -512.000; -601.000
418.374; 1021.500; -916.000; -824.000
418.500;  183.100; -383.000; -482.000
418.626;  230.400;   70.000;  -59.000
418.751;  180.000; -549.000; -448.000
418.877;  274.000; -637.000; -643.000
419.002; 3071.700; -688.000; -560.000
419.128;19775.300; -930.000; -721.000
419.253; 4360.000; -967.000; -837.000
419.379;  596.000; -391.000; -338.000
419.504;  717.200;  325.000;  415.000
419.629;  760.700; -393.000; -212.000
419.755; 6207.600; -317.000; -254.000
419.880;33531.200;  -98.000;   67.000
420.006;18290.800; -280.000; -221.000
420.131;45060.300; -662.000; -775.000
420.256; 5867.200; -315.000; -316.000
420.382;  751.000; -665.000; -687.000
420.507;   64.500; -649.000; -778.000
420.632;  190.000; -337.000; -339.000
420.758;  354.800; -251.000; -425.000
420.883; -147.800; -876.000; -672.000
421.008; -124.300; -775.000; -619.000
421.133; -107.900; -509.000; -467.000
421.259;  -48.800; -325.000; -259.000
421.384; -210.400; -834.000; -693.000
421.509; -135.400;-1052.000; -862.000
421.634; 1383.500; -936.000; -820.000
421.759;  564.000; -359.000; -327.000
421.885; -109.900; -717.000; -656.000
422.010; -105.700; -673.000; -542.000
422.135; -251.300; -695.000; -727.000
422.260;  112.800;  340.000;  280.000
422.385;  -25.700;   12.000;  -98.000
422.510;   58.900;  151.000;  -26.000
422.635;   52.800;  -87.000;  -43.000
422.760;  134.600; -766.000; -791.000
422.885;   93.900;  -57.000;  -80.000
423.010;    6.100; -112.000; -169.000
423.135; -147.000; -481.000; -561.000
423.260;   27.100; -150.000; -245.000
423.385;  121.200;  476.000;  222.000
423.510;  100.100;   71.000;  -22.000
423.635;  114.300;  133.000;   45.000
423.760;  157.400;  383.000;  328.000
423.885;  124.300;  336.000;  391.000
424.010;   43.900;  -68.000;  -13.000
424.135;   20.700;    5.000;  -33.000
424.259;  -89.200; -654.000; -457.000
424.384;  -85.900; -279.000; -272.000
424.509;    4.500; -260.000; -186.000
424.634; -198.500; -761.000; -623.000
424.759;  -48.500; -688.000; -544.000
424.883;  -38.100; -506.000; -527.000
425.008;  288.600; -502.000; -410.000
425.133; 3191.400; -679.000; -653.000
425.258; 1340.700; -517.000; -381.000
425.382; 1410.600; -867.000; -774.000
425.507; 3311.600; -487.000; -543.000
425.632;  505.400; -802.000; -663.000
425.756;  758.200; -256.000; -146.000
425.881;11397.400; -831.000; -857.000
426.006;27721.700; -604.000; -355.000
426.130; 3874.500; -696.000; -508.000
426.255;  526.800; -611.000; -491.000
426.379;  260.200; -189.000; -577.000
426.504;  682.100;  660.000;  544.000
426.629; 6417.400; -519.000; -466.000
426.753; 4017.100;   64.000;  -46.000
426.878;  506.700; -252.000; -288.000
427.002;  213.000; -651.000; -668.000
427.127; 2677.200;  -35.000; -158.000
427.251;18597.100;  372.000;  401.000
427.375; 4649.100; -191.000; -173.000
427.500; 3093.100; -616.000; -610.000
427.624;  930.400; -234.000; -400.000
427.749;  126.200; -216.000; -225.000
427.873;  -57.700; -499.000; -412.000
427.997;  -46.700; -222.000; -230.000
428.122;  173.600;  795.000;  703.000
428.246;  170.100;  433.000;  434.000
428.371; -245.500; -869.000; -773.000
428.495; -157.700; -624.000; -646.000
428.619;    5.400; -186.000; -117.000
428.743;   62.400;   65.000;  132.000
428.868;  -50.500; -732.000; -643.000
428.992; 1833.100; -219.000; -326.000
429.116;  652.100; -329.000; -357.000
429.240;  390.700;  419.000;  426.000
429.365;  -34.800; -454.000; -574.000
429.489; -105.000; -638.000; -647.000
429.613;   35.600; -236.000; -177.000
429.737;   90.100; -563.000; -432.000
429.861;  450.700; -247.000; -133.000
429.985; 9154.900; -425.000; -305.000
430.109; 9137.100; -770.000; -908.000
430.234; 1009.600;   76.000;  -50.000
430.358;  107.500; -250.000; -160.000
430.482; -110.200; -672.000; -564.000
430.606;  -95.000; -655.000; -375.000
430.730;   24.000; -437.000; -388.000
430.854;   70.600; -909.000; -835.000
430.978; -112.300; -795.000; -764.000
431.102; -118.000; -499.000; -422.000
431.226; -189.600; -874.000; -815.000
431.350;  110.300;  345.000;  422.000
431.474;  -98.000; -661.000; -373.000
431.597; -274.600;-1060.000; -848.000
431.721;  -97.600; -276.000; -267.000
431.845; -210.100; -704.000; -472.000
431.969;  -80.900; -304.000; -349.000
432.093; -154.700; -395.000; -317.000
432.217;   54.600;   32.000;   82.000
432.341; -119.900; -523.000; -518.000
432.464;   79.400;   96.000;   40.000
432.588;  241.300; -401.000; -329.000
432.712;  128.800;  -52.000;  -52.000
432.836;  139.200;  213.000;  263.000
432.959;   23.400; -372.000; -311.000
433.083;  159.400;   11.000;    2.000
433.207;  673.800;  285.000;  930.000
433.330; 8486.600; -391.000; -200.000
433.454; 9404.400; -654.000; -638.000
433.578; 5646.600;  583.000;  278.000
433.701;  871.600; -623.000; -675.000
433.825;  183.400; -292.000; -299.000
433.949;  239.300;   28.000;  -72.000
434.072;   44.400; -410.000; -323.000
434.196;    1.700; -309.000; -117.000
434.319; 7804.800;25482.000;25124.000
434.443; 1186.400; -656.000; -603.000
434.566; 4156.700;  281.000;   62.000
434.690;  600.400; -637.000; -383.000
434.813;  121.700; -251.000; -173.000
434.937; -120.600; -569.000; -696.000
435.060;  -68.400; -423.000; -332.000
435.184;  353.000; -492.000; -217.000
435.307;  209.100;  159.000;  102.000
435.431;  -11.200;  -40.000;   24.000
435.554; -117.400; -399.000; -240.000
435.677; -115.600; -350.000; -258.000
435.801;  -19.400;  -25.000;   49.000
435.924;  -14.300;    1.000;  -67.000
436.048; -232.800;-1019.000; -732.000
436.171;  -78.100; -240.000;  -66.000
436.294;  -45.200; -248.000; -229.000
436.417;  133.700; -963.000; -849.000
436.541; -166.800; -814.000; -840.000
436.664;  -31.600; -242.000; -316.000
436.787;    8.400;   13.000;  113.000
436.910; -199.400; -792.000; -422.000
437.034;   55.900;  142.000;  143.000
437.157;  131.900;  -11.000;    0.000
437.280;  -89.600; -392.000; -292.000
437.403; -186.100; -982.000; -869.000
437.526;  730.100; -903.000; -865.000
437.649; 2627.000; -505.000; -332.000
437.772;  259.200; -692.000; -540.000
437.896;  243.000;  700.000;  544.000
438.019; -137.300; -758.000; -503.000
438.142; -144.300; -596.000; -506.000
438.265;  -48.000; -639.000; -670.000
438.388;  638.400; -520.000; -410.000
438.511;   55.200; -597.000; -394.000
438.634;  -86.600; -247.000; -125.000
438.757; -203.400; -693.000; -619.000
438.880;   27.800;  -34.000;  -57.000
439.003; -128.700; -417.000; -437.000
439.126;  -86.600; -287.000; -167.000
439.248;  -77.100;  -98.000; -139.000
439.371;   -9.900;    9.000;  -53.000
439.494;  124.700;  510.000;  439.000
439.617;  -35.100;   65.000;  -88.000
439.740; -317.300; -968.000; -816.000
439.863; -252.600; -755.000; -595.000
439.986; -187.000; -476.000; -431.000
440.108;  -12.300; -161.000; -112.000
440.231; -292.600; -950.000; -836.000
440.354;  -53.700;  -64.000; -150.000
440.477;   20.500; -566.000; -542.000
440.599;   13.400; -200.000; -225.000
440.722; -200.500; -709.000; -586.000
440.845;  223.200;  751.000;  928.000
440.968; -175.800; -415.000; -311.000
441.090;  -40.600; -199.000;  -33.000
441.213; -276.300;-1021.000; -825.000
441.336;  -49.100; -159.000;   -5.000
441.458; -107.200; -549.000; -396.000
441.581; -144.900; -628.000; -629.000
441.703;  -59.500; -152.000;   13.000
441.826; -146.500; -557.000; -400.000
441.948;  -55.100;   56.000;   51.000
442.071;  172.500;  555.000;  424.000
442.193; -182.700; -531.000; -485.000
442.316;  133.500;  152.000;   97.000
442.438;   59.600; -233.000;  -10.000
442.561;  162.800;  272.000;  262.000
442.683;  693.700; -809.000; -522.000
442.806; 1367.900;   -8.000;   74.000
442.928;  -75.000; -859.000; -604.000
443.051;  -70.000; -577.000; -373.000
443.173; -152.200; -341.000; -339.000
443.295; -132.300; -263.000; -371.000
443.418; -113.600; -321.000;  -29.000
443.540;   25.600; -106.000;   -4.000
443.662; -213.400; -563.000; -465.000
443.785;   28.200;  335.000;  199.000
443.907; -171.100; -362.000; -208.000
444.029; -189.800; -767.000; -494.000
444.152; -229.600; -644.000; -554.000
444.274;  -11.700;  -18.000;  -24.000
444.396; -164.400; -461.000; -221.000
444.518; -223.400; -691.000; -454.000
444.640; -162.400; -268.000; -111.000
444.763;   24.300;  388.000;  249.000
444.885; -195.200; -432.000; -392.000
445.007;   34.300;   35.000;   86.000
445.129; -183.500; -610.000; -515.000
445.251; -166.600; -372.000; -439.000
445.373; -200.400; -537.000; -386.000
445.495;   57.200;  242.000;  350.000
445.617;  134.200;  853.000;  753.000
445.739;  -84.200; -215.000;  -97.000
445.861;  -56.700; -245.000; -112.000
445.984;  -46.200; -267.000; -101.000
446.105;  269.600; -418.000; -251.000
446.227;  765.500; -176.000;  -19.000
446.349;  -37.100; -358.000; -249.000
446.471; -158.900; -615.000; -448.000
446.593;  -63.500; -316.000;   19.000
446.715;   51.900;  -67.000;   41.000
446.837;  205.000;  697.000;  832.000
446.959; -149.900; -457.000; -478.000
447.081; -242.000; -628.000; -518.000
447.203;  193.100;  862.000;  834.000
447.325;  -91.900; -270.000;   42.000
447.446;   54.800;  286.000;  530.000
447.568; -284.000; -921.000; -803.000
447.690;  -75.000; -236.000; -245.000
447.812; -262.800; -798.000; -519.000
447.933;   11.300;  155.000;  127.000
448.055;  -92.500; -306.000; -261.000
448.177;  259.000;   31.000;   79.000
448.299;   11.800; -935.000; -727.000
448.420;   58.100;  -25.000;  159.000
448.542;  -37.700;   -3.000;   33.000
448.664;   41.700;  109.000;  322.000
448.785;  -24.200;  265.000;   83.000
448.907; -120.300; -614.000; -353.000
449.028; -105.100; -771.000; -471.000
449.150;  177.600;  492.000;  589.000
449.272; -328.000;-1044.000; -913.000
449.393;  147.300;  612.000;  694.000
449.515; -237.300; -634.000; -581.000
449.636;  -40.100; -264.000; -155.000
449.758;  146.300;  763.000;  622.000
449.879; -138.000; -498.000; -396.000
450.001; -122.000; -149.000;  -49.000
450.122;    8.300;  -95.000;  162.000
450.244;   15.900;   37.000;  364.000
450.365; -139.000; -495.000; -301.000
450.486;  -15.400;   80.000;  268.000
450.608;  114.200;  393.000;  326.000
450.729;  176.700;  578.000;  645.000
450.850;   63.900; -574.000; -466.000
450.972; 1360.500; -552.000; -389.000
451.093; 8209.100;  190.000;  588.000
451.214; 3089.700; -516.000; -337.000
451.336;  685.400;  773.000;  579.000
451.457;  145.500;  264.000;  393.000
451.578;   -6.300; -118.000;  -74.000
451.699; -199.400; -546.000; -540.000
451.821;  -55.300; -284.000;  -50.000
451.942;   34.700;  278.000;  285.000
452.063;  141.300;  228.000;  419.000
452.184;  956.900;  -54.000;  -49.000
452.305; 1723.400;  103.000;  170.000
452.427;  174.600; -549.000; -301.000
452.548;    6.800;   23.000;   79.000
452.669;  -67.900; -257.000;  -89.000
452.790;  -57.100;    3.000;  -18.000
452.911;   41.900;  195.000;  259.000
453.032;  -90.900; -289.000;  -60.000
453.153;  -52.900;  -29.000;   81.000
453.274;  183.200;  737.000;  868.000
453.395;  -29.700;  -51.000;  175.000
453.516;   92.400; 1317.000; 1388.000
453.637;  -78.700; -205.000; -150.000
453.758;  -10.500;   15.000;   69.000
453.879; -173.000; -462.000; -250.000
454.000;  216.400; 1086.000;  948.000
454.121; -192.400; -554.000; -326.000
454.242; -144.500; -599.000; -383.000
454.362;  -48.600;  -99.000;  114.000
454.483;  -10.700; -309.000; -229.000
454.604;  116.600;  512.000;  580.000
454.725; -220.800; -627.000; -555.000
454.846; -207.600; -474.000; -406.000
454.967;   28.000;  230.000;  539.000
455.087;  -37.100;  179.000;  153.000
455.208;   96.400;  554.000;  856.000
455.329;  -81.900;  -22.000;   82.000
455.450;  136.000;  473.000;  633.000
455.570; -110.100; -234.000; -211.000
455.691;   -0.100;  201.000;  407.000
455.812; -164.800; -270.000;  -92.000
455.932;  -55.200;  107.000;  -97.000
456.053; -110.800;   36.000;   24.000
456.173; -178.600; -433.000; -355.000
456.294; -208.300; -476.000; -303.000
456.415;  -50.500;  -73.000;   70.000
456.535;  -44.400;  297.000;  273.000
456.656;  -15.800;  132.000;  240.000
456.776;  -64.700;    3.000;  298.000
456.897;   49.000;  308.000;  513.000
457.017; -108.200; -153.000;   -3.000
457.138; -183.400; -402.000; -249.000
457.258;  -11.700;  263.000;  224.000
457.379;   30.700;  509.000;  521.000
457.499;    2.700;  443.000;  432.000
457.620; -189.700; -407.000; -231.000
457.740; -157.100; -132.000;  -11.000
457.860;  -31.900;   87.000;   44.000
457.981;  -37.900;  132.000;  124.000
458.101;  -72.800;  -89.000;   40.000
458.221;   39.900;  336.000;  402.000
458.342;  -35.500;   -4.000;  -37.000
458.462;  120.400;  617.000;  352.000
458.582;  -49.200; -302.000; -294.000
458.703;   68.300;  303.000;  154.000
458.823;   -4.900;   22.000;  163.000
458.943;  119.300;  341.000;  467.000
459.063;   26.000; 1124.000;  192.000
459.183;   19.800;  328.000;  313.000
459.304;   93.000;  315.000;  517.000
459.424;  -54.600; -246.000;  -89.000
459.544;  639.900;  388.000;  764.000
459.664; 1384.000;  499.000;  506.000
459.784;  581.800; 1004.000; 1175.000
459.904;  138.500;  867.000;  744.000
460.024;  192.600;  867.000;  684.000
460.144;   55.700;  449.000;  554.000
460.264;   38.700;  515.000;  327.000
460.385; -114.600; -145.000; -119.000
460.505;  146.100;  905.000;  858.000
460.625; -125.400;  -17.000;  -68.000
460.745;   34.400;  396.000;  541.000
460.864;  -38.000;  153.000;  469.000
460.984;  104.100;  499.000;  573.000
461.104;  363.600; 1656.000; 1775.000
461.224;  112.000;  657.000;  650.000
461.344;   -7.800;  431.000;  360.000
461.464;   17.400;  258.000;  513.000
461.584;   -3.100;  283.000;  466.000
461.704;  -27.800;   58.000;  108.000
461.824;  -63.500;  238.000;  259.000
461.943;  -44.800;  191.000;  130.000
462.063; -131.400;    2.000;  324.000
462.183;  136.000;  639.000;  717.000
462.303;  276.200; 1678.000; 1230.000
462.422;  115.700;  781.000;  840.000
462.542;  -34.600;  271.000;  391.000
462.662;  123.300;  353.000;  380.000
462.782;  458.500;  833.000;  572.000
462.901;  848.700;  545.000;  717.000
463.021;  553.600; 1702.000; 1638.000
463.141;   34.100;  337.000;  770.000
463.260;   -3.900;  614.000;  474.000
463.380;   94.500;  902.000;  884.000
463.499;    4.100;  342.000;  332.000
463.619;   -6.800;  581.000;  559.000
463.738;  285.000; 1644.000;  903.000
463.858;   70.100;  657.000;  811.000
463.978;   21.300;  542.000;  396.000
464.097;  165.300;  921.000; 1114.000
464.217;  313.100; 1196.000; 1143.000
464.336;  277.300; 1068.000; 1130.000
464.455;   -2.500;  328.000;  659.000
464.575;  139.000;  597.000;  602.000
464.694;  332.000; 1204.000; 1179.000
464.814;  301.400; 1190.000; 1138.000
464.933;  191.800; 1095.000; 1027.000
465.052;  295.400; 1412.000; 1054.000
465.172;  191.800;  922.000;  799.000
465.291;  325.800; 1376.000; 1320.000
465.410;  102.800;  462.000;  735.000
465.530;  239.200; 1355.000; 1310.000
465.649;  191.900; 1209.000; 1273.000
465.768;  391.900; 1673.000; 1508.000
465.888;  153.000;  941.000; 1174.000
466.007;  279.200; 1335.000; 1440.000
466.126;   38.400;  721.000;  641.000
466.245;  136.600; 1176.000; 1187.000
466.364;  117.700;  950.000; 1060.000
466.484;  152.900; 1024.000; 1213.000
466.603;  127.900; 1101.000; 1222.000
466.722;  314.000; 1490.000; 1769.000
466.841;  244.600; 1151.000; 1401.000
466.960;  156.500; 1069.000;  972.000
467.079;  368.000; 1971.000; 1786.000
467.198;  149.600; 1238.000; 1181.000
467.317;  224.300; 1768.000; 1162.000
467.436;  212.000; 1709.000; 1261.000
467.555;  370.200; 1796.000; 1746.000
467.674;  222.300; 1227.000; 1329.000
467.793;  187.400; 1376.000; 1374.000
467.912;  246.100; 1658.000; 1539.000
468.031;  345.600; 2038.000; 1930.000
468.150;  312.900; 1842.000; 1837.000
468.269;  529.100; 2313.000; 2090.000
468.388;  482.800; 2168.000; 2339.000
468.507;  588.200; 2884.000; 2903.000
468.626;  640.200; 2555.000; 2541.000
468.744;  354.100; 2018.000; 2174.000
468.863;  466.900; 2312.000; 2523.000
468.982;  200.900; 1503.000; 1555.000
469.101;  543.200; 2788.000; 2692.000
469.220;  335.500; 2333.000; 2176.000
469.338;  587.800; 2935.000; 3051.000
469.457;  445.100; 2719.000; 2545.000
469.576;  778.500; 3953.000; 3784.000
469.695;  545.000; 2877.000; 3066.000
469.813;  925.500; 4148.000; 4192.000
469.932;  855.400; 4255.000; 4485.000
470.051;  920.700; 4075.000; 4161.000
470.169; 1666.600; 4470.000; 4338.000
470.288; 2594.700; 4700.000; 4809.000
470.406; 1588.000; 5059.000; 5194.000
470.525; 1324.400; 6101.000; 5787.000
470.644; 1344.500; 6847.000; 6794.000
470.762; 1738.600; 8397.000; 7873.000
470.881; 1906.600; 8651.000; 8464.000
470.999; 2161.300; 9685.000; 9151.000
471.118; 2295.500;11174.000;10711.000

