
Integration time [ms]: 100.000
Averaging Nr. [scans]: 40
Smoothing Nr. [pixels]: 0
Data measured with spectrometer [name]: 2101012U2
Wave   ;Sample   ;Dark     ;Reference
[nm]   ;[counts] ;[counts] ;[counts] 

197.733;   50.250;  516.000;  404.000
197.879;  -74.875; -610.000; -634.000
198.025;  -44.875; -475.000; -420.000
198.171;  -77.875; -602.000; -612.000
198.317;  -39.400; -401.000; -316.000
198.463;  -55.325; -655.000; -404.000
198.609;   12.475;  181.000; -137.000
198.755;  -78.475; -644.000; -410.000
198.901;  -58.975; -505.000; -424.000
199.047;  -65.875; -615.000; -488.000
199.193;  -43.975; -230.000; -468.000
199.339;  -41.200; -222.000; -369.000
199.485;   27.325;  330.000;  271.000
199.631;    7.700;  227.000;  310.000
199.777;  -55.125; -466.000; -398.000
199.923;  -63.900; -610.000; -424.000
200.069;  -14.150; -141.000;  -58.000
200.215;   53.000;  128.000;  453.000
200.361;   39.325;  243.000;  477.000
200.507;  -61.250; -600.000; -373.000
200.653;  -25.050; -371.000; -194.000
200.798;  -20.300; -215.000; -125.000
200.944;  -23.825; -146.000;  -41.000
201.090;   30.675;   61.000;  222.000
201.236;   -0.375; -116.000; -158.000
201.382;  130.650;  874.000;  903.000
201.528;    4.625;  -58.000;  -48.000
201.674;  -67.025; -386.000; -293.000
201.819;  -73.650; -540.000; -439.000
201.965;  -80.850; -699.000; -447.000
202.111;  -27.800; -273.000; -226.000
202.257;  -35.975; -250.000; -238.000
202.402;    5.450;   13.000;  -36.000
202.548;  -25.300; -169.000; -116.000
202.694;   84.900;  410.000; -183.000
202.840;  -69.950; -603.000; -531.000
202.985;  -75.775; -681.000; -639.000
203.131; -104.550; -832.000; -666.000
203.277;  -26.400; -199.000; -262.000
203.423;  -52.750; -434.000; -520.000
203.568;  -38.425; -462.000; -237.000
203.714;  -55.825; -535.000; -542.000
203.860;  -85.700; -682.000; -641.000
204.005;    9.650;  112.000;  167.000
204.151;   72.625;  561.000;  556.000
204.296;  -48.350; -354.000; -221.000
204.442;  -75.675; -600.000; -547.000
204.588;  -81.150; -592.000; -579.000
204.733;    7.450;  178.000;  168.000
204.879; -135.175;-1018.000; -822.000
205.025;   -1.600;  -99.000;  126.000
205.170;    1.250;  -17.000;   94.000
205.316;   80.225;  438.000;  661.000
205.461;  -79.650; -698.000; -554.000
205.607;   70.100;  609.000;  665.000
205.752;  -82.525; -626.000; -551.000
205.898;  -52.475; -501.000; -391.000
206.043;  -67.225; -578.000; -506.000
206.189;  -50.825; -243.000; -285.000
206.334;   85.725;  554.000;  606.000
206.480;   76.850;  409.000;  239.000
206.625;  -82.850; -529.000; -552.000
206.771;  -50.775; -451.000; -373.000
206.916;  -43.550; -210.000; -537.000
207.062;  -84.150; -545.000; -591.000
207.207;  -64.450; -546.000; -443.000
207.353;   49.200;  185.000;  460.000
207.498;    8.775;  196.000;   85.000
207.643;  -62.575; -501.000; -370.000
207.789; -127.700;-1069.000; -910.000
207.934; -105.650; -665.000; -713.000
208.080;  -29.325; -154.000;   66.000
208.225;  -19.500;  -22.000;  -57.000
208.370;  -80.675; -727.000; -619.000
208.516;  -78.150; -741.000; -487.000
208.661;  -25.225; -127.000;  -69.000
208.806;  -34.400; -165.000; -171.000
208.952; -136.675;-1044.000; -731.000
209.097;   66.825;  378.000;  349.000
209.242;  -49.650; -307.000; -382.000
209.387;   46.750;  392.000;  350.000
209.533;  -53.375; -321.000; -350.000
209.678;   69.525;  472.000;  543.000
209.823;  -68.100; -408.000; -310.000
209.969; -105.450; -860.000; -757.000
210.114; -110.275; -907.000; -719.000
210.259; -112.550; -939.000; -889.000
210.404;  -16.100; -171.000;  103.000
210.549;    5.450;  108.000;    3.000
210.695;  -24.400;   -3.000;  -95.000
210.840;   31.825;   94.000;   67.000
210.985;  -66.375; -484.000; -303.000
211.130;   71.525;  268.000;  406.000
211.275;    9.475;  207.000;  199.000
211.420;  -53.700; -300.000; -289.000
211.566;  -70.050; -536.000; -489.000
211.711;   17.425;  218.000;  157.000
211.856;  -69.100; -545.000; -519.000
212.001;    4.575;  151.000;   44.000
212.146;   15.250;  153.000;   49.000
212.291;  -16.200; -210.000; -186.000
212.436;  -16.075; -280.000;   -6.000
212.581;  -84.025; -685.000; -653.000
212.726;  -74.225; -487.000; -538.000
212.871;  -54.025; -552.000; -217.000
213.016; -139.425;-1172.000;-1029.000
213.161;   64.225;  406.000;  291.000
213.306;  -74.525; -435.000; -577.000
213.451; -100.450; -778.000; -689.000
213.596;  -40.875; -455.000; -347.000
213.741;  -55.825; -448.000; -538.000
213.886;  -84.575; -498.000; -517.000
214.031;  -28.475; -294.000; -124.000
214.176;  -64.550; -408.000; -341.000
214.321;  -26.825; -296.000; -157.000
214.466;  -21.125; -163.000;  -43.000
214.611;  -10.775;  -61.000;  -10.000
214.756; -118.450; -948.000; -858.000
214.901;  -13.250; -388.000; -226.000
215.046; -123.525; -797.000; -825.000
215.191;   19.775;  128.000;   35.000
215.336;  -13.050; -157.000;  -19.000
215.480;  -58.950; -684.000; -505.000
215.625;  -18.825; -175.000;  -19.000
215.770;  -95.575; -757.000; -662.000
215.915;   -3.250;   -5.000;  -97.000
216.060;   -6.650; -113.000;  -21.000
216.205; -118.875; -731.000; -779.000
216.349;  -69.050; -470.000; -533.000
216.494; -130.675; -939.000; -867.000
216.639; -115.925; -823.000; -888.000
216.784;  -81.275; -577.000; -525.000
216.929;   36.750;  392.000;  281.000
217.073;  -26.600; -244.000;  -31.000
217.218;   -3.850;   78.000;  -47.000
217.363;  -84.300; -656.000; -618.000
217.507;  -85.950; -623.000; -588.000
217.652; -120.125; -845.000; -874.000
217.797;  -90.475; -708.000; -659.000
217.942; -113.900; -856.000; -720.000
218.086;   64.975;  608.000;  539.000
218.231;  -19.825; -174.000;  -26.000
218.376;  -55.525; -337.000; -229.000
218.520;    1.625;  -41.000;   96.000
218.665;  -24.225; -338.000; -204.000
218.810;  -53.425; -275.000; -233.000
218.954;   10.325;  201.000;   35.000
219.099; -108.625; -713.000; -963.000
219.243;  -71.325; -589.000; -554.000
219.388;  -31.975; -264.000; -136.000
219.532;  -18.350; -116.000; -116.000
219.677;  -81.550; -564.000; -521.000
219.822;    7.450;   33.000;   89.000
219.966;   11.750;   17.000;  -99.000
220.111;  -30.475; -328.000;  -40.000
220.255; -100.350; -797.000; -750.000
220.400;  -22.925; -180.000; -146.000
220.544;  -67.775; -516.000; -450.000
220.689;  -64.550; -422.000; -451.000
220.833;  -33.700; -123.000;  -58.000
220.978;  -48.775; -393.000; -563.000
221.122;   20.475;  319.000;  307.000
221.267; -121.650; -906.000; -837.000
221.411;  -65.475; -478.000; -394.000
221.555;  -13.525; -104.000;  -23.000
221.700;  -56.375; -329.000; -222.000
221.844;   28.600;  255.000;  272.000
221.989;  -41.025; -328.000; -311.000
222.133;  -42.350; -289.000; -307.000
222.277;  -15.025;    5.000;   78.000
222.422;   12.400;  227.000;  113.000
222.566;  -42.075; -381.000; -214.000
222.711;  -61.875; -414.000; -479.000
222.855;  -94.000; -643.000; -586.000
222.999;  -78.325; -642.000; -717.000
223.144;  -36.425; -195.000; -194.000
223.288;   56.625;  423.000;  251.000
223.432;   15.125;  184.000;  230.000
223.576;   11.475;  152.000;  -21.000
223.721;   21.725;  364.000;  273.000
223.865;  -59.300; -472.000; -475.000
224.009;  274.400; 1673.000; 1631.000
224.153;  -80.000; -660.000; -671.000
224.298;  -72.850; -531.000; -489.000
224.442;  -21.200;  -74.000;  -33.000
224.586;   -5.825; -169.000; -106.000
224.730;  -97.300; -858.000; -670.000
224.875; -117.550; -739.000; -688.000
225.019;    9.225;  102.000;  188.000
225.163;   56.425;  208.000;  341.000
225.307;   12.875;   97.000;  -91.000
225.451;   46.400;  360.000;  481.000
225.595;   16.675;  264.000;  176.000
225.739;  -25.150; -170.000;  -94.000
225.884;    5.550;   86.000;    5.000
226.028; -108.825; -760.000; -626.000
226.172;  -42.350; -260.000; -273.000
226.316; -112.525; -941.000; -902.000
226.460;  -66.625; -645.000; -493.000
226.604;  -56.075; -406.000; -400.000
226.748; -101.500; -836.000; -733.000
226.892;  -38.575; -227.000; -181.000
227.036;  -54.225; -537.000; -447.000
227.180;  -61.350; -551.000; -375.000
227.324;  -65.175; -561.000; -580.000
227.468; -120.025; -819.000; -717.000
227.612;   -1.150;  242.000;  -28.000
227.756;  -96.850; -845.000; -698.000
227.900;   42.450;  342.000;  441.000
228.044;  -50.725; -509.000; -290.000
228.188;   43.000;  448.000;  568.000
228.332;  -84.150; -546.000; -472.000
228.476;  -31.825; -223.000; -149.000
228.620;  -33.850; -210.000; -150.000
228.764;   62.050;  431.000;  349.000
228.908;  -14.350; -155.000;   30.000
229.052;  -67.850; -615.000; -528.000
229.195;  -12.075; -172.000;   13.000
229.339;  -40.600; -235.000; -305.000
229.483;  -22.200;    5.000; -162.000
229.627;   -3.850; -156.000;  139.000
229.771;  -48.000; -218.000; -294.000
229.915;    1.175;  230.000;   79.000
230.059; -102.325; -648.000; -663.000
230.202;  -46.250; -370.000; -317.000
230.346;  -17.075; -107.000;  107.000
230.490;  -68.800; -489.000; -521.000
230.634; -113.275; -736.000; -553.000
230.777;   77.100;  478.000;  509.000
230.921;  -54.100; -450.000; -359.000
231.065;  -44.525; -246.000; -286.000
231.209;   24.500;  261.000;  265.000
231.352;   14.350;   54.000;   40.000
231.496;   29.375;  568.000;  188.000
231.640;  -77.800; -693.000; -621.000
231.783;   65.125;  546.000;  525.000
231.927;  -56.000; -294.000; -365.000
232.071; -117.700; -962.000; -736.000
232.214; -103.700; -980.000; -764.000
232.358;  -99.100; -683.000; -599.000
232.502;    0.800;  -19.000;    7.000
232.645; -134.775;-1090.000; -927.000
232.789;  -22.725; -257.000; -218.000
232.933;  -50.025; -407.000; -224.000
233.076; -140.025;-1038.000; -897.000
233.220; -105.550; -752.000; -777.000
233.363;  -84.000; -669.000; -477.000
233.507;   44.575;  371.000;  129.000
233.650; -107.625; -764.000; -834.000
233.794;   43.400;  438.000;  461.000
233.938;  -56.525; -530.000; -362.000
234.081;  -25.425;  -93.000;   31.000
234.225;  -65.750; -631.000; -539.000
234.368; -117.625; -773.000; -723.000
234.512;  -46.300; -385.000; -299.000
234.655;  -88.725; -582.000; -555.000
234.798;  -65.050; -493.000; -466.000
234.942; -134.800; -884.000;-1002.000
235.085;  -84.975; -651.000; -443.000
235.229;  -76.775; -405.000; -410.000
235.372;  -59.375; -247.000; -191.000
235.516;  -68.125; -397.000; -321.000
235.659;   18.950;   92.000;  121.000
235.802;   -5.000;  -38.000;  -22.000
235.946;   24.425;  335.000;  215.000
236.089;   27.000;  126.000;  250.000
236.233;   56.550;  275.000;  298.000
236.376;  -62.050; -235.000; -378.000
236.519;  -52.175; -297.000; -319.000
236.663;  -26.075; -215.000; -117.000
236.806; -132.925;-1029.000; -999.000
236.949;   59.525;  543.000;  431.000
237.092;   52.100;  412.000;  391.000
237.236;  -91.825; -589.000; -502.000
237.379;   55.050;  352.000;  428.000
237.522; -115.575; -879.000; -768.000
237.666;  -19.975; -271.000;   18.000
237.809; -125.000; -851.000; -823.000
237.952;   40.325;  469.000;  271.000
238.095;  -77.725; -447.000; -442.000
238.238;   72.850;  688.000;  700.000
238.382;  -13.300;  166.000;  103.000
238.525;  -78.325; -598.000; -511.000
238.668; -142.175;-1060.000; -985.000
238.811;  -90.375; -638.000; -643.000
238.954;  -68.050; -483.000; -334.000
239.097;   77.400;  617.000;  664.000
239.241;   28.025;  394.000;  326.000
239.384;  -44.100; -254.000; -214.000
239.527;  -59.750; -424.000; -224.000
239.670; -147.225; -994.000;-1091.000
239.813; -119.750; -696.000; -658.000
239.956;   68.825;  579.000;  473.000
240.099; -100.375; -778.000; -725.000
240.242;   53.275;  428.000;  432.000
240.385;   39.225;  466.000;  450.000
240.528;  -82.275; -706.000; -473.000
240.671;   16.150;  189.000;  134.000
240.814;  -39.250; -441.000; -158.000
240.957;  -97.675; -767.000; -578.000
241.100; -102.900; -779.000; -755.000
241.243; -133.075;-1234.000; -893.000
241.386;  -74.950; -508.000; -379.000
241.529;  -91.950; -735.000; -547.000
241.672;  -67.950; -566.000; -495.000
241.815; -126.050; -832.000; -808.000
241.958;  -28.975; -125.000; -182.000
242.101;  -72.400; -545.000; -390.000
242.244;  -48.975; -270.000; -325.000
242.387;  -45.375; -304.000; -246.000
242.530;   48.850;  470.000;  134.000
242.673;  -49.075; -381.000; -309.000
242.815; -114.900; -925.000; -899.000
242.958;  -65.325; -482.000; -381.000
243.101;   -2.175;  132.000;  187.000
243.244;  -88.525; -564.000; -521.000
243.387;  -47.175; -313.000; -316.000
243.530; -109.875; -657.000; -674.000
243.672;    7.250;   43.000;  -92.000
243.815;  -54.150; -355.000; -283.000
243.958;   -6.475;   98.000;  -26.000
244.101;  -11.775;   59.000;  -16.000
244.243;  -18.300;  -47.000;  101.000
244.386; -107.200; -761.000; -630.000
244.529;  -48.525; -132.000; -139.000
244.672; -151.775;-1154.000; -951.000
244.814;  -99.175; -621.000; -794.000
244.957;  -61.575; -380.000; -304.000
245.100;  -73.125; -489.000; -489.000
245.242;  -73.225; -387.000; -374.000
245.385;   -5.375;  -59.000;  -39.000
245.528; -127.125; -871.000; -705.000
245.670;   75.850;  612.000;  634.000
245.813;  -91.725; -599.000; -547.000
245.956;  -37.675; -324.000; -275.000
246.098;  -70.850; -508.000; -650.000
246.241;    5.350;  194.000;   48.000
246.383;  -24.300; -119.000;  -73.000
246.526;  -89.600; -454.000; -525.000
246.669; -120.875; -889.000; -780.000
246.811;   12.275;  172.000;   -1.000
246.954;  -63.900; -512.000; -426.000
247.096;  -39.950;  -84.000;   -6.000
247.239;  -73.150; -482.000; -445.000
247.381;  -79.700; -647.000; -488.000
247.524;   75.000;  645.000;  679.000
247.666;  -14.500;   58.000;   11.000
247.809; -117.700; -887.000; -691.000
247.951;  -22.925;  -75.000;  138.000
248.094;   24.875;  432.000;  308.000
248.236; -172.900;-1262.000;-1238.000
248.378;   -8.175; -356.000;  -81.000
248.521;  -35.150; -334.000; -337.000
248.663;  -44.025; -236.000; -267.000
248.806;  -36.475; -300.000; -266.000
248.948; -100.775; -886.000; -763.000
249.090;  -57.250; -428.000; -398.000
249.233;  -59.425; -344.000; -381.000
249.375;  -76.575; -474.000; -451.000
249.518;  -30.550;  -83.000; -133.000
249.660;  -16.200; -103.000;    3.000
249.802; -172.450;-1303.000;-1189.000
249.945;  -78.875; -612.000; -540.000
250.087; -114.175; -834.000; -768.000
250.229;  -65.825; -362.000; -480.000
250.371;  -81.100; -494.000; -439.000
250.514;  -39.150; -310.000; -244.000
250.656;   -2.275;   69.000;  102.000
250.798; -118.150; -849.000; -800.000
250.940;  -59.825; -322.000; -322.000
251.083;  -31.925; -335.000; -111.000
251.225;   56.050;  338.000;  310.000
251.367;  -58.600; -274.000; -373.000
251.509;  -44.825; -265.000; -210.000
251.651;  -97.475; -731.000; -671.000
251.794;   36.100;  538.000;  632.000
251.936; -102.650; -821.000; -747.000
252.078;  -96.150; -540.000; -461.000
252.220;  -76.425; -645.000; -477.000
252.362;   71.125;  344.000;  462.000
252.504;  -81.450; -677.000; -584.000
252.646; -112.475; -875.000; -722.000
252.788;   -7.225;   14.000; -128.000
252.931;  -45.550; -257.000; -253.000
253.073;  -57.725; -376.000; -317.000
253.215;   -4.000;  141.000;  122.000
253.357;  -16.325;   82.000; -153.000
253.499;  -56.700; -374.000; -234.000
253.641; -102.125; -749.000; -594.000
253.783;  -93.675; -609.000; -527.000
253.925;  -84.750; -586.000; -591.000
254.067; -117.600; -744.000; -667.000
254.209;  -29.200; -391.000; -259.000
254.351; -135.025; -865.000; -883.000
254.493;  -70.975; -441.000; -417.000
254.635; -135.025; -936.000; -818.000
254.777; -101.875; -752.000; -687.000
254.918;  -61.175; -512.000; -430.000
255.060;  -69.825; -551.000; -395.000
255.202;  -61.500; -473.000; -261.000
255.344;  -79.475; -658.000; -455.000
255.486;  -74.550; -471.000; -406.000
255.628;  -95.100; -780.000; -781.000
255.770;  -77.025; -676.000; -536.000
255.912;  -78.350; -559.000; -468.000
256.053;  -77.725; -730.000; -508.000
256.195;  162.950; 1008.000;  903.000
256.337; -133.150; -861.000; -595.000
256.479;   62.925;  532.000;  416.000
256.621;  -52.000; -394.000; -212.000
256.762;  -96.725; -789.000; -742.000
256.904;   49.775;  485.000;  487.000
257.046;  -54.650; -381.000; -271.000
257.188;  -50.000; -351.000; -264.000
257.329;  -91.625; -525.000; -464.000
257.471; -120.350; -939.000; -807.000
257.613;  -58.875; -584.000; -498.000
257.755; -147.050;-1073.000; -982.000
257.896;   37.000;  286.000;  392.000
258.038;  -66.275; -403.000; -352.000
258.180;  -55.550; -354.000; -279.000
258.321;  -80.750; -581.000; -457.000
258.463;  -14.200;  -71.000;  133.000
258.605;  -96.650; -562.000; -570.000
258.746; -116.400; -886.000; -772.000
258.888; -145.675;-1026.000;-1020.000
259.029;    6.100;  121.000;   -8.000
259.171;  -85.750; -614.000; -550.000
259.313;   -3.225;  -49.000;  -47.000
259.454;  -76.925; -536.000; -414.000
259.596;  -63.650; -483.000; -390.000
259.737;  -72.825; -590.000; -474.000
259.879;   25.025;  217.000;  311.000
260.020;   80.925;  901.000;  636.000
260.162;  -25.850; -146.000; -253.000
260.303; -125.850; -768.000; -687.000
260.445;  -92.550; -609.000; -613.000
260.586;   23.775;  392.000;  157.000
260.728;  -44.375; -360.000; -248.000
260.869; -110.250; -350.000; -343.000
261.011;   78.100;  706.000;  537.000
261.152;  -50.825; -479.000; -319.000
261.293;  -85.050; -576.000; -595.000
261.435;  -29.075; -219.000; -184.000
261.576;  -58.225; -455.000; -325.000
261.718;   34.875;  420.000;  470.000
261.859; -134.750; -940.000; -949.000
262.000; -133.700; -951.000;-1016.000
262.142;  -35.150;  -52.000;  -60.000
262.283; -117.675; -808.000; -691.000
262.424;  -92.650; -666.000; -625.000
262.566; -162.100;-1161.000; -983.000
262.707; -124.600; -840.000; -830.000
262.848; -131.075; -769.000; -726.000
262.990;  -59.350; -362.000; -345.000
263.131;   75.200;  650.000;  681.000
263.272;  -18.775;  -61.000;  -41.000
263.413;  -96.500; -589.000; -561.000
263.555;  -78.225; -669.000; -143.000
263.696;  -86.000; -550.000; -641.000
263.837;  -73.875; -449.000; -551.000
263.978;   -7.575;   -5.000;  -77.000
264.119;  -68.675; -283.000; -264.000
264.261; -121.225; -847.000; -630.000
264.402;  -10.450;   33.000;   40.000
264.543;  -78.100; -509.000; -524.000
264.684;  -29.400;   61.000;  -50.000
264.825;  -69.950; -816.000; -538.000
264.966;   -1.625;  -84.000;  -67.000
265.107; -122.900; -646.000; -670.000
265.248; -123.725; -825.000; -812.000
265.390;   -6.800;  152.000;   -9.000
265.531;  -33.350; -238.000; -107.000
265.672;  -85.675; -557.000; -630.000
265.813;   57.225;  563.000;  439.000
265.954; -149.400; -959.000; -940.000
266.095;  -16.550; -372.000; -322.000
266.236;  -97.225; -686.000; -548.000
266.377;  -58.350; -243.000; -297.000
266.518;  -78.125; -619.000; -547.000
266.659;   14.225;  170.000;  268.000
266.800;  -13.800;   83.000;   85.000
266.941;  -77.525; -487.000; -478.000
267.082;    6.225;  354.000;   99.000
267.223;  -58.275; -344.000; -273.000
267.364; -121.125; -892.000; -686.000
267.504;  -25.225;    3.000;  135.000
267.645;    7.650;  160.000;   67.000
267.786;  -34.825; -147.000;  -86.000
267.927;  -70.825; -473.000; -379.000
268.068;  -23.575; -186.000;  -61.000
268.209;  -42.675; -175.000; -413.000
268.350;  -82.225; -388.000; -532.000
268.490;  -86.350; -648.000; -521.000
268.631;   13.750;  127.000;  225.000
268.772; -109.425; -874.000; -647.000
268.913;  -52.425; -328.000; -476.000
269.054;   -0.925; -117.000;   12.000
269.194;  -60.025; -418.000; -402.000
269.335; -152.975;-1137.000;-1074.000
269.476;  -29.300;   33.000;  -35.000
269.617;  -57.350; -347.000; -392.000
269.757;  -92.000; -713.000; -646.000
269.898; -110.225; -856.000; -613.000
270.039;  -57.750; -415.000; -405.000
270.180; -131.125; -952.000; -816.000
270.320;  -45.525; -190.000; -250.000
270.461;  -48.225; -277.000; -249.000
270.602;  -16.750; -186.000; -156.000
270.742; -121.000; -868.000; -943.000
270.883;  -71.750; -442.000; -390.000
271.023;  -67.725; -358.000; -357.000
271.164;  -86.075; -607.000; -528.000
271.305; -104.075; -666.000; -654.000
271.445;  -96.200; -722.000; -683.000
271.586;  -72.050; -462.000; -283.000
271.726;  -50.575; -397.000; -322.000
271.867;  -65.375; -594.000; -534.000
272.008;  152.675; -473.000; -285.000
272.148;  118.150;  462.000;  468.000
272.289;    3.400; -113.000; -181.000
272.429;    3.425;   19.000;  185.000
272.570; -100.675; -633.000; -737.000
272.710; -111.300; -825.000; -775.000
272.851;  -12.425;  113.000; -130.000
272.991; -164.450;-1173.000;-1077.000
273.131;  -68.550; -419.000; -459.000
273.272;  -93.200; -683.000; -723.000
273.412;   -5.150; -143.000;  -31.000
273.553;  -53.400; -488.000; -507.000
273.693;  135.175;  913.000;  858.000
273.834; -103.650; -894.000; -692.000
273.974;  -91.475; -664.000; -615.000
274.114; -103.600; -772.000; -560.000
274.255;   60.375;  414.000;  373.000
274.395;  -13.650; -180.000; -125.000
274.535;   25.825;  199.000;  350.000
274.676;   11.100;  225.000;   94.000
274.816;    0.750;  110.000;   34.000
274.956;  -82.100; -624.000; -690.000
275.097;  -89.025;-1014.000; -922.000
275.237; -118.250; -913.000; -803.000
275.377; -100.875; -778.000; -689.000
275.517; -161.925; -878.000; -937.000
275.658;  -73.975; -590.000; -555.000
275.798;  -84.675; -606.000; -413.000
275.938;   22.100;  215.000;  323.000
276.078;  -99.350; -626.000; -395.000
276.218;   -1.850;   99.000;  104.000
276.359; -143.100;-1026.000;-1024.000
276.499;  -71.100; -605.000; -446.000
276.639;  -50.625; -305.000; -151.000
276.779;  -65.025; -475.000; -357.000
276.919; -111.475; -783.000; -624.000
277.059;  -31.525; -261.000; -212.000
277.199;  -52.150; -357.000; -259.000
277.340;   37.275;  287.000;  175.000
277.480; -122.800; -840.000; -693.000
277.620;   10.725;  192.000;   16.000
277.760; -204.850;-1533.000;-1294.000
277.900;    0.850;  113.000;   33.000
278.040;    0.450;  137.000;  159.000
278.180;   31.525;  270.000;  170.000
278.320;   -1.775;   21.000;   56.000
278.460;  -75.575; -443.000; -469.000
278.600;  -88.575; -708.000; -598.000
278.740;   36.925;  448.000;  224.000
278.880;  -82.475; -768.000; -791.000
279.020;  -31.225; -194.000; -144.000
279.160;  -86.950; -672.000; -595.000
279.300; -114.725; -926.000; -873.000
279.440; -106.125; -709.000; -622.000
279.579;  -36.100;-1014.000; -929.000
279.719;  -60.750; -410.000; -394.000
279.859;   67.775;   -4.000;   41.000
279.999;   17.800; -208.000;  101.000
280.139;  -28.550; -435.000; -387.000
280.279;  -80.650; -708.000; -745.000
280.419;  -23.600; -229.000; -147.000
280.559;  -36.200; -259.000; -180.000
280.698;  -99.725; -790.000; -639.000
280.838; -103.550; -778.000; -800.000
280.978; -116.100; -846.000; -790.000
281.118; -122.800; -811.000; -704.000
281.257;   -3.925;   24.000;    6.000
281.397; -135.400;-1094.000; -960.000
281.537; -106.225; -599.000; -712.000
281.677;  -30.575; -150.000; -101.000
281.816;  -93.150; -700.000; -630.000
281.956;  -41.175; -193.000; -257.000
282.096;  -80.850; -539.000; -396.000
282.235; -121.950; -672.000; -638.000
282.375;  -20.350; -243.000;  -98.000
282.515; -104.925; -715.000; -707.000
282.654;    3.900;   29.000;  106.000
282.794;   26.900;  388.000;  244.000
282.934;  -84.150; -530.000; -491.000
283.073; -147.275;-1030.000; -857.000
283.213;  -48.400; -460.000; -467.000
283.353;  -41.450; -408.000; -349.000
283.492;  -37.500; -264.000; -296.000
283.632;  -39.325; -254.000; -168.000
283.771; -114.975; -859.000; -730.000
283.911;  -66.025; -369.000; -260.000
284.050; -122.100; -794.000; -748.000
284.190; -163.600;-1229.000;-1096.000
284.329; -153.075;-1055.000; -964.000
284.469;  -70.525; -516.000; -591.000
284.608;  -76.275; -559.000; -598.000
284.748;  -89.525; -614.000; -570.000
284.887;   -9.850;  -87.000;  -20.000
285.027; -132.375; -844.000; -892.000
285.166;  -43.375; -192.000; -249.000
285.306;  -10.775; -116.000;  -33.000
285.445;  -56.225; -229.000; -343.000
285.584;  -91.150; -630.000; -494.000
285.724;  -54.600; -282.000; -322.000
285.863; -121.775; -857.000; -507.000
286.002;  -57.725; -366.000; -276.000
286.142; -106.000; -715.000; -622.000
286.281;  -82.100; -525.000; -493.000
286.420;  -63.275; -554.000; -417.000
286.560;   86.975;  653.000;  623.000
286.699; -138.450; -958.000; -912.000
286.838;  -96.125; -590.000; -591.000
286.978;  -99.200; -533.000; -537.000
287.117; -150.775;-1085.000; -950.000
287.256;  -44.650; -228.000; -211.000
287.395;  -58.950; -197.000; -378.000
287.535;  -52.150; -370.000; -298.000
287.674;  -83.725; -509.000; -484.000
287.813;   72.925;  661.000;  533.000
287.952; -143.375;-1010.000; -871.000
288.091; -158.625;-1049.000; -915.000
288.231;  -14.100;   13.000;   15.000
288.370; -167.600;-1217.000;-1200.000
288.509;  -95.500; -728.000; -645.000
288.648;  -97.250; -770.000; -548.000
288.787;  -35.875; -243.000;  -87.000
288.926;  -74.575; -454.000; -475.000
289.065;  114.225;  859.000;  672.000
289.204;  -47.575; -377.000; -217.000
289.344;  -98.325; -791.000; -690.000
289.483;   19.275;  416.000;  304.000
289.622;  -44.875; -291.000; -149.000
289.761;  -18.675; -309.000; -166.000
289.900; -121.050; -785.000; -626.000
290.039;  -26.300;  -12.000;  -95.000
290.178;  -45.525; -274.000; -180.000
290.317;  -79.450; -618.000; -479.000
290.456;  -76.450; -463.000; -451.000
290.595; -136.500; -961.000; -833.000
290.734; -143.925; -904.000; -891.000
290.873;  -68.950; -456.000; -420.000
291.011; -121.275; -833.000; -843.000
291.150;  -99.575; -770.000; -682.000
291.289;  -40.525; -343.000; -110.000
291.428; -100.700; -599.000; -480.000
291.567;  -58.775; -370.000; -442.000
291.706;   -9.975;  109.000;  154.000
291.845;  -98.975; -597.000; -505.000
291.984; -173.200;-1234.000;-1061.000
292.122;   63.175;  602.000;  582.000
292.261;   38.675;  620.000;  463.000
292.400;    3.250; -144.000;  211.000
292.539; -137.325; -959.000; -813.000
292.678;  -46.550; -325.000; -300.000
292.816; -168.875;-1136.000; -965.000
292.955; -110.375; -844.000; -684.000
293.094;  -39.100; -173.000; -337.000
293.233;  -63.850; -556.000; -400.000
293.371;  -55.325; -225.000;  -84.000
293.510; -117.900; -866.000; -780.000
293.649; -131.100; -959.000; -924.000
293.787;  -88.175;-1083.000;-1012.000
293.926;   -7.625; -113.000;  -32.000
294.065;  -49.375; -379.000; -290.000
294.203;   40.275;  298.000;  406.000
294.342;   -1.475;   74.000;  156.000
294.481; 5992.300;51180.000; -836.000
294.619;  -37.350; -425.000; -582.000
294.758; -164.475;-1230.000;-1137.000
294.896;   47.325; -125.000;    5.000
295.035; -140.450;-1040.000;-1006.000
295.174; -131.400;-1082.000; -954.000
295.312;  -42.475; -323.000; -203.000
295.451;  -34.650; -307.000; -428.000
295.589;  -73.675; -389.000; -518.000
295.728;   11.825; -292.000; -165.000
295.866;   -9.050;  -36.000;  -51.000
296.005;  -77.150; -584.000; -341.000
296.143;  -79.025; -558.000; -596.000
296.282; -113.875; -957.000; -881.000
296.420;  -97.175; -657.000; -557.000
296.559; -103.350; -892.000; -633.000
296.697;   -6.975; -847.000; -665.000
296.835;   11.000;-1141.000;-1002.000
296.974;   34.450;  -23.000;   39.000
297.112;  -16.525; -443.000; -504.000
297.251;  -90.475; -815.000; -755.000
297.389;   57.100; -576.000; -438.000
297.527;   23.850; -145.000;  -83.000
297.666;  -49.525; -486.000; -438.000
297.804;  -46.225; -404.000; -264.000
297.942;  -19.325; -136.000; -161.000
298.081;   -7.075; -183.000;   63.000
298.219;   53.275;  -17.000;  -19.000
298.357;   18.375; -144.000;  -71.000
298.495;   12.950; -810.000; -812.000
298.634;   53.800;  245.000;  219.000
298.772;   29.850; -220.000; -338.000
298.910;  -32.425; -309.000; -182.000
299.048;   -7.725; -130.000; -153.000
299.187;  -43.075; -350.000; -250.000
299.325;   -0.075;   52.000;  122.000
299.463;   28.050; -389.000; -299.000
299.601;   81.075; -327.000; -271.000
299.739; -110.225; -908.000; -883.000
299.877; -100.225; -791.000; -703.000
300.016;  -60.925;-1095.000; -935.000
300.154;  130.750;  -19.000; -161.000
300.292;   31.150; -428.000; -348.000
300.430;    2.950; -408.000; -291.000
300.568; -102.650; -940.000; -874.000
300.706;  -78.700; -366.000; -469.000
300.844;  -93.150;-1108.000; -979.000
300.982;  107.725;  246.000;  282.000
301.120; -119.125; -965.000; -866.000
301.258;  -90.350; -812.000; -705.000
301.396;    6.375;  104.000;  -41.000
301.534;   41.325; -218.000; -293.000
301.672;  -31.500; -664.000; -521.000
301.810;   -9.475; -613.000; -545.000
301.948;   89.950;   53.000;  149.000
302.086;  524.925; -250.000;  -32.000
302.224;  796.550; -610.000; -585.000
302.362;   16.800; -558.000; -622.000
302.500;  -54.200; -923.000; -893.000
302.638;  101.200;  128.000;  245.000
302.776;  -12.975; -352.000; -408.000
302.913;   37.075;  447.000;  236.000
303.051;  -22.575;  -86.000;  -23.000
303.189;   34.275;   90.000;  118.000
303.327;  -40.600; -341.000; -256.000
303.465;  -88.025; -832.000; -588.000
303.603; -100.775; -805.000; -604.000
303.740;   74.200;  417.000;  241.000
303.878;   -2.825; -800.000; -759.000
304.016; -121.925; -915.000; -790.000
304.154; -137.000;-1123.000;-1152.000
304.291;  -52.050; -505.000; -554.000
304.429;   -6.075;  102.000;   74.000
304.567; -136.450; -908.000; -893.000
304.705;  -66.025; -408.000; -515.000
304.842;   63.650; -616.000; -540.000
304.980;   42.000;  215.000;   35.000
305.118;   10.975; -367.000; -365.000
305.255; -102.200; -945.000; -927.000
305.393;   25.950;  178.000;  239.000
305.531; -114.100;-1173.000; -956.000
305.668;  -78.800; -663.000; -582.000
305.806;   73.950; -358.000; -439.000
305.943;   90.775; -629.000; -637.000
306.081;   40.700; -378.000; -267.000
306.219; -112.800; -863.000; -748.000
306.356;   -3.300;  158.000;   27.000
306.494;  107.300;  981.000;  761.000
306.631;   -5.775;  -11.000;  -55.000
306.769;   -8.700; -613.000; -485.000
306.906;  -34.075; -284.000; -258.000
307.044;  -83.050; -473.000; -488.000
307.181;  -75.525; -410.000; -332.000
307.319;    3.725;  112.000;   87.000
307.456; -184.225;-1191.000;-1153.000
307.594; -101.650; -980.000; -727.000
307.731;  -21.250; -371.000; -164.000
307.868;   -7.575;  -15.000;   20.000
308.006; -140.625; -961.000; -847.000
308.143;  -84.250; -618.000; -330.000
308.281;  115.975;  -37.000; -254.000
308.418;  -35.050; -748.000; -640.000
308.555;  -72.450; -400.000; -250.000
308.693;  -85.100; -577.000; -573.000
308.830; -102.175; -712.000; -657.000
308.967;  -27.975; -215.000;  -95.000
309.105;  -69.425; -507.000; -396.000
309.242;    7.600; -468.000; -367.000
309.379;  239.000; -577.000; -655.000
309.517;  -83.200; -936.000; -948.000
309.654; -124.750; -910.000; -734.000
309.791;  -91.600; -662.000; -580.000
309.928; -121.650; -977.000; -914.000
310.065;  146.525;  819.000;  697.000
310.203;  -22.650; -825.000; -850.000
310.340;  -35.050; -465.000; -321.000
310.477;  -86.400; -412.000; -516.000
310.614;  -75.575; -383.000; -473.000
310.751;  -80.550; -427.000; -518.000
310.889;  -38.850;    1.000;   11.000
311.026; -150.900;-1161.000; -939.000
311.163;  -62.550; -386.000; -380.000
311.300;  -91.425; -512.000; -479.000
311.437;  -89.025; -658.000; -619.000
311.574; -170.125;-1226.000; -985.000
311.711;  -87.025; -595.000; -433.000
311.848;  -46.300; -380.000; -388.000
311.985;   -3.925;  270.000;   93.000
312.122; -128.650; -932.000; -762.000
312.259; -132.675; -941.000; -994.000
312.396;  -85.500; -508.000; -551.000
312.533;  -97.075; -812.000; -790.000
312.670; -137.675;-1070.000; -898.000
312.807;  -46.200; -352.000; -367.000
312.944;  -90.775; -513.000; -611.000
313.081;  -50.925; -150.000; -415.000
313.218; -117.175;-1111.000; -867.000
313.355;    2.750; -531.000; -449.000
313.492;  -19.250; -455.000; -292.000
313.629;  107.425;  815.000;  735.000
313.766; -168.975;-1176.000;-1008.000
313.902;  -24.350; -186.000;   21.000
314.039;  -62.400; -372.000; -289.000
314.176;   10.150;  286.000;  192.000
314.313;  -81.250; -569.000; -473.000
314.450;  -93.125; -788.000; -684.000
314.587;  -71.050; -468.000; -480.000
314.723;    0.250;  -78.000;  130.000
314.860;    3.650;  318.000;  332.000
314.997;   14.400;  223.000;  142.000
315.134;  -44.350; -385.000; -368.000
315.270;  -47.075; -480.000; -496.000
315.407; -142.150;-1094.000; -967.000
315.544;  -75.975; -657.000; -538.000
315.681;  -74.275; -681.000; -565.000
315.817;   10.050; -133.000; -176.000
315.954;  -11.375; -613.000; -392.000
316.091; -127.500;-1045.000;-1023.000
316.227;  -32.250;  -71.000; -179.000
316.364;   -7.875;   23.000;    6.000
316.500;  -46.500; -113.000; -300.000
316.637;  -61.150; -181.000; -302.000
316.774;  -94.950; -625.000; -358.000
316.910; -100.300; -598.000; -629.000
317.047;  -83.700; -487.000; -351.000
317.183;  -49.175; -435.000; -566.000
317.320;  -12.775; -367.000; -321.000
317.456;  -68.375; -733.000; -805.000
317.593;  -93.325; -598.000; -641.000
317.729;  -16.750;  168.000;  -67.000
317.866; -196.550;-1434.000;-1285.000
318.002; -102.250; -708.000; -948.000
318.139; -104.825; -883.000; -867.000
318.275; -107.225;-1003.000; -738.000
318.412;  -80.125; -517.000; -336.000
318.548;  -53.925; -751.000; -720.000
318.685;  -97.425; -985.000; -888.000
318.821;  -96.400; -762.000; -735.000
318.957;  -31.475;   34.000;  -23.000
319.094;   19.675;  297.000;  154.000
319.230;  -71.675; -756.000; -742.000
319.367;   83.200; -471.000; -520.000
319.503;   48.275; -538.000; -436.000
319.639;  -99.500; -877.000; -793.000
319.775;  -76.750; -750.000; -685.000
319.912;  -64.350; -424.000; -519.000
320.048; -104.675;-1184.000;-1184.000
320.184;   70.325;   59.000;   70.000
320.321;  -68.650; -497.000; -467.000
320.457;   45.925;  475.000;  662.000
320.593;  -81.475; -375.000; -382.000
320.729; -116.575; -732.000; -734.000
320.866;  -85.950; -577.000; -635.000
321.002;  -94.875; -759.000; -809.000
321.138;  -30.750; -135.000; -211.000
321.274;   45.425; -148.000; -115.000
321.410;  -35.150; -585.000; -353.000
321.546;  -50.200;-1011.000; -911.000
321.683;   54.875;  400.000;  185.000
321.819;   -9.575;  -48.000; -117.000
321.955; -124.525; -743.000; -722.000
322.091;  -57.800; -585.000; -540.000
322.227;  -27.250; -382.000; -202.000
322.363;  -31.925; -320.000; -215.000
322.499;  -69.325; -343.000; -331.000
322.635;  138.425;  636.000;  443.000
322.771;    5.175; -139.000;   12.000
322.907;   66.575;  129.000;  327.000
323.043;  -36.000; -115.000; -206.000
323.179;  -53.075; -394.000; -363.000
323.315;  -11.425; -401.000; -371.000
323.451;   56.250; -328.000; -236.000
323.587;   46.725;  -60.000;  -77.000
323.723;   -5.325; -682.000; -601.000
323.859;  -24.450; -258.000;  -76.000
323.995;  -29.300; -467.000; -409.000
324.131; -125.450; -967.000; -892.000
324.267;  -54.375; -254.000; -276.000
324.402; -130.600; -960.000; -983.000
324.538;  -38.700; -279.000; -104.000
324.674;    7.075;  164.000;   77.000
324.810;   68.975;  226.000;  308.000
324.946;  -32.700; -810.000; -658.000
325.082;  -82.325; -568.000; -475.000
325.217;  -15.900;  -62.000;   16.000
325.353; -122.200; -764.000; -659.000
325.489;  -95.800; -540.000; -506.000
325.625;  -83.825; -579.000; -525.000
325.760;   59.625;  517.000;  376.000
325.896;  -30.900; -515.000; -702.000
326.032;  -57.100; -403.000; -352.000
326.168;  -73.800; -462.000; -369.000
326.303;  -77.525; -352.000; -461.000
326.439;  -16.750; -336.000; -276.000
326.575;  -10.225; -190.000;  -29.000
326.710;  -29.950; -156.000;  -30.000
326.846;  -21.225;  146.000;  103.000
326.982; -116.175; -530.000; -548.000
327.117;  -91.450; -481.000; -442.000
327.253;  -98.525; -745.000; -742.000
327.388; -149.625;-1137.000;-1153.000
327.524;  -69.200; -811.000; -578.000
327.659;  -26.175;  -58.000;  -22.000
327.795;  -21.125;   69.000;   45.000
327.931;  -85.525; -723.000; -499.000
328.066;  -39.550; -417.000; -276.000
328.202;  -43.900;   12.000; -129.000
328.337;   83.600;  957.000;  713.000
328.473;   39.250;  -12.000;  -74.000
328.608;  -36.425; -256.000; -267.000
328.743;  -94.300; -799.000; -664.000
328.879;    1.300;  214.000;  114.000
329.014;  -47.900; -102.000; -122.000
329.150;  -93.975; -358.000; -483.000
329.285;  -85.550; -465.000; -466.000
329.421;  -66.650; -548.000; -246.000
329.556;  -16.900;  -36.000;   85.000
329.691;  -94.875; -633.000; -615.000
329.827;  -91.000; -626.000; -480.000
329.962;  -56.550;  131.000; -301.000
330.097;  -95.675; -673.000; -585.000
330.233;  -72.700; -410.000; -223.000
330.368; -137.575; -839.000; -628.000
330.503;  -24.650;    3.000;   98.000
330.638;    6.125;  -93.000; -125.000
330.774;  -65.100; -609.000; -530.000
330.909;  -56.550; -434.000; -244.000
331.044; -107.475; -714.000; -708.000
331.179; -175.000;-1217.000;-1109.000
331.315;  -10.625;   77.000;   20.000
331.450;   14.325;  157.000;  285.000
331.585;  -95.475; -805.000; -706.000
331.720;  -91.425; -510.000; -460.000
331.855;  -13.550;  -35.000; -102.000
331.990;  250.350;   62.000;  138.000
332.126;  143.475; -110.000;   71.000
332.261;  -30.875; -379.000; -265.000
332.396;  -16.750; -135.000; -242.000
332.531; -106.150;-1074.000;-1031.000
332.666;   32.175; -519.000; -363.000
332.801; -107.825; -726.000; -807.000
332.936;  -22.600; -192.000; -122.000
333.071; -152.825; -870.000; -817.000
333.206;   10.100;  307.000;  379.000
333.341;   15.150;  344.000;  418.000
333.476;  -95.575; -627.000; -623.000
333.611;  -47.150; -251.000; -173.000
333.746;  -57.775; -381.000; -464.000
333.881; -131.075; -973.000; -935.000
334.016; -131.600; -936.000; -917.000
334.151; -130.875; -746.000; -702.000
334.286;   12.325;  152.000;  186.000
334.421;  -47.075; -125.000; -178.000
334.556;  -92.675; -611.000; -567.000
334.690; -103.025; -631.000; -577.000
334.825;   40.925;  381.000;   83.000
334.960;  -71.800; -285.000; -413.000
335.095;  -18.900;  135.000;  -91.000
335.230; -109.400; -722.000; -738.000
335.365; -150.200;-1084.000; -990.000
335.499; -142.400;-1108.000;-1037.000
335.634;    5.600;    9.000;  534.000
335.769; -113.200; -755.000; -720.000
335.904;  -82.350; -603.000; -561.000
336.038;  -72.725; -735.000; -657.000
336.173; -139.325;-1206.000;-1194.000
336.308;   -8.625; -116.000; -189.000
336.443;    3.600; -544.000; -634.000
336.577;  -76.775; -936.000; -787.000
336.712;   46.625;   -4.000;  -12.000
336.847;  -55.425; -724.000; -607.000
336.981;   48.450; -272.000; -208.000
337.116;  246.575;  615.000;  501.000
337.250;  111.100; -434.000; -421.000
337.385;  267.300; -297.000; -208.000
337.520;   84.800; -632.000; -603.000
337.654;  -49.975; -215.000; -126.000
337.789; -134.150; -989.000; -933.000
337.923;  -38.800; -104.000; -205.000
338.058; -110.575; -673.000; -738.000
338.192;  -33.700; -611.000; -488.000
338.327;  -22.050;  -18.000; -155.000
338.461;  -57.925; -299.000; -469.000
338.596; -109.500; -780.000; -638.000
338.730; -110.775; -767.000; -803.000
338.865;   82.500;  -46.000; -140.000
338.999;  -57.500; -846.000; -702.000
339.134;  -30.125; -634.000; -536.000
339.268;   14.450; -741.000; -603.000
339.403;  360.975; -740.000; -775.000
339.537;  131.675; -894.000; -820.000
339.671; -117.050; -829.000; -813.000
339.806;  -59.850; -556.000; -512.000
339.940;    2.525; -261.000; -235.000
340.074;  -94.625; -685.000; -510.000
340.209;  -56.025; -351.000; -230.000
340.343;  -99.675; -517.000; -573.000
340.477;  120.975;  998.000; 1036.000
340.612;  -52.250;-1033.000; -900.000
340.746;  138.050; -199.000; -243.000
340.880;  -83.125; -924.000; -785.000
341.014;  -17.100;  -45.000; -154.000
341.149; -123.925; -756.000; -718.000
341.283; -118.800; -839.000; -754.000
341.417; -119.825;-1124.000; -938.000
341.551;   84.000; -768.000; -708.000
341.685;  -59.600; -633.000; -611.000
341.820;  -70.925; -562.000; -493.000
341.954;  -65.275; -218.000; -349.000
342.088; -165.500;-1102.000;-1019.000
342.222;   41.625;  565.000;  618.000
342.356;  -65.025; -395.000; -335.000
342.490;  -96.475; -880.000; -841.000
342.624;  -53.500; -339.000; -242.000
342.758;  -37.350; -364.000; -312.000
342.892;  -82.250; -710.000; -585.000
343.026;  -42.950;  -58.000; -116.000
343.160;  -76.125; -426.000; -376.000
343.294;  -92.075; -474.000; -337.000
343.428;  -40.300; -488.000; -448.000
343.562;  -16.300; -172.000;  -23.000
343.696;  -37.025; -385.000; -314.000
343.830;  -39.525; -362.000; -356.000
343.964;    4.100; -231.000; -168.000
344.098;  768.700;  199.000;   70.000
344.232;  655.325; -266.000; -127.000
344.366;   72.300; -567.000; -453.000
344.500;   30.125; -665.000; -744.000
344.634;   21.175; -324.000; -164.000
344.768;  -37.400; -531.000; -341.000
344.902;    7.800;  278.000;  256.000
345.035;  -84.350; -556.000; -496.000
345.169; -130.825; -933.000; -656.000
345.303;  -45.750; -308.000; -482.000
345.437;  -93.200; -826.000; -717.000
345.571;  -76.225; -675.000; -594.000
345.704;  -69.400; -309.000; -532.000
345.838;  -32.425; -331.000; -284.000
345.972;  -50.475; -543.000; -495.000
346.106;  166.425; -179.000; -190.000
346.239;  387.650; -312.000; -243.000
346.373;   -8.150; -343.000; -302.000
346.507; -150.650; -950.000; -962.000
346.640;  104.950;  -30.000;   13.000
346.774;  -49.400; -650.000; -797.000
346.908;  -36.350; -138.000;  -11.000
347.041; -105.150; -646.000; -593.000
347.175;  -10.250;  259.000;   27.000
347.309;  -96.625; -698.000; -628.000
347.442; -117.725; -883.000; -732.000
347.576;  229.725;  670.000;  668.000
347.709;  151.550; -123.000;  -52.000
347.843; -108.800; -933.000; -825.000
347.976;   25.575;  235.000;  294.000
348.110; -194.500;-1268.000;-1186.000
348.243; -105.350; -679.000; -772.000
348.377;    8.675;  -26.000;   60.000
348.510;   35.550;  403.000;  540.000
348.644;  -50.275;  -37.000; -159.000
348.777;  -13.025;  180.000;  191.000
348.911;  -67.975; -142.000; -112.000
349.044;  125.375;  471.000;  448.000
349.178;  109.750;-1069.000;-1006.000
349.311;   91.525;  141.000;  255.000
349.444;   -6.800; -927.000; -813.000
349.578;  -38.350; -347.000; -200.000
349.711; -118.025; -959.000; -862.000
349.845;  -25.000; -661.000; -591.000
349.978; -152.775;-1224.000;-1137.000
350.111;  -90.400; -546.000; -612.000
350.244;  -86.300; -596.000; -700.000
350.378;   -8.675; -392.000; -393.000
350.511;  -75.750; -393.000; -426.000
350.644; -109.825; -808.000; -806.000
350.778;    3.800;  168.000;  104.000
350.911;   -5.100;  134.000;  140.000
351.044;  -96.675; -685.000; -615.000
351.177;  -42.350; -321.000; -281.000
351.310;  -25.575;    3.000; -131.000
351.444; -100.350; -888.000; -788.000
351.577;   97.200;  140.000;   90.000
351.710;   79.850;  593.000;  417.000
351.843;  -35.650; -165.000;  -77.000
351.976;  -27.900;  149.000;  -79.000
352.109;  -97.550; -621.000; -612.000
352.242;  -41.650; -464.000; -419.000
352.376;  -81.200; -580.000; -636.000
352.509;  120.200; -437.000; -356.000
352.642;  -15.975; -654.000; -604.000
352.775;   47.200; -141.000;  -98.000
352.908; -128.650; -933.000; -904.000
353.041; -124.075; -814.000; -824.000
353.174;  -70.875; -551.000; -424.000
353.307;  -89.700; -753.000; -764.000
353.440;   47.275;  541.000;  453.000
353.573; -131.325; -957.000;-1008.000
353.706;  -77.950; -384.000; -558.000
353.839;  -28.650; -264.000; -220.000
353.971; -106.825; -657.000; -512.000
354.104;  -89.300; -896.000; -835.000
354.237;  -49.650; -627.000; -662.000
354.370; -103.725; -846.000; -879.000
354.503; -191.525;-1231.000;-1308.000
354.636;  -54.025; -529.000; -348.000
354.769; -137.425; -937.000; -860.000
354.902;  -35.450; -230.000; -139.000
355.034;  -38.775; -164.000; -220.000
355.167;  -21.000; -262.000; -162.000
355.300;  -98.375;-1061.000; -880.000
355.433;  990.700;  -71.000;  -14.000
355.565; 1546.850; -402.000; -384.000
355.698;  399.400; -356.000; -296.000
355.831;  -18.975; -882.000; -801.000
355.964;   47.000; -285.000; -170.000
356.096; -102.350; -856.000; -843.000
356.229;  -28.700; -523.000; -530.000
356.362;  333.775; -373.000; -266.000
356.494;  595.800; -229.000; -162.000
356.627;  403.275;  269.000;  377.000
356.760;  664.625;  120.000;   53.000
356.892;  983.875; -286.000; -601.000
357.025;  566.250;  403.000;  389.000
357.157;  500.575; -167.000; -179.000
357.290;  729.250; -856.000; -713.000
357.423;  201.750; -667.000; -556.000
357.555;   98.425; -217.000; -228.000
357.688;  104.975; -483.000; -364.000
357.820;  404.525; -870.000; -877.000
357.953; 3406.125; -563.000; -589.000
358.085;  709.525; -632.000; -612.000
358.218;  869.100;-1131.000; -932.000
358.350;  140.075;  -58.000;  312.000
358.483; -137.525;-1300.000;-1187.000
358.615;  -60.325;-1182.000;-1078.000
358.747;  -89.700;-1187.000;-1058.000
358.880;  -14.000; -810.000; -744.000
359.012;  -15.875; -376.000; -202.000
359.145;  -48.175; -480.000; -511.000
359.277;   35.250; -962.000; -913.000
359.409; 2753.700;  536.000;  231.000
359.542;  713.300; -738.000; -688.000
359.674;   56.150;   46.000;   13.000
359.806;  -62.950; -565.000; -438.000
359.939;  -43.075; -617.000; -516.000
360.071;   -7.425; -583.000; -579.000
360.203;  -30.575; -411.000; -364.000
360.335;   31.125;  164.000;  -16.000
360.468;  166.400; -249.000; -307.000
360.600; 2242.250; -547.000; -454.000
360.732; 2979.575; -546.000; -423.000
360.864;  393.125;-1216.000;-1044.000
360.996;  188.850; -516.000; -554.000
361.129;   15.550; -389.000; -598.000
361.261;   16.950;  110.000; -113.000
361.393;  -42.425; -252.000; -214.000
361.525;   13.675;   94.000;  244.000
361.657;  -75.550; -821.000; -703.000
361.789;  -15.125; -139.000; -155.000
361.921;  144.725; -642.000; -593.000
362.053;  212.975;  524.000;  541.000
362.185;   34.925;  288.000;   72.000
362.318;  -98.775; -709.000; -705.000
362.450;   88.350;  294.000;  444.000
362.582;   18.600; -913.000; -870.000
362.714;  -51.775; -353.000; -332.000
362.846;  -85.275; -606.000; -490.000
362.978; -148.050; -941.000; -811.000
363.109;   14.375; -161.000; -260.000
363.241;  349.225; -739.000; -749.000
363.373;  432.975; -649.000; -564.000
363.505;  698.850; -186.000;  -91.000
363.637;  160.350; -787.000; -601.000
363.769; -134.200;-1067.000;-1080.000
363.901;  -79.700; -596.000; -654.000
364.033; -148.400;-1103.000;-1062.000
364.165;  -20.925; -283.000; -283.000
364.296;   57.250; -316.000; -177.000
364.428;   71.925;-1344.000;-1220.000
364.560;  -86.325; -679.000; -661.000
364.692;  -77.650; -738.000; -835.000
364.824;  175.175; -588.000; -456.000
364.955;  431.275; -402.000; -564.000
365.087; 1025.475;-1097.000; -852.000
365.219;   19.800; -686.000; -816.000
365.351;  -84.500; -526.000; -572.000
365.482;   40.025;  300.000;  240.000
365.614;  -73.275; -402.000; -314.000
365.746; -104.225; -729.000; -752.000
365.877; -108.025; -706.000; -672.000
366.009;  268.850;  -35.000;  -62.000
366.141;  -87.025;-1249.000;-1134.000
366.272; -127.225; -803.000; -719.000
366.404; -116.050;-1005.000; -874.000
366.535;  -17.925; -139.000;  -12.000
366.667; -107.200; -644.000; -649.000
366.799;   26.450;  353.000;  203.000
366.930; -135.425; -862.000; -996.000
367.062;  113.775; -639.000; -613.000
367.193;  186.725; -872.000; -842.000
367.325;  -70.125; -580.000; -684.000
367.456;    6.525; -246.000;   31.000
367.588;  152.300; -371.000; -318.000
367.719;   -1.025;  -44.000;  -45.000
367.851;  -47.350; -222.000; -241.000
367.982;  -78.350; -875.000; -732.000
368.113;   45.775; -475.000; -358.000
368.245; -128.950; -960.000; -841.000
368.376;  -42.400; -254.000; -302.000
368.508;  -53.450; -188.000; -263.000
368.639; -157.325;-1166.000;-1034.000
368.770;  -34.825; -670.000; -589.000
368.902;  -93.475; -836.000; -926.000
369.033; -118.625; -906.000; -855.000
369.164;  -64.450; -720.000; -653.000
369.296; -126.475; -452.000; -601.000
369.427;  -19.650; -209.000; -144.000
369.558;  -77.150; -593.000; -377.000
369.689;  -87.400; -721.000; -569.000
369.821; -135.175; -951.000; -845.000
369.952;  -24.375;   42.000; -108.000
370.083;  -54.000; -229.000; -108.000
370.214;  -95.550; -735.000; -650.000
370.345;  -18.625;   65.000;   81.000
370.477; -113.025; -810.000; -790.000
370.608;  175.125; -328.000; -264.000
370.739;  -78.025;-1233.000;-1292.000
370.870;  -81.725;-1102.000; -923.000
371.001;   50.800; -378.000; -467.000
371.132;  -91.625; -754.000; -735.000
371.263;  -32.200;  -42.000; -148.000
371.394; -136.700; -841.000; -748.000
371.525;   17.425;  345.000;  225.000
371.657;  -94.850; -808.000; -670.000
371.788;   59.775;  103.000;  199.000
371.919;  124.675; -384.000; -304.000
372.050; 3205.775;  -91.000; -156.000
372.181;  967.825; -188.000; -294.000
372.311;  302.325;   42.000; -127.000
372.442;   13.525; -457.000; -451.000
372.573;  -34.675; -444.000; -340.000
372.704; -137.850;-1008.000; -980.000
372.835;   52.575; -228.000; -289.000
372.966;  -67.375; -646.000; -554.000
373.097;  -82.125; -575.000; -711.000
373.228;  -51.075; -717.000; -542.000
373.359;   84.775; -824.000; -536.000
373.490;  763.350; -881.000; -727.000
373.620;  964.500;-1001.000; -803.000
373.751; 1505.475; -332.000; -396.000
373.882;  652.875; -663.000; -733.000
374.013;   45.275; -449.000; -262.000
374.143;  -60.475; -581.000; -659.000
374.274; -104.225; -987.000; -908.000
374.405;  134.100; -388.000; -276.000
374.536;  364.125; -526.000; -387.000
374.666;  910.175; -759.000; -807.000
374.797;  161.925; -817.000; -868.000
374.928;  664.875; -710.000; -560.000
375.058;  731.825; -535.000; -500.000
375.189;   51.850;  -59.000;  -93.000
375.320; -118.325; -928.000;-1034.000
375.450;  -42.200; -625.000; -616.000
375.581;  -60.650; -526.000; -436.000
375.712;  -52.950; -574.000; -250.000
375.842;  215.425; -438.000; -415.000
375.973;  167.925; -554.000; -513.000
376.103;  -69.275; -665.000; -648.000
376.234; -106.700; -531.000; -552.000
376.364;  -60.400; -944.000; -867.000
376.495;  282.775;  925.000;  529.000
376.625;  -42.575; -472.000; -485.000
376.756;   10.425; -709.000; -678.000
376.886;  -97.700;-1178.000;-1026.000
377.017;   51.150;-1048.000;-1061.000
377.147;  379.875; -786.000; -782.000
377.278;   49.675;  174.000;  228.000
377.408; -144.025; -801.000; -815.000
377.538; -126.250; -707.000; -693.000
377.669;  -83.350; -537.000; -613.000
377.799; -107.000; -645.000; -635.000
377.929;  -64.425; -610.000; -428.000
378.060; -134.275; -781.000; -847.000
378.190;  -66.025; -726.000; -531.000
378.320;  -63.375; -401.000; -406.000
378.451;  -12.925; -131.000;  -22.000
378.581;  -13.975;  -67.000; -110.000
378.711;  122.650; 1035.000;  866.000
378.841;  -53.475; -533.000; -675.000
378.972;  -99.500; -871.000; -751.000
379.102;  -39.525; -652.000; -579.000
379.232;  -37.550; -126.000;  -73.000
379.362; -124.150;-1001.000; -885.000
379.492;  -27.500; -373.000; -424.000
379.623;   85.425;    0.000;  111.000
379.753; -124.400;-1107.000; -974.000
379.883;  156.375;   59.000;  156.000
380.013;  -22.625;-1081.000;-1017.000
380.143; -123.525;-1097.000;-1056.000
380.273; -117.300; -985.000; -861.000
380.403;  -15.375; -344.000; -257.000
380.533;  -51.500; -651.000; -664.000
380.663;   34.775;  173.000;  128.000
380.793; -126.100;-1027.000;-1074.000
380.923;  -28.275; -103.000;  -34.000
381.053; -101.500; -613.000; -623.000
381.183;  -51.050; -106.000; -248.000
381.313;    1.675; -656.000; -470.000
381.443;   11.550; -692.000; -473.000
381.573;  131.750; -402.000; -409.000
381.703;  172.350;-1249.000;-1095.000
381.833; -153.000;-1454.000;-1336.000
381.963;   86.475; -134.000;  -87.000
382.093; 1217.750; -925.000; -909.000
382.223;  352.500; -713.000; -602.000
382.353;  -45.400; -801.000; -608.000
382.482;  280.825;-1091.000; -964.000
382.612;  641.425; -872.000; -644.000
382.742;  350.675; -695.000; -622.000
382.872;  184.875; -565.000; -551.000
383.002;   33.125;  347.000; -132.000
383.131;  -33.050; -226.000; -160.000
383.261;  -59.700; -706.000; -768.000
383.391;  271.350; -552.000; -377.000
383.521; 3397.625;  451.000;  263.000
383.650;  835.000; -947.000; -904.000
383.780;  -24.875; -783.000; -656.000
383.910;  104.000;  880.000;  802.000
384.039;  -20.300; -794.000; -656.000
384.169;  110.375;-1205.000;-1017.000
384.299;  -47.350; -650.000; -662.000
384.428; -102.825; -764.000; -680.000
384.558;  -53.475; -308.000; -275.000
384.687;  -74.475; -414.000; -334.000
384.817;  -17.775;   75.000;   -2.000
384.947;  -16.825; -234.000; -141.000
385.076;  250.150;  982.000;  912.000
385.206;   80.500;  369.000;  480.000
385.335;  -53.325; -549.000; -417.000
385.465;  -98.550; -655.000; -663.000
385.594;  101.825;  -53.000;  -44.000
385.724;  323.925; -868.000; -838.000
385.853;   72.350; -296.000; -270.000
385.982; 1132.400; -743.000; -787.000
386.112; 1825.375;-1052.000; -871.000
386.241;   94.900; -307.000; -312.000
386.371;    4.225; -174.000;  -87.000
386.500;  -33.875; -825.000; -789.000
386.629;    4.425; -874.000; -817.000
386.759;   44.850;  -43.000;   68.000
386.888;  -36.450; -170.000; -250.000
387.017;  -88.375; -648.000; -620.000
387.147; -109.150; -771.000; -798.000
387.276;  -26.150; -410.000; -397.000
387.405;  -15.200; -398.000; -342.000
387.535;  -67.650; -452.000; -361.000
387.664;  -69.700; -692.000; -620.000
387.793;   31.125; -198.000; -113.000
387.922;  408.625;  255.000;  200.000
388.052;  -18.200; -576.000; -423.000
388.181;  -22.700; -342.000; -472.000
388.310;  -55.725; -889.000; -710.000
388.439;  -67.125; -749.000; -742.000
388.568;  153.025;  365.000;  244.000
388.697;  847.050; -756.000; -653.000
388.826;  159.750; -768.000; -666.000
388.956;   39.100; -285.000; -307.000
389.085;  -41.875; -347.000; -287.000
389.214; -107.475; -842.000; -872.000
389.343;  -91.075; -645.000; -413.000
389.472;  385.925;  126.000;  149.000
389.601;  510.150;   91.000;    0.000
389.730;  -11.325; -568.000; -687.000
389.859;   51.675;  226.000;   46.000
389.988;  125.800; -423.000; -408.000
390.117;  103.625; -168.000; -146.000
390.246;  -29.975; -331.000; -320.000
390.375;   45.225; -673.000; -626.000
390.504;  -76.550; -703.000; -621.000
390.633; -123.000; -672.000; -726.000
390.761;  -85.175; -732.000; -645.000
390.890;   -5.825;   -4.000; -130.000
391.019;  -58.375; -421.000; -441.000
391.148; -138.725; -826.000; -855.000
391.277;  -84.225; -576.000; -493.000
391.406; -106.200; -821.000; -805.000
391.534;    4.625;  574.000; -301.000
391.663;  -76.400; -583.000; -645.000
391.792; -101.425; -673.000; -701.000
391.921;   52.450;   -3.000;   15.000
392.050;  114.725; -287.000; -228.000
392.178;  -69.100;-1206.000;-1061.000
392.307;   87.350; -758.000; -712.000
392.436;   41.850; -427.000; -641.000
392.564;   -4.500;  166.000;   -6.000
392.693;  -98.225; -860.000; -682.000
392.822;  145.200; -529.000; -534.000
392.950;   39.525; -880.000; -714.000
393.079;  258.950; -188.000; -328.000
393.208;  -11.000; -488.000; -511.000
393.336;  -29.975; -170.000; -145.000
393.465;  -44.450; -317.000; -199.000
393.593;  -11.850;   62.000;   79.000
393.722; -160.000;-1121.000; -916.000
393.850;  -43.575; -188.000;  -61.000
393.979; -160.875; -926.000; -805.000
394.107;  -81.700; -517.000; -537.000
394.236;  -56.100; -570.000; -507.000
394.364;  179.500;  383.000;  206.000
394.493;  267.500; -911.000; -767.000
394.621;  -38.925; -955.000; -916.000
394.750;  728.000; -873.000; -923.000
394.878; 3041.925; -247.000; -149.000
395.007; 4198.150; -721.000; -807.000
395.135;  311.000; -790.000; -721.000
395.263;  -83.750;-1038.000;-1040.000
395.392;    2.550;  -25.000; -107.000
395.520; -152.600; -818.000; -679.000
395.648; -102.550; -865.000; -915.000
395.777;  -46.200; -366.000; -405.000
395.905;  -64.625; -449.000; -564.000
396.033;   -5.175;  217.000;  172.000
396.162;  442.700; -399.000; -453.000
396.290;  430.025;  -17.000;   -2.000
396.418;   37.800; -555.000; -514.000
396.546;  -92.250; -571.000; -466.000
396.674;  -98.725; -850.000; -878.000
396.803;  -13.100;  -72.000;  -23.000
396.931;   56.350; -179.000; -199.000
397.059;    2.300;-1026.000; -989.000
397.187; -131.125;-1026.000; -975.000
397.315; -152.425; -884.000; -649.000
397.443; -111.125; -592.000; -443.000
397.572; -110.075; -578.000; -424.000
397.700;  -51.525; -607.000; -614.000
397.828;   -3.650;  120.000;  -90.000
397.956;  -53.950; -508.000; -478.000
398.084;  -69.850; -767.000; -626.000
398.212;   13.850;  137.000;  124.000
398.340;   -0.775;  -56.000;  159.000
398.468;  -17.200; -390.000; -169.000
398.596; -151.875; -993.000; -953.000
398.724; -135.775; -762.000; -767.000
398.852; -160.900;-1024.000; -976.000
398.980;  -82.900; -560.000; -560.000
399.108;  -83.875; -982.000; -735.000
399.236;   -0.175;   13.000;    8.000
399.363;    7.775;  222.000;  196.000
399.491;  -89.500; -404.000; -398.000
399.619; -129.325; -829.000; -800.000
399.747; -118.400; -859.000; -771.000
399.875;   62.550;  220.000;  234.000
400.003;  -54.825; -359.000; -284.000
400.130; -109.800; -421.000; -341.000
400.258;  -40.325;  -83.000;   38.000
400.386;  -84.525; -352.000; -168.000
400.514;  -74.900; -526.000; -587.000
400.641; -116.900; -928.000; -802.000
400.769; -151.925; -979.000; -888.000
400.897; -133.200; -838.000; -793.000
401.025;  -33.800; -166.000; -152.000
401.152;   -0.450;  220.000;   38.000
401.280;  -93.750; -430.000; -429.000
401.408; -118.350; -712.000; -576.000
401.535; -110.950; -735.000; -758.000
401.663; -188.075;-1134.000;-1054.000
401.790;  -89.825; -514.000; -525.000
401.918;   29.525;  436.000;  405.000
402.046;  -20.225;  134.000;  122.000
402.173;  -45.700;  -18.000;    7.000
402.301;  -77.025; -519.000; -397.000
402.428;   24.525;  528.000;  383.000
402.556; -150.275;-1188.000; -913.000
402.683;  -45.875;  -20.000;   -1.000
402.811;  -40.650;  -37.000; -206.000
402.938;  -11.275;   20.000;   27.000
403.066;  152.625; -574.000; -558.000
403.193;  279.475;  299.000;  239.000
403.321;  197.900; -396.000; -574.000
403.448;  261.600;   83.000;   27.000
403.575;  103.400;  -90.000;  -46.000
403.703; -109.075; -732.000; -557.000
403.830;  -72.950; -531.000; -496.000
403.957; -144.100;-1117.000;-1023.000
404.085;   -0.250;  -61.000; -172.000
404.212;   77.875;  -50.000;   63.000
404.339;  269.350; -566.000; -306.000
404.467; 6014.700; -612.000; -524.000
404.594; 3855.825; -287.000; -227.000
404.721;  837.900; -869.000; -764.000
404.848;   71.000; -113.000; -202.000
404.976; -115.900; -856.000; -783.000
405.103;  -22.150;  -14.000;  -82.000
405.230;   -9.725;  190.000;  226.000
405.357;   -4.525;  117.000;   44.000
405.484;  258.775;  -49.000;    5.000
405.612;   43.425; -548.000; -563.000
405.739;  -85.925; -488.000; -243.000
405.866;   65.000;  669.000;  385.000
405.993;  -52.250; -398.000; -102.000
406.120; -152.925; -801.000; -887.000
406.247;  -67.850; -323.000; -342.000
406.374;  333.725;  540.000;  629.000
406.501;   43.150; -632.000; -702.000
406.628;  -97.850; -621.000; -589.000
406.755; -114.625; -803.000; -620.000
406.882;  -49.275; -228.000; -277.000
407.009; -113.500; -719.000; -628.000
407.136;   -4.400; -480.000; -401.000
407.263;   61.625; -939.000; -829.000
407.390;  -99.300; -692.000; -614.000
407.517; -181.625;-1139.000;-1187.000
407.644;  -72.550; -332.000; -256.000
407.771;  -71.400; -249.000; -287.000
407.898;   -8.950;  168.000;  328.000
408.025;  -69.400; -421.000; -313.000
408.151;  -27.425;   82.000;  153.000
408.278;  -71.200; -267.000; -216.000
408.405; -146.000; -931.000; -899.000
408.532;  -88.725; -549.000; -542.000
408.659; -125.325; -677.000; -648.000
408.785; -208.900;-1298.000;-1170.000
408.912;  -80.250; -412.000; -296.000
409.039; -106.875; -610.000; -686.000
409.166; -118.525; -591.000; -555.000
409.292; -116.450; -571.000; -534.000
409.419; -129.650; -665.000; -649.000
409.546;  -88.025; -431.000; -192.000
409.672; -110.225; -713.000; -545.000
409.799;  -40.375;  -36.000;   34.000
409.926;  -51.575; -180.000; -179.000
410.052; -191.475;-1127.000;-1091.000
410.179;  -58.800; -368.000; -392.000
410.305;  -92.050; -375.000; -493.000
410.432;  -68.175; -220.000; -333.000
410.558;  -99.125; -305.000; -380.000
410.685; -107.575; -688.000; -431.000
410.812; -103.425; -409.000; -588.000
410.938; -136.375; -964.000; -808.000
411.065; -104.775; -671.000; -645.000
411.191;  -33.250; -189.000; -174.000
411.317; -126.625; -823.000; -742.000
411.444;  -71.925; -317.000; -246.000
411.570;  -87.525; -339.000; -294.000
411.697; -133.125; -758.000; -752.000
411.823; -180.725; -989.000; -999.000
411.949;  -43.825;  -56.000;   17.000
412.076; -115.025; -539.000; -519.000
412.202; -139.375; -758.000; -757.000
412.329; -139.225; -798.000; -752.000
412.455; -137.575; -821.000; -657.000
412.581;  -36.850;  -15.000;  172.000
412.707;  -82.300; -540.000; -457.000
412.834;    6.425;  156.000;  219.000
412.960; -108.925; -785.000; -784.000
413.086; -112.250; -743.000; -701.000
413.212;  122.250;  604.000;  578.000
413.339;  -85.650; -685.000; -701.000
413.465;  -24.125; -364.000; -310.000
413.591; -118.025; -757.000; -474.000
413.717;  -68.900; -358.000; -366.000
413.843; -147.675; -839.000; -861.000
413.969;  -58.275;  -47.000; -292.000
414.096;  -82.375; -679.000; -679.000
414.222;  -15.450;  -33.000;   85.000
414.348;  -60.000; -652.000; -385.000
414.474;   60.850;   38.000;  -52.000
414.600;  -30.775; -126.000; -144.000
414.726;  -18.750;  -96.000;  -55.000
414.852;  -66.525; -365.000; -342.000
414.978;   26.600;  104.000;  -18.000
415.104;   42.275;   38.000;   80.000
415.230;    3.900; -329.000; -330.000
415.356;   28.050; -409.000; -514.000
415.482;  181.775;   13.000;  -35.000
415.608;  282.975; -247.000; -323.000
415.734;  959.425;   67.000;   38.000
415.860;20264.325; -875.000; -767.000
415.986;15007.475; -685.000; -607.000
416.111; 1319.300; -798.000; -652.000
416.237;  262.925; -424.000; -571.000
416.363; 1145.900; -765.000; -733.000
416.489; 4455.000; -324.000; -251.000
416.615;  475.675; -707.000; -742.000
416.741;  -34.150; -677.000; -784.000
416.866;  -92.150; -673.000; -736.000
416.992; -144.725; -801.000; -818.000
417.118;  -41.050;  -41.000;  -80.000
417.244;  -86.625; -798.000; -531.000
417.369;  -99.700; -801.000; -612.000
417.495;  -35.950; -325.000; -254.000
417.621; -104.400;-1015.000; -803.000
417.746;   -8.175; -579.000; -572.000
417.872;   44.850; -254.000; -144.000
417.998;   35.275; -515.000; -530.000
418.123; 1074.275;-1073.000; -845.000
418.249; 5653.050; -512.000; -601.000
418.374;  805.050; -916.000; -824.000
418.500;  108.475; -383.000; -482.000
418.626;   96.425;   70.000;  -59.000
418.751;  107.150; -549.000; -448.000
418.877;  192.800; -637.000; -643.000
419.002; 1841.300; -688.000; -560.000
419.128;13156.150; -930.000; -721.000
419.253; 3277.450; -967.000; -837.000
419.379;  427.875; -391.000; -338.000
419.504;  395.900;  325.000;  415.000
419.629;  532.975; -393.000; -212.000
419.755; 3714.150; -317.000; -254.000
419.880;22560.425;  -98.000;   67.000
420.006;11950.525; -280.000; -221.000
420.131;30636.700; -662.000; -775.000
420.256; 4468.600; -315.000; -316.000
420.382;  576.450; -665.000; -687.000
420.507;   60.975; -649.000; -778.000
420.632;   97.675; -337.000; -339.000
420.758;  181.875; -251.000; -425.000
420.883;  -92.425; -876.000; -672.000
421.008; -116.900; -775.000; -619.000
421.133;  -98.800; -509.000; -467.000
421.259;  -62.100; -325.000; -259.000
421.384; -132.300; -834.000; -693.000
421.509;  -89.700;-1052.000; -862.000
421.634;  851.000; -936.000; -820.000
421.759;  369.625; -359.000; -327.000
421.885;  -69.675; -717.000; -656.000
422.010;  -96.100; -673.000; -542.000
422.135; -161.900; -695.000; -727.000
422.260;   21.200;  340.000;  280.000
422.385;  -48.100;   12.000;  -98.000
422.510;  -17.225;  151.000;  -26.000
422.635;    2.050;  -87.000;  -43.000
422.760;   68.400; -766.000; -791.000
422.885;   41.675;  -57.000;  -80.000
423.010;  -35.625; -112.000; -169.000
423.135; -113.750; -481.000; -561.000
423.260;  -20.075; -150.000; -245.000
423.385;   40.150;  476.000;  222.000
423.510;    2.525;   71.000;  -22.000
423.635;   56.625;  133.000;   45.000
423.760;   41.475;  383.000;  328.000
423.885;   39.600;  336.000;  391.000
424.010;   -3.525;  -68.000;  -13.000
424.135;  -47.125;    5.000;  -33.000
424.259;  -91.200; -654.000; -457.000
424.384;  -66.825; -279.000; -272.000
424.509;  -52.475; -260.000; -186.000
424.634; -104.100; -761.000; -623.000
424.759;  -27.850; -688.000; -544.000
424.883;  -25.250; -506.000; -527.000
425.008;  144.475; -502.000; -410.000
425.133; 2012.225; -679.000; -653.000
425.258;  970.475; -517.000; -381.000
425.382;  901.575; -867.000; -774.000
425.507; 2308.450; -487.000; -543.000
425.632;  406.975; -802.000; -663.000
425.756;  462.575; -256.000; -146.000
425.881; 7004.775; -831.000; -857.000
426.006;19378.350; -604.000; -355.000
426.130; 3017.150; -696.000; -508.000
426.255;  367.525; -611.000; -491.000
426.379;  172.725; -189.000; -577.000
426.504;  359.175;  660.000;  544.000
426.629; 4110.150; -519.000; -466.000
426.753; 2843.200;   64.000;  -46.000
426.878;  316.025; -252.000; -288.000
427.002;  139.350; -651.000; -668.000
427.127; 1602.925;  -35.000; -158.000
427.251;11883.750;  372.000;  401.000
427.375; 3473.075; -191.000; -173.000
427.500; 2066.325; -616.000; -610.000
427.624;  711.700; -234.000; -400.000
427.749;   78.475; -216.000; -225.000
427.873;  -54.150; -499.000; -412.000
427.997;  -60.525; -222.000; -230.000
428.122;   51.275;  795.000;  703.000
428.246;   49.375;  433.000;  434.000
428.371; -138.375; -869.000; -773.000
428.495; -117.750; -624.000; -646.000
428.619;  -47.050; -186.000; -117.000
428.743;    7.925;   65.000;  132.000
428.868;   -1.750; -732.000; -643.000
428.992; 1195.850; -219.000; -326.000
429.116;  480.300; -329.000; -357.000
429.240;  208.125;  419.000;  426.000
429.365;  -33.600; -454.000; -574.000
429.489;  -62.375; -638.000; -647.000
429.613;    3.775; -236.000; -177.000
429.737;    8.650; -563.000; -432.000
429.861;  255.400; -247.000; -133.000
429.985; 5684.125; -425.000; -305.000
430.109; 6414.700; -770.000; -908.000
430.234;  730.800;   76.000;  -50.000
430.358;   55.125; -250.000; -160.000
430.482;  -77.350; -672.000; -564.000
430.606;  -87.000; -655.000; -375.000
430.730;  -32.875; -437.000; -388.000
430.854;   64.225; -909.000; -835.000
430.978;  -99.825; -795.000; -764.000
431.102;  -94.625; -499.000; -422.000
431.226; -146.875; -874.000; -815.000
431.350;   15.900;  345.000;  422.000
431.474;  -88.950; -661.000; -373.000
431.597; -157.475;-1060.000; -848.000
431.721;  -98.700; -276.000; -267.000
431.845; -132.900; -704.000; -472.000
431.969;  -89.275; -304.000; -349.000
432.093;  -93.425; -395.000; -317.000
432.217;  -23.675;   32.000;   82.000
432.341;  -96.025; -523.000; -518.000
432.464;  -13.400;   96.000;   40.000
432.588;  142.100; -401.000; -329.000
432.712;   66.450;  -52.000;  -52.000
432.836;   39.525;  213.000;  263.000
432.959;  -34.050; -372.000; -311.000
433.083;   86.025;   11.000;    2.000
433.207;  381.900;  285.000;  930.000
433.330; 5247.425; -391.000; -200.000
433.454; 6628.600; -654.000; -638.000
433.578; 3774.350;  583.000;  278.000
433.701;  714.325; -623.000; -675.000
433.825;  110.825; -292.000; -299.000
433.949;  105.800;   28.000;  -72.000
434.072;    9.600; -410.000; -323.000
434.196;  -24.375; -309.000; -117.000
434.319; 3711.275;25482.000;25124.000
434.443;  697.450; -656.000; -603.000
434.566; 2785.025;  281.000;   62.000
434.690;  470.950; -637.000; -383.000
434.813;   40.050; -251.000; -173.000
434.937;  -88.625; -569.000; -696.000
435.060;  -64.425; -423.000; -332.000
435.184;  193.425; -492.000; -217.000
435.307;  105.000;  159.000;  102.000
435.431;  -23.725;  -40.000;   24.000
435.554;  -90.150; -399.000; -240.000
435.677;  -93.200; -350.000; -258.000
435.801;  -48.150;  -25.000;   49.000
435.924;  -39.475;    1.000;  -67.000
436.048; -140.050;-1019.000; -732.000
436.171;  -76.675; -240.000;  -66.000
436.294;  -38.125; -248.000; -229.000
436.417;   95.050; -963.000; -849.000
436.541;  -83.400; -814.000; -840.000
436.664;  -57.950; -242.000; -316.000
436.787;  -41.900;   13.000;  113.000
436.910; -127.050; -792.000; -422.000
437.034;   -8.400;  142.000;  143.000
437.157;   16.050;  -11.000;    0.000
437.280;  -65.775; -392.000; -292.000
437.403; -114.925; -982.000; -869.000
437.526;  394.975; -903.000; -865.000
437.649; 1656.350; -505.000; -332.000
437.772;  202.000; -692.000; -540.000
437.896;   89.425;  700.000;  544.000
438.019; -113.350; -758.000; -503.000
438.142; -116.800; -596.000; -506.000
438.265;  -45.050; -639.000; -670.000
438.388;  401.150; -520.000; -410.000
438.511;   32.500; -597.000; -394.000
438.634;  -71.175; -247.000; -125.000
438.757; -150.125; -693.000; -619.000
438.880;  -48.175;  -34.000;  -57.000
439.003; -111.075; -417.000; -437.000
439.126;  -74.050; -287.000; -167.000
439.248;  -79.800;  -98.000; -139.000
439.371;  -53.825;    9.000;  -53.000
439.494;   16.675;  510.000;  439.000
439.617;  -57.350;   65.000;  -88.000
439.740; -180.125; -968.000; -816.000
439.863; -144.400; -755.000; -595.000
439.986; -139.050; -476.000; -431.000
440.108;  -52.625; -161.000; -112.000
440.231; -172.750; -950.000; -836.000
440.354;  -52.075;  -64.000; -150.000
440.477;  -12.200; -566.000; -542.000
440.599;  -35.050; -200.000; -225.000
440.722; -127.575; -709.000; -586.000
440.845;   54.000;  751.000;  928.000
440.968; -110.700; -415.000; -311.000
441.090;  -68.000; -199.000;  -33.000
441.213; -175.825;-1021.000; -825.000
441.336;  -64.975; -159.000;   -5.000
441.458; -104.650; -549.000; -396.000
441.581;  -95.875; -628.000; -629.000
441.703;  -70.375; -152.000;   13.000
441.826; -113.375; -557.000; -400.000
441.948;  -50.300;   56.000;   51.000
442.071;   30.600;  555.000;  424.000
442.193; -123.200; -531.000; -485.000
442.316;   -5.750;  152.000;   97.000
442.438;   21.175; -233.000;  -10.000
442.561;   49.025;  272.000;  262.000
442.683;  355.475; -809.000; -522.000
442.806;  864.400;   -8.000;   74.000
442.928;  -41.375; -859.000; -604.000
443.051;  -86.825; -577.000; -373.000
443.173;  -93.200; -341.000; -339.000
443.295;  -96.150; -263.000; -371.000
443.418;  -85.775; -321.000;  -29.000
443.540;  -23.550; -106.000;   -4.000
443.662; -123.625; -563.000; -465.000
443.785;  -28.475;  335.000;  199.000
443.907; -119.350; -362.000; -208.000
444.029; -145.775; -767.000; -494.000
444.152; -157.675; -644.000; -554.000
444.274;  -55.600;  -18.000;  -24.000
444.396; -111.325; -461.000; -221.000
444.518; -151.075; -691.000; -454.000
444.640; -115.150; -268.000; -111.000
444.763;  -45.125;  388.000;  249.000
444.885; -121.450; -432.000; -392.000
445.007;  -56.650;   35.000;   86.000
445.129; -130.000; -610.000; -515.000
445.251; -124.525; -372.000; -439.000
445.373; -151.100; -537.000; -386.000
445.495;    5.375;  242.000;  350.000
445.617;   44.725;  853.000;  753.000
445.739;  -81.950; -215.000;  -97.000
445.861;  -43.425; -245.000; -112.000
445.984;  -62.075; -267.000; -101.000
446.105;  122.625; -418.000; -251.000
446.227;  460.350; -176.000;  -19.000
446.349;  -39.650; -358.000; -249.000
446.471; -110.900; -615.000; -448.000
446.593;  -79.325; -316.000;   19.000
446.715;  -21.550;  -67.000;   41.000
446.837;   56.575;  697.000;  832.000
446.959;  -97.950; -457.000; -478.000
447.081; -130.675; -628.000; -518.000
447.203;   51.600;  862.000;  834.000
447.325;  -90.475; -270.000;   42.000
447.446;   -3.850;  286.000;  530.000
447.568; -171.950; -921.000; -803.000
447.690;  -84.850; -236.000; -245.000
447.812; -159.050; -798.000; -519.000
447.933;  -26.725;  155.000;  127.000
448.055;  -65.525; -306.000; -261.000
448.177;   94.275;   31.000;   79.000
448.299;   20.225; -935.000; -727.000
448.420;   -1.300;  -25.000;  159.000
448.542;  -59.275;   -3.000;   33.000
448.664;  -33.100;  109.000;  322.000
448.785;  -37.250;  265.000;   83.000
448.907;  -89.375; -614.000; -353.000
449.028;  -40.400; -771.000; -471.000
449.150;   46.825;  492.000;  589.000
449.272; -174.200;-1044.000; -913.000
449.393;   10.550;  612.000;  694.000
449.515; -147.350; -634.000; -581.000
449.636;  -69.325; -264.000; -155.000
449.758;   57.200;  763.000;  622.000
449.879; -113.275; -498.000; -396.000
450.001;  -79.450; -149.000;  -49.000
450.122;  -44.725;  -95.000;  162.000
450.244;  -30.725;   37.000;  364.000
450.365;  -96.225; -495.000; -301.000
450.486;  -24.025;   80.000;  268.000
450.608;   27.725;  393.000;  326.000
450.729;   59.650;  578.000;  645.000
450.850;   -3.575; -574.000; -466.000
450.972;  786.275; -552.000; -389.000
451.093; 5230.375;  190.000;  588.000
451.214; 2339.525; -516.000; -337.000
451.336;  410.325;  773.000;  579.000
451.457;   60.675;  264.000;  393.000
451.578;  -43.400; -118.000;  -74.000
451.699; -126.625; -546.000; -540.000
451.821;  -69.025; -284.000;  -50.000
451.942;  -12.300;  278.000;  285.000
452.063;   17.150;  228.000;  419.000
452.184;  572.850;  -54.000;  -49.000
452.305; 1149.725;  103.000;  170.000
452.427;  129.225; -549.000; -301.000
452.548;  -28.275;   23.000;   79.000
452.669;  -67.800; -257.000;  -89.000
452.790;  -59.425;    3.000;  -18.000
452.911;   -4.575;  195.000;  259.000
453.032;  -74.275; -289.000;  -60.000
453.153;  -65.925;  -29.000;   81.000
453.274;   51.450;  737.000;  868.000
453.395;  -55.800;  -51.000;  175.000
453.516;   99.050; 1317.000; 1388.000
453.637;  -81.275; -205.000; -150.000
453.758;  -78.425;   15.000;   69.000
453.879; -124.425; -462.000; -250.000
454.000;   65.000; 1086.000;  948.000
454.121; -130.625; -554.000; -326.000
454.242; -129.425; -599.000; -383.000
454.362;  -59.225;  -99.000;  114.000
454.483;  -42.900; -309.000; -229.000
454.604;   48.575;  512.000;  580.000
454.725; -143.125; -627.000; -555.000
454.846; -138.650; -474.000; -406.000
454.967;  -38.125;  230.000;  539.000
455.087;  -55.400;  179.000;  153.000
455.208;    1.675;  554.000;  856.000
455.329;  -64.450;  -22.000;   82.000
455.450;   28.400;  473.000;  633.000
455.570;  -86.325; -234.000; -211.000
455.691;  -51.925;  201.000;  407.000
455.812; -118.225; -270.000;  -92.000
455.932;  -73.125;  107.000;  -97.000
456.053;  -80.350;   36.000;   24.000
456.173; -128.475; -433.000; -355.000
456.294; -141.650; -476.000; -303.000
456.415;  -69.925;  -73.000;   70.000
456.535;  -46.500;  297.000;  273.000
456.656;  -49.025;  132.000;  240.000
456.776;  -72.625;    3.000;  298.000
456.897;  -36.850;  308.000;  513.000
457.017;  -82.800; -153.000;   -3.000
457.138; -107.875; -402.000; -249.000
457.258;  -36.175;  263.000;  224.000
457.379;  -23.700;  509.000;  521.000
457.499;  -32.475;  443.000;  432.000
457.620; -122.250; -407.000; -231.000
457.740; -112.950; -132.000;  -11.000
457.860;  -80.475;   87.000;   44.000
457.981;  -51.400;  132.000;  124.000
458.101;  -66.600;  -89.000;   40.000
458.221;  -20.375;  336.000;  402.000
458.342;  -71.075;   -4.000;  -37.000
458.462;   21.200;  617.000;  352.000
458.582;  -36.250; -302.000; -294.000
458.703;   11.200;  303.000;  154.000
458.823;  -39.050;   22.000;  163.000
458.943;   23.500;  341.000;  467.000
459.063;  -17.675; 1124.000;  192.000
459.183;  -26.350;  328.000;  313.000
459.304;   -8.775;  315.000;  517.000
459.424;  -54.575; -246.000;  -89.000
459.544;  327.550;  388.000;  764.000
459.664;  866.950;  499.000;  506.000
459.784;  334.800; 1004.000; 1175.000
459.904;   50.750;  867.000;  744.000
460.024;   49.700;  867.000;  684.000
460.144;   -1.775;  449.000;  554.000
460.264;  -13.175;  515.000;  327.000
460.385; -108.125; -145.000; -119.000
460.505;   27.400;  905.000;  858.000
460.625;  -89.425;  -17.000;  -68.000
460.745;  -33.150;  396.000;  541.000
460.864;  -56.425;  153.000;  469.000
460.984;    1.975;  499.000;  573.000
461.104;  134.125; 1656.000; 1775.000
461.224;    6.975;  657.000;  650.000
461.344;  -38.700;  431.000;  360.000
461.464;  -45.000;  258.000;  513.000
461.584;  -33.575;  283.000;  466.000
461.704;  -49.025;   58.000;  108.000
461.824;  -81.425;  238.000;  259.000
461.943;  -52.625;  191.000;  130.000
462.063;  -84.425;    2.000;  324.000
462.183;   15.350;  639.000;  717.000
462.303;   88.350; 1678.000; 1230.000
462.422;   20.025;  781.000;  840.000
462.542;  -51.225;  271.000;  391.000
462.662;   36.150;  353.000;  380.000
462.782;  247.350;  833.000;  572.000
462.901;  491.625;  545.000;  717.000
463.021;  268.000; 1702.000; 1638.000
463.141;   -7.675;  337.000;  770.000
463.260;  -16.725;  614.000;  474.000
463.380;    3.325;  902.000;  884.000
463.499;  -39.700;  342.000;  332.000
463.619;  -39.350;  581.000;  559.000
463.738;  103.600; 1644.000;  903.000
463.858;    7.750;  657.000;  811.000
463.978;  -44.350;  542.000;  396.000
464.097;   31.825;  921.000; 1114.000
464.217;  122.875; 1196.000; 1143.000
464.336;  105.675; 1068.000; 1130.000
464.455;  -39.750;  328.000;  659.000
464.575;   31.950;  597.000;  602.000
464.694;  130.325; 1204.000; 1179.000
464.814;  118.225; 1190.000; 1138.000
464.933;   63.650; 1095.000; 1027.000
465.052;   81.100; 1412.000; 1054.000
465.172;   84.250;  922.000;  799.000
465.291;  118.500; 1376.000; 1320.000
465.410;   11.400;  462.000;  735.000
465.530;   78.900; 1355.000; 1310.000
465.649;   63.975; 1209.000; 1273.000
465.768;  130.075; 1673.000; 1508.000
465.888;   49.775;  941.000; 1174.000
466.007;   98.075; 1335.000; 1440.000
466.126;  -20.150;  721.000;  641.000
466.245;   33.175; 1176.000; 1187.000
466.364;   15.900;  950.000; 1060.000
466.484;   39.250; 1024.000; 1213.000
466.603;   48.675; 1101.000; 1222.000
466.722;  101.625; 1490.000; 1769.000
466.841;   63.200; 1151.000; 1401.000
466.960;   34.625; 1069.000;  972.000
467.079;  125.800; 1971.000; 1786.000
467.198;   35.575; 1238.000; 1181.000
467.317;   80.825; 1768.000; 1162.000
467.436;   70.075; 1709.000; 1261.000
467.555;  119.375; 1796.000; 1746.000
467.674;   57.875; 1227.000; 1329.000
467.793;   31.200; 1376.000; 1374.000
467.912;   86.850; 1658.000; 1539.000
468.031;  129.725; 2038.000; 1930.000
468.150;  119.050; 1842.000; 1837.000
468.269;  173.650; 2313.000; 2090.000
468.388;  195.075; 2168.000; 2339.000
468.507;  246.000; 2884.000; 2903.000
468.626;  217.250; 2555.000; 2541.000
468.744;  136.950; 2018.000; 2174.000
468.863;  188.950; 2312.000; 2523.000
468.982;   90.100; 1503.000; 1555.000
469.101;  208.100; 2788.000; 2692.000
469.220;  162.025; 2333.000; 2176.000
469.338;  242.275; 2935.000; 3051.000
469.457;  182.275; 2719.000; 2545.000
469.576;  349.850; 3953.000; 3784.000
469.695;  227.600; 2877.000; 3066.000
469.813;  406.925; 4148.000; 4192.000
469.932;  402.475; 4255.000; 4485.000
470.051;  412.225; 4075.000; 4161.000
470.169;  867.675; 4470.000; 4338.000
470.288; 1521.800; 4700.000; 4809.000
470.406;  911.100; 5059.000; 5194.000
470.525;  632.925; 6101.000; 5787.000
470.644;  644.325; 6847.000; 6794.000
470.762;  801.350; 8397.000; 7873.000
470.881;  914.375; 8651.000; 8464.000
470.999; 1043.200; 9685.000; 9151.000
471.118; 1117.975;11174.000;10711.000

