
Integration time [ms]: 100.000
Averaging Nr. [scans]: 40
Smoothing Nr. [pixels]: 0
Data measured with spectrometer [name]: 2101012U2
Wave   ;Sample   ;Dark     ;Reference
[nm]   ;[counts] ;[counts] ;[counts] 

197.733;   58.275;  516.000;  404.000
197.879;  -83.750; -610.000; -634.000
198.025;  -42.875; -475.000; -420.000
198.171;  -64.350; -602.000; -612.000
198.317;  -19.150; -401.000; -316.000
198.463;  -57.950; -655.000; -404.000
198.609;   27.175;  181.000; -137.000
198.755;  -76.350; -644.000; -410.000
198.901;  -55.050; -505.000; -424.000
199.047;  -60.750; -615.000; -488.000
199.193;  -33.725; -230.000; -468.000
199.339;  -43.700; -222.000; -369.000
199.485;   43.175;  330.000;  271.000
199.631;   22.500;  227.000;  310.000
199.777;  -36.850; -466.000; -398.000
199.923;  -55.425; -610.000; -424.000
200.069;    2.025; -141.000;  -58.000
200.215;   63.925;  128.000;  453.000
200.361;   40.875;  243.000;  477.000
200.507;  -61.100; -600.000; -373.000
200.653;  -18.475; -371.000; -194.000
200.798;  -35.325; -215.000; -125.000
200.944;    9.250; -146.000;  -41.000
201.090;   44.300;   61.000;  222.000
201.236;    5.300; -116.000; -158.000
201.382;  126.725;  874.000;  903.000
201.528;   -3.800;  -58.000;  -48.000
201.674;  -38.575; -386.000; -293.000
201.819;  -67.225; -540.000; -439.000
201.965;  -77.150; -699.000; -447.000
202.111;  -28.400; -273.000; -226.000
202.257;  -39.075; -250.000; -238.000
202.402;   17.975;   13.000;  -36.000
202.548;  -28.450; -169.000; -116.000
202.694;   87.275;  410.000; -183.000
202.840;  -67.625; -603.000; -531.000
202.985;  -61.100; -681.000; -639.000
203.131; -103.500; -832.000; -666.000
203.277;  -46.125; -199.000; -262.000
203.423;  -40.875; -434.000; -520.000
203.568;  -26.050; -462.000; -237.000
203.714;  -49.825; -535.000; -542.000
203.860;  -68.950; -682.000; -641.000
204.005;   23.450;  112.000;  167.000
204.151;   66.650;  561.000;  556.000
204.296;  -41.525; -354.000; -221.000
204.442;  -54.275; -600.000; -547.000
204.588;  -67.875; -592.000; -579.000
204.733;   19.550;  178.000;  168.000
204.879; -121.275;-1018.000; -822.000
205.025;   11.900;  -99.000;  126.000
205.170;    7.000;  -17.000;   94.000
205.316;   82.175;  438.000;  661.000
205.461;  -73.850; -698.000; -554.000
205.607;   93.625;  609.000;  665.000
205.752;  -83.700; -626.000; -551.000
205.898;  -42.450; -501.000; -391.000
206.043;  -55.950; -578.000; -506.000
206.189;  -30.350; -243.000; -285.000
206.334;   88.775;  554.000;  606.000
206.480;   61.250;  409.000;  239.000
206.625;  -71.175; -529.000; -552.000
206.771;  -39.100; -451.000; -373.000
206.916;  -17.750; -210.000; -537.000
207.062;  -65.975; -545.000; -591.000
207.207;  -62.300; -546.000; -443.000
207.353;   69.225;  185.000;  460.000
207.498;   10.475;  196.000;   85.000
207.643;  -47.525; -501.000; -370.000
207.789; -120.975;-1069.000; -910.000
207.934;  -84.775; -665.000; -713.000
208.080;  -20.050; -154.000;   66.000
208.225;    4.575;  -22.000;  -57.000
208.370;  -64.300; -727.000; -619.000
208.516;  -58.800; -741.000; -487.000
208.661;  -24.400; -127.000;  -69.000
208.806;  -20.225; -165.000; -171.000
208.952; -121.275;-1044.000; -731.000
209.097;   68.350;  378.000;  349.000
209.242;  -42.225; -307.000; -382.000
209.387;   67.950;  392.000;  350.000
209.533;  -47.175; -321.000; -350.000
209.678;   73.850;  472.000;  543.000
209.823;  -49.225; -408.000; -310.000
209.969;  -93.575; -860.000; -757.000
210.114;  -95.550; -907.000; -719.000
210.259; -107.550; -939.000; -889.000
210.404;    7.800; -171.000;  103.000
210.549;   11.275;  108.000;    3.000
210.695;  -10.650;   -3.000;  -95.000
210.840;   34.675;   94.000;   67.000
210.985;  -56.150; -484.000; -303.000
211.130;   69.900;  268.000;  406.000
211.275;   17.375;  207.000;  199.000
211.420;  -31.200; -300.000; -289.000
211.566;  -65.125; -536.000; -489.000
211.711;   13.750;  218.000;  157.000
211.856;  -67.625; -545.000; -519.000
212.001;   10.325;  151.000;   44.000
212.146;   34.075;  153.000;   49.000
212.291;  -23.900; -210.000; -186.000
212.436;  -26.700; -280.000;   -6.000
212.581;  -69.425; -685.000; -653.000
212.726;  -54.525; -487.000; -538.000
212.871;  -47.775; -552.000; -217.000
213.016; -143.525;-1172.000;-1029.000
213.161;   55.500;  406.000;  291.000
213.306;  -63.100; -435.000; -577.000
213.451;  -87.175; -778.000; -689.000
213.596;  -43.275; -455.000; -347.000
213.741;  -61.125; -448.000; -538.000
213.886;  -71.000; -498.000; -517.000
214.031;  -24.825; -294.000; -124.000
214.176;  -57.125; -408.000; -341.000
214.321;  -21.700; -296.000; -157.000
214.466;   -9.300; -163.000;  -43.000
214.611;   -7.400;  -61.000;  -10.000
214.756; -111.275; -948.000; -858.000
214.901;   -4.625; -388.000; -226.000
215.046; -125.475; -797.000; -825.000
215.191;   26.250;  128.000;   35.000
215.336;  -20.175; -157.000;  -19.000
215.480;  -54.325; -684.000; -505.000
215.625;  -12.125; -175.000;  -19.000
215.770;  -78.300; -757.000; -662.000
215.915;    2.525;   -5.000;  -97.000
216.060;    3.225; -113.000;  -21.000
216.205; -100.000; -731.000; -779.000
216.349;  -60.925; -470.000; -533.000
216.494; -128.175; -939.000; -867.000
216.639; -105.800; -823.000; -888.000
216.784;  -68.425; -577.000; -525.000
216.929;   56.875;  392.000;  281.000
217.073;    0.525; -244.000;  -31.000
217.218;    6.800;   78.000;  -47.000
217.363;  -76.250; -656.000; -618.000
217.507;  -66.350; -623.000; -588.000
217.652; -115.425; -845.000; -874.000
217.797;  -75.925; -708.000; -659.000
217.942; -113.275; -856.000; -720.000
218.086;   72.325;  608.000;  539.000
218.231;  -12.625; -174.000;  -26.000
218.376;  -28.125; -337.000; -229.000
218.520;   -0.050;  -41.000;   96.000
218.665;  -32.000; -338.000; -204.000
218.810;  -40.575; -275.000; -233.000
218.954;   19.125;  201.000;   35.000
219.099; -101.250; -713.000; -963.000
219.243;  -62.300; -589.000; -554.000
219.388;  -23.100; -264.000; -136.000
219.532;  -15.050; -116.000; -116.000
219.677;  -80.550; -564.000; -521.000
219.822;    7.000;   33.000;   89.000
219.966;   20.750;   17.000;  -99.000
220.111;  -23.300; -328.000;  -40.000
220.255;  -82.875; -797.000; -750.000
220.400;  -19.575; -180.000; -146.000
220.544;  -75.575; -516.000; -450.000
220.689;  -51.075; -422.000; -451.000
220.833;  -21.375; -123.000;  -58.000
220.978;  -34.575; -393.000; -563.000
221.122;   19.925;  319.000;  307.000
221.267; -106.300; -906.000; -837.000
221.411;  -61.050; -478.000; -394.000
221.555;  -12.700; -104.000;  -23.000
221.700;  -38.575; -329.000; -222.000
221.844;   34.925;  255.000;  272.000
221.989;  -50.000; -328.000; -311.000
222.133;  -36.125; -289.000; -307.000
222.277;    1.550;    5.000;   78.000
222.422;   11.125;  227.000;  113.000
222.566;  -33.675; -381.000; -214.000
222.711;  -39.500; -414.000; -479.000
222.855;  -68.350; -643.000; -586.000
222.999;  -73.300; -642.000; -717.000
223.144;  -21.500; -195.000; -194.000
223.288;   62.300;  423.000;  251.000
223.432;   39.925;  184.000;  230.000
223.576;   27.625;  152.000;  -21.000
223.721;   39.675;  364.000;  273.000
223.865;  -50.900; -472.000; -475.000
224.009;  214.750; 1673.000; 1631.000
224.153;  -89.500; -660.000; -671.000
224.298;  -73.450; -531.000; -489.000
224.442;  -11.075;  -74.000;  -33.000
224.586;  -12.975; -169.000; -106.000
224.730;  -89.375; -858.000; -670.000
224.875; -105.125; -739.000; -688.000
225.019;    4.075;  102.000;  188.000
225.163;   54.150;  208.000;  341.000
225.307;   24.050;   97.000;  -91.000
225.451;   44.925;  360.000;  481.000
225.595;   35.875;  264.000;  176.000
225.739;  -12.300; -170.000;  -94.000
225.884;   13.400;   86.000;    5.000
226.028; -103.275; -760.000; -626.000
226.172;  -32.525; -260.000; -273.000
226.316; -111.200; -941.000; -902.000
226.460;  -60.200; -645.000; -493.000
226.604;  -35.575; -406.000; -400.000
226.748; -100.075; -836.000; -733.000
226.892;  -34.925; -227.000; -181.000
227.036;  -47.725; -537.000; -447.000
227.180;  -48.525; -551.000; -375.000
227.324;  -64.175; -561.000; -580.000
227.468; -108.850; -819.000; -717.000
227.612;   24.225;  242.000;  -28.000
227.756;  -90.775; -845.000; -698.000
227.900;   54.375;  342.000;  441.000
228.044;  -42.300; -509.000; -290.000
228.188;   68.700;  448.000;  568.000
228.332;  -82.825; -546.000; -472.000
228.476;  -25.725; -223.000; -149.000
228.620;  -25.150; -210.000; -150.000
228.764;   63.825;  431.000;  349.000
228.908;  -23.150; -155.000;   30.000
229.052;  -58.675; -615.000; -528.000
229.195;  -10.650; -172.000;   13.000
229.339;  -19.725; -235.000; -305.000
229.483;  -23.700;    5.000; -162.000
229.627;    2.675; -156.000;  139.000
229.771;  -31.850; -218.000; -294.000
229.915;   13.225;  230.000;   79.000
230.059;  -82.825; -648.000; -663.000
230.202;  -41.750; -370.000; -317.000
230.346;   -8.450; -107.000;  107.000
230.490;  -60.900; -489.000; -521.000
230.634;  -91.275; -736.000; -553.000
230.777;   82.050;  478.000;  509.000
230.921;  -43.800; -450.000; -359.000
231.065;  -29.075; -246.000; -286.000
231.209;   35.975;  261.000;  265.000
231.352;   27.425;   54.000;   40.000
231.496;   26.900;  568.000;  188.000
231.640;  -83.375; -693.000; -621.000
231.783;   57.250;  546.000;  525.000
231.927;  -39.050; -294.000; -365.000
232.071; -118.675; -962.000; -736.000
232.214; -107.125; -980.000; -764.000
232.358;  -90.725; -683.000; -599.000
232.502;   -2.875;  -19.000;    7.000
232.645; -131.125;-1090.000; -927.000
232.789;  -28.525; -257.000; -218.000
232.933;  -20.525; -407.000; -224.000
233.076; -116.775;-1038.000; -897.000
233.220; -107.950; -752.000; -777.000
233.363;  -62.200; -669.000; -477.000
233.507;   66.475;  371.000;  129.000
233.650;  -90.375; -764.000; -834.000
233.794;   35.275;  438.000;  461.000
233.938;  -59.800; -530.000; -362.000
234.081;  -23.050;  -93.000;   31.000
234.225;  -61.650; -631.000; -539.000
234.368;  -96.025; -773.000; -723.000
234.512;  -38.225; -385.000; -299.000
234.655;  -81.425; -582.000; -555.000
234.798;  -53.050; -493.000; -466.000
234.942; -132.975; -884.000;-1002.000
235.085;  -74.400; -651.000; -443.000
235.229;  -58.050; -405.000; -410.000
235.372;  -33.375; -247.000; -191.000
235.516;  -47.525; -397.000; -321.000
235.659;   28.200;   92.000;  121.000
235.802;  -19.050;  -38.000;  -22.000
235.946;   27.050;  335.000;  215.000
236.089;   33.850;  126.000;  250.000
236.233;   59.950;  275.000;  298.000
236.376;  -53.225; -235.000; -378.000
236.519;  -42.875; -297.000; -319.000
236.663;   -5.550; -215.000; -117.000
236.806; -121.025;-1029.000; -999.000
236.949;   62.875;  543.000;  431.000
237.092;   54.325;  412.000;  391.000
237.236;  -89.475; -589.000; -502.000
237.379;   69.175;  352.000;  428.000
237.522; -117.175; -879.000; -768.000
237.666;  -17.275; -271.000;   18.000
237.809; -120.175; -851.000; -823.000
237.952;   38.075;  469.000;  271.000
238.095;  -63.700; -447.000; -442.000
238.238;   85.425;  688.000;  700.000
238.382;    5.450;  166.000;  103.000
238.525;  -60.750; -598.000; -511.000
238.668; -132.925;-1060.000; -985.000
238.811;  -78.750; -638.000; -643.000
238.954;  -60.825; -483.000; -334.000
239.097;   90.375;  617.000;  664.000
239.241;   21.350;  394.000;  326.000
239.384;  -32.550; -254.000; -214.000
239.527;  -52.375; -424.000; -224.000
239.670; -143.125; -994.000;-1091.000
239.813; -103.350; -696.000; -658.000
239.956;   92.200;  579.000;  473.000
240.099; -112.200; -778.000; -725.000
240.242;   75.425;  428.000;  432.000
240.385;   41.200;  466.000;  450.000
240.528;  -73.100; -706.000; -473.000
240.671;   21.150;  189.000;  134.000
240.814;  -43.850; -441.000; -158.000
240.957;  -85.550; -767.000; -578.000
241.100;  -88.100; -779.000; -755.000
241.243; -144.825;-1234.000; -893.000
241.386;  -60.150; -508.000; -379.000
241.529;  -93.125; -735.000; -547.000
241.672;  -64.650; -566.000; -495.000
241.815; -119.750; -832.000; -808.000
241.958;  -35.850; -125.000; -182.000
242.101;  -72.175; -545.000; -390.000
242.244;  -28.500; -270.000; -325.000
242.387;  -43.350; -304.000; -246.000
242.530;   57.825;  470.000;  134.000
242.673;  -48.700; -381.000; -309.000
242.815; -118.475; -925.000; -899.000
242.958;  -69.950; -482.000; -381.000
243.101;    6.725;  132.000;  187.000
243.244;  -85.625; -564.000; -521.000
243.387;  -44.125; -313.000; -316.000
243.530;  -89.550; -657.000; -674.000
243.672;    2.750;   43.000;  -92.000
243.815;  -42.375; -355.000; -283.000
243.958;   -9.900;   98.000;  -26.000
244.101;    1.600;   59.000;  -16.000
244.243;   -5.850;  -47.000;  101.000
244.386; -106.525; -761.000; -630.000
244.529;  -29.150; -132.000; -139.000
244.672; -151.325;-1154.000; -951.000
244.814;  -90.075; -621.000; -794.000
244.957;  -28.050; -380.000; -304.000
245.100;  -70.025; -489.000; -489.000
245.242;  -56.825; -387.000; -374.000
245.385;   -1.850;  -59.000;  -39.000
245.528; -114.500; -871.000; -705.000
245.670;   77.200;  612.000;  634.000
245.813;  -89.250; -599.000; -547.000
245.956;  -27.725; -324.000; -275.000
246.098;  -74.225; -508.000; -650.000
246.241;   17.075;  194.000;   48.000
246.383;  -33.400; -119.000;  -73.000
246.526;  -76.375; -454.000; -525.000
246.669; -120.775; -889.000; -780.000
246.811;   17.025;  172.000;   -1.000
246.954;  -64.200; -512.000; -426.000
247.096;  -17.350;  -84.000;   -6.000
247.239;  -72.000; -482.000; -445.000
247.381;  -64.175; -647.000; -488.000
247.524;   87.025;  645.000;  679.000
247.666;  -18.000;   58.000;   11.000
247.809; -117.175; -887.000; -691.000
247.951;    0.650;  -75.000;  138.000
248.094;   34.550;  432.000;  308.000
248.236; -152.750;-1262.000;-1238.000
248.378;   16.450; -356.000;  -81.000
248.521;  -15.150; -334.000; -337.000
248.663;  -28.525; -236.000; -267.000
248.806;  -15.425; -300.000; -266.000
248.948;  -84.050; -886.000; -763.000
249.090;  -39.625; -428.000; -398.000
249.233;  -40.875; -344.000; -381.000
249.375;  -58.775; -474.000; -451.000
249.518;  -20.075;  -83.000; -133.000
249.660;   -5.350; -103.000;    3.000
249.802; -160.050;-1303.000;-1189.000
249.945;  -61.875; -612.000; -540.000
250.087; -111.575; -834.000; -768.000
250.229;  -39.625; -362.000; -480.000
250.371;  -67.275; -494.000; -439.000
250.514;  -49.375; -310.000; -244.000
250.656;   -0.025;   69.000;  102.000
250.798; -100.150; -849.000; -800.000
250.940;  -62.350; -322.000; -322.000
251.083;  -29.625; -335.000; -111.000
251.225;   52.600;  338.000;  310.000
251.367;  -41.325; -274.000; -373.000
251.509;  -24.550; -265.000; -210.000
251.651;  -87.800; -731.000; -671.000
251.794;   52.125;  538.000;  632.000
251.936; -101.125; -821.000; -747.000
252.078;  -78.100; -540.000; -461.000
252.220;  -72.850; -645.000; -477.000
252.362;   89.150;  344.000;  462.000
252.504;  -62.175; -677.000; -584.000
252.646; -103.900; -875.000; -722.000
252.788;    6.075;   14.000; -128.000
252.931;  -23.025; -257.000; -253.000
253.073;  -36.150; -376.000; -317.000
253.215;  -11.775;  141.000;  122.000
253.357;   -3.025;   82.000; -153.000
253.499;  -44.300; -374.000; -234.000
253.641;  -75.900; -749.000; -594.000
253.783;  -91.250; -609.000; -527.000
253.925;  -87.025; -586.000; -591.000
254.067; -117.375; -744.000; -667.000
254.209;  -34.750; -391.000; -259.000
254.351; -127.600; -865.000; -883.000
254.493;  -50.525; -441.000; -417.000
254.635; -111.575; -936.000; -818.000
254.777;  -81.550; -752.000; -687.000
254.918;  -53.250; -512.000; -430.000
255.060;  -58.175; -551.000; -395.000
255.202;  -41.700; -473.000; -261.000
255.344;  -87.775; -658.000; -455.000
255.486;  -61.775; -471.000; -406.000
255.628;  -87.625; -780.000; -781.000
255.770;  -81.850; -676.000; -536.000
255.912;  -59.375; -559.000; -468.000
256.053;  -77.550; -730.000; -508.000
256.195;  147.550; 1008.000;  903.000
256.337;  -98.100; -861.000; -595.000
256.479;   58.200;  532.000;  416.000
256.621;  -49.650; -394.000; -212.000
256.762;  -81.625; -789.000; -742.000
256.904;   56.825;  485.000;  487.000
257.046;  -52.625; -381.000; -271.000
257.188;  -36.175; -351.000; -264.000
257.329;  -75.950; -525.000; -464.000
257.471; -106.175; -939.000; -807.000
257.613;  -61.300; -584.000; -498.000
257.755; -139.925;-1073.000; -982.000
257.896;   35.700;  286.000;  392.000
258.038;  -69.625; -403.000; -352.000
258.180;  -35.900; -354.000; -279.000
258.321;  -73.900; -581.000; -457.000
258.463;   -9.275;  -71.000;  133.000
258.605;  -85.650; -562.000; -570.000
258.746; -102.025; -886.000; -772.000
258.888; -137.125;-1026.000;-1020.000
259.029;    9.700;  121.000;   -8.000
259.171;  -85.525; -614.000; -550.000
259.313;    0.400;  -49.000;  -47.000
259.454;  -60.775; -536.000; -414.000
259.596;  -49.850; -483.000; -390.000
259.737;  -65.850; -590.000; -474.000
259.879;   47.325;  217.000;  311.000
260.020;   97.775;  901.000;  636.000
260.162;  -20.625; -146.000; -253.000
260.303; -104.400; -768.000; -687.000
260.445;  -84.875; -609.000; -613.000
260.586;   30.700;  392.000;  157.000
260.728;  -26.925; -360.000; -248.000
260.869;  -95.425; -350.000; -343.000
261.011;   82.575;  706.000;  537.000
261.152;  -69.025; -479.000; -319.000
261.293;  -58.825; -576.000; -595.000
261.435;  -33.500; -219.000; -184.000
261.576;  -46.700; -455.000; -325.000
261.718;   58.100;  420.000;  470.000
261.859; -121.025; -940.000; -949.000
262.000; -125.250; -951.000;-1016.000
262.142;  -20.600;  -52.000;  -60.000
262.283; -109.350; -808.000; -691.000
262.424;  -71.925; -666.000; -625.000
262.566; -160.525;-1161.000; -983.000
262.707; -107.075; -840.000; -830.000
262.848; -112.400; -769.000; -726.000
262.990;  -49.250; -362.000; -345.000
263.131;   73.625;  650.000;  681.000
263.272;    3.575;  -61.000;  -41.000
263.413;  -83.575; -589.000; -561.000
263.555;  -57.850; -669.000; -143.000
263.696;  -62.925; -550.000; -641.000
263.837;  -55.075; -449.000; -551.000
263.978;   12.400;   -5.000;  -77.000
264.119;  -35.675; -283.000; -264.000
264.261; -103.850; -847.000; -630.000
264.402;   -7.600;   33.000;   40.000
264.543;  -77.675; -509.000; -524.000
264.684;   -1.075;   61.000;  -50.000
264.825;  -74.975; -816.000; -538.000
264.966;   -4.175;  -84.000;  -67.000
265.107; -109.000; -646.000; -670.000
265.248; -108.200; -825.000; -812.000
265.390;   -2.675;  152.000;   -9.000
265.531;  -14.125; -238.000; -107.000
265.672;  -86.275; -557.000; -630.000
265.813;   63.825;  563.000;  439.000
265.954; -137.325; -959.000; -940.000
266.095;  -18.325; -372.000; -322.000
266.236;  -87.400; -686.000; -548.000
266.377;  -23.975; -243.000; -297.000
266.518;  -65.975; -619.000; -547.000
266.659;   35.625;  170.000;  268.000
266.800;    0.700;   83.000;   85.000
266.941;  -67.550; -487.000; -478.000
267.082;    9.450;  354.000;   99.000
267.223;  -35.850; -344.000; -273.000
267.364; -107.675; -892.000; -686.000
267.504;  -17.000;    3.000;  135.000
267.645;   -2.600;  160.000;   67.000
267.786;  -24.775; -147.000;  -86.000
267.927;  -62.175; -473.000; -379.000
268.068;  -10.950; -186.000;  -61.000
268.209;  -52.175; -175.000; -413.000
268.350;  -43.025; -388.000; -532.000
268.490;  -82.950; -648.000; -521.000
268.631;   33.675;  127.000;  225.000
268.772;  -99.925; -874.000; -647.000
268.913;  -37.750; -328.000; -476.000
269.054;  -16.050; -117.000;   12.000
269.194;  -40.850; -418.000; -402.000
269.335; -143.275;-1137.000;-1074.000
269.476;  -25.950;   33.000;  -35.000
269.617;  -39.300; -347.000; -392.000
269.757;  -91.725; -713.000; -646.000
269.898;  -97.325; -856.000; -613.000
270.039;  -57.425; -415.000; -405.000
270.180; -122.775; -952.000; -816.000
270.320;  -17.850; -190.000; -250.000
270.461;  -24.775; -277.000; -249.000
270.602;  -15.900; -186.000; -156.000
270.742; -103.800; -868.000; -943.000
270.883;  -40.350; -442.000; -390.000
271.023;  -48.025; -358.000; -357.000
271.164;  -67.050; -607.000; -528.000
271.305;  -95.750; -666.000; -654.000
271.445;  -83.300; -722.000; -683.000
271.586;  -71.950; -462.000; -283.000
271.726;  -56.150; -397.000; -322.000
271.867;  -41.000; -594.000; -534.000
272.008;  226.750; -473.000; -285.000
272.148;  155.075;  462.000;  468.000
272.289;   22.325; -113.000; -181.000
272.429;   18.825;   19.000;  185.000
272.570;  -78.450; -633.000; -737.000
272.710;  -94.450; -825.000; -775.000
272.851;  -13.600;  113.000; -130.000
272.991; -155.725;-1173.000;-1077.000
273.131;  -62.875; -419.000; -459.000
273.272;  -80.450; -683.000; -723.000
273.412;   25.475; -143.000;  -31.000
273.553;  -25.450; -488.000; -507.000
273.693;  152.075;  913.000;  858.000
273.834;  -69.500; -894.000; -692.000
273.974;  -73.375; -664.000; -615.000
274.114;  -86.875; -772.000; -560.000
274.255;   99.600;  414.000;  373.000
274.395;   32.600; -180.000; -125.000
274.535;   55.225;  199.000;  350.000
274.676;   44.900;  225.000;   94.000
274.816;   11.150;  110.000;   34.000
274.956;  -61.750; -624.000; -690.000
275.097;  -48.800;-1014.000; -922.000
275.237; -100.125; -913.000; -803.000
275.377;  -92.325; -778.000; -689.000
275.517; -137.225; -878.000; -937.000
275.658;  -43.225; -590.000; -555.000
275.798;  -56.775; -606.000; -413.000
275.938;   17.175;  215.000;  323.000
276.078; -106.375; -626.000; -395.000
276.218;   14.675;   99.000;  104.000
276.359; -124.450;-1026.000;-1024.000
276.499;  -68.950; -605.000; -446.000
276.639;  -24.275; -305.000; -151.000
276.779;  -42.075; -475.000; -357.000
276.919;  -86.225; -783.000; -624.000
277.059;  -19.475; -261.000; -212.000
277.199;  -36.350; -357.000; -259.000
277.340;   59.750;  287.000;  175.000
277.480; -100.025; -840.000; -693.000
277.620;   44.950;  192.000;   16.000
277.760; -203.350;-1533.000;-1294.000
277.900;   36.800;  113.000;   33.000
278.040;   22.725;  137.000;  159.000
278.180;   51.300;  270.000;  170.000
278.320;   -6.875;   21.000;   56.000
278.460;  -66.875; -443.000; -469.000
278.600;  -82.225; -708.000; -598.000
278.740;   54.150;  448.000;  224.000
278.880;   -6.200; -768.000; -791.000
279.020;   11.800; -194.000; -144.000
279.160;  -77.850; -672.000; -595.000
279.300; -110.600; -926.000; -873.000
279.440;  -74.275; -709.000; -622.000
279.579;   12.375;-1014.000; -929.000
279.719;  -46.000; -410.000; -394.000
279.859;   90.175;   -4.000;   41.000
279.999;   48.025; -208.000;  101.000
280.139;   -9.550; -435.000; -387.000
280.279;  -52.575; -708.000; -745.000
280.419;  -11.625; -229.000; -147.000
280.559;  -19.500; -259.000; -180.000
280.698;  -67.750; -790.000; -639.000
280.838;  -67.650; -778.000; -800.000
280.978;  -87.875; -846.000; -790.000
281.118;  -98.525; -811.000; -704.000
281.257;   20.350;   24.000;    6.000
281.397;  -63.525;-1094.000; -960.000
281.537;  -64.100; -599.000; -712.000
281.677;  -28.025; -150.000; -101.000
281.816;  -71.425; -700.000; -630.000
281.956;  -38.925; -193.000; -257.000
282.096;  -55.025; -539.000; -396.000
282.235;  -92.100; -672.000; -638.000
282.375;   -4.300; -243.000;  -98.000
282.515;  -88.625; -715.000; -707.000
282.654;   45.675;   29.000;  106.000
282.794;   33.000;  388.000;  244.000
282.934;  -36.350; -530.000; -491.000
283.073; -109.750;-1030.000; -857.000
283.213;  -43.300; -460.000; -467.000
283.353;   -8.450; -408.000; -349.000
283.492;  -31.100; -264.000; -296.000
283.632;  -32.850; -254.000; -168.000
283.771;  -94.775; -859.000; -730.000
283.911;  -29.675; -369.000; -260.000
284.050;  -84.875; -794.000; -748.000
284.190; -152.725;-1229.000;-1096.000
284.329; -131.100;-1055.000; -964.000
284.469;  -35.600; -516.000; -591.000
284.608;  -37.475; -559.000; -598.000
284.748;  -85.075; -614.000; -570.000
284.887;    1.900;  -87.000;  -20.000
285.027; -115.475; -844.000; -892.000
285.166;  -15.900; -192.000; -249.000
285.306;   20.625; -116.000;  -33.000
285.445;  -21.825; -229.000; -343.000
285.584;  -81.850; -630.000; -494.000
285.724;  -35.725; -282.000; -322.000
285.863; -106.200; -857.000; -507.000
286.002;  -46.825; -366.000; -276.000
286.142;  -95.475; -715.000; -622.000
286.281;  -61.600; -525.000; -493.000
286.420;  -67.800; -554.000; -417.000
286.560;  109.400;  653.000;  623.000
286.699; -129.300; -958.000; -912.000
286.838;  -58.825; -590.000; -591.000
286.978;  -78.175; -533.000; -537.000
287.117; -123.225;-1085.000; -950.000
287.256;  -41.450; -228.000; -211.000
287.395;  -39.275; -197.000; -378.000
287.535;  -46.325; -370.000; -298.000
287.674;  -58.250; -509.000; -484.000
287.813;   57.275;  661.000;  533.000
287.952; -110.900;-1010.000; -871.000
288.091; -134.100;-1049.000; -915.000
288.231;   24.775;   13.000;   15.000
288.370; -157.125;-1217.000;-1200.000
288.509;  -86.850; -728.000; -645.000
288.648;  -84.550; -770.000; -548.000
288.787;  -31.650; -243.000;  -87.000
288.926;  -40.525; -454.000; -475.000
289.065;  122.675;  859.000;  672.000
289.204;  -43.650; -377.000; -217.000
289.344;  -78.800; -791.000; -690.000
289.483;   33.275;  416.000;  304.000
289.622;  -14.575; -291.000; -149.000
289.761;   -1.150; -309.000; -166.000
289.900;  -87.625; -785.000; -626.000
290.039;  -14.875;  -12.000;  -95.000
290.178;  -34.275; -274.000; -180.000
290.317;  -63.025; -618.000; -479.000
290.456;  -49.500; -463.000; -451.000
290.595; -120.650; -961.000; -833.000
290.734; -132.650; -904.000; -891.000
290.873;  -64.850; -456.000; -420.000
291.011;  -92.225; -833.000; -843.000
291.150;  -88.550; -770.000; -682.000
291.289;   -6.600; -343.000; -110.000
291.428;  -91.225; -599.000; -480.000
291.567;  -47.250; -370.000; -442.000
291.706;   -0.125;  109.000;  154.000
291.845;  -90.825; -597.000; -505.000
291.984; -156.875;-1234.000;-1061.000
292.122;   88.675;  602.000;  582.000
292.261;   38.450;  620.000;  463.000
292.400;   17.975; -144.000;  211.000
292.539; -106.650; -959.000; -813.000
292.678;  -15.825; -325.000; -300.000
292.816; -130.950;-1136.000; -965.000
292.955;  -74.350; -844.000; -684.000
293.094;   -8.150; -173.000; -337.000
293.233;  -35.125; -556.000; -400.000
293.371;  -17.950; -225.000;  -84.000
293.510;  -95.975; -866.000; -780.000
293.649; -118.425; -959.000; -924.000
293.787;  -27.425;-1083.000;-1012.000
293.926;   14.600; -113.000;  -32.000
294.065;  -41.175; -379.000; -290.000
294.203;   64.350;  298.000;  406.000
294.342;   55.750;   74.000;  156.000
294.481; 5306.400;51180.000; -836.000
294.619;  -23.900; -425.000; -582.000
294.758; -102.675;-1230.000;-1137.000
294.896;  111.300; -125.000;    5.000
295.035; -112.525;-1040.000;-1006.000
295.174;  -92.200;-1082.000; -954.000
295.312;  -47.425; -323.000; -203.000
295.451;   18.950; -307.000; -428.000
295.589;  -33.575; -389.000; -518.000
295.728;   26.875; -292.000; -165.000
295.866;   32.175;  -36.000;  -51.000
296.005;  -44.400; -584.000; -341.000
296.143;  -45.625; -558.000; -596.000
296.282;  -79.725; -957.000; -881.000
296.420;  -57.400; -657.000; -557.000
296.559;  -71.125; -892.000; -633.000
296.697;  105.700; -847.000; -665.000
296.835;  163.775;-1141.000;-1002.000
296.974;   78.175;  -23.000;   39.000
297.112;   43.700; -443.000; -504.000
297.251;  -51.325; -815.000; -755.000
297.389;  169.000; -576.000; -438.000
297.527;   68.725; -145.000;  -83.000
297.666;  -18.000; -486.000; -438.000
297.804;  -47.575; -404.000; -264.000
297.942;    5.750; -136.000; -161.000
298.081;   10.625; -183.000;   63.000
298.219;  110.725;  -17.000;  -19.000
298.357;   89.225; -144.000;  -71.000
298.495;   99.775; -810.000; -812.000
298.634;  114.125;  245.000;  219.000
298.772;  111.700; -220.000; -338.000
298.910;  -20.825; -309.000; -182.000
299.048;   -1.775; -130.000; -153.000
299.187;  -15.100; -350.000; -250.000
299.325;   40.200;   52.000;  122.000
299.463;  122.200; -389.000; -299.000
299.601;  192.150; -327.000; -271.000
299.739;  -57.825; -908.000; -883.000
299.877;  -71.975; -791.000; -703.000
300.016;   -6.950;-1095.000; -935.000
300.154;  225.500;  -19.000; -161.000
300.292;  122.300; -428.000; -348.000
300.430;   69.875; -408.000; -291.000
300.568;  -89.325; -940.000; -874.000
300.706;  -23.375; -366.000; -469.000
300.844;  -37.625;-1108.000; -979.000
300.982;  130.725;  246.000;  282.000
301.120;  -81.575; -965.000; -866.000
301.258;  -45.000; -812.000; -705.000
301.396;   56.825;  104.000;  -41.000
301.534;  162.450; -218.000; -293.000
301.672;   52.450; -664.000; -521.000
301.810;  105.475; -613.000; -545.000
301.948;  186.100;   53.000;  149.000
302.086;  840.900; -250.000;  -32.000
302.224; 1277.750; -610.000; -585.000
302.362;  102.825; -558.000; -622.000
302.500;   49.625; -923.000; -893.000
302.638;  158.550;  128.000;  245.000
302.776;   21.225; -352.000; -408.000
302.913;   55.525;  447.000;  236.000
303.051;   25.300;  -86.000;  -23.000
303.189;   85.025;   90.000;  118.000
303.327;  -15.625; -341.000; -256.000
303.465;  -70.775; -832.000; -588.000
303.603;  -73.075; -805.000; -604.000
303.740;  137.625;  417.000;  241.000
303.878;   74.000; -800.000; -759.000
304.016;  -80.350; -915.000; -790.000
304.154;  -90.100;-1123.000;-1152.000
304.291;  -14.475; -505.000; -554.000
304.429;   14.850;  102.000;   74.000
304.567; -115.975; -908.000; -893.000
304.705;  -30.100; -408.000; -515.000
304.842;  175.950; -616.000; -540.000
304.980;   82.600;  215.000;   35.000
305.118;  118.450; -367.000; -365.000
305.255;  -37.075; -945.000; -927.000
305.393;   81.825;  178.000;  239.000
305.531;  -59.675;-1173.000; -956.000
305.668;  -43.150; -663.000; -582.000
305.806;  162.700; -358.000; -439.000
305.943;  175.600; -629.000; -637.000
306.081;   84.100; -378.000; -267.000
306.219;  -88.600; -863.000; -748.000
306.356;   13.500;  158.000;   27.000
306.494;  106.075;  981.000;  761.000
306.631;   18.950;  -11.000;  -55.000
306.769;   18.050; -613.000; -485.000
306.906;   -0.675; -284.000; -258.000
307.044;  -49.775; -473.000; -488.000
307.181;  -65.875; -410.000; -332.000
307.319;   20.525;  112.000;   87.000
307.456; -149.450;-1191.000;-1153.000
307.594;  -82.575; -980.000; -727.000
307.731;    9.925; -371.000; -164.000
307.868;   12.150;  -15.000;   20.000
308.006; -112.175; -961.000; -847.000
308.143;  -43.250; -618.000; -330.000
308.281;  250.525;  -37.000; -254.000
308.418;   32.125; -748.000; -640.000
308.555;  -53.975; -400.000; -250.000
308.693;  -64.125; -577.000; -573.000
308.830; -104.475; -712.000; -657.000
308.967;   -0.825; -215.000;  -95.000
309.105;  -35.500; -507.000; -396.000
309.242;   81.500; -468.000; -367.000
309.379;  486.150; -577.000; -655.000
309.517;  -26.625; -936.000; -948.000
309.654;  -86.450; -910.000; -734.000
309.791;  -54.700; -662.000; -580.000
309.928;  -93.450; -977.000; -914.000
310.065;  222.825;  819.000;  697.000
310.203;   59.025; -825.000; -850.000
310.340;   20.800; -465.000; -321.000
310.477;  -57.575; -412.000; -516.000
310.614;  -51.400; -383.000; -473.000
310.751;  -79.000; -427.000; -518.000
310.889;   -4.000;    1.000;   11.000
311.026; -144.150;-1161.000; -939.000
311.163;  -30.025; -386.000; -380.000
311.300;  -52.675; -512.000; -479.000
311.437;  -72.950; -658.000; -619.000
311.574; -135.275;-1226.000; -985.000
311.711;  -52.950; -595.000; -433.000
311.848;  -19.700; -380.000; -388.000
311.985;   22.250;  270.000;   93.000
312.122; -105.975; -932.000; -762.000
312.259; -114.875; -941.000; -994.000
312.396;  -71.075; -508.000; -551.000
312.533;  -76.075; -812.000; -790.000
312.670; -112.600;-1070.000; -898.000
312.807;   -8.600; -352.000; -367.000
312.944;  -75.375; -513.000; -611.000
313.081;  -13.675; -150.000; -415.000
313.218;  -88.175;-1111.000; -867.000
313.355;   32.950; -531.000; -449.000
313.492;   33.150; -455.000; -292.000
313.629;  163.525;  815.000;  735.000
313.766; -129.750;-1176.000;-1008.000
313.902;   -4.175; -186.000;   21.000
314.039;  -37.000; -372.000; -289.000
314.176;   39.325;  286.000;  192.000
314.313;  -46.025; -569.000; -473.000
314.450;  -62.250; -788.000; -684.000
314.587;  -42.600; -468.000; -480.000
314.723;   21.025;  -78.000;  130.000
314.860;   41.800;  318.000;  332.000
314.997;   38.875;  223.000;  142.000
315.134;  -26.825; -385.000; -368.000
315.270;  -12.225; -480.000; -496.000
315.407;  -97.325;-1094.000; -967.000
315.544;  -24.350; -657.000; -538.000
315.681;  -47.775; -681.000; -565.000
315.817;   53.075; -133.000; -176.000
315.954;   38.900; -613.000; -392.000
316.091; -112.175;-1045.000;-1023.000
316.227;  -14.775;  -71.000; -179.000
316.364;   23.425;   23.000;    6.000
316.500;  -27.475; -113.000; -300.000
316.637;  -38.050; -181.000; -302.000
316.774;  -74.300; -625.000; -358.000
316.910;  -85.075; -598.000; -629.000
317.047;  -49.775; -487.000; -351.000
317.183;  -37.275; -435.000; -566.000
317.320;  -21.050; -367.000; -321.000
317.456;  -62.400; -733.000; -805.000
317.593;  -74.025; -598.000; -641.000
317.729;    2.000;  168.000;  -67.000
317.866; -181.000;-1434.000;-1285.000
318.002;  -83.775; -708.000; -948.000
318.139;  -54.750; -883.000; -867.000
318.275;  -90.125;-1003.000; -738.000
318.412;  -56.500; -517.000; -336.000
318.548;   14.575; -751.000; -720.000
318.685;  -85.850; -985.000; -888.000
318.821;  -68.550; -762.000; -735.000
318.957;  -17.700;   34.000;  -23.000
319.094;   47.700;  297.000;  154.000
319.230;  -19.400; -756.000; -742.000
319.367;  184.775; -471.000; -520.000
319.503;   92.550; -538.000; -436.000
319.639;  -76.725; -877.000; -793.000
319.775;  -43.275; -750.000; -685.000
319.912;  -52.350; -424.000; -519.000
320.048;  -56.275;-1184.000;-1184.000
320.184;   78.725;   59.000;   70.000
320.321;  -56.625; -497.000; -467.000
320.457;   64.825;  475.000;  662.000
320.593;  -51.650; -375.000; -382.000
320.729;  -95.950; -732.000; -734.000
320.866;  -66.650; -577.000; -635.000
321.002;  -59.800; -759.000; -809.000
321.138;   11.350; -135.000; -211.000
321.274;  101.775; -148.000; -115.000
321.410;    4.925; -585.000; -353.000
321.546;   28.275;-1011.000; -911.000
321.683;   78.175;  400.000;  185.000
321.819;   19.900;  -48.000; -117.000
321.955; -103.625; -743.000; -722.000
322.091;  -29.800; -585.000; -540.000
322.227;    6.500; -382.000; -202.000
322.363;   -2.575; -320.000; -215.000
322.499;  -22.450; -343.000; -331.000
322.635;  199.425;  636.000;  443.000
322.771;   49.300; -139.000;   12.000
322.907;  121.050;  129.000;  327.000
323.043;    4.300; -115.000; -206.000
323.179;   -5.150; -394.000; -363.000
323.315;  101.875; -401.000; -371.000
323.451;  179.450; -328.000; -236.000
323.587;  104.225;  -60.000;  -77.000
323.723;   56.675; -682.000; -601.000
323.859;    3.525; -258.000;  -76.000
323.995;  -12.500; -467.000; -409.000
324.131; -114.050; -967.000; -892.000
324.267;  -24.775; -254.000; -276.000
324.402;  -90.775; -960.000; -983.000
324.538;   12.325; -279.000; -104.000
324.674;   45.100;  164.000;   77.000
324.810;  212.925;  226.000;  308.000
324.946;   58.450; -810.000; -658.000
325.082;  -56.775; -568.000; -475.000
325.217;   -5.800;  -62.000;   16.000
325.353;  -97.800; -764.000; -659.000
325.489;  -71.550; -540.000; -506.000
325.625;  -68.725; -579.000; -525.000
325.760;   53.875;  517.000;  376.000
325.896;  -31.750; -515.000; -702.000
326.032;  -42.425; -403.000; -352.000
326.168;  -51.100; -462.000; -369.000
326.303;  -47.175; -352.000; -461.000
326.439;  -20.150; -336.000; -276.000
326.575;   22.725; -190.000;  -29.000
326.710;    3.150; -156.000;  -30.000
326.846;    1.125;  146.000;  103.000
326.982;  -90.225; -530.000; -548.000
327.117;  -63.675; -481.000; -442.000
327.253;  -74.400; -745.000; -742.000
327.388;  -89.325;-1137.000;-1153.000
327.524;    3.275; -811.000; -578.000
327.659;  -24.925;  -58.000;  -22.000
327.795;   -3.600;   69.000;   45.000
327.931;  -84.775; -723.000; -499.000
328.066;  -15.375; -417.000; -276.000
328.202;   19.025;   12.000; -129.000
328.337;  107.200;  957.000;  713.000
328.473;   38.225;  -12.000;  -74.000
328.608;  -11.875; -256.000; -267.000
328.743;  -65.725; -799.000; -664.000
328.879;   29.650;  214.000;  114.000
329.014;  -36.400; -102.000; -122.000
329.150;  -74.725; -358.000; -483.000
329.285;  -48.275; -465.000; -466.000
329.421;  -31.325; -548.000; -246.000
329.556;  -15.225;  -36.000;   85.000
329.691;  -81.325; -633.000; -615.000
329.827;  -69.675; -626.000; -480.000
329.962;  -30.300;  131.000; -301.000
330.097;  -79.075; -673.000; -585.000
330.233;  -46.475; -410.000; -223.000
330.368; -119.800; -839.000; -628.000
330.503;   -7.700;    3.000;   98.000
330.638;   19.825;  -93.000; -125.000
330.774;  -31.075; -609.000; -530.000
330.909;  -46.250; -434.000; -244.000
331.044;  -88.750; -714.000; -708.000
331.179; -157.825;-1217.000;-1109.000
331.315;    5.175;   77.000;   20.000
331.450;   16.400;  157.000;  285.000
331.585;  -83.800; -805.000; -706.000
331.720;  -58.675; -510.000; -460.000
331.855;  -12.025;  -35.000; -102.000
331.990;  191.925;   62.000;  138.000
332.126;   87.900; -110.000;   71.000
332.261;  -13.875; -379.000; -265.000
332.396;   10.675; -135.000; -242.000
332.531;  -96.100;-1074.000;-1031.000
332.666;   20.500; -519.000; -363.000
332.801;  -92.250; -726.000; -807.000
332.936;   -9.175; -192.000; -122.000
333.071; -129.350; -870.000; -817.000
333.206;   29.950;  307.000;  379.000
333.341;   44.350;  344.000;  418.000
333.476;  -66.225; -627.000; -623.000
333.611;  -18.400; -251.000; -173.000
333.746;  -23.275; -381.000; -464.000
333.881;  -93.150; -973.000; -935.000
334.016;  -94.925; -936.000; -917.000
334.151; -100.150; -746.000; -702.000
334.286;   43.325;  152.000;  186.000
334.421;   -0.650; -125.000; -178.000
334.556;  -62.625; -611.000; -567.000
334.690;  -57.950; -631.000; -577.000
334.825;   79.875;  381.000;   83.000
334.960;  -34.975; -285.000; -413.000
335.095;   21.525;  135.000;  -91.000
335.230;  -85.000; -722.000; -738.000
335.365; -111.900;-1084.000; -990.000
335.499; -100.150;-1108.000;-1037.000
335.634;   50.025;    9.000;  534.000
335.769;  -75.725; -755.000; -720.000
335.904;  -29.175; -603.000; -561.000
336.038;  -37.350; -735.000; -657.000
336.173;  -84.000;-1206.000;-1194.000
336.308;   40.925; -116.000; -189.000
336.443;   20.325; -544.000; -634.000
336.577;  -32.050; -936.000; -787.000
336.712;   92.575;   -4.000;  -12.000
336.847;   10.025; -724.000; -607.000
336.981;  134.775; -272.000; -208.000
337.116;  361.925;  615.000;  501.000
337.250;  256.525; -434.000; -421.000
337.385;  173.225; -297.000; -208.000
337.520;   50.675; -632.000; -603.000
337.654;  -39.525; -215.000; -126.000
337.789; -115.375; -989.000; -933.000
337.923;  -39.950; -104.000; -205.000
338.058;  -70.625; -673.000; -738.000
338.192;   -4.725; -611.000; -488.000
338.327;    2.525;  -18.000; -155.000
338.461;  -35.725; -299.000; -469.000
338.596;  -63.575; -780.000; -638.000
338.730;  -85.525; -767.000; -803.000
338.865;   56.775;  -46.000; -140.000
338.999;  -68.275; -846.000; -702.000
339.134;  -31.775; -634.000; -536.000
339.268;   27.550; -741.000; -603.000
339.403;  294.875; -740.000; -775.000
339.537;   64.650; -894.000; -820.000
339.671; -113.450; -829.000; -813.000
339.806;  -58.250; -556.000; -512.000
339.940;   -3.575; -261.000; -235.000
340.074;  -87.800; -685.000; -510.000
340.209;  -26.600; -351.000; -230.000
340.343;  -78.200; -517.000; -573.000
340.477;  156.850;  998.000; 1036.000
340.612;  -67.900;-1033.000; -900.000
340.746;  101.500; -199.000; -243.000
340.880;  -36.575; -924.000; -785.000
341.014;    4.400;  -45.000; -154.000
341.149;  -94.600; -756.000; -718.000
341.283; -110.875; -839.000; -754.000
341.417;  -50.050;-1124.000; -938.000
341.551;  273.500; -768.000; -708.000
341.685;   -2.200; -633.000; -611.000
341.820;  -48.550; -562.000; -493.000
341.954;  -46.900; -218.000; -349.000
342.088; -151.150;-1102.000;-1019.000
342.222;   62.875;  565.000;  618.000
342.356;  -37.350; -395.000; -335.000
342.490;  -66.875; -880.000; -841.000
342.624;  -30.350; -339.000; -242.000
342.758;   26.725; -364.000; -312.000
342.892;  -30.675; -710.000; -585.000
343.026;  -39.800;  -58.000; -116.000
343.160;  -47.400; -426.000; -376.000
343.294;  -69.025; -474.000; -337.000
343.428;   18.400; -488.000; -448.000
343.562;   14.050; -172.000;  -23.000
343.696;   -6.050; -385.000; -314.000
343.830;   23.425; -362.000; -356.000
343.964;   41.600; -231.000; -168.000
344.098; 1305.200;  199.000;   70.000
344.232; 1088.500; -266.000; -127.000
344.366;  143.600; -567.000; -453.000
344.500;  131.500; -665.000; -744.000
344.634;   85.725; -324.000; -164.000
344.768;   17.450; -531.000; -341.000
344.902;   41.000;  278.000;  256.000
345.035;  -67.950; -556.000; -496.000
345.169;  -98.225; -933.000; -656.000
345.303;   13.650; -308.000; -482.000
345.437;  -26.975; -826.000; -717.000
345.571;  -62.425; -675.000; -594.000
345.704;  -62.475; -309.000; -532.000
345.838;   -2.400; -331.000; -284.000
345.972;   -2.700; -543.000; -495.000
346.106;  149.125; -179.000; -190.000
346.239;  456.900; -312.000; -243.000
346.373;   45.750; -343.000; -302.000
346.507; -116.600; -950.000; -962.000
346.640;  225.925;  -30.000;   13.000
346.774;  -11.875; -650.000; -797.000
346.908;   -8.250; -138.000;  -11.000
347.041;  -87.900; -646.000; -593.000
347.175;   11.575;  259.000;   27.000
347.309;  -33.700; -698.000; -628.000
347.442;  -64.600; -883.000; -732.000
347.576;  373.475;  670.000;  668.000
347.709;  323.000; -123.000;  -52.000
347.843;  -53.700; -933.000; -825.000
347.976;   36.175;  235.000;  294.000
348.110; -165.175;-1268.000;-1186.000
348.243;  -96.500; -679.000; -772.000
348.377;   10.075;  -26.000;   60.000
348.510;   67.250;  403.000;  540.000
348.644;  -14.325;  -37.000; -159.000
348.777;   -1.775;  180.000;  191.000
348.911;  -37.775; -142.000; -112.000
349.044;  233.450;  471.000;  448.000
349.178;  303.200;-1069.000;-1006.000
349.311;  139.500;  141.000;  255.000
349.444;  -13.775; -927.000; -813.000
349.578;   14.675; -347.000; -200.000
349.711;  -72.675; -959.000; -862.000
349.845;   65.550; -661.000; -591.000
349.978; -115.175;-1224.000;-1137.000
350.111;  -73.200; -546.000; -612.000
350.244;  -55.650; -596.000; -700.000
350.378;   35.900; -392.000; -393.000
350.511;  -55.850; -393.000; -426.000
350.644;  -99.500; -808.000; -806.000
350.778;   14.200;  168.000;  104.000
350.911;   14.900;  134.000;  140.000
351.044;  -69.225; -685.000; -615.000
351.177;    5.750; -321.000; -281.000
351.310;    0.250;    3.000; -131.000
351.444;  -34.375; -888.000; -788.000
351.577;  172.525;  140.000;   90.000
351.710;  116.650;  593.000;  417.000
351.843;  -27.375; -165.000;  -77.000
351.976;   23.675;  149.000;  -79.000
352.109;  -60.525; -621.000; -612.000
352.242;   12.875; -464.000; -419.000
352.376;  -27.775; -580.000; -636.000
352.509;  291.625; -437.000; -356.000
352.642;   91.625; -654.000; -604.000
352.775;  107.625; -141.000;  -98.000
352.908;  -95.250; -933.000; -904.000
353.041;  -75.675; -814.000; -824.000
353.174;  -50.850; -551.000; -424.000
353.307;  -58.825; -753.000; -764.000
353.440;   67.600;  541.000;  453.000
353.573;  -82.950; -957.000;-1008.000
353.706;  -31.950; -384.000; -558.000
353.839;   -0.200; -264.000; -220.000
353.971;  -77.475; -657.000; -512.000
354.104;  -59.150; -896.000; -835.000
354.237;    2.050; -627.000; -662.000
354.370;  -67.350; -846.000; -879.000
354.503; -157.075;-1231.000;-1308.000
354.636;  -15.750; -529.000; -348.000
354.769; -106.350; -937.000; -860.000
354.902;    2.650; -230.000; -139.000
355.034;   -2.925; -164.000; -220.000
355.167;   -4.650; -262.000; -162.000
355.300;  -82.850;-1061.000; -880.000
355.433;  789.950;  -71.000;  -14.000
355.565; 1232.650; -402.000; -384.000
355.698;  327.400; -356.000; -296.000
355.831;   31.625; -882.000; -801.000
355.964;  153.600; -285.000; -170.000
356.096;  -54.625; -856.000; -843.000
356.229;   59.225; -523.000; -530.000
356.362;  272.225; -373.000; -266.000
356.494;  491.750; -229.000; -162.000
356.627;  641.975;  269.000;  377.000
356.760;  592.500;  120.000;   53.000
356.892;  774.775; -286.000; -601.000
357.025;  899.850;  403.000;  389.000
357.157;  875.750; -167.000; -179.000
357.290;  485.575; -856.000; -713.000
357.423;  163.325; -667.000; -556.000
357.555;  175.650; -217.000; -228.000
357.688;  178.750; -483.000; -364.000
357.820;  608.925; -870.000; -877.000
357.953; 4569.675; -563.000; -589.000
358.085; 1129.100; -632.000; -612.000
358.218; 1918.550;-1131.000; -932.000
358.350;  347.875;  -58.000;  312.000
358.483;  -85.050;-1300.000;-1187.000
358.615;   80.150;-1182.000;-1078.000
358.747;   31.975;-1187.000;-1058.000
358.880;  114.650; -810.000; -744.000
359.012;   35.925; -376.000; -202.000
359.145;  -18.200; -480.000; -511.000
359.277;  132.675; -962.000; -913.000
359.409; 3806.475;  536.000;  231.000
359.542; 1053.500; -738.000; -688.000
359.674;   97.825;   46.000;   13.000
359.806;  -38.375; -565.000; -438.000
359.939;  -59.025; -617.000; -516.000
360.071;  -28.450; -583.000; -579.000
360.203;   -2.250; -411.000; -364.000
360.335;   74.425;  164.000;  -16.000
360.468;  231.700; -249.000; -307.000
360.600; 2924.325; -547.000; -454.000
360.732; 2264.400; -546.000; -423.000
360.864;  340.775;-1216.000;-1044.000
360.996;  463.250; -516.000; -554.000
361.129;  112.025; -389.000; -598.000
361.261;   48.300;  110.000; -113.000
361.393;  -22.900; -252.000; -214.000
361.525;   47.800;   94.000;  244.000
361.657;  -18.700; -821.000; -703.000
361.789;   30.600; -139.000; -155.000
361.921;  403.725; -642.000; -593.000
362.053;  376.575;  524.000;  541.000
362.185;  101.725;  288.000;   72.000
362.318;  -45.700; -709.000; -705.000
362.450;  211.000;  294.000;  444.000
362.582;  333.650; -913.000; -870.000
362.714;    2.200; -353.000; -332.000
362.846;  -76.875; -606.000; -490.000
362.978; -125.525; -941.000; -811.000
363.109;  101.175; -161.000; -260.000
363.241;  665.350; -739.000; -749.000
363.373;  386.950; -649.000; -564.000
363.505;  496.225; -186.000;  -91.000
363.637;  145.825; -787.000; -601.000
363.769;  -98.975;-1067.000;-1080.000
363.901;  -53.825; -596.000; -654.000
364.033;  -90.625;-1103.000;-1062.000
364.165;   24.675; -283.000; -283.000
364.296;   67.900; -316.000; -177.000
364.428;   26.525;-1344.000;-1220.000
364.560;  -57.650; -679.000; -661.000
364.692;  -38.900; -738.000; -835.000
364.824;  454.975; -588.000; -456.000
364.955;  454.025; -402.000; -564.000
365.087;  600.875;-1097.000; -852.000
365.219;   25.875; -686.000; -816.000
365.351;  -57.675; -526.000; -572.000
365.482;   66.225;  300.000;  240.000
365.614;  -25.650; -402.000; -314.000
365.746;  -76.725; -729.000; -752.000
365.877;  -97.375; -706.000; -672.000
366.009;  189.675;  -35.000;  -62.000
366.141;  -98.475;-1249.000;-1134.000
366.272; -107.975; -803.000; -719.000
366.404; -101.350;-1005.000; -874.000
366.535;    3.275; -139.000;  -12.000
366.667;  -84.975; -644.000; -649.000
366.799;   49.300;  353.000;  203.000
366.930;  -92.200; -862.000; -996.000
367.062;  127.000; -639.000; -613.000
367.193;   97.425; -872.000; -842.000
367.325;  -56.500; -580.000; -684.000
367.456;  146.475; -246.000;   31.000
367.588;  151.750; -371.000; -318.000
367.719;   35.250;  -44.000;  -45.000
367.851;    8.975; -222.000; -241.000
367.982;   -6.825; -875.000; -732.000
368.113;  185.450; -475.000; -358.000
368.245;  -90.000; -960.000; -841.000
368.376;    7.300; -254.000; -302.000
368.508;   -1.925; -188.000; -263.000
368.639; -111.600;-1166.000;-1034.000
368.770;   20.100; -670.000; -589.000
368.902;   -6.825; -836.000; -926.000
369.033;  -92.850; -906.000; -855.000
369.164;  -43.200; -720.000; -653.000
369.296; -101.725; -452.000; -601.000
369.427;   39.000; -209.000; -144.000
369.558;  -14.550; -593.000; -377.000
369.689;  -79.150; -721.000; -569.000
369.821; -117.075; -951.000; -845.000
369.952;    2.225;   42.000; -108.000
370.083;  -30.625; -229.000; -108.000
370.214;  -61.250; -735.000; -650.000
370.345;   -1.475;   65.000;   81.000
370.477;  -46.775; -810.000; -790.000
370.608;  361.450; -328.000; -264.000
370.739;   35.050;-1233.000;-1292.000
370.870;   34.725;-1102.000; -923.000
371.001;  174.400; -378.000; -467.000
371.132;  -61.375; -754.000; -735.000
371.263;   -6.675;  -42.000; -148.000
371.394; -105.875; -841.000; -748.000
371.525;   40.850;  345.000;  225.000
371.657;  -72.200; -808.000; -670.000
371.788;   95.800;  103.000;  199.000
371.919;  270.150; -384.000; -304.000
372.050; 4899.950;  -91.000; -156.000
372.181; 1548.100; -188.000; -294.000
372.311;  554.550;   42.000; -127.000
372.442;  101.650; -457.000; -451.000
372.573;    3.375; -444.000; -340.000
372.704; -103.575;-1008.000; -980.000
372.835;  138.225; -228.000; -289.000
372.966;  -23.725; -646.000; -554.000
373.097;  -33.125; -575.000; -711.000
373.228;    4.250; -717.000; -542.000
373.359;  249.450; -824.000; -536.000
373.490; 1383.600; -881.000; -727.000
373.620; 1750.625;-1001.000; -803.000
373.751; 2588.350; -332.000; -396.000
373.882; 1225.800; -663.000; -733.000
374.013;  151.075; -449.000; -262.000
374.143;   16.050; -581.000; -659.000
374.274;  -74.675; -987.000; -908.000
374.405;  267.275; -388.000; -276.000
374.536;  682.025; -526.000; -387.000
374.666; 1689.025; -759.000; -807.000
374.797;  414.550; -817.000; -868.000
374.928; 1314.800; -710.000; -560.000
375.058; 1355.750; -535.000; -500.000
375.189;  138.200;  -59.000;  -93.000
375.320;  -59.500; -928.000;-1034.000
375.450;  -13.625; -625.000; -616.000
375.581;  -19.525; -526.000; -436.000
375.712;    7.625; -574.000; -250.000
375.842;  469.200; -438.000; -415.000
375.973;  383.550; -554.000; -513.000
376.103;   23.525; -665.000; -648.000
376.234;  -43.825; -531.000; -552.000
376.364;   20.175; -944.000; -867.000
376.495;  417.925;  925.000;  529.000
376.625;   64.400; -472.000; -485.000
376.756;  148.550; -709.000; -678.000
376.886;    1.350;-1178.000;-1026.000
377.017;   21.950;-1048.000;-1061.000
377.147;  231.525; -786.000; -782.000
377.278;   64.150;  174.000;  228.000
377.408; -115.375; -801.000; -815.000
377.538;  -84.100; -707.000; -693.000
377.669;  -78.325; -537.000; -613.000
377.799;  -41.575; -645.000; -635.000
377.929;  -16.375; -610.000; -428.000
378.060; -115.550; -781.000; -847.000
378.190;  -50.150; -726.000; -531.000
378.320;  -40.725; -401.000; -406.000
378.451;   13.825; -131.000;  -22.000
378.581;    9.725;  -67.000; -110.000
378.711;  211.875; 1035.000;  866.000
378.841;   27.525; -533.000; -675.000
378.972;  -27.300; -871.000; -751.000
379.102;   68.225; -652.000; -579.000
379.232;    5.975; -126.000;  -73.000
379.362;  -81.250;-1001.000; -885.000
379.492;   81.025; -373.000; -424.000
379.623;  160.425;    0.000;  111.000
379.753;  -56.825;-1107.000; -974.000
379.883;  268.400;   59.000;  156.000
380.013;   95.175;-1081.000;-1017.000
380.143;  -64.250;-1097.000;-1056.000
380.273;  -65.325; -985.000; -861.000
380.403;   24.275; -344.000; -257.000
380.533;   21.725; -651.000; -664.000
380.663;  133.650;  173.000;  128.000
380.793;  -40.175;-1027.000;-1074.000
380.923;    3.475; -103.000;  -34.000
381.053;  -69.925; -613.000; -623.000
381.183;  -17.250; -106.000; -248.000
381.313;  108.425; -656.000; -470.000
381.443;  107.075; -692.000; -473.000
381.573;  353.150; -402.000; -409.000
381.703;  534.900;-1249.000;-1095.000
381.833;  -64.375;-1454.000;-1336.000
381.963;  179.300; -134.000;  -87.000
382.093; 1857.650; -925.000; -909.000
382.223;  635.700; -713.000; -602.000
382.353;   48.850; -801.000; -608.000
382.482;  621.550;-1091.000; -964.000
382.612; 1097.775; -872.000; -644.000
382.742;  638.475; -695.000; -622.000
382.872;  440.850; -565.000; -551.000
383.002;  104.825;  347.000; -132.000
383.131;   10.125; -226.000; -160.000
383.261;  -22.400; -706.000; -768.000
383.391;  308.875; -552.000; -377.000
383.521; 2382.775;  451.000;  263.000
383.650;  529.150; -947.000; -904.000
383.780;  -11.650; -783.000; -656.000
383.910;  125.675;  880.000;  802.000
384.039;  109.625; -794.000; -656.000
384.169;  403.200;-1205.000;-1017.000
384.299;   31.300; -650.000; -662.000
384.428;  -60.050; -764.000; -680.000
384.558;  -23.875; -308.000; -275.000
384.687;    2.100; -414.000; -334.000
384.817;   49.650;   75.000;   -2.000
384.947;   69.050; -234.000; -141.000
385.076;  379.475;  982.000;  912.000
385.206;  145.550;  369.000;  480.000
385.335;   11.300; -549.000; -417.000
385.465;  -50.425; -655.000; -663.000
385.594;  222.525;  -53.000;  -44.000
385.724;  723.950; -868.000; -838.000
385.853;  240.150; -296.000; -270.000
385.982; 1985.550; -743.000; -787.000
386.112; 3160.950;-1052.000; -871.000
386.241;  272.550; -307.000; -312.000
386.371;   57.550; -174.000;  -87.000
386.500;   51.350; -825.000; -789.000
386.629;   56.375; -874.000; -817.000
386.759;   89.050;  -43.000;   68.000
386.888;   30.575; -170.000; -250.000
387.017;  -33.050; -648.000; -620.000
387.147;  -62.925; -771.000; -798.000
387.276;   58.425; -410.000; -397.000
387.405;   61.975; -398.000; -342.000
387.535;  -25.750; -452.000; -361.000
387.664;  -38.750; -692.000; -620.000
387.793;  111.675; -198.000; -113.000
387.922;  769.175;  255.000;  200.000
388.052;  104.850; -576.000; -423.000
388.181;   90.550; -342.000; -472.000
388.310;  102.600; -889.000; -710.000
388.439;   34.525; -749.000; -742.000
388.568;  284.650;  365.000;  244.000
388.697; 1616.525; -756.000; -653.000
388.826;  378.275; -768.000; -666.000
388.956;  128.900; -285.000; -307.000
389.085;  -10.200; -347.000; -287.000
389.214;  -84.200; -842.000; -872.000
389.343;  -34.900; -645.000; -413.000
389.472;  360.625;  126.000;  149.000
389.601;  519.350;   91.000;    0.000
389.730;   61.475; -568.000; -687.000
389.859;   97.325;  226.000;   46.000
389.988;  294.775; -423.000; -408.000
390.117;  233.350; -168.000; -146.000
390.246;   24.575; -331.000; -320.000
390.375;  216.325; -673.000; -626.000
390.504;  -27.375; -703.000; -621.000
390.633;  -67.900; -672.000; -726.000
390.761;  -20.875; -732.000; -645.000
390.890;   65.000;   -4.000; -130.000
391.019;   18.125; -421.000; -441.000
391.148; -100.325; -826.000; -855.000
391.277;  -53.975; -576.000; -493.000
391.406;  -28.150; -821.000; -805.000
391.534;   48.575;  574.000; -301.000
391.663;  -39.150; -583.000; -645.000
391.792;  -68.300; -673.000; -701.000
391.921;  202.875;   -3.000;   15.000
392.050;  359.475; -287.000; -228.000
392.178;   46.700;-1206.000;-1061.000
392.307;  270.675; -758.000; -712.000
392.436;  169.050; -427.000; -641.000
392.564;   59.325;  166.000;   -6.000
392.693;  -65.600; -860.000; -682.000
392.822;  339.825; -529.000; -534.000
392.950;  216.525; -880.000; -714.000
393.079;  512.350; -188.000; -328.000
393.208;   84.400; -488.000; -511.000
393.336;    3.675; -170.000; -145.000
393.465;  -38.625; -317.000; -199.000
393.593;    8.100;   62.000;   79.000
393.722; -135.725;-1121.000; -916.000
393.850;  -23.425; -188.000;  -61.000
393.979; -152.950; -926.000; -805.000
394.107;  -54.075; -517.000; -537.000
394.236;    5.425; -570.000; -507.000
394.364;  273.050;  383.000;  206.000
394.493;  546.125; -911.000; -767.000
394.621;    9.200; -955.000; -916.000
394.750;  543.750; -873.000; -923.000
394.878; 2348.275; -247.000; -149.000
395.007; 3301.050; -721.000; -807.000
395.135;  248.200; -790.000; -721.000
395.263;  -86.625;-1038.000;-1040.000
395.392;   18.925;  -25.000; -107.000
395.520; -134.325; -818.000; -679.000
395.648;  -54.925; -865.000; -915.000
395.777;   44.050; -366.000; -405.000
395.905;  -25.050; -449.000; -564.000
396.033;   34.825;  217.000;  172.000
396.162;  818.300; -399.000; -453.000
396.290;  741.575;  -17.000;   -2.000
396.418;  209.150; -555.000; -514.000
396.546;  -28.050; -571.000; -466.000
396.674;  -71.050; -850.000; -878.000
396.803;   26.950;  -72.000;  -23.000
396.931;  186.300; -179.000; -199.000
397.059;  195.600;-1026.000; -989.000
397.187;  -85.150;-1026.000; -975.000
397.315; -104.750; -884.000; -649.000
397.443;  -86.825; -592.000; -443.000
397.572;  -79.200; -578.000; -424.000
397.700;   58.150; -607.000; -614.000
397.828;   39.350;  120.000;  -90.000
397.956;  -39.100; -508.000; -478.000
398.084;  -64.100; -767.000; -626.000
398.212;   69.175;  137.000;  124.000
398.340;   38.325;  -56.000;  159.000
398.468;   87.900; -390.000; -169.000
398.596; -124.575; -993.000; -953.000
398.724; -103.225; -762.000; -767.000
398.852; -149.150;-1024.000; -976.000
398.980;  -39.400; -560.000; -560.000
399.108;  -11.875; -982.000; -735.000
399.236;   72.975;   13.000;    8.000
399.363;   11.650;  222.000;  196.000
399.491;  -67.325; -404.000; -398.000
399.619; -126.300; -829.000; -800.000
399.747;  -79.850; -859.000; -771.000
399.875;  116.900;  220.000;  234.000
400.003;  -29.600; -359.000; -284.000
400.130;  -86.000; -421.000; -341.000
400.258;  -21.375;  -83.000;   38.000
400.386;  -58.200; -352.000; -168.000
400.514;  -16.750; -526.000; -587.000
400.641;  -38.625; -928.000; -802.000
400.769; -122.950; -979.000; -888.000
400.897;  -64.950; -838.000; -793.000
401.025;    3.325; -166.000; -152.000
401.152;   13.625;  220.000;   38.000
401.280;  -67.950; -430.000; -429.000
401.408; -112.950; -712.000; -576.000
401.535;  -77.650; -735.000; -758.000
401.663; -179.750;-1134.000;-1054.000
401.790;  -72.775; -514.000; -525.000
401.918;   48.750;  436.000;  405.000
402.046;  -31.125;  134.000;  122.000
402.173;  -33.150;  -18.000;    7.000
402.301;  -63.850; -519.000; -397.000
402.428;   34.075;  528.000;  383.000
402.556; -122.550;-1188.000; -913.000
402.683;  -15.525;  -20.000;   -1.000
402.811;  -26.900;  -37.000; -206.000
402.938;   11.100;   20.000;   27.000
403.066;  327.775; -574.000; -558.000
403.193;  502.000;  299.000;  239.000
403.321;  401.000; -396.000; -574.000
403.448;  474.750;   83.000;   27.000
403.575;  225.850;  -90.000;  -46.000
403.703;  -68.150; -732.000; -557.000
403.830;  -45.350; -531.000; -496.000
403.957; -141.275;-1117.000;-1023.000
404.085;   28.100;  -61.000; -172.000
404.212;  128.975;  -50.000;   63.000
404.339;  213.875; -566.000; -306.000
404.467; 4503.000; -612.000; -524.000
404.594; 3684.775; -287.000; -227.000
404.721; 1099.350; -869.000; -764.000
404.848;  101.125; -113.000; -202.000
404.976;  -80.425; -856.000; -783.000
405.103;   -1.100;  -14.000;  -82.000
405.230;   -7.600;  190.000;  226.000
405.357;   29.250;  117.000;   44.000
405.484;  225.225;  -49.000;    5.000
405.612;   47.725; -548.000; -563.000
405.739;  -51.200; -488.000; -243.000
405.866;   84.400;  669.000;  385.000
405.993;  -24.950; -398.000; -102.000
406.120; -120.100; -801.000; -887.000
406.247;  -39.425; -323.000; -342.000
406.374;  653.200;  540.000;  629.000
406.501;  265.300; -632.000; -702.000
406.628;  -66.500; -621.000; -589.000
406.755;  -83.175; -803.000; -620.000
406.882;  -27.850; -228.000; -277.000
407.009;  -81.775; -719.000; -628.000
407.136;  118.000; -480.000; -401.000
407.263;  305.150; -939.000; -829.000
407.390;  -44.450; -692.000; -614.000
407.517; -129.475;-1139.000;-1187.000
407.644;  -52.375; -332.000; -256.000
407.771; -111.850; -249.000; -287.000
407.898;   27.100;  168.000;  328.000
408.025;  -40.575; -421.000; -313.000
408.151;   -4.975;   82.000;  153.000
408.278;  -56.125; -267.000; -216.000
408.405;  -96.075; -931.000; -899.000
408.532;  -62.200; -549.000; -542.000
408.659; -101.075; -677.000; -648.000
408.785; -199.275;-1298.000;-1170.000
408.912;  -56.400; -412.000; -296.000
409.039; -108.075; -610.000; -686.000
409.166; -100.000; -591.000; -555.000
409.292; -106.450; -571.000; -534.000
409.419; -116.825; -665.000; -649.000
409.546;  -81.225; -431.000; -192.000
409.672; -111.250; -713.000; -545.000
409.799;   -4.825;  -36.000;   34.000
409.926;  -39.025; -180.000; -179.000
410.052; -161.400;-1127.000;-1091.000
410.179;  -51.975; -368.000; -392.000
410.305;  -72.475; -375.000; -493.000
410.432;  -28.525; -220.000; -333.000
410.558;  -87.600; -305.000; -380.000
410.685;  -96.525; -688.000; -431.000
410.812;  -85.200; -409.000; -588.000
410.938; -112.325; -964.000; -808.000
411.065;  -82.525; -671.000; -645.000
411.191;   -0.050; -189.000; -174.000
411.317;  -98.125; -823.000; -742.000
411.444;  -54.900; -317.000; -246.000
411.570;  -65.250; -339.000; -294.000
411.697; -129.450; -758.000; -752.000
411.823; -158.150; -989.000; -999.000
411.949;  -10.725;  -56.000;   17.000
412.076; -102.650; -539.000; -519.000
412.202; -111.600; -758.000; -757.000
412.329; -100.225; -798.000; -752.000
412.455; -102.300; -821.000; -657.000
412.581;  -28.450;  -15.000;  172.000
412.707;  -43.300; -540.000; -457.000
412.834;   20.700;  156.000;  219.000
412.960;  -71.800; -785.000; -784.000
413.086;  -97.200; -743.000; -701.000
413.212;  207.775;  604.000;  578.000
413.339;  -12.725; -685.000; -701.000
413.465;   45.750; -364.000; -310.000
413.591;  -65.325; -757.000; -474.000
413.717;  -46.975; -358.000; -366.000
413.843; -131.750; -839.000; -861.000
413.969;  -59.650;  -47.000; -292.000
414.096;  -86.400; -679.000; -679.000
414.222;   -2.775;  -33.000;   85.000
414.348;    9.650; -652.000; -385.000
414.474;  161.575;   38.000;  -52.000
414.600;  -12.100; -126.000; -144.000
414.726;  -13.975;  -96.000;  -55.000
414.852;  -55.200; -365.000; -342.000
414.978;   36.750;  104.000;  -18.000
415.104;   30.850;   38.000;   80.000
415.230;   21.500; -329.000; -330.000
415.356;   65.200; -409.000; -514.000
415.482;  225.425;   13.000;  -35.000
415.608;  251.050; -247.000; -323.000
415.734;  837.150;   67.000;   38.000
415.860;16951.900; -875.000; -767.000
415.986;13232.325; -685.000; -607.000
416.111; 1138.875; -798.000; -652.000
416.237;  221.200; -424.000; -571.000
416.363;  834.600; -765.000; -733.000
416.489; 3398.500; -324.000; -251.000
416.615;  372.950; -707.000; -742.000
416.741;  -17.725; -677.000; -784.000
416.866;  -90.275; -673.000; -736.000
416.992; -114.825; -801.000; -818.000
417.118;  -14.350;  -41.000;  -80.000
417.244;  -41.175; -798.000; -531.000
417.369;  -71.275; -801.000; -612.000
417.495;   -0.225; -325.000; -254.000
417.621;  -40.875;-1015.000; -803.000
417.746;    8.050; -579.000; -572.000
417.872;   50.025; -254.000; -144.000
417.998;   37.850; -515.000; -530.000
418.123;  762.850;-1073.000; -845.000
418.249; 4427.175; -512.000; -601.000
418.374;  642.850; -916.000; -824.000
418.500;   99.250; -383.000; -482.000
418.626;   89.575;   70.000;  -59.000
418.751;  132.525; -549.000; -448.000
418.877;  172.275; -637.000; -643.000
419.002; 1388.400; -688.000; -560.000
419.128;10150.575; -930.000; -721.000
419.253; 2657.725; -967.000; -837.000
419.379;  330.850; -391.000; -338.000
419.504;  347.725;  325.000;  415.000
419.629;  408.125; -393.000; -212.000
419.755; 2553.825; -317.000; -254.000
419.880;15952.525;  -98.000;   67.000
420.006; 9224.400; -280.000; -221.000
420.131;25156.650; -662.000; -775.000
420.256; 3920.875; -315.000; -316.000
420.382;  515.400; -665.000; -687.000
420.507;   63.475; -649.000; -778.000
420.632;  210.550; -337.000; -339.000
420.758;  444.975; -251.000; -425.000
420.883;  -52.750; -876.000; -672.000
421.008;  -91.050; -775.000; -619.000
421.133;  -62.900; -509.000; -467.000
421.259;  -36.550; -325.000; -259.000
421.384; -102.750; -834.000; -693.000
421.509;   13.825;-1052.000; -862.000
421.634; 1926.875; -936.000; -820.000
421.759;  927.925; -359.000; -327.000
421.885;   -1.450; -717.000; -656.000
422.010;  -61.000; -673.000; -542.000
422.135; -142.200; -695.000; -727.000
422.260;   47.500;  340.000;  280.000
422.385;  -31.200;   12.000;  -98.000
422.510;   17.025;  151.000;  -26.000
422.635;   48.100;  -87.000;  -43.000
422.760;  144.925; -766.000; -791.000
422.885;   62.375;  -57.000;  -80.000
423.010;  -18.050; -112.000; -169.000
423.135;  -80.300; -481.000; -561.000
423.260;    6.225; -150.000; -245.000
423.385;  101.475;  476.000;  222.000
423.510;   49.325;   71.000;  -22.000
423.635;  117.625;  133.000;   45.000
423.760;   70.450;  383.000;  328.000
423.885;   54.225;  336.000;  391.000
424.010;   24.800;  -68.000;  -13.000
424.135;  -11.450;    5.000;  -33.000
424.259;  -64.325; -654.000; -457.000
424.384;  -54.225; -279.000; -272.000
424.509;   -0.675; -260.000; -186.000
424.634;  -99.175; -761.000; -623.000
424.759;  -14.425; -688.000; -544.000
424.883;   -8.675; -506.000; -527.000
425.008;  171.300; -502.000; -410.000
425.133; 1629.850; -679.000; -653.000
425.258;  860.175; -517.000; -381.000
425.382; 1266.250; -867.000; -774.000
425.507; 3572.925; -487.000; -543.000
425.632;  558.650; -802.000; -663.000
425.756;  368.600; -256.000; -146.000
425.881; 4482.225; -831.000; -857.000
426.006;12765.200; -604.000; -355.000
426.130; 2312.725; -696.000; -508.000
426.255;  294.675; -611.000; -491.000
426.379;  140.250; -189.000; -577.000
426.504;  322.925;  660.000;  544.000
426.629; 3461.450; -519.000; -466.000
426.753; 2565.775;   64.000;  -46.000
426.878;  302.900; -252.000; -288.000
427.002;  123.750; -651.000; -668.000
427.127; 1314.475;  -35.000; -158.000
427.251; 9285.675;  372.000;  401.000
427.375; 2902.400; -191.000; -173.000
427.500; 2954.850; -616.000; -610.000
427.624; 1133.050; -234.000; -400.000
427.749;  147.725; -216.000; -225.000
427.873;  -11.325; -499.000; -412.000
427.997;  -31.800; -222.000; -230.000
428.122;   82.750;  795.000;  703.000
428.246;  104.625;  433.000;  434.000
428.371;  -96.325; -869.000; -773.000
428.495;  -76.950; -624.000; -646.000
428.619;   -7.800; -186.000; -117.000
428.743;   34.100;   65.000;  132.000
428.868;   60.475; -732.000; -643.000
428.992; 1912.700; -219.000; -326.000
429.116;  902.250; -329.000; -357.000
429.240;  416.900;  419.000;  426.000
429.365;    8.075; -454.000; -574.000
429.489;   -2.425; -638.000; -647.000
429.613;   19.925; -236.000; -177.000
429.737;   46.500; -563.000; -432.000
429.861;  251.500; -247.000; -133.000
429.985; 4509.775; -425.000; -305.000
430.109; 5323.850; -770.000; -908.000
430.234;  650.125;   76.000;  -50.000
430.358;   70.475; -250.000; -160.000
430.482;  -59.225; -672.000; -564.000
430.606;  -53.725; -655.000; -375.000
430.730;   69.200; -437.000; -388.000
430.854;  283.225; -909.000; -835.000
430.978;  -26.350; -795.000; -764.000
431.102;  -69.475; -499.000; -422.000
431.226;  -86.450; -874.000; -815.000
431.350;   43.625;  345.000;  422.000
431.474;  -47.825; -661.000; -373.000
431.597; -129.775;-1060.000; -848.000
431.721;  -83.800; -276.000; -267.000
431.845; -124.550; -704.000; -472.000
431.969;  -78.525; -304.000; -349.000
432.093;  -84.375; -395.000; -317.000
432.217;   -5.575;   32.000;   82.000
432.341;  -82.925; -523.000; -518.000
432.464;   15.275;   96.000;   40.000
432.588;  355.075; -401.000; -329.000
432.712;  177.550;  -52.000;  -52.000
432.836;   34.350;  213.000;  263.000
432.959;  -25.275; -372.000; -311.000
433.083;   62.450;   11.000;    2.000
433.207;  296.625;  285.000;  930.000
433.330; 3830.350; -391.000; -200.000
433.454; 5024.475; -654.000; -638.000
433.578; 2977.650;  583.000;  278.000
433.701;  613.275; -623.000; -675.000
433.825;  241.725; -292.000; -299.000
433.949;  344.025;   28.000;  -72.000
434.072;  187.225; -410.000; -323.000
434.196;   15.900; -309.000; -117.000
434.319; 3615.725;25482.000;25124.000
434.443;  705.825; -656.000; -603.000
434.566; 2274.275;  281.000;   62.000
434.690;  385.100; -637.000; -383.000
434.813;   84.125; -251.000; -173.000
434.937;  -65.675; -569.000; -696.000
435.060;  -11.600; -423.000; -332.000
435.184;  616.500; -492.000; -217.000
435.307;  361.950;  159.000;  102.000
435.431;   23.675;  -40.000;   24.000
435.554;  -67.425; -399.000; -240.000
435.677;  -81.000; -350.000; -258.000
435.801;  -37.700;  -25.000;   49.000
435.924;   16.325;    1.000;  -67.000
436.048;  -41.275;-1019.000; -732.000
436.171;  -50.725; -240.000;  -66.000
436.294;  -20.175; -248.000; -229.000
436.417;   59.025; -963.000; -849.000
436.541;  -95.000; -814.000; -840.000
436.664;  -35.675; -242.000; -316.000
436.787;  -16.200;   13.000;  113.000
436.910;  -96.125; -792.000; -422.000
437.034;   24.250;  142.000;  143.000
437.157;  126.000;  -11.000;    0.000
437.280;  -10.925; -392.000; -292.000
437.403;  -28.575; -982.000; -869.000
437.526; 1080.450; -903.000; -865.000
437.649; 3918.050; -505.000; -332.000
437.772;  746.450; -692.000; -540.000
437.896;  177.725;  700.000;  544.000
438.019;  -64.075; -758.000; -503.000
438.142;  -71.375; -596.000; -506.000
438.265;   49.025; -639.000; -670.000
438.388;  953.850; -520.000; -410.000
438.511;  257.825; -597.000; -394.000
438.634;   -9.450; -247.000; -125.000
438.757; -116.475; -693.000; -619.000
438.880;  -11.175;  -34.000;  -57.000
439.003;  -63.600; -417.000; -437.000
439.126;  -53.250; -287.000; -167.000
439.248;  -56.025;  -98.000; -139.000
439.371;  -40.350;    9.000;  -53.000
439.494;   29.925;  510.000;  439.000
439.617;  -38.475;   65.000;  -88.000
439.740; -175.125; -968.000; -816.000
439.863; -147.000; -755.000; -595.000
439.986; -127.200; -476.000; -431.000
440.108;  -55.925; -161.000; -112.000
440.231; -145.800; -950.000; -836.000
440.354;  -36.325;  -64.000; -150.000
440.477;  110.375; -566.000; -542.000
440.599;   73.925; -200.000; -225.000
440.722; -111.275; -709.000; -586.000
440.845;   64.425;  751.000;  928.000
440.968;  -99.050; -415.000; -311.000
441.090;  -57.775; -199.000;  -33.000
441.213; -155.350;-1021.000; -825.000
441.336;  -42.425; -159.000;   -5.000
441.458;  -60.525; -549.000; -396.000
441.581;  -46.550; -628.000; -629.000
441.703;  -62.250; -152.000;   13.000
441.826; -108.775; -557.000; -400.000
441.948;  -49.700;   56.000;   51.000
442.071;   34.700;  555.000;  424.000
442.193; -111.875; -531.000; -485.000
442.316;   34.850;  152.000;   97.000
442.438;   29.475; -233.000;  -10.000
442.561;  103.975;  272.000;  262.000
442.683;  887.425; -809.000; -522.000
442.806; 1924.550;   -8.000;   74.000
442.928;  172.350; -859.000; -604.000
443.051;  -39.875; -577.000; -373.000
443.173;  -83.150; -341.000; -339.000
443.295;  -72.375; -263.000; -371.000
443.418;  -50.850; -321.000;  -29.000
443.540;    5.650; -106.000;   -4.000
443.662;  -99.425; -563.000; -465.000
443.785;  -13.400;  335.000;  199.000
443.907;  -93.025; -362.000; -208.000
444.029; -122.875; -767.000; -494.000
444.152; -136.500; -644.000; -554.000
444.274;  -33.050;  -18.000;  -24.000
444.396;  -96.425; -461.000; -221.000
444.518; -128.850; -691.000; -454.000
444.640;  -87.350; -268.000; -111.000
444.763;  -21.000;  388.000;  249.000
444.885; -118.400; -432.000; -392.000
445.007;  -18.900;   35.000;   86.000
445.129; -104.175; -610.000; -515.000
445.251;  -85.050; -372.000; -439.000
445.373; -117.425; -537.000; -386.000
445.495;   20.525;  242.000;  350.000
445.617;   66.075;  853.000;  753.000
445.739;  -55.050; -215.000;  -97.000
445.861;  -25.200; -245.000; -112.000
445.984;   -1.925; -267.000; -101.000
446.105;  315.875; -418.000; -251.000
446.227;  960.900; -176.000;  -19.000
446.349;   85.750; -358.000; -249.000
446.471;  -83.150; -615.000; -448.000
446.593;  -53.175; -316.000;   19.000
446.715;   19.450;  -67.000;   41.000
446.837;   70.600;  697.000;  832.000
446.959;  -94.825; -457.000; -478.000
447.081; -126.000; -628.000; -518.000
447.203;   55.650;  862.000;  834.000
447.325;  -84.800; -270.000;   42.000
447.446;   -4.075;  286.000;  530.000
447.568; -148.800; -921.000; -803.000
447.690;  -56.550; -236.000; -245.000
447.812; -149.175; -798.000; -519.000
447.933;  -33.800;  155.000;  127.000
448.055;  -74.375; -306.000; -261.000
448.177;  220.950;   31.000;   79.000
448.299;  218.675; -935.000; -727.000
448.420;   55.525;  -25.000;  159.000
448.542;  -36.225;   -3.000;   33.000
448.664;  -30.200;  109.000;  322.000
448.785;  -40.325;  265.000;   83.000
448.907;  -68.550; -614.000; -353.000
449.028;   14.525; -771.000; -471.000
449.150;   62.925;  492.000;  589.000
449.272; -159.925;-1044.000; -913.000
449.393;   16.950;  612.000;  694.000
449.515; -139.150; -634.000; -581.000
449.636;  -45.100; -264.000; -155.000
449.758;  101.950;  763.000;  622.000
449.879;  -87.650; -498.000; -396.000
450.001;  -85.275; -149.000;  -49.000
450.122;  -35.675;  -95.000;  162.000
450.244;  -22.500;   37.000;  364.000
450.365;  -99.000; -495.000; -301.000
450.486;  -33.300;   80.000;  268.000
450.608;    2.500;  393.000;  326.000
450.729;   52.275;  578.000;  645.000
450.850;  -30.575; -574.000; -466.000
450.972;  491.325; -552.000; -389.000
451.093; 3614.500;  190.000;  588.000
451.214; 1701.175; -516.000; -337.000
451.336;  333.275;  773.000;  579.000
451.457;   64.150;  264.000;  393.000
451.578;  -40.475; -118.000;  -74.000
451.699; -119.425; -546.000; -540.000
451.821;  -73.650; -284.000;  -50.000
451.942;  -13.025;  278.000;  285.000
452.063;    6.725;  228.000;  419.000
452.184;  400.575;  -54.000;  -49.000
452.305;  891.475;  103.000;  170.000
452.427;   89.050; -549.000; -301.000
452.548;  -13.450;   23.000;   79.000
452.669;  -25.475; -257.000;  -89.000
452.790;  -29.525;    3.000;  -18.000
452.911;   -5.400;  195.000;  259.000
453.032;  -51.125; -289.000;  -60.000
453.153;  -32.625;  -29.000;   81.000
453.274;   58.050;  737.000;  868.000
453.395;  -42.325;  -51.000;  175.000
453.516;  144.225; 1317.000; 1388.000
453.637;  -47.925; -205.000; -150.000
453.758;  -55.875;   15.000;   69.000
453.879; -117.850; -462.000; -250.000
454.000;   86.350; 1086.000;  948.000
454.121;  -96.300; -554.000; -326.000
454.242; -114.350; -599.000; -383.000
454.362;  -54.850;  -99.000;  114.000
454.483;  -32.550; -309.000; -229.000
454.604;   75.200;  512.000;  580.000
454.725; -114.800; -627.000; -555.000
454.846; -111.575; -474.000; -406.000
454.967;  -13.000;  230.000;  539.000
455.087;  -48.175;  179.000;  153.000
455.208;   24.875;  554.000;  856.000
455.329;  -64.050;  -22.000;   82.000
455.450;   36.275;  473.000;  633.000
455.570;  -73.300; -234.000; -211.000
455.691;  -43.150;  201.000;  407.000
455.812; -110.350; -270.000;  -92.000
455.932;  -57.300;  107.000;  -97.000
456.053;  -84.750;   36.000;   24.000
456.173; -119.750; -433.000; -355.000
456.294; -127.625; -476.000; -303.000
456.415;  -68.950;  -73.000;   70.000
456.535;  -31.375;  297.000;  273.000
456.656;  -41.575;  132.000;  240.000
456.776;  -71.275;    3.000;  298.000
456.897;   -3.200;  308.000;  513.000
457.017;  -65.000; -153.000;   -3.000
457.138;  -86.300; -402.000; -249.000
457.258;  -19.350;  263.000;  224.000
457.379;   -6.250;  509.000;  521.000
457.499;  -36.725;  443.000;  432.000
457.620; -108.500; -407.000; -231.000
457.740;  -89.725; -132.000;  -11.000
457.860;  -54.850;   87.000;   44.000
457.981;  -27.250;  132.000;  124.000
458.101;  -63.750;  -89.000;   40.000
458.221;  -23.225;  336.000;  402.000
458.342;  -56.250;   -4.000;  -37.000
458.462;   13.275;  617.000;  352.000
458.582;  -46.150; -302.000; -294.000
458.703;   -5.900;  303.000;  154.000
458.823;  -42.250;   22.000;  163.000
458.943;   19.375;  341.000;  467.000
459.063;   -2.550; 1124.000;  192.000
459.183;    0.625;  328.000;  313.000
459.304;   12.300;  315.000;  517.000
459.424;  -67.975; -246.000;  -89.000
459.544;  253.125;  388.000;  764.000
459.664;  676.275;  499.000;  506.000
459.784;  278.775; 1004.000; 1175.000
459.904;   44.800;  867.000;  744.000
460.024;   76.350;  867.000;  684.000
460.144;   23.225;  449.000;  554.000
460.264;    1.150;  515.000;  327.000
460.385;  -87.275; -145.000; -119.000
460.505;   33.325;  905.000;  858.000
460.625;  -73.900;  -17.000;  -68.000
460.745;  -16.675;  396.000;  541.000
460.864;  -48.225;  153.000;  469.000
460.984;   15.400;  499.000;  573.000
461.104;  142.875; 1656.000; 1775.000
461.224;   15.825;  657.000;  650.000
461.344;  -24.950;  431.000;  360.000
461.464;  -29.775;  258.000;  513.000
461.584;   -6.625;  283.000;  466.000
461.704;  -17.500;   58.000;  108.000
461.824;  -55.875;  238.000;  259.000
461.943;  -34.575;  191.000;  130.000
462.063;  -64.625;    2.000;  324.000
462.183;   55.150;  639.000;  717.000
462.303;  114.125; 1678.000; 1230.000
462.422;   21.950;  781.000;  840.000
462.542;  -34.825;  271.000;  391.000
462.662;   39.825;  353.000;  380.000
462.782;  196.050;  833.000;  572.000
462.901;  414.500;  545.000;  717.000
463.021;  259.675; 1702.000; 1638.000
463.141;  -18.300;  337.000;  770.000
463.260;   -8.050;  614.000;  474.000
463.380;    6.350;  902.000;  884.000
463.499;  -47.550;  342.000;  332.000
463.619;  -34.650;  581.000;  559.000
463.738;  124.800; 1644.000;  903.000
463.858;   23.000;  657.000;  811.000
463.978;  -16.300;  542.000;  396.000
464.097;   44.050;  921.000; 1114.000
464.217;   88.550; 1196.000; 1143.000
464.336;   99.650; 1068.000; 1130.000
464.455;  -32.850;  328.000;  659.000
464.575;   55.900;  597.000;  602.000
464.694;  209.225; 1204.000; 1179.000
464.814;  139.675; 1190.000; 1138.000
464.933;   73.250; 1095.000; 1027.000
465.052;  100.275; 1412.000; 1054.000
465.172;   91.475;  922.000;  799.000
465.291;  159.950; 1376.000; 1320.000
465.410;   19.700;  462.000;  735.000
465.530;   85.625; 1355.000; 1310.000
465.649;   75.300; 1209.000; 1273.000
465.768;  160.800; 1673.000; 1508.000
465.888;   71.500;  941.000; 1174.000
466.007;  100.575; 1335.000; 1440.000
466.126;    9.950;  721.000;  641.000
466.245;   52.350; 1176.000; 1187.000
466.364;   28.350;  950.000; 1060.000
466.484;   77.200; 1024.000; 1213.000
466.603;   46.500; 1101.000; 1222.000
466.722;  126.700; 1490.000; 1769.000
466.841;   99.300; 1151.000; 1401.000
466.960;   42.950; 1069.000;  972.000
467.079;  127.200; 1971.000; 1786.000
467.198;   43.650; 1238.000; 1181.000
467.317;   78.975; 1768.000; 1162.000
467.436;   65.325; 1709.000; 1261.000
467.555;  133.500; 1796.000; 1746.000
467.674;   59.200; 1227.000; 1329.000
467.793;   52.350; 1376.000; 1374.000
467.912;   96.800; 1658.000; 1539.000
468.031;  134.825; 2038.000; 1930.000
468.150;  151.400; 1842.000; 1837.000
468.269;  189.950; 2313.000; 2090.000
468.388;  206.250; 2168.000; 2339.000
468.507;  247.225; 2884.000; 2903.000
468.626;  283.575; 2555.000; 2541.000
468.744;  135.950; 2018.000; 2174.000
468.863;  198.250; 2312.000; 2523.000
468.982;   94.725; 1503.000; 1555.000
469.101;  232.050; 2788.000; 2692.000
469.220;  150.000; 2333.000; 2176.000
469.338;  258.350; 2935.000; 3051.000
469.457;  201.800; 2719.000; 2545.000
469.576;  342.800; 3953.000; 3784.000
469.695;  244.350; 2877.000; 3066.000
469.813;  433.700; 4148.000; 4192.000
469.932;  400.675; 4255.000; 4485.000
470.051;  422.475; 4075.000; 4161.000
470.169;  762.200; 4470.000; 4338.000
470.288; 1281.475; 4700.000; 4809.000
470.406;  821.375; 5059.000; 5194.000
470.525;  609.450; 6101.000; 5787.000
470.644;  653.775; 6847.000; 6794.000
470.762;  846.600; 8397.000; 7873.000
470.881;  899.450; 8651.000; 8464.000
470.999; 1016.825; 9685.000; 9151.000
471.118; 1081.325;11174.000;10711.000

