
Integration time [ms]: 100.000
Averaging Nr. [scans]: 40
Smoothing Nr. [pixels]: 0
Data measured with spectrometer [name]: 2101012U2
Wave   ;Sample   ;Dark     ;Reference
[nm]   ;[counts] ;[counts] ;[counts] 

197.733;   70.975;  516.000;  404.000
197.879;  -75.900; -610.000; -634.000
198.025;  -37.775; -475.000; -420.000
198.171;  -64.325; -602.000; -612.000
198.317;  -31.075; -401.000; -316.000
198.463;  -71.300; -655.000; -404.000
198.609;   24.500;  181.000; -137.000
198.755;  -83.950; -644.000; -410.000
198.901;  -56.375; -505.000; -424.000
199.047;  -63.200; -615.000; -488.000
199.193;  -30.475; -230.000; -468.000
199.339;  -36.600; -222.000; -369.000
199.485;   31.650;  330.000;  271.000
199.631;   25.175;  227.000;  310.000
199.777;  -56.375; -466.000; -398.000
199.923;  -55.200; -610.000; -424.000
200.069;  -19.375; -141.000;  -58.000
200.215;   46.675;  128.000;  453.000
200.361;   48.775;  243.000;  477.000
200.507;  -58.450; -600.000; -373.000
200.653;  -22.725; -371.000; -194.000
200.798;  -33.575; -215.000; -125.000
200.944;   -6.200; -146.000;  -41.000
201.090;   28.500;   61.000;  222.000
201.236;   -3.625; -116.000; -158.000
201.382;  115.100;  874.000;  903.000
201.528;    5.550;  -58.000;  -48.000
201.674;  -45.225; -386.000; -293.000
201.819;  -56.250; -540.000; -439.000
201.965;  -69.625; -699.000; -447.000
202.111;   -8.700; -273.000; -226.000
202.257;  -42.500; -250.000; -238.000
202.402;   -5.950;   13.000;  -36.000
202.548;  -19.025; -169.000; -116.000
202.694;   72.475;  410.000; -183.000
202.840;  -77.200; -603.000; -531.000
202.985;  -59.850; -681.000; -639.000
203.131; -103.150; -832.000; -666.000
203.277;  -19.875; -199.000; -262.000
203.423;  -43.850; -434.000; -520.000
203.568;  -41.300; -462.000; -237.000
203.714;  -52.425; -535.000; -542.000
203.860;  -71.075; -682.000; -641.000
204.005;   11.450;  112.000;  167.000
204.151;   73.875;  561.000;  556.000
204.296;  -39.025; -354.000; -221.000
204.442;  -67.025; -600.000; -547.000
204.588;  -74.150; -592.000; -579.000
204.733;   11.275;  178.000;  168.000
204.879; -126.550;-1018.000; -822.000
205.025;   16.925;  -99.000;  126.000
205.170;    8.825;  -17.000;   94.000
205.316;   78.250;  438.000;  661.000
205.461;  -67.500; -698.000; -554.000
205.607;   82.300;  609.000;  665.000
205.752;  -73.975; -626.000; -551.000
205.898;  -48.300; -501.000; -391.000
206.043;  -60.300; -578.000; -506.000
206.189;  -18.450; -243.000; -285.000
206.334;   75.075;  554.000;  606.000
206.480;   80.350;  409.000;  239.000
206.625;  -73.700; -529.000; -552.000
206.771;  -33.025; -451.000; -373.000
206.916;  -16.950; -210.000; -537.000
207.062;  -65.050; -545.000; -591.000
207.207;  -53.950; -546.000; -443.000
207.353;   56.875;  185.000;  460.000
207.498;   10.100;  196.000;   85.000
207.643;  -41.950; -501.000; -370.000
207.789; -133.275;-1069.000; -910.000
207.934;  -84.575; -665.000; -713.000
208.080;  -34.625; -154.000;   66.000
208.225;   -9.400;  -22.000;  -57.000
208.370;  -64.650; -727.000; -619.000
208.516;  -74.975; -741.000; -487.000
208.661;   -7.775; -127.000;  -69.000
208.806;  -23.050; -165.000; -171.000
208.952; -120.725;-1044.000; -731.000
209.097;   73.425;  378.000;  349.000
209.242;  -46.900; -307.000; -382.000
209.387;   75.450;  392.000;  350.000
209.533;  -37.225; -321.000; -350.000
209.678;   69.925;  472.000;  543.000
209.823;  -49.450; -408.000; -310.000
209.969;  -81.725; -860.000; -757.000
210.114;  -92.000; -907.000; -719.000
210.259; -107.225; -939.000; -889.000
210.404;    1.675; -171.000;  103.000
210.549;   10.800;  108.000;    3.000
210.695;  -21.300;   -3.000;  -95.000
210.840;   33.825;   94.000;   67.000
210.985;  -62.750; -484.000; -303.000
211.130;   67.100;  268.000;  406.000
211.275;   15.225;  207.000;  199.000
211.420;  -57.100; -300.000; -289.000
211.566;  -53.575; -536.000; -489.000
211.711;   15.675;  218.000;  157.000
211.856;  -74.375; -545.000; -519.000
212.001;   13.825;  151.000;   44.000
212.146;   16.350;  153.000;   49.000
212.291;  -31.675; -210.000; -186.000
212.436;  -28.400; -280.000;   -6.000
212.581;  -85.150; -685.000; -653.000
212.726;  -77.150; -487.000; -538.000
212.871;  -45.300; -552.000; -217.000
213.016; -152.050;-1172.000;-1029.000
213.161;   57.125;  406.000;  291.000
213.306;  -76.025; -435.000; -577.000
213.451;  -83.100; -778.000; -689.000
213.596;  -43.750; -455.000; -347.000
213.741;  -51.125; -448.000; -538.000
213.886;  -66.175; -498.000; -517.000
214.031;  -21.625; -294.000; -124.000
214.176;  -46.050; -408.000; -341.000
214.321;  -31.475; -296.000; -157.000
214.466;  -16.450; -163.000;  -43.000
214.611;   -9.925;  -61.000;  -10.000
214.756; -101.975; -948.000; -858.000
214.901;  -35.875; -388.000; -226.000
215.046; -112.475; -797.000; -825.000
215.191;    8.475;  128.000;   35.000
215.336;  -10.325; -157.000;  -19.000
215.480;  -71.525; -684.000; -505.000
215.625;  -19.075; -175.000;  -19.000
215.770;  -78.375; -757.000; -662.000
215.915;   -9.175;   -5.000;  -97.000
216.060;    4.275; -113.000;  -21.000
216.205;  -95.150; -731.000; -779.000
216.349;  -71.850; -470.000; -533.000
216.494; -128.425; -939.000; -867.000
216.639; -114.525; -823.000; -888.000
216.784;  -80.075; -577.000; -525.000
216.929;   36.725;  392.000;  281.000
217.073;  -14.175; -244.000;  -31.000
217.218;    4.650;   78.000;  -47.000
217.363;  -70.575; -656.000; -618.000
217.507;  -87.825; -623.000; -588.000
217.652; -114.475; -845.000; -874.000
217.797;  -91.850; -708.000; -659.000
217.942; -103.450; -856.000; -720.000
218.086;   73.500;  608.000;  539.000
218.231;  -32.850; -174.000;  -26.000
218.376;  -32.925; -337.000; -229.000
218.520;   -4.550;  -41.000;   96.000
218.665;  -26.775; -338.000; -204.000
218.810;  -29.300; -275.000; -233.000
218.954;   20.975;  201.000;   35.000
219.099; -100.750; -713.000; -963.000
219.243;  -80.875; -589.000; -554.000
219.388;  -32.775; -264.000; -136.000
219.532;  -10.850; -116.000; -116.000
219.677;  -83.550; -564.000; -521.000
219.822;   15.100;   33.000;   89.000
219.966;   12.125;   17.000;  -99.000
220.111;  -34.125; -328.000;  -40.000
220.255;  -81.350; -797.000; -750.000
220.400;  -28.950; -180.000; -146.000
220.544;  -62.850; -516.000; -450.000
220.689;  -44.175; -422.000; -451.000
220.833;  -24.175; -123.000;  -58.000
220.978;  -38.600; -393.000; -563.000
221.122;   11.675;  319.000;  307.000
221.267; -107.850; -906.000; -837.000
221.411;  -76.300; -478.000; -394.000
221.555;    4.250; -104.000;  -23.000
221.700;  -40.700; -329.000; -222.000
221.844;   37.650;  255.000;  272.000
221.989;  -45.575; -328.000; -311.000
222.133;  -33.750; -289.000; -307.000
222.277;  -21.475;    5.000;   78.000
222.422;   10.800;  227.000;  113.000
222.566;  -39.650; -381.000; -214.000
222.711;  -44.675; -414.000; -479.000
222.855;  -70.575; -643.000; -586.000
222.999;  -81.200; -642.000; -717.000
223.144;  -32.625; -195.000; -194.000
223.288;   53.350;  423.000;  251.000
223.432;   25.600;  184.000;  230.000
223.576;   24.250;  152.000;  -21.000
223.721;   31.725;  364.000;  273.000
223.865;  -55.700; -472.000; -475.000
224.009;  234.175; 1673.000; 1631.000
224.153;  -62.525; -660.000; -671.000
224.298;  -56.250; -531.000; -489.000
224.442;  -14.300;  -74.000;  -33.000
224.586;  -13.700; -169.000; -106.000
224.730;  -83.850; -858.000; -670.000
224.875;  -95.700; -739.000; -688.000
225.019;   14.775;  102.000;  188.000
225.163;   63.225;  208.000;  341.000
225.307;    7.925;   97.000;  -91.000
225.451;   49.225;  360.000;  481.000
225.595;   22.400;  264.000;  176.000
225.739;  -15.250; -170.000;  -94.000
225.884;   16.725;   86.000;    5.000
226.028;  -90.275; -760.000; -626.000
226.172;  -36.375; -260.000; -273.000
226.316; -123.100; -941.000; -902.000
226.460;  -69.550; -645.000; -493.000
226.604;  -43.650; -406.000; -400.000
226.748;  -97.600; -836.000; -733.000
226.892;  -30.075; -227.000; -181.000
227.036;  -39.475; -537.000; -447.000
227.180;  -65.775; -551.000; -375.000
227.324;  -70.025; -561.000; -580.000
227.468;  -83.350; -819.000; -717.000
227.612;   10.650;  242.000;  -28.000
227.756; -102.625; -845.000; -698.000
227.900;   53.125;  342.000;  441.000
228.044;  -49.450; -509.000; -290.000
228.188;   50.300;  448.000;  568.000
228.332;  -72.125; -546.000; -472.000
228.476;  -31.600; -223.000; -149.000
228.620;  -14.150; -210.000; -150.000
228.764;   69.450;  431.000;  349.000
228.908;  -10.925; -155.000;   30.000
229.052;  -62.375; -615.000; -528.000
229.195;  -17.275; -172.000;   13.000
229.339;  -23.900; -235.000; -305.000
229.483;  -26.025;    5.000; -162.000
229.627;   -4.500; -156.000;  139.000
229.771;  -49.925; -218.000; -294.000
229.915;   10.425;  230.000;   79.000
230.059;  -77.725; -648.000; -663.000
230.202;  -35.850; -370.000; -317.000
230.346;  -24.325; -107.000;  107.000
230.490;  -67.875; -489.000; -521.000
230.634;  -94.575; -736.000; -553.000
230.777;   57.700;  478.000;  509.000
230.921;  -55.050; -450.000; -359.000
231.065;  -43.200; -246.000; -286.000
231.209;    6.400;  261.000;  265.000
231.352;   22.200;   54.000;   40.000
231.496;   24.450;  568.000;  188.000
231.640;  -74.525; -693.000; -621.000
231.783;   45.650;  546.000;  525.000
231.927;  -35.900; -294.000; -365.000
232.071; -113.425; -962.000; -736.000
232.214; -111.500; -980.000; -764.000
232.358;  -91.175; -683.000; -599.000
232.502;    2.250;  -19.000;    7.000
232.645; -140.350;-1090.000; -927.000
232.789;  -18.150; -257.000; -218.000
232.933;  -53.775; -407.000; -224.000
233.076; -113.525;-1038.000; -897.000
233.220; -103.675; -752.000; -777.000
233.363;  -73.100; -669.000; -477.000
233.507;   41.800;  371.000;  129.000
233.650;  -86.125; -764.000; -834.000
233.794;   41.825;  438.000;  461.000
233.938;  -54.400; -530.000; -362.000
234.081;  -12.875;  -93.000;   31.000
234.225;  -60.200; -631.000; -539.000
234.368; -106.500; -773.000; -723.000
234.512;  -32.925; -385.000; -299.000
234.655;  -81.250; -582.000; -555.000
234.798;  -63.300; -493.000; -466.000
234.942; -118.900; -884.000;-1002.000
235.085;  -65.675; -651.000; -443.000
235.229;  -78.750; -405.000; -410.000
235.372;  -40.975; -247.000; -191.000
235.516;  -57.875; -397.000; -321.000
235.659;   12.250;   92.000;  121.000
235.802;   -3.150;  -38.000;  -22.000
235.946;   25.300;  335.000;  215.000
236.089;   24.475;  126.000;  250.000
236.233;   49.750;  275.000;  298.000
236.376;  -50.775; -235.000; -378.000
236.519;  -46.850; -297.000; -319.000
236.663;  -27.725; -215.000; -117.000
236.806; -128.475;-1029.000; -999.000
236.949;   64.025;  543.000;  431.000
237.092;   60.225;  412.000;  391.000
237.236;  -81.600; -589.000; -502.000
237.379;   65.150;  352.000;  428.000
237.522;  -99.800; -879.000; -768.000
237.666;   -6.775; -271.000;   18.000
237.809; -109.900; -851.000; -823.000
237.952;   44.925;  469.000;  271.000
238.095;  -69.875; -447.000; -442.000
238.238;   78.000;  688.000;  700.000
238.382;   -7.850;  166.000;  103.000
238.525;  -63.100; -598.000; -511.000
238.668; -120.600;-1060.000; -985.000
238.811;  -66.625; -638.000; -643.000
238.954;  -67.425; -483.000; -334.000
239.097;   84.850;  617.000;  664.000
239.241;   13.975;  394.000;  326.000
239.384;  -37.275; -254.000; -214.000
239.527;  -50.825; -424.000; -224.000
239.670; -133.200; -994.000;-1091.000
239.813; -106.525; -696.000; -658.000
239.956;   78.275;  579.000;  473.000
240.099; -107.725; -778.000; -725.000
240.242;   47.375;  428.000;  432.000
240.385;   33.325;  466.000;  450.000
240.528;  -66.950; -706.000; -473.000
240.671;    3.775;  189.000;  134.000
240.814;  -42.350; -441.000; -158.000
240.957;  -85.700; -767.000; -578.000
241.100;  -70.200; -779.000; -755.000
241.243; -138.350;-1234.000; -893.000
241.386;  -70.625; -508.000; -379.000
241.529;  -85.125; -735.000; -547.000
241.672;  -51.900; -566.000; -495.000
241.815; -115.450; -832.000; -808.000
241.958;  -21.000; -125.000; -182.000
242.101;  -68.975; -545.000; -390.000
242.244;  -23.975; -270.000; -325.000
242.387;  -38.950; -304.000; -246.000
242.530;   42.525;  470.000;  134.000
242.673;  -48.525; -381.000; -309.000
242.815; -106.700; -925.000; -899.000
242.958;  -59.950; -482.000; -381.000
243.101;    7.025;  132.000;  187.000
243.244;  -65.975; -564.000; -521.000
243.387;  -44.625; -313.000; -316.000
243.530;  -85.950; -657.000; -674.000
243.672;   -5.900;   43.000;  -92.000
243.815;  -37.100; -355.000; -283.000
243.958;    3.250;   98.000;  -26.000
244.101;    5.050;   59.000;  -16.000
244.243;  -15.800;  -47.000;  101.000
244.386; -109.800; -761.000; -630.000
244.529;  -15.450; -132.000; -139.000
244.672; -129.125;-1154.000; -951.000
244.814;  -81.825; -621.000; -794.000
244.957;  -54.525; -380.000; -304.000
245.100;  -56.700; -489.000; -489.000
245.242;  -56.775; -387.000; -374.000
245.385;    7.550;  -59.000;  -39.000
245.528; -113.500; -871.000; -705.000
245.670;   83.725;  612.000;  634.000
245.813;  -78.050; -599.000; -547.000
245.956;  -32.375; -324.000; -275.000
246.098;  -73.325; -508.000; -650.000
246.241;    7.425;  194.000;   48.000
246.383;   -0.825; -119.000;  -73.000
246.526;  -82.050; -454.000; -525.000
246.669; -118.425; -889.000; -780.000
246.811;    8.200;  172.000;   -1.000
246.954;  -71.625; -512.000; -426.000
247.096;  -21.325;  -84.000;   -6.000
247.239;  -70.400; -482.000; -445.000
247.381;  -60.375; -647.000; -488.000
247.524;   82.500;  645.000;  679.000
247.666;   -4.425;   58.000;   11.000
247.809; -110.875; -887.000; -691.000
247.951;  -12.150;  -75.000;  138.000
248.094;   27.175;  432.000;  308.000
248.236; -153.900;-1262.000;-1238.000
248.378;  -25.400; -356.000;  -81.000
248.521;  -35.450; -334.000; -337.000
248.663;  -51.100; -236.000; -267.000
248.806;  -23.075; -300.000; -266.000
248.948; -103.600; -886.000; -763.000
249.090;  -57.400; -428.000; -398.000
249.233;  -60.850; -344.000; -381.000
249.375;  -65.100; -474.000; -451.000
249.518;   -8.950;  -83.000; -133.000
249.660;  -17.150; -103.000;    3.000
249.802; -154.100;-1303.000;-1189.000
249.945;  -76.800; -612.000; -540.000
250.087; -103.975; -834.000; -768.000
250.229;  -46.475; -362.000; -480.000
250.371;  -66.650; -494.000; -439.000
250.514;  -47.375; -310.000; -244.000
250.656;  -63.925;   69.000;  102.000
250.798; -110.200; -849.000; -800.000
250.940;  -64.700; -322.000; -322.000
251.083;  -30.025; -335.000; -111.000
251.225;   45.550;  338.000;  310.000
251.367;  -43.750; -274.000; -373.000
251.509;  -51.950; -265.000; -210.000
251.651;  -90.150; -731.000; -671.000
251.794;   62.550;  538.000;  632.000
251.936; -111.700; -821.000; -747.000
252.078;  -80.150; -540.000; -461.000
252.220;  -63.375; -645.000; -477.000
252.362;   53.775;  344.000;  462.000
252.504;  -80.275; -677.000; -584.000
252.646; -115.950; -875.000; -722.000
252.788;  -20.125;   14.000; -128.000
252.931;  -42.400; -257.000; -253.000
253.073;  -44.575; -376.000; -317.000
253.215;  -14.475;  141.000;  122.000
253.357;  -21.900;   82.000; -153.000
253.499;  -54.600; -374.000; -234.000
253.641;  -84.225; -749.000; -594.000
253.783;  -79.050; -609.000; -527.000
253.925;  -84.375; -586.000; -591.000
254.067; -109.025; -744.000; -667.000
254.209;  -27.825; -391.000; -259.000
254.351; -124.500; -865.000; -883.000
254.493;  -68.975; -441.000; -417.000
254.635; -120.625; -936.000; -818.000
254.777;  -90.425; -752.000; -687.000
254.918;  -61.350; -512.000; -430.000
255.060;  -55.475; -551.000; -395.000
255.202;  -47.450; -473.000; -261.000
255.344;  -66.400; -658.000; -455.000
255.486;  -73.075; -471.000; -406.000
255.628;  -98.950; -780.000; -781.000
255.770;  -83.325; -676.000; -536.000
255.912;  -61.625; -559.000; -468.000
256.053;  -67.875; -730.000; -508.000
256.195;  142.100; 1008.000;  903.000
256.337;  -88.550; -861.000; -595.000
256.479;   44.625;  532.000;  416.000
256.621;  -43.075; -394.000; -212.000
256.762;  -83.925; -789.000; -742.000
256.904;   52.550;  485.000;  487.000
257.046;  -40.200; -381.000; -271.000
257.188;  -46.550; -351.000; -264.000
257.329;  -73.250; -525.000; -464.000
257.471;  -99.425; -939.000; -807.000
257.613;  -65.075; -584.000; -498.000
257.755; -135.700;-1073.000; -982.000
257.896;   21.400;  286.000;  392.000
258.038;  -67.875; -403.000; -352.000
258.180;  -33.075; -354.000; -279.000
258.321;  -93.525; -581.000; -457.000
258.463;  -20.225;  -71.000;  133.000
258.605;  -87.250; -562.000; -570.000
258.746; -111.725; -886.000; -772.000
258.888; -137.775;-1026.000;-1020.000
259.029;   12.475;  121.000;   -8.000
259.171;  -88.175; -614.000; -550.000
259.313;   -2.400;  -49.000;  -47.000
259.454;  -74.375; -536.000; -414.000
259.596;  -44.325; -483.000; -390.000
259.737;  -84.475; -590.000; -474.000
259.879;   16.950;  217.000;  311.000
260.020;   81.875;  901.000;  636.000
260.162;  -29.750; -146.000; -253.000
260.303; -114.725; -768.000; -687.000
260.445;  -69.575; -609.000; -613.000
260.586;   18.975;  392.000;  157.000
260.728;  -49.950; -360.000; -248.000
260.869;  -69.100; -350.000; -343.000
261.011;   61.650;  706.000;  537.000
261.152;  -52.750; -479.000; -319.000
261.293;  -66.250; -576.000; -595.000
261.435;  -33.425; -219.000; -184.000
261.576;  -44.525; -455.000; -325.000
261.718;   51.475;  420.000;  470.000
261.859; -104.525; -940.000; -949.000
262.000; -122.150; -951.000;-1016.000
262.142;  -21.700;  -52.000;  -60.000
262.283;  -97.050; -808.000; -691.000
262.424;  -78.900; -666.000; -625.000
262.566; -149.550;-1161.000; -983.000
262.707; -108.175; -840.000; -830.000
262.848; -118.075; -769.000; -726.000
262.990;  -50.900; -362.000; -345.000
263.131;   69.200;  650.000;  681.000
263.272;   -3.600;  -61.000;  -41.000
263.413;  -80.725; -589.000; -561.000
263.555;  -70.175; -669.000; -143.000
263.696;  -86.475; -550.000; -641.000
263.837;  -59.700; -449.000; -551.000
263.978;   -6.475;   -5.000;  -77.000
264.119;  -54.250; -283.000; -264.000
264.261; -109.250; -847.000; -630.000
264.402;  -10.275;   33.000;   40.000
264.543;  -73.375; -509.000; -524.000
264.684;   -9.200;   61.000;  -50.000
264.825;  -67.975; -816.000; -538.000
264.966;   -2.225;  -84.000;  -67.000
265.107; -112.725; -646.000; -670.000
265.248; -117.650; -825.000; -812.000
265.390;   -5.925;  152.000;   -9.000
265.531;  -19.425; -238.000; -107.000
265.672;  -85.700; -557.000; -630.000
265.813;   51.400;  563.000;  439.000
265.954; -143.525; -959.000; -940.000
266.095;  -16.125; -372.000; -322.000
266.236; -108.425; -686.000; -548.000
266.377;  -35.000; -243.000; -297.000
266.518;  -69.325; -619.000; -547.000
266.659;   14.400;  170.000;  268.000
266.800;    7.125;   83.000;   85.000
266.941;  -75.850; -487.000; -478.000
267.082;   17.050;  354.000;   99.000
267.223;  -51.000; -344.000; -273.000
267.364; -109.600; -892.000; -686.000
267.504;  -19.725;    3.000;  135.000
267.645;   -6.075;  160.000;   67.000
267.786;  -30.325; -147.000;  -86.000
267.927;  -76.650; -473.000; -379.000
268.068;  -20.625; -186.000;  -61.000
268.209;  -42.475; -175.000; -413.000
268.350;  -48.400; -388.000; -532.000
268.490;  -75.350; -648.000; -521.000
268.631;   29.275;  127.000;  225.000
268.772;  -99.950; -874.000; -647.000
268.913;  -44.000; -328.000; -476.000
269.054;   -9.700; -117.000;   12.000
269.194;  -45.300; -418.000; -402.000
269.335; -152.325;-1137.000;-1074.000
269.476;   -9.750;   33.000;  -35.000
269.617;  -43.900; -347.000; -392.000
269.757; -100.250; -713.000; -646.000
269.898;  -99.975; -856.000; -613.000
270.039;  -63.450; -415.000; -405.000
270.180; -117.750; -952.000; -816.000
270.320;  -27.450; -190.000; -250.000
270.461;  -37.900; -277.000; -249.000
270.602;  -15.550; -186.000; -156.000
270.742; -127.325; -868.000; -943.000
270.883;  -40.600; -442.000; -390.000
271.023;  -64.925; -358.000; -357.000
271.164;  -80.875; -607.000; -528.000
271.305;  -79.700; -666.000; -654.000
271.445; -101.225; -722.000; -683.000
271.586;  -65.975; -462.000; -283.000
271.726;  -41.875; -397.000; -322.000
271.867;  -79.500; -594.000; -534.000
272.008;   24.375; -473.000; -285.000
272.148;   80.025;  462.000;  468.000
272.289;  -12.775; -113.000; -181.000
272.429;    7.125;   19.000;  185.000
272.570;  -92.025; -633.000; -737.000
272.710;  -93.650; -825.000; -775.000
272.851;  -23.200;  113.000; -130.000
272.991; -152.975;-1173.000;-1077.000
273.131;  -68.025; -419.000; -459.000
273.272;  -92.700; -683.000; -723.000
273.412;    2.350; -143.000;  -31.000
273.553;  -65.450; -488.000; -507.000
273.693;  103.825;  913.000;  858.000
273.834; -108.475; -894.000; -692.000
273.974;  -82.425; -664.000; -615.000
274.114;  -98.475; -772.000; -560.000
274.255;   42.575;  414.000;  373.000
274.395;  -38.400; -180.000; -125.000
274.535;   33.225;  199.000;  350.000
274.676;   12.000;  225.000;   94.000
274.816;   -4.400;  110.000;   34.000
274.956;  -75.175; -624.000; -690.000
275.097; -102.875;-1014.000; -922.000
275.237; -110.600; -913.000; -803.000
275.377;  -90.400; -778.000; -689.000
275.517; -139.750; -878.000; -937.000
275.658;  -66.075; -590.000; -555.000
275.798;  -71.775; -606.000; -413.000
275.938;   13.950;  215.000;  323.000
276.078;  -84.600; -626.000; -395.000
276.218;    4.100;   99.000;  104.000
276.359; -126.950;-1026.000;-1024.000
276.499;  -70.000; -605.000; -446.000
276.639;  -28.575; -305.000; -151.000
276.779;  -54.850; -475.000; -357.000
276.919;  -88.375; -783.000; -624.000
277.059;  -25.750; -261.000; -212.000
277.199;  -37.600; -357.000; -259.000
277.340;   22.125;  287.000;  175.000
277.480;  -98.175; -840.000; -693.000
277.620;   23.775;  192.000;   16.000
277.760; -182.675;-1533.000;-1294.000
277.900;   -1.275;  113.000;   33.000
278.040;   16.800;  137.000;  159.000
278.180;   25.800;  270.000;  170.000
278.320;   -2.350;   21.000;   56.000
278.460;  -67.050; -443.000; -469.000
278.600;  -92.525; -708.000; -598.000
278.740;   40.600;  448.000;  224.000
278.880;  -97.725; -768.000; -791.000
279.020;  -21.125; -194.000; -144.000
279.160;  -79.775; -672.000; -595.000
279.300; -108.350; -926.000; -873.000
279.440; -100.950; -709.000; -622.000
279.579;  -91.125;-1014.000; -929.000
279.719;  -63.275; -410.000; -394.000
279.859;   19.275;   -4.000;   41.000
279.999;  -13.875; -208.000;  101.000
280.139;  -34.150; -435.000; -387.000
280.279;  -84.750; -708.000; -745.000
280.419;   -8.575; -229.000; -147.000
280.559;  -51.725; -259.000; -180.000
280.698;  -94.350; -790.000; -639.000
280.838;  -94.800; -778.000; -800.000
280.978;  -89.425; -846.000; -790.000
281.118;  -96.875; -811.000; -704.000
281.257;   14.400;   24.000;    6.000
281.397; -136.525;-1094.000; -960.000
281.537;  -88.975; -599.000; -712.000
281.677;  -18.225; -150.000; -101.000
281.816;  -76.625; -700.000; -630.000
281.956;  -26.375; -193.000; -257.000
282.096;  -48.775; -539.000; -396.000
282.235;  -88.225; -672.000; -638.000
282.375;   -9.500; -243.000;  -98.000
282.515;  -79.075; -715.000; -707.000
282.654;   31.325;   29.000;  106.000
282.794;   45.825;  388.000;  244.000
282.934;  -32.250; -530.000; -491.000
283.073; -117.600;-1030.000; -857.000
283.213;  -58.750; -460.000; -467.000
283.353;  -39.425; -408.000; -349.000
283.492;  -32.125; -264.000; -296.000
283.632;  -36.825; -254.000; -168.000
283.771;  -86.375; -859.000; -730.000
283.911;  -61.575; -369.000; -260.000
284.050;  -87.325; -794.000; -748.000
284.190; -146.275;-1229.000;-1096.000
284.329; -125.425;-1055.000; -964.000
284.469;  -72.600; -516.000; -591.000
284.608;  -49.125; -559.000; -598.000
284.748;  -67.575; -614.000; -570.000
284.887;  -10.675;  -87.000;  -20.000
285.027; -110.350; -844.000; -892.000
285.166;  -32.225; -192.000; -249.000
285.306;  -11.250; -116.000;  -33.000
285.445;  -46.450; -229.000; -343.000
285.584;  -81.850; -630.000; -494.000
285.724;  -29.775; -282.000; -322.000
285.863; -100.875; -857.000; -507.000
286.002;  -54.950; -366.000; -276.000
286.142;  -92.925; -715.000; -622.000
286.281;  -55.600; -525.000; -493.000
286.420;  -81.125; -554.000; -417.000
286.560;   87.900;  653.000;  623.000
286.699; -126.625; -958.000; -912.000
286.838;  -84.025; -590.000; -591.000
286.978;  -80.050; -533.000; -537.000
287.117; -126.175;-1085.000; -950.000
287.256;  -24.900; -228.000; -211.000
287.395;  -47.425; -197.000; -378.000
287.535;  -53.425; -370.000; -298.000
287.674;  -74.325; -509.000; -484.000
287.813;   47.850;  661.000;  533.000
287.952; -121.550;-1010.000; -871.000
288.091; -134.425;-1049.000; -915.000
288.231;    2.725;   13.000;   15.000
288.370; -144.975;-1217.000;-1200.000
288.509;  -80.175; -728.000; -645.000
288.648;  -77.825; -770.000; -548.000
288.787;  -32.600; -243.000;  -87.000
288.926;  -70.125; -454.000; -475.000
289.065;  117.525;  859.000;  672.000
289.204;  -48.450; -377.000; -217.000
289.344;  -86.000; -791.000; -690.000
289.483;   22.225;  416.000;  304.000
289.622;  -28.950; -291.000; -149.000
289.761;  -16.775; -309.000; -166.000
289.900;  -92.175; -785.000; -626.000
290.039;  -11.250;  -12.000;  -95.000
290.178;  -30.575; -274.000; -180.000
290.317;  -75.625; -618.000; -479.000
290.456;  -56.150; -463.000; -451.000
290.595; -117.600; -961.000; -833.000
290.734; -128.250; -904.000; -891.000
290.873;  -58.175; -456.000; -420.000
291.011; -117.500; -833.000; -843.000
291.150; -100.350; -770.000; -682.000
291.289;  -28.100; -343.000; -110.000
291.428;  -91.275; -599.000; -480.000
291.567;  -52.275; -370.000; -442.000
291.706;   -3.450;  109.000;  154.000
291.845;  -76.600; -597.000; -505.000
291.984; -145.350;-1234.000;-1061.000
292.122;   65.275;  602.000;  582.000
292.261;   38.900;  620.000;  463.000
292.400;   -6.250; -144.000;  211.000
292.539; -122.550; -959.000; -813.000
292.678;  -37.825; -325.000; -300.000
292.816; -152.825;-1136.000; -965.000
292.955;  -92.075; -844.000; -684.000
293.094;  -31.350; -173.000; -337.000
293.233;  -54.675; -556.000; -400.000
293.371;  -42.450; -225.000;  -84.000
293.510; -103.125; -866.000; -780.000
293.649; -119.625; -959.000; -924.000
293.787; -106.300;-1083.000;-1012.000
293.926;   -7.075; -113.000;  -32.000
294.065;  -36.925; -379.000; -290.000
294.203;   42.450;  298.000;  406.000
294.342;   46.400;   74.000;  156.000
294.481; 5378.675;51180.000; -836.000
294.619;  -20.200; -425.000; -582.000
294.758; -140.250;-1230.000;-1137.000
294.896;   11.000; -125.000;    5.000
295.035; -126.275;-1040.000;-1006.000
295.174; -127.450;-1082.000; -954.000
295.312;  -33.700; -323.000; -203.000
295.451;  -24.025; -307.000; -428.000
295.589;  -57.975; -389.000; -518.000
295.728;   14.250; -292.000; -165.000
295.866;  -10.425;  -36.000;  -51.000
296.005;  -60.000; -584.000; -341.000
296.143;  -66.275; -558.000; -596.000
296.282;  -92.975; -957.000; -881.000
296.420;  -72.225; -657.000; -557.000
296.559;  -76.550; -892.000; -633.000
296.697;  -35.400; -847.000; -665.000
296.835;  -68.125;-1141.000;-1002.000
296.974;   54.050;  -23.000;   39.000
297.112;   -5.575; -443.000; -504.000
297.251;  -54.050; -815.000; -755.000
297.389;   -6.000; -576.000; -438.000
297.527;    7.100; -145.000;  -83.000
297.666;  -49.425; -486.000; -438.000
297.804;  -48.050; -404.000; -264.000
297.942;    1.950; -136.000; -161.000
298.081;  -10.575; -183.000;   63.000
298.219;   17.075;  -17.000;  -19.000
298.357;   -9.600; -144.000;  -71.000
298.495;  -67.275; -810.000; -812.000
298.634;   15.425;  245.000;  219.000
298.772;  -20.125; -220.000; -338.000
298.910;  -39.950; -309.000; -182.000
299.048;  -10.900; -130.000; -153.000
299.187;  -43.625; -350.000; -250.000
299.325;   15.575;   52.000;  122.000
299.463;  -28.025; -389.000; -299.000
299.601;    8.700; -327.000; -271.000
299.739; -114.025; -908.000; -883.000
299.877;  -86.725; -791.000; -703.000
300.016; -107.600;-1095.000; -935.000
300.154;   30.850;  -19.000; -161.000
300.292;  -28.025; -428.000; -348.000
300.430;  -25.675; -408.000; -291.000
300.568; -118.075; -940.000; -874.000
300.706;  -34.050; -366.000; -469.000
300.844; -112.400;-1108.000; -979.000
300.982;   69.575;  246.000;  282.000
301.120; -124.000; -965.000; -866.000
301.258;  -82.450; -812.000; -705.000
301.396;    8.400;  104.000;  -41.000
301.534;  -20.575; -218.000; -293.000
301.672;  -85.050; -664.000; -521.000
301.810;  -44.250; -613.000; -545.000
301.948;   52.625;   53.000;  149.000
302.086;  165.100; -250.000;  -32.000
302.224;  186.950; -610.000; -585.000
302.362;  -55.350; -558.000; -622.000
302.500;  -86.525; -923.000; -893.000
302.638;   33.000;  128.000;  245.000
302.776;  -23.250; -352.000; -408.000
302.913;   23.925;  447.000;  236.000
303.051;  -30.250;  -86.000;  -23.000
303.189;   15.150;   90.000;  118.000
303.327;  -38.250; -341.000; -256.000
303.465;  -85.450; -832.000; -588.000
303.603;  -86.875; -805.000; -604.000
303.740;   67.200;  417.000;  241.000
303.878;  -73.725; -800.000; -759.000
304.016; -103.975; -915.000; -790.000
304.154; -137.100;-1123.000;-1152.000
304.291;  -59.525; -505.000; -554.000
304.429;    9.025;  102.000;   74.000
304.567; -119.200; -908.000; -893.000
304.705;  -50.350; -408.000; -515.000
304.842;  -38.325; -616.000; -540.000
304.980;   22.100;  215.000;   35.000
305.118;  -15.125; -367.000; -365.000
305.255; -111.600; -945.000; -927.000
305.393;   37.100;  178.000;  239.000
305.531; -127.875;-1173.000; -956.000
305.668;  -76.075; -663.000; -582.000
305.806;    4.150; -358.000; -439.000
305.943;  -27.675; -629.000; -637.000
306.081;  -20.800; -378.000; -267.000
306.219;  -98.125; -863.000; -748.000
306.356;   24.525;  158.000;   27.000
306.494;  147.225;  981.000;  761.000
306.631;   21.425;  -11.000;  -55.000
306.769;   31.375; -613.000; -485.000
306.906;   13.325; -284.000; -258.000
307.044;  -11.725; -473.000; -488.000
307.181;  -28.350; -410.000; -332.000
307.319;   32.275;  112.000;   87.000
307.456; -145.900;-1191.000;-1153.000
307.594; -100.325; -980.000; -727.000
307.731;  -16.875; -371.000; -164.000
307.868;   -0.025;  -15.000;   20.000
308.006; -107.700; -961.000; -847.000
308.143;  -58.350; -618.000; -330.000
308.281;   59.375;  -37.000; -254.000
308.418;  -35.075; -748.000; -640.000
308.555;  -53.550; -400.000; -250.000
308.693;  -41.900; -577.000; -573.000
308.830;  -74.000; -712.000; -657.000
308.967;    5.075; -215.000;  -95.000
309.105;   12.325; -507.000; -396.000
309.242;   33.100; -468.000; -367.000
309.379;   60.950; -577.000; -655.000
309.517;  -75.750; -936.000; -948.000
309.654;  -56.950; -910.000; -734.000
309.791;  -35.775; -662.000; -580.000
309.928;  -77.750; -977.000; -914.000
310.065;  158.825;  819.000;  697.000
310.203;  -33.575; -825.000; -850.000
310.340;    6.075; -465.000; -321.000
310.477;  -65.975; -412.000; -516.000
310.614;  -27.900; -383.000; -473.000
310.751;  -27.500; -427.000; -518.000
310.889;   -2.350;    1.000;   11.000
311.026; -112.975;-1161.000; -939.000
311.163;  -23.150; -386.000; -380.000
311.300;  -36.850; -512.000; -479.000
311.437;  -35.250; -658.000; -619.000
311.574; -121.350;-1226.000; -985.000
311.711;  -43.900; -595.000; -433.000
311.848;    9.475; -380.000; -388.000
311.985;   48.850;  270.000;   93.000
312.122;  -84.275; -932.000; -762.000
312.259;  -85.075; -941.000; -994.000
312.396;   -7.025; -508.000; -551.000
312.533;  -23.100; -812.000; -790.000
312.670;  -85.300;-1070.000; -898.000
312.807;   16.450; -352.000; -367.000
312.944;  -20.350; -513.000; -611.000
313.081;   24.250; -150.000; -415.000
313.218;  -66.150;-1111.000; -867.000
313.355;    5.500; -531.000; -449.000
313.492;   19.800; -455.000; -292.000
313.629;  147.200;  815.000;  735.000
313.766; -115.575;-1176.000;-1008.000
313.902;    1.250; -186.000;   21.000
314.039;  -25.375; -372.000; -289.000
314.176;   52.175;  286.000;  192.000
314.313;  -46.750; -569.000; -473.000
314.450;  -39.750; -788.000; -684.000
314.587;  -34.350; -468.000; -480.000
314.723;   32.125;  -78.000;  130.000
314.860;   78.725;  318.000;  332.000
314.997;   57.025;  223.000;  142.000
315.134;    0.275; -385.000; -368.000
315.270;    5.025; -480.000; -496.000
315.407;  -80.775;-1094.000; -967.000
315.544;  -21.650; -657.000; -538.000
315.681;  -47.575; -681.000; -565.000
315.817;   61.850; -133.000; -176.000
315.954;   59.300; -613.000; -392.000
316.091; -103.725;-1045.000;-1023.000
316.227;  -12.900;  -71.000; -179.000
316.364;    4.325;   23.000;    6.000
316.500;  -24.650; -113.000; -300.000
316.637;  -30.225; -181.000; -302.000
316.774;  -68.775; -625.000; -358.000
316.910;  -80.275; -598.000; -629.000
317.047;  -46.575; -487.000; -351.000
317.183;  -49.325; -435.000; -566.000
317.320;   43.150; -367.000; -321.000
317.456;  -16.900; -733.000; -805.000
317.593;  -81.275; -598.000; -641.000
317.729;   -4.350;  168.000;  -67.000
317.866; -179.775;-1434.000;-1285.000
318.002;  -71.250; -708.000; -948.000
318.139;  -92.550; -883.000; -867.000
318.275; -107.325;-1003.000; -738.000
318.412;  -68.400; -517.000; -336.000
318.548;  -67.500; -751.000; -720.000
318.685;  -93.200; -985.000; -888.000
318.821;  -88.100; -762.000; -735.000
318.957;   -7.650;   34.000;  -23.000
319.094;   26.675;  297.000;  154.000
319.230;  -75.500; -756.000; -742.000
319.367;   -2.800; -471.000; -520.000
319.503;  -21.475; -538.000; -436.000
319.639;  -93.850; -877.000; -793.000
319.775;  -94.650; -750.000; -685.000
319.912;  -66.100; -424.000; -519.000
320.048;  -93.350;-1184.000;-1184.000
320.184;   95.325;   59.000;   70.000
320.321;  -35.625; -497.000; -467.000
320.457;   91.150;  475.000;  662.000
320.593;  -64.700; -375.000; -382.000
320.729;  -94.325; -732.000; -734.000
320.866;  -69.475; -577.000; -635.000
321.002;  -93.000; -759.000; -809.000
321.138;  -23.250; -135.000; -211.000
321.274;   33.675; -148.000; -115.000
321.410;  -43.350; -585.000; -353.000
321.546;  -86.375;-1011.000; -911.000
321.683;   24.075;  400.000;  185.000
321.819;  -14.525;  -48.000; -117.000
321.955; -111.900; -743.000; -722.000
322.091;  -41.700; -585.000; -540.000
322.227;  -21.400; -382.000; -202.000
322.363;  -40.925; -320.000; -215.000
322.499;  -47.500; -343.000; -331.000
322.635;   90.475;  636.000;  443.000
322.771;   -2.400; -139.000;   12.000
322.907;   35.250;  129.000;  327.000
323.043;  -37.400; -115.000; -206.000
323.179;  -50.000; -394.000; -363.000
323.315;  -28.225; -401.000; -371.000
323.451;   12.275; -328.000; -236.000
323.587;   49.175;  -60.000;  -77.000
323.723;  -59.075; -682.000; -601.000
323.859;  -24.025; -258.000;  -76.000
323.995;  -43.425; -467.000; -409.000
324.131; -110.225; -967.000; -892.000
324.267;  -44.725; -254.000; -276.000
324.402; -131.050; -960.000; -983.000
324.538;  -31.650; -279.000; -104.000
324.674;    8.550;  164.000;   77.000
324.810;   61.750;  226.000;  308.000
324.946;  -38.925; -810.000; -658.000
325.082;  -65.700; -568.000; -475.000
325.217;  -15.975;  -62.000;   16.000
325.353;  -94.550; -764.000; -659.000
325.489;  -82.450; -540.000; -506.000
325.625;  -64.400; -579.000; -525.000
325.760;   85.325;  517.000;  376.000
325.896;   23.525; -515.000; -702.000
326.032;  -47.975; -403.000; -352.000
326.168;  -53.075; -462.000; -369.000
326.303;  -55.975; -352.000; -461.000
326.439;   -7.250; -336.000; -276.000
326.575;   -7.025; -190.000;  -29.000
326.710;   -3.075; -156.000;  -30.000
326.846;  -10.800;  146.000;  103.000
326.982;  -82.775; -530.000; -548.000
327.117;  -60.200; -481.000; -442.000
327.253;  -64.475; -745.000; -742.000
327.388; -155.425;-1137.000;-1153.000
327.524;  -78.800; -811.000; -578.000
327.659;  -28.375;  -58.000;  -22.000
327.795;   -9.525;   69.000;   45.000
327.931;  -68.225; -723.000; -499.000
328.066;  -22.625; -417.000; -276.000
328.202;  -26.425;   12.000; -129.000
328.337;   85.800;  957.000;  713.000
328.473;   39.350;  -12.000;  -74.000
328.608;  -13.800; -256.000; -267.000
328.743;  -90.325; -799.000; -664.000
328.879;   21.550;  214.000;  114.000
329.014;  -23.475; -102.000; -122.000
329.150;  -67.025; -358.000; -483.000
329.285;  -76.550; -465.000; -466.000
329.421;  -33.800; -548.000; -246.000
329.556;   -0.150;  -36.000;   85.000
329.691;  -85.025; -633.000; -615.000
329.827;  -65.950; -626.000; -480.000
329.962;  -25.375;  131.000; -301.000
330.097;  -59.725; -673.000; -585.000
330.233;  -22.150; -410.000; -223.000
330.368;  -90.150; -839.000; -628.000
330.503;  -16.875;    3.000;   98.000
330.638;   -1.750;  -93.000; -125.000
330.774;  -71.475; -609.000; -530.000
330.909;  -50.325; -434.000; -244.000
331.044;  -84.275; -714.000; -708.000
331.179; -149.300;-1217.000;-1109.000
331.315;   14.350;   77.000;   20.000
331.450;   18.225;  157.000;  285.000
331.585;  -86.600; -805.000; -706.000
331.720;  -72.675; -510.000; -460.000
331.855;    5.925;  -35.000; -102.000
331.990;  422.375;   62.000;  138.000
332.126;  213.675; -110.000;   71.000
332.261;   18.450; -379.000; -265.000
332.396;   24.850; -135.000; -242.000
332.531;  -46.325;-1074.000;-1031.000
332.666;   93.400; -519.000; -363.000
332.801;  -93.050; -726.000; -807.000
332.936;  -22.900; -192.000; -122.000
333.071; -148.700; -870.000; -817.000
333.206;   20.675;  307.000;  379.000
333.341;   28.925;  344.000;  418.000
333.476;  -55.475; -627.000; -623.000
333.611;  -29.450; -251.000; -173.000
333.746;  -48.350; -381.000; -464.000
333.881;  -98.950; -973.000; -935.000
334.016; -118.700; -936.000; -917.000
334.151; -116.875; -746.000; -702.000
334.286;   24.050;  152.000;  186.000
334.421;  -15.350; -125.000; -178.000
334.556;  -64.425; -611.000; -567.000
334.690;  -64.475; -631.000; -577.000
334.825;   55.425;  381.000;   83.000
334.960;  -35.925; -285.000; -413.000
335.095;   12.975;  135.000;  -91.000
335.230;  -78.425; -722.000; -738.000
335.365; -121.100;-1084.000; -990.000
335.499; -117.400;-1108.000;-1037.000
335.634;   20.875;    9.000;  534.000
335.769;  -81.000; -755.000; -720.000
335.904;  -38.150; -603.000; -561.000
336.038;  -30.650; -735.000; -657.000
336.173;  -98.400;-1206.000;-1194.000
336.308;   17.175; -116.000; -189.000
336.443;   75.750; -544.000; -634.000
336.577;  -32.975; -936.000; -787.000
336.712;   89.800;   -4.000;  -12.000
336.847;  -13.625; -724.000; -607.000
336.981;   63.175; -272.000; -208.000
337.116;  290.375;  615.000;  501.000
337.250;  138.575; -434.000; -421.000
337.385;  432.650; -297.000; -208.000
337.520;  222.475; -632.000; -603.000
337.654;  -30.575; -215.000; -126.000
337.789; -116.650; -989.000; -933.000
337.923;  -48.950; -104.000; -205.000
338.058;  -98.025; -673.000; -738.000
338.192;  -48.600; -611.000; -488.000
338.327;  -10.500;  -18.000; -155.000
338.461;  -58.125; -299.000; -469.000
338.596;  -69.575; -780.000; -638.000
338.730;  -77.200; -767.000; -803.000
338.865;  163.875;  -46.000; -140.000
338.999;   14.175; -846.000; -702.000
339.134;   16.975; -634.000; -536.000
339.268;   50.125; -741.000; -603.000
339.403;  569.375; -740.000; -775.000
339.537;  272.025; -894.000; -820.000
339.671;  -80.250; -829.000; -813.000
339.806;  -16.625; -556.000; -512.000
339.940;   33.625; -261.000; -235.000
340.074;  -97.475; -685.000; -510.000
340.209;  -46.225; -351.000; -230.000
340.343;  -81.425; -517.000; -573.000
340.477;  138.725;  998.000; 1036.000
340.612;    5.550;-1033.000; -900.000
340.746;  227.325; -199.000; -243.000
340.880;  -86.425; -924.000; -785.000
341.014;  -30.925;  -45.000; -154.000
341.149;  -96.700; -756.000; -718.000
341.283;  -88.725; -839.000; -754.000
341.417; -129.550;-1124.000; -938.000
341.551;  -43.400; -768.000; -708.000
341.685;  -46.900; -633.000; -611.000
341.820;  -52.625; -562.000; -493.000
341.954;  -41.700; -218.000; -349.000
342.088; -130.550;-1102.000;-1019.000
342.222;   52.150;  565.000;  618.000
342.356;  -81.725; -395.000; -335.000
342.490; -107.650; -880.000; -841.000
342.624;  -56.300; -339.000; -242.000
342.758;  -42.250; -364.000; -312.000
342.892; -100.175; -710.000; -585.000
343.026;  -46.825;  -58.000; -116.000
343.160;  -65.675; -426.000; -376.000
343.294;  -78.150; -474.000; -337.000
343.428;  -57.925; -488.000; -448.000
343.562;  -25.525; -172.000;  -23.000
343.696;  -58.225; -385.000; -314.000
343.830;  -54.550; -362.000; -356.000
343.964;  -30.950; -231.000; -168.000
344.098;  261.775;  199.000;   70.000
344.232;  218.325; -266.000; -127.000
344.366;   59.675; -567.000; -453.000
344.500;  -39.525; -665.000; -744.000
344.634;  -33.025; -324.000; -164.000
344.768;  -46.550; -531.000; -341.000
344.902;   13.850;  278.000;  256.000
345.035;  -65.975; -556.000; -496.000
345.169; -129.425; -933.000; -656.000
345.303;  -45.950; -308.000; -482.000
345.437; -102.550; -826.000; -717.000
345.571;  -57.875; -675.000; -594.000
345.704;  -63.625; -309.000; -532.000
345.838;  -23.550; -331.000; -284.000
345.972;  -50.675; -543.000; -495.000
346.106;  249.700; -179.000; -190.000
346.239;  484.375; -312.000; -243.000
346.373;    3.875; -343.000; -302.000
346.507; -121.750; -950.000; -962.000
346.640;   37.100;  -30.000;   13.000
346.774;  -90.825; -650.000; -797.000
346.908;  -17.100; -138.000;  -11.000
347.041;  -88.150; -646.000; -593.000
347.175;   -3.250;  259.000;   27.000
347.309;  -92.825; -698.000; -628.000
347.442;  -98.625; -883.000; -732.000
347.576;  123.250;  670.000;  668.000
347.709;   42.150; -123.000;  -52.000
347.843; -105.525; -933.000; -825.000
347.976;   36.725;  235.000;  294.000
348.110; -152.625;-1268.000;-1186.000
348.243;  -91.025; -679.000; -772.000
348.377;   13.725;  -26.000;   60.000
348.510;   65.275;  403.000;  540.000
348.644;  -26.825;  -37.000; -159.000
348.777;    8.775;  180.000;  191.000
348.911;  -29.850; -142.000; -112.000
349.044;   85.100;  471.000;  448.000
349.178;  -19.525;-1069.000;-1006.000
349.311;  105.925;  141.000;  255.000
349.444;   26.800; -927.000; -813.000
349.578;  -27.000; -347.000; -200.000
349.711; -119.850; -959.000; -862.000
349.845;  -56.525; -661.000; -591.000
349.978; -150.550;-1224.000;-1137.000
350.111;  -69.550; -546.000; -612.000
350.244;  -82.825; -596.000; -700.000
350.378;  -56.950; -392.000; -393.000
350.511;  -74.550; -393.000; -426.000
350.644; -101.100; -808.000; -806.000
350.778;   14.050;  168.000;  104.000
350.911;    2.850;  134.000;  140.000
351.044;  -90.425; -685.000; -615.000
351.177;  -33.575; -321.000; -281.000
351.310;  -16.500;    3.000; -131.000
351.444; -108.375; -888.000; -788.000
351.577;   48.100;  140.000;   90.000
351.710;   75.625;  593.000;  417.000
351.843;  -40.775; -165.000;  -77.000
351.976;   -8.150;  149.000;  -79.000
352.109;  -93.800; -621.000; -612.000
352.242;  -50.150; -464.000; -419.000
352.376;  -66.300; -580.000; -636.000
352.509;    6.800; -437.000; -356.000
352.642; -101.275; -654.000; -604.000
352.775;    2.600; -141.000;  -98.000
352.908; -113.350; -933.000; -904.000
353.041;  -91.925; -814.000; -824.000
353.174;  -54.550; -551.000; -424.000
353.307;  -77.375; -753.000; -764.000
353.440;   50.200;  541.000;  453.000
353.573;  -83.250; -957.000;-1008.000
353.706;  -35.750; -384.000; -558.000
353.839;  -38.725; -264.000; -220.000
353.971;  -92.675; -657.000; -512.000
354.104; -114.000; -896.000; -835.000
354.237;  -70.200; -627.000; -662.000
354.370; -102.125; -846.000; -879.000
354.503; -168.425;-1231.000;-1308.000
354.636;   -5.200; -529.000; -348.000
354.769; -119.350; -937.000; -860.000
354.902;   -8.225; -230.000; -139.000
355.034;  -20.075; -164.000; -220.000
355.167;   -1.850; -262.000; -162.000
355.300;  -62.500;-1061.000; -880.000
355.433; 1478.875;  -71.000;  -14.000
355.565; 2345.325; -402.000; -384.000
355.698;  633.775; -356.000; -296.000
355.831;   10.050; -882.000; -801.000
355.964;   31.175; -285.000; -170.000
356.096;  -65.950; -856.000; -843.000
356.229;   14.250; -523.000; -530.000
356.362;  528.275; -373.000; -266.000
356.494;  937.075; -229.000; -162.000
356.627;  351.225;  269.000;  377.000
356.760;  894.750;  120.000;   53.000
356.892; 1548.125; -286.000; -601.000
357.025;  334.125;  403.000;  389.000
357.157;  249.025; -167.000; -179.000
357.290; 1128.225; -856.000; -713.000
357.423;  356.875; -667.000; -556.000
357.555;   92.475; -217.000; -228.000
357.688;  135.375; -483.000; -364.000
357.820;  139.025; -870.000; -877.000
357.953; 1245.075; -563.000; -589.000
358.085;  195.975; -632.000; -612.000
358.218;  137.075;-1131.000; -932.000
358.350;   51.775;  -58.000;  312.000
358.483; -147.525;-1300.000;-1187.000
358.615; -125.300;-1182.000;-1078.000
358.747; -144.825;-1187.000;-1058.000
358.880;  -41.875; -810.000; -744.000
359.012;  -24.775; -376.000; -202.000
359.145;  -54.425; -480.000; -511.000
359.277;  -53.700; -962.000; -913.000
359.409; 1052.750;  536.000;  231.000
359.542;  223.975; -738.000; -688.000
359.674;   31.950;   46.000;   13.000
359.806;  -62.200; -565.000; -438.000
359.939;  -33.325; -617.000; -516.000
360.071;   34.225; -583.000; -579.000
360.203;  -15.375; -411.000; -364.000
360.335;   34.550;  164.000;  -16.000
360.468;   82.175; -249.000; -307.000
360.600; 1174.850; -547.000; -454.000
360.732; 4061.425; -546.000; -423.000
360.864;  638.550;-1216.000;-1044.000
360.996;   84.075; -516.000; -554.000
361.129;  -39.650; -389.000; -598.000
361.261;    3.975;  110.000; -113.000
361.393;  -36.900; -252.000; -214.000
361.525;    8.250;   94.000;  244.000
361.657;  -98.250; -821.000; -703.000
361.789;  -33.825; -139.000; -155.000
361.921;  -34.475; -642.000; -593.000
362.053;   82.375;  524.000;  541.000
362.185;   10.125;  288.000;   72.000
362.318; -107.250; -709.000; -705.000
362.450;   49.650;  294.000;  444.000
362.582;  -66.375; -913.000; -870.000
362.714;  -52.350; -353.000; -332.000
362.846;  -80.025; -606.000; -490.000
362.978; -132.375; -941.000; -811.000
363.109;  -20.750; -161.000; -260.000
363.241;  152.975; -739.000; -749.000
363.373;  686.225; -649.000; -564.000
363.505; 1052.525; -186.000;  -91.000
363.637;  237.600; -787.000; -601.000
363.769; -130.425;-1067.000;-1080.000
363.901;  -70.500; -596.000; -654.000
364.033; -141.075;-1103.000;-1062.000
364.165;  -28.750; -283.000; -283.000
364.296;  100.125; -316.000; -177.000
364.428;  201.725;-1344.000;-1220.000
364.560;  -56.975; -679.000; -661.000
364.692;  -60.200; -738.000; -835.000
364.824;   -4.925; -588.000; -456.000
364.955;  495.800; -402.000; -564.000
365.087; 1627.050;-1097.000; -852.000
365.219;  109.050; -686.000; -816.000
365.351;  -57.125; -526.000; -572.000
365.482;   18.125;  300.000;  240.000
365.614;  -60.300; -402.000; -314.000
365.746;  -99.500; -729.000; -752.000
365.877;  -76.900; -706.000; -672.000
366.009;  413.725;  -35.000;  -62.000
366.141;  -11.500;-1249.000;-1134.000
366.272;  -91.975; -803.000; -719.000
366.404; -108.275;-1005.000; -874.000
366.535;  -11.550; -139.000;  -12.000
366.667; -100.950; -644.000; -649.000
366.799;   32.600;  353.000;  203.000
366.930; -111.675; -862.000; -996.000
367.062;  197.300; -639.000; -613.000
367.193;  370.925; -872.000; -842.000
367.325;  -29.075; -580.000; -684.000
367.456;   13.825; -246.000;   31.000
367.588;  270.800; -371.000; -318.000
367.719;   63.000;  -44.000;  -45.000
367.851;  -32.800; -222.000; -241.000
367.982;  -98.750; -875.000; -732.000
368.113;  -13.450; -475.000; -358.000
368.245; -135.825; -960.000; -841.000
368.376;  -44.050; -254.000; -302.000
368.508;  -46.700; -188.000; -263.000
368.639; -145.250;-1166.000;-1034.000
368.770;  -78.325; -670.000; -589.000
368.902; -102.050; -836.000; -926.000
369.033; -104.000; -906.000; -855.000
369.164;  -24.550; -720.000; -653.000
369.296;  -85.900; -452.000; -601.000
369.427;  -32.725; -209.000; -144.000
369.558;  -69.975; -593.000; -377.000
369.689;  -78.950; -721.000; -569.000
369.821; -120.625; -951.000; -845.000
369.952;  -13.275;   42.000; -108.000
370.083;  -45.025; -229.000; -108.000
370.214;  -97.425; -735.000; -650.000
370.345;  -17.725;   65.000;   81.000
370.477; -101.200; -810.000; -790.000
370.608;   36.275; -328.000; -264.000
370.739; -111.050;-1233.000;-1292.000
370.870; -110.300;-1102.000; -923.000
371.001;  -19.525; -378.000; -467.000
371.132;  -91.825; -754.000; -735.000
371.263;  -18.225;  -42.000; -148.000
371.394; -111.000; -841.000; -748.000
371.525;   12.400;  345.000;  225.000
371.657; -105.675; -808.000; -670.000
371.788;   31.425;  103.000;  199.000
371.919;   21.950; -384.000; -304.000
372.050; 1085.400;  -91.000; -156.000
372.181;  320.600; -188.000; -294.000
372.311;  110.900;   42.000; -127.000
372.442;  -40.775; -457.000; -451.000
372.573;  -45.675; -444.000; -340.000
372.704; -128.350;-1008.000; -980.000
372.835;  -17.375; -228.000; -289.000
372.966;  -75.375; -646.000; -554.000
373.097;  -77.625; -575.000; -711.000
373.228;  -90.550; -717.000; -542.000
373.359;  -38.800; -824.000; -536.000
373.490;  151.350; -881.000; -727.000
373.620;  216.450;-1001.000; -803.000
373.751;  469.050; -332.000; -396.000
373.882;  206.175; -663.000; -733.000
374.013;  -19.825; -449.000; -262.000
374.143;  -79.650; -581.000; -659.000
374.274; -120.525; -987.000; -908.000
374.405;   45.800; -388.000; -276.000
374.536;   98.000; -526.000; -387.000
374.666;  260.550; -759.000; -807.000
374.797;  -13.900; -817.000; -868.000
374.928;  171.800; -710.000; -560.000
375.058;  175.175; -535.000; -500.000
375.189;    4.575;  -59.000;  -93.000
375.320; -115.225; -928.000;-1034.000
375.450;  -46.350; -625.000; -616.000
375.581;  -38.750; -526.000; -436.000
375.712;  -43.075; -574.000; -250.000
375.842;   17.900; -438.000; -415.000
375.973;  -11.850; -554.000; -513.000
376.103; -101.925; -665.000; -648.000
376.234;  -81.500; -531.000; -552.000
376.364; -105.975; -944.000; -867.000
376.495;  155.025;  925.000;  529.000
376.625;  -45.200; -472.000; -485.000
376.756;  -45.350; -709.000; -678.000
376.886; -130.925;-1178.000;-1026.000
377.017;  162.775;-1048.000;-1061.000
377.147;  673.400; -786.000; -782.000
377.278;  106.450;  174.000;  228.000
377.408; -113.600; -801.000; -815.000
377.538;  -75.700; -707.000; -693.000
377.669;  -70.050; -537.000; -613.000
377.799;  -98.675; -645.000; -635.000
377.929;  -72.275; -610.000; -428.000
378.060; -113.850; -781.000; -847.000
378.190;   -6.575; -726.000; -531.000
378.320;  -37.200; -401.000; -406.000
378.451;   -3.625; -131.000;  -22.000
378.581;  -24.925;  -67.000; -110.000
378.711;   99.800; 1035.000;  866.000
378.841;  -61.725; -533.000; -675.000
378.972; -101.900; -871.000; -751.000
379.102;  -41.225; -652.000; -579.000
379.232;  -32.925; -126.000;  -73.000
379.362; -103.075;-1001.000; -885.000
379.492;  -58.400; -373.000; -424.000
379.623;   44.600;    0.000;  111.000
379.753;  -95.650;-1107.000; -974.000
379.883;   65.800;   59.000;  156.000
380.013;  -77.000;-1081.000;-1017.000
380.143; -105.400;-1097.000;-1056.000
380.273;  -94.875; -985.000; -861.000
380.403;   18.125; -344.000; -257.000
380.533;  -35.100; -651.000; -664.000
380.663;   34.650;  173.000;  128.000
380.793; -134.575;-1027.000;-1074.000
380.923;  -34.975; -103.000;  -34.000
381.053;  -89.000; -613.000; -623.000
381.183;  -30.400; -106.000; -248.000
381.313;  -51.275; -656.000; -470.000
381.443;  -40.825; -692.000; -473.000
381.573;  -17.650; -402.000; -409.000
381.703;  -73.125;-1249.000;-1095.000
381.833; -160.975;-1454.000;-1336.000
381.963;   44.400; -134.000;  -87.000
382.093;  311.350; -925.000; -909.000
382.223;   85.650; -713.000; -602.000
382.353;  -76.225; -801.000; -608.000
382.482;    9.300;-1091.000; -964.000
382.612;  155.525; -872.000; -644.000
382.742;   82.775; -695.000; -622.000
382.872;   -8.550; -565.000; -551.000
383.002;   35.625;  347.000; -132.000
383.131;  -28.925; -226.000; -160.000
383.261;  -26.100; -706.000; -768.000
383.391;  323.750; -552.000; -377.000
383.521; 4874.400;  451.000;  263.000
383.650; 1518.750; -947.000; -904.000
383.780;   62.600; -783.000; -656.000
383.910;  112.800;  880.000;  802.000
384.039;  -61.900; -794.000; -656.000
384.169;  -87.750;-1205.000;-1017.000
384.299;  -71.950; -650.000; -662.000
384.428;  -97.050; -764.000; -680.000
384.558;  -58.125; -308.000; -275.000
384.687;  -63.800; -414.000; -334.000
384.817;   -1.425;   75.000;   -2.000
384.947;  -24.525; -234.000; -141.000
385.076;  181.500;  982.000;  912.000
385.206;   70.625;  369.000;  480.000
385.335;  -60.575; -549.000; -417.000
385.465;  -74.075; -655.000; -663.000
385.594;   28.275;  -53.000;  -44.000
385.724;   40.050; -868.000; -838.000
385.853;   -1.325; -296.000; -270.000
385.982;  299.250; -743.000; -787.000
386.112;  574.325;-1052.000; -871.000
386.241;   15.825; -307.000; -312.000
386.371;  -13.000; -174.000;  -87.000
386.500;  -51.700; -825.000; -789.000
386.629;    5.025; -874.000; -817.000
386.759;   81.400;  -43.000;   68.000
386.888;    0.225; -170.000; -250.000
387.017;  -69.250; -648.000; -620.000
387.147;  -73.775; -771.000; -798.000
387.276;  -43.350; -410.000; -397.000
387.405;  -32.700; -398.000; -342.000
387.535;  -63.050; -452.000; -361.000
387.664;  -62.100; -692.000; -620.000
387.793;   -7.300; -198.000; -113.000
387.922;  157.575;  255.000;  200.000
388.052;  -45.350; -576.000; -423.000
388.181;  -38.525; -342.000; -472.000
388.310;  -73.875; -889.000; -710.000
388.439;  -80.275; -749.000; -742.000
388.568;   52.175;  365.000;  244.000
388.697;  226.875; -756.000; -653.000
388.826;    4.175; -768.000; -666.000
388.956;  -14.800; -285.000; -307.000
389.085;  -41.850; -347.000; -287.000
389.214;  -92.075; -842.000; -872.000
389.343;  -48.375; -645.000; -413.000
389.472;  568.975;  126.000;  149.000
389.601;  656.300;   91.000;    0.000
389.730;    7.550; -568.000; -687.000
389.859;   43.975;  226.000;   46.000
389.988;   45.400; -423.000; -408.000
390.117;   40.725; -168.000; -146.000
390.246;  -33.025; -331.000; -320.000
390.375;  -43.075; -673.000; -626.000
390.504;  -76.625; -703.000; -621.000
390.633; -110.700; -672.000; -726.000
390.761;  -87.850; -732.000; -645.000
390.890;  -11.550;   -4.000; -130.000
391.019;  -59.050; -421.000; -441.000
391.148; -104.650; -826.000; -855.000
391.277;  -68.300; -576.000; -493.000
391.406;  -96.300; -821.000; -805.000
391.534;   23.425;  574.000; -301.000
391.663;  -76.100; -583.000; -645.000
391.792;  -82.850; -673.000; -701.000
391.921;    4.525;   -3.000;   15.000
392.050;   10.125; -287.000; -228.000
392.178; -113.825;-1206.000;-1061.000
392.307;  -31.500; -758.000; -712.000
392.436;  -47.625; -427.000; -641.000
392.564;   16.150;  166.000;   -6.000
392.693;  -88.600; -860.000; -682.000
392.822;   10.525; -529.000; -534.000
392.950;  -31.575; -880.000; -714.000
393.079;   72.825; -188.000; -328.000
393.208;  -38.425; -488.000; -511.000
393.336;  -10.325; -170.000; -145.000
393.465;  -37.175; -317.000; -199.000
393.593;   18.900;   62.000;   79.000
393.722; -116.675;-1121.000; -916.000
393.850;   -9.125; -188.000;  -61.000
393.979; -123.600; -926.000; -805.000
394.107;  -50.275; -517.000; -537.000
394.236;  -32.950; -570.000; -507.000
394.364;  118.600;  383.000;  206.000
394.493;   71.550; -911.000; -767.000
394.621;   12.325; -955.000; -916.000
394.750; 1203.050; -873.000; -923.000
394.878; 4562.650; -247.000; -149.000
395.007; 6800.475; -721.000; -807.000
395.135;  653.950; -790.000; -721.000
395.263;  -16.850;-1038.000;-1040.000
395.392;   19.600;  -25.000; -107.000
395.520; -117.200; -818.000; -679.000
395.648; -111.725; -865.000; -915.000
395.777;  -61.875; -366.000; -405.000
395.905;  -72.400; -449.000; -564.000
396.033;    0.100;  217.000;  172.000
396.162;   74.725; -399.000; -453.000
396.290;   84.600;  -17.000;   -2.000
396.418;  -47.650; -555.000; -514.000
396.546;  -90.200; -571.000; -466.000
396.674; -117.525; -850.000; -878.000
396.803;  -12.450;  -72.000;  -23.000
396.931;  -39.625; -179.000; -199.000
397.059; -110.875;-1026.000; -989.000
397.187; -129.425;-1026.000; -975.000
397.315; -127.325; -884.000; -649.000
397.443;  -92.600; -592.000; -443.000
397.572;  -85.950; -578.000; -424.000
397.700;  -66.775; -607.000; -614.000
397.828;  -20.250;  120.000;  -90.000
397.956;  -25.075; -508.000; -478.000
398.084;  -23.000; -767.000; -626.000
398.212;   16.750;  137.000;  124.000
398.340;  -20.100;  -56.000;  159.000
398.468;  -43.000; -390.000; -169.000
398.596; -135.775; -993.000; -953.000
398.724; -111.075; -762.000; -767.000
398.852; -149.125;-1024.000; -976.000
398.980;  -90.925; -560.000; -560.000
399.108;  -97.550; -982.000; -735.000
399.236;   -9.125;   13.000;    8.000
399.363;   -7.775;  222.000;  196.000
399.491;  -61.300; -404.000; -398.000
399.619; -107.650; -829.000; -800.000
399.747; -103.250; -859.000; -771.000
399.875;   40.700;  220.000;  234.000
400.003;  -61.050; -359.000; -284.000
400.130;  -88.250; -421.000; -341.000
400.258;  -33.200;  -83.000;   38.000
400.386;  -60.275; -352.000; -168.000
400.514;  -77.675; -526.000; -587.000
400.641; -118.700; -928.000; -802.000
400.769; -136.450; -979.000; -888.000
400.897; -124.075; -838.000; -793.000
401.025;  -39.075; -166.000; -152.000
401.152;  -10.625;  220.000;   38.000
401.280;  -77.825; -430.000; -429.000
401.408; -117.625; -712.000; -576.000
401.535; -101.200; -735.000; -758.000
401.663; -170.925;-1134.000;-1054.000
401.790;  -82.975; -514.000; -525.000
401.918;   19.475;  436.000;  405.000
402.046;   -4.125;  134.000;  122.000
402.173;  -18.850;  -18.000;    7.000
402.301;  -62.925; -519.000; -397.000
402.428;   32.875;  528.000;  383.000
402.556; -141.500;-1188.000; -913.000
402.683;  -17.650;  -20.000;   -1.000
402.811;  -20.125;  -37.000; -206.000
402.938;   -0.150;   20.000;   27.000
403.066;   -5.725; -574.000; -558.000
403.193;  111.175;  299.000;  239.000
403.321;   79.050; -396.000; -574.000
403.448;  142.550;   83.000;   27.000
403.575;   54.450;  -90.000;  -46.000
403.703;  -85.500; -732.000; -557.000
403.830;  -41.150; -531.000; -496.000
403.957;  -89.775;-1117.000;-1023.000
404.085;   53.925;  -61.000; -172.000
404.212;  146.350;  -50.000;   63.000
404.339;  471.050; -566.000; -306.000
404.467; 9197.400; -612.000; -524.000
404.594; 5786.675; -287.000; -227.000
404.721; 1020.175; -869.000; -764.000
404.848;  125.975; -113.000; -202.000
404.976;  -83.375; -856.000; -783.000
405.103;   24.875;  -14.000;  -82.000
405.230;   15.950;  190.000;  226.000
405.357;   84.025;  117.000;   44.000
405.484;  452.825;  -49.000;    5.000
405.612;  145.525; -548.000; -563.000
405.739;  -49.950; -488.000; -243.000
405.866;   93.800;  669.000;  385.000
405.993;  -33.900; -398.000; -102.000
406.120; -126.275; -801.000; -887.000
406.247;  -60.775; -323.000; -342.000
406.374;  129.450;  540.000;  629.000
406.501;  -57.150; -632.000; -702.000
406.628;  -92.025; -621.000; -589.000
406.755; -105.725; -803.000; -620.000
406.882;  -41.550; -228.000; -277.000
407.009;  -92.200; -719.000; -628.000
407.136;  -37.400; -480.000; -401.000
407.263;  -10.225; -939.000; -829.000
407.390;  -74.350; -692.000; -614.000
407.517; -177.675;-1139.000;-1187.000
407.644;  -62.950; -332.000; -256.000
407.771;  -56.250; -249.000; -287.000
407.898;    3.825;  168.000;  328.000
408.025;  -56.775; -421.000; -313.000
408.151;   -1.125;   82.000;  153.000
408.278;  -47.600; -267.000; -216.000
408.405; -125.700; -931.000; -899.000
408.532;  -82.325; -549.000; -542.000
408.659; -112.450; -677.000; -648.000
408.785; -174.525;-1298.000;-1170.000
408.912;  -63.150; -412.000; -296.000
409.039; -111.875; -610.000; -686.000
409.166;  -79.625; -591.000; -555.000
409.292; -103.925; -571.000; -534.000
409.419;  -96.425; -665.000; -649.000
409.546;  -76.075; -431.000; -192.000
409.672;  -99.875; -713.000; -545.000
409.799;  -25.175;  -36.000;   34.000
409.926;  -56.650; -180.000; -179.000
410.052; -176.475;-1127.000;-1091.000
410.179;  -60.775; -368.000; -392.000
410.305;  -75.025; -375.000; -493.000
410.432;  -11.250; -220.000; -333.000
410.558;  -87.850; -305.000; -380.000
410.685;  -99.825; -688.000; -431.000
410.812; -103.875; -409.000; -588.000
410.938; -130.800; -964.000; -808.000
411.065; -104.475; -671.000; -645.000
411.191;  -44.800; -189.000; -174.000
411.317; -120.250; -823.000; -742.000
411.444;  -57.625; -317.000; -246.000
411.570;  -62.875; -339.000; -294.000
411.697; -109.650; -758.000; -752.000
411.823; -160.175; -989.000; -999.000
411.949;  -41.375;  -56.000;   17.000
412.076; -105.725; -539.000; -519.000
412.202; -112.275; -758.000; -757.000
412.329; -127.400; -798.000; -752.000
412.455; -122.025; -821.000; -657.000
412.581;  -23.150;  -15.000;  172.000
412.707;  -94.500; -540.000; -457.000
412.834;   -4.250;  156.000;  219.000
412.960; -103.675; -785.000; -784.000
413.086; -102.275; -743.000; -701.000
413.212;  142.500;  604.000;  578.000
413.339;  -72.375; -685.000; -701.000
413.465;  -58.025; -364.000; -310.000
413.591;  -98.675; -757.000; -474.000
413.717;  -55.625; -358.000; -366.000
413.843; -124.400; -839.000; -861.000
413.969;  -51.100;  -47.000; -292.000
414.096;  -87.950; -679.000; -679.000
414.222;   -0.025;  -33.000;   85.000
414.348;  -66.825; -652.000; -385.000
414.474;    5.175;   38.000;  -52.000
414.600;  -15.800; -126.000; -144.000
414.726;    9.775;  -96.000;  -55.000
414.852;  -28.975; -365.000; -342.000
414.978;   51.875;  104.000;  -18.000
415.104;   72.525;   38.000;   80.000
415.230;   53.475; -329.000; -330.000
415.356;   72.175; -409.000; -514.000
415.482;  250.225;   13.000;  -35.000
415.608;  447.875; -247.000; -323.000
415.734; 1432.050;   67.000;   38.000
415.860;28834.975; -875.000; -767.000
415.986;24393.675; -685.000; -607.000
416.111; 2303.950; -798.000; -652.000
416.237;  507.475; -424.000; -571.000
416.363; 1708.175; -765.000; -733.000
416.489; 6976.425; -324.000; -251.000
416.615;  982.775; -707.000; -742.000
416.741;   77.250; -677.000; -784.000
416.866;  -41.475; -673.000; -736.000
416.992;  -81.200; -801.000; -818.000
417.118;   -1.725;  -41.000;  -80.000
417.244;  -58.600; -798.000; -531.000
417.369;  -57.175; -801.000; -612.000
417.495;   10.475; -325.000; -254.000
417.621;  -58.300;-1015.000; -803.000
417.746;   25.000; -579.000; -572.000
417.872;  109.800; -254.000; -144.000
417.998;  154.525; -515.000; -530.000
418.123; 1594.800;-1073.000; -845.000
418.249; 8930.525; -512.000; -601.000
418.374; 1594.850; -916.000; -824.000
418.500;  260.350; -383.000; -482.000
418.626;  210.700;   70.000;  -59.000
418.751;  194.825; -549.000; -448.000
418.877;  343.250; -637.000; -643.000
419.002; 2612.425; -688.000; -560.000
419.128;20174.500; -930.000; -721.000
419.253; 5865.900; -967.000; -837.000
419.379;  827.300; -391.000; -338.000
419.504;  624.550;  325.000;  415.000
419.629;  872.450; -393.000; -212.000
419.755; 5361.300; -317.000; -254.000
419.880;35216.925;  -98.000;   67.000
420.006;18020.000; -280.000; -221.000
420.131;45079.275; -662.000; -775.000
420.256; 7491.525; -315.000; -316.000
420.382; 1050.300; -665.000; -687.000
420.507;  196.400; -649.000; -778.000
420.632;   73.775; -337.000; -339.000
420.758;   64.650; -251.000; -425.000
420.883;  -92.350; -876.000; -672.000
421.008;  -88.450; -775.000; -619.000
421.133;  -82.375; -509.000; -467.000
421.259;  -23.075; -325.000; -259.000
421.384; -102.825; -834.000; -693.000
421.509; -102.800;-1052.000; -862.000
421.634;  190.850; -936.000; -820.000
421.759;  100.350; -359.000; -327.000
421.885;  -81.475; -717.000; -656.000
422.010;  -79.975; -673.000; -542.000
422.135; -118.675; -695.000; -727.000
422.260;   36.225;  340.000;  280.000
422.385;  -32.100;   12.000;  -98.000
422.510;   20.025;  151.000;  -26.000
422.635;   -6.475;  -87.000;  -43.000
422.760;  -15.575; -766.000; -791.000
422.885;   29.375;  -57.000;  -80.000
423.010;  -11.575; -112.000; -169.000
423.135;  -89.200; -481.000; -561.000
423.260;  -27.750; -150.000; -245.000
423.385;   38.200;  476.000;  222.000
423.510;   -3.925;   71.000;  -22.000
423.635;   15.300;  133.000;   45.000
423.760;   77.050;  383.000;  328.000
423.885;   30.075;  336.000;  391.000
424.010;    2.450;  -68.000;  -13.000
424.135;  -18.525;    5.000;  -33.000
424.259;  -75.750; -654.000; -457.000
424.384;  -27.275; -279.000; -272.000
424.509;  -17.450; -260.000; -186.000
424.634;  -75.625; -761.000; -623.000
424.759;  -29.750; -688.000; -544.000
424.883;    8.675; -506.000; -527.000
425.008;  212.925; -502.000; -410.000
425.133; 2958.825; -679.000; -653.000
425.258; 1631.725; -517.000; -381.000
425.382;  486.200; -867.000; -774.000
425.507; 1038.950; -487.000; -543.000
425.632;  368.800; -802.000; -663.000
425.756;  683.775; -256.000; -146.000
425.881; 9776.225; -831.000; -857.000
426.006;30854.850; -604.000; -355.000
426.130; 5232.775; -696.000; -508.000
426.255;  737.850; -611.000; -491.000
426.379;  301.750; -189.000; -577.000
426.504;  532.525;  660.000;  544.000
426.629; 5975.350; -519.000; -466.000
426.753; 4855.725;   64.000;  -46.000
426.878;  620.875; -252.000; -288.000
427.002;  340.350; -651.000; -668.000
427.127; 2145.925;  -35.000; -158.000
427.251;17683.450;  372.000;  401.000
427.375; 5980.075; -191.000; -173.000
427.500; 1257.600; -616.000; -610.000
427.624;  393.325; -234.000; -400.000
427.749;  115.475; -216.000; -225.000
427.873;   17.225; -499.000; -412.000
427.997;  -35.875; -222.000; -230.000
428.122;   78.575;  795.000;  703.000
428.246;   44.800;  433.000;  434.000
428.371; -123.425; -869.000; -773.000
428.495; -108.850; -624.000; -646.000
428.619;  -21.425; -186.000; -117.000
428.743;   11.225;   65.000;  132.000
428.868;  -79.550; -732.000; -643.000
428.992;  433.250; -219.000; -326.000
429.116;  158.400; -329.000; -357.000
429.240;  136.325;  419.000;  426.000
429.365;  -23.900; -454.000; -574.000
429.489;  -42.450; -638.000; -647.000
429.613;   35.650; -236.000; -177.000
429.737;  118.625; -563.000; -432.000
429.861;  421.800; -247.000; -133.000
429.985; 8119.550; -425.000; -305.000
430.109;10728.825; -770.000; -908.000
430.234; 1333.050;   76.000;  -50.000
430.358;  191.875; -250.000; -160.000
430.482;  -20.575; -672.000; -564.000
430.606;  -45.975; -655.000; -375.000
430.730;  -36.525; -437.000; -388.000
430.854;  -47.200; -909.000; -835.000
430.978;  -64.900; -795.000; -764.000
431.102;  -66.750; -499.000; -422.000
431.226;  -93.850; -874.000; -815.000
431.350;   46.225;  345.000;  422.000
431.474;  -51.425; -661.000; -373.000
431.597; -139.350;-1060.000; -848.000
431.721;  -65.800; -276.000; -267.000
431.845; -120.625; -704.000; -472.000
431.969;  -67.050; -304.000; -349.000
432.093;  -75.350; -395.000; -317.000
432.217;  -21.825;   32.000;   82.000
432.341;  -64.975; -523.000; -518.000
432.464;    6.700;   96.000;   40.000
432.588;   -8.600; -401.000; -329.000
432.712;   22.525;  -52.000;  -52.000
432.836;   79.500;  213.000;  263.000
432.959;   51.475; -372.000; -311.000
433.083;  200.825;   11.000;    2.000
433.207;  601.075;  285.000;  930.000
433.330; 7734.975; -391.000; -200.000
433.454;11057.175; -654.000; -638.000
433.578; 6099.375;  583.000;  278.000
433.701; 1345.700; -623.000; -675.000
433.825;  178.975; -292.000; -299.000
433.949;   80.225;   28.000;  -72.000
434.072;   14.225; -410.000; -323.000
434.196;   11.650; -309.000; -117.000
434.319; 3428.800;25482.000;25124.000
434.443;  920.550; -656.000; -603.000
434.566; 4180.950;  281.000;   62.000
434.690;  974.525; -637.000; -383.000
434.813;  203.850; -251.000; -173.000
434.937;   -2.475; -569.000; -696.000
435.060;  -62.775; -423.000; -332.000
435.184;   12.675; -492.000; -217.000
435.307;   25.075;  159.000;  102.000
435.431;  -31.425;  -40.000;   24.000
435.554;  -62.500; -399.000; -240.000
435.677;  -71.650; -350.000; -258.000
435.801;  -29.700;  -25.000;   49.000
435.924;  -44.500;    1.000;  -67.000
436.048; -139.700;-1019.000; -732.000
436.171;  -71.175; -240.000;  -66.000
436.294;   -3.800; -248.000; -229.000
436.417;  248.050; -963.000; -849.000
436.541;   -8.600; -814.000; -840.000
436.664;  -34.075; -242.000; -316.000
436.787;  -16.125;   13.000;  113.000
436.910;  -95.000; -792.000; -422.000
437.034;   -5.225;  142.000;  143.000
437.157;   26.350;  -11.000;    0.000
437.280;  -56.800; -392.000; -292.000
437.403; -132.700; -982.000; -869.000
437.526;   26.800; -903.000; -865.000
437.649;  512.400; -505.000; -332.000
437.772;   16.250; -692.000; -540.000
437.896;   57.400;  700.000;  544.000
438.019;  -74.050; -758.000; -503.000
438.142;  -95.575; -596.000; -506.000
438.265;  -97.825; -639.000; -670.000
438.388;   25.550; -520.000; -410.000
438.511;  -46.325; -597.000; -394.000
438.634;  -57.025; -247.000; -125.000
438.757; -119.450; -693.000; -619.000
438.880;  -42.750;  -34.000;  -57.000
439.003;  -91.550; -417.000; -437.000
439.126;  -55.125; -287.000; -167.000
439.248;  -46.275;  -98.000; -139.000
439.371;  -37.750;    9.000;  -53.000
439.494;   14.775;  510.000;  439.000
439.617;  -42.925;   65.000;  -88.000
439.740; -161.300; -968.000; -816.000
439.863; -132.350; -755.000; -595.000
439.986; -115.900; -476.000; -431.000
440.108;  -24.750; -161.000; -112.000
440.231; -162.600; -950.000; -836.000
440.354;  -55.775;  -64.000; -150.000
440.477;  -92.350; -566.000; -542.000
440.599;  -83.875; -200.000; -225.000
440.722; -117.500; -709.000; -586.000
440.845;   60.050;  751.000;  928.000
440.968; -112.375; -415.000; -311.000
441.090;  -56.025; -199.000;  -33.000
441.213; -166.900;-1021.000; -825.000
441.336;  -53.275; -159.000;   -5.000
441.458;  -99.500; -549.000; -396.000
441.581; -119.250; -628.000; -629.000
441.703;  -89.425; -152.000;   13.000
441.826; -102.100; -557.000; -400.000
441.948;  -46.775;   56.000;   51.000
442.071;   20.475;  555.000;  424.000
442.193; -114.350; -531.000; -485.000
442.316;    3.525;  152.000;   97.000
442.438;   87.900; -233.000;  -10.000
442.561;   72.400;  272.000;  262.000
442.683;   54.225; -809.000; -522.000
442.806;  264.975;   -8.000;   74.000
442.928;  -91.650; -859.000; -604.000
443.051;  -70.900; -577.000; -373.000
443.173;  -80.450; -341.000; -339.000
443.295;  -87.550; -263.000; -371.000
443.418;  -77.925; -321.000;  -29.000
443.540;  -42.975; -106.000;   -4.000
443.662; -124.650; -563.000; -465.000
443.785;  -22.750;  335.000;  199.000
443.907;  -90.950; -362.000; -208.000
444.029; -119.925; -767.000; -494.000
444.152; -129.725; -644.000; -554.000
444.274;  -47.325;  -18.000;  -24.000
444.396; -100.600; -461.000; -221.000
444.518; -112.975; -691.000; -454.000
444.640;  -82.925; -268.000; -111.000
444.763;  -16.425;  388.000;  249.000
444.885; -109.200; -432.000; -392.000
445.007;  -37.575;   35.000;   86.000
445.129; -124.225; -610.000; -515.000
445.251; -112.725; -372.000; -439.000
445.373; -134.450; -537.000; -386.000
445.495;   -3.500;  242.000;  350.000
445.617;   47.000;  853.000;  753.000
445.739;  -80.850; -215.000;  -97.000
445.861;  -55.775; -245.000; -112.000
445.984;  -62.775; -267.000; -101.000
446.105;  -34.375; -418.000; -251.000
446.227;   98.250; -176.000;  -19.000
446.349;  -64.400; -358.000; -249.000
446.471; -113.100; -615.000; -448.000
446.593;  -79.875; -316.000;   19.000
446.715;  -43.450;  -67.000;   41.000
446.837;   36.525;  697.000;  832.000
446.959;  -99.000; -457.000; -478.000
447.081; -121.475; -628.000; -518.000
447.203;   48.825;  862.000;  834.000
447.325;  -88.950; -270.000;   42.000
447.446;  -13.300;  286.000;  530.000
447.568; -144.375; -921.000; -803.000
447.690;  -87.975; -236.000; -245.000
447.812; -142.900; -798.000; -519.000
447.933;  -25.700;  155.000;  127.000
448.055;  -61.975; -306.000; -261.000
448.177;   38.150;   31.000;   79.000
448.299;  -78.275; -935.000; -727.000
448.420;  -13.525;  -25.000;  159.000
448.542;  -50.425;   -3.000;   33.000
448.664;  -25.650;  109.000;  322.000
448.785;  -29.175;  265.000;   83.000
448.907;  -93.500; -614.000; -353.000
449.028; -104.175; -771.000; -471.000
449.150;   37.050;  492.000;  589.000
449.272; -163.825;-1044.000; -913.000
449.393;   51.975;  612.000;  694.000
449.515; -122.275; -634.000; -581.000
449.636;  -55.550; -264.000; -155.000
449.758;   58.725;  763.000;  622.000
449.879;  -81.725; -498.000; -396.000
450.001;  -65.800; -149.000;  -49.000
450.122;  -20.550;  -95.000;  162.000
450.244;   -6.400;   37.000;  364.000
450.365;  -46.850; -495.000; -301.000
450.486;    1.500;   80.000;  268.000
450.608;   61.500;  393.000;  326.000
450.729;  131.950;  578.000;  645.000
450.850;  126.125; -574.000; -466.000
450.972; 1251.525; -552.000; -389.000
451.093; 8050.775;  190.000;  588.000
451.214; 4275.875; -516.000; -337.000
451.336;  742.800;  773.000;  579.000
451.457;  120.700;  264.000;  393.000
451.578;   -1.850; -118.000;  -74.000
451.699;  -93.825; -546.000; -540.000
451.821;  -46.350; -284.000;  -50.000
451.942;   11.675;  278.000;  285.000
452.063;   74.525;  228.000;  419.000
452.184;  838.125;  -54.000;  -49.000
452.305; 1830.300;  103.000;  170.000
452.427;  370.100; -549.000; -301.000
452.548;   16.075;   23.000;   79.000
452.669;  -60.000; -257.000;  -89.000
452.790;  -43.650;    3.000;  -18.000
452.911;   -2.625;  195.000;  259.000
453.032;  -59.225; -289.000;  -60.000
453.153;  -50.400;  -29.000;   81.000
453.274;   52.025;  737.000;  868.000
453.395;  -40.850;  -51.000;  175.000
453.516;    3.150; 1317.000; 1388.000
453.637;  -79.925; -205.000; -150.000
453.758;  -48.950;   15.000;   69.000
453.879;  -99.600; -462.000; -250.000
454.000;   63.700; 1086.000;  948.000
454.121; -123.575; -554.000; -326.000
454.242;  -92.300; -599.000; -383.000
454.362;  -45.025;  -99.000;  114.000
454.483;    8.625; -309.000; -229.000
454.604;   91.975;  512.000;  580.000
454.725; -107.425; -627.000; -555.000
454.846; -118.425; -474.000; -406.000
454.967;  -31.050;  230.000;  539.000
455.087;  -37.325;  179.000;  153.000
455.208;   11.225;  554.000;  856.000
455.329;  -47.650;  -22.000;   82.000
455.450;   76.925;  473.000;  633.000
455.570;  -38.700; -234.000; -211.000
455.691;  -31.400;  201.000;  407.000
455.812;  -93.050; -270.000;  -92.000
455.932;  -52.325;  107.000;  -97.000
456.053;  -68.775;   36.000;   24.000
456.173; -101.425; -433.000; -355.000
456.294; -107.150; -476.000; -303.000
456.415;  -59.325;  -73.000;   70.000
456.535;  -34.600;  297.000;  273.000
456.656;  -29.050;  132.000;  240.000
456.776;  -67.025;    3.000;  298.000
456.897;   -6.625;  308.000;  513.000
457.017;  -60.925; -153.000;   -3.000
457.138;  -83.675; -402.000; -249.000
457.258;  -24.625;  263.000;  224.000
457.379;    1.275;  509.000;  521.000
457.499;  -21.650;  443.000;  432.000
457.620; -101.650; -407.000; -231.000
457.740;  -67.850; -132.000;  -11.000
457.860;  -25.375;   87.000;   44.000
457.981;  -26.200;  132.000;  124.000
458.101;  -64.075;  -89.000;   40.000
458.221;   -6.425;  336.000;  402.000
458.342;  -47.075;   -4.000;  -37.000
458.462;   50.625;  617.000;  352.000
458.582;   19.450; -302.000; -294.000
458.703;   66.925;  303.000;  154.000
458.823;   21.100;   22.000;  163.000
458.943;   69.425;  341.000;  467.000
459.063;   37.975; 1124.000;  192.000
459.183;  -19.275;  328.000;  313.000
459.304;   21.225;  315.000;  517.000
459.424;  -34.900; -246.000;  -89.000
459.544;  465.550;  388.000;  764.000
459.664; 1360.375;  499.000;  506.000
459.784;  543.325; 1004.000; 1175.000
459.904;   90.400;  867.000;  744.000
460.024;   59.375;  867.000;  684.000
460.144;   -6.025;  449.000;  554.000
460.264;  -14.800;  515.000;  327.000
460.385;  -80.775; -145.000; -119.000
460.505;   43.550;  905.000;  858.000
460.625;  -69.350;  -17.000;  -68.000
460.745;  -19.600;  396.000;  541.000
460.864;  -29.550;  153.000;  469.000
460.984;   57.300;  499.000;  573.000
461.104;  175.300; 1656.000; 1775.000
461.224;   23.900;  657.000;  650.000
461.344;  -21.400;  431.000;  360.000
461.464;  -35.500;  258.000;  513.000
461.584;  -30.025;  283.000;  466.000
461.704;  -55.075;   58.000;  108.000
461.824;  -50.525;  238.000;  259.000
461.943;  -40.525;  191.000;  130.000
462.063;  -72.875;    2.000;  324.000
462.183;   25.550;  639.000;  717.000
462.303;   96.150; 1678.000; 1230.000
462.422;   27.650;  781.000;  840.000
462.542;  -32.850;  271.000;  391.000
462.662;   46.775;  353.000;  380.000
462.782;  331.800;  833.000;  572.000
462.901;  785.275;  545.000;  717.000
463.021;  412.250; 1702.000; 1638.000
463.141;   11.250;  337.000;  770.000
463.260;   -4.450;  614.000;  474.000
463.380;   12.600;  902.000;  884.000
463.499;  -29.300;  342.000;  332.000
463.619;  -35.125;  581.000;  559.000
463.738;  124.750; 1644.000;  903.000
463.858;    9.025;  657.000;  811.000
463.978;  -14.400;  542.000;  396.000
464.097;   44.425;  921.000; 1114.000
464.217;  149.275; 1196.000; 1143.000
464.336;  145.100; 1068.000; 1130.000
464.455;  -22.075;  328.000;  659.000
464.575;   23.825;  597.000;  602.000
464.694;  121.400; 1204.000; 1179.000
464.814;  156.150; 1190.000; 1138.000
464.933;   82.625; 1095.000; 1027.000
465.052;   92.150; 1412.000; 1054.000
465.172;   78.550;  922.000;  799.000
465.291;  109.150; 1376.000; 1320.000
465.410;   28.450;  462.000;  735.000
465.530;   73.950; 1355.000; 1310.000
465.649;   64.975; 1209.000; 1273.000
465.768;  142.925; 1673.000; 1508.000
465.888;   94.075;  941.000; 1174.000
466.007;  107.775; 1335.000; 1440.000
466.126;   16.300;  721.000;  641.000
466.245;   72.900; 1176.000; 1187.000
466.364;   30.500;  950.000; 1060.000
466.484;   69.900; 1024.000; 1213.000
466.603;   31.725; 1101.000; 1222.000
466.722;  104.700; 1490.000; 1769.000
466.841;   70.800; 1151.000; 1401.000
466.960;   50.725; 1069.000;  972.000
467.079;  145.450; 1971.000; 1786.000
467.198;   53.425; 1238.000; 1181.000
467.317;   87.400; 1768.000; 1162.000
467.436;   85.750; 1709.000; 1261.000
467.555;  128.950; 1796.000; 1746.000
467.674;   86.175; 1227.000; 1329.000
467.793;   37.900; 1376.000; 1374.000
467.912;  100.700; 1658.000; 1539.000
468.031;  134.150; 2038.000; 1930.000
468.150;  135.625; 1842.000; 1837.000
468.269;  170.325; 2313.000; 2090.000
468.388;  191.600; 2168.000; 2339.000
468.507;  263.375; 2884.000; 2903.000
468.626;  237.275; 2555.000; 2541.000
468.744;  145.975; 2018.000; 2174.000
468.863;  197.550; 2312.000; 2523.000
468.982;   90.625; 1503.000; 1555.000
469.101;  209.625; 2788.000; 2692.000
469.220;  150.375; 2333.000; 2176.000
469.338;  253.475; 2935.000; 3051.000
469.457;  213.850; 2719.000; 2545.000
469.576;  350.575; 3953.000; 3784.000
469.695;  246.100; 2877.000; 3066.000
469.813;  425.550; 4148.000; 4192.000
469.932;  413.075; 4255.000; 4485.000
470.051;  448.825; 4075.000; 4161.000
470.169; 1037.375; 4470.000; 4338.000
470.288; 2083.450; 4700.000; 4809.000
470.406; 1201.050; 5059.000; 5194.000
470.525;  656.875; 6101.000; 5787.000
470.644;  657.725; 6847.000; 6794.000
470.762;  822.400; 8397.000; 7873.000
470.881;  904.525; 8651.000; 8464.000
470.999; 1077.425; 9685.000; 9151.000
471.118; 1121.850;11174.000;10711.000

