
Integration time [ms]: 100.000
Averaging Nr. [scans]: 40
Smoothing Nr. [pixels]: 0
Data measured with spectrometer [name]: 2101012U2
Wave   ;Sample   ;Dark     ;Reference
[nm]   ;[counts] ;[counts] ;[counts] 

197.733;   63.475;  516.000;  404.000
197.879;  -87.350; -610.000; -634.000
198.025;  -57.450; -475.000; -420.000
198.171;  -83.400; -602.000; -612.000
198.317;  -25.200; -401.000; -316.000
198.463;  -72.000; -655.000; -404.000
198.609;   19.500;  181.000; -137.000
198.755;  -94.500; -644.000; -410.000
198.901;  -57.175; -505.000; -424.000
199.047;  -74.125; -615.000; -488.000
199.193;  -36.750; -230.000; -468.000
199.339;  -44.100; -222.000; -369.000
199.485;   54.275;  330.000;  271.000
199.631;    9.775;  227.000;  310.000
199.777;  -70.525; -466.000; -398.000
199.923;  -60.075; -610.000; -424.000
200.069;   -0.425; -141.000;  -58.000
200.215;   57.800;  128.000;  453.000
200.361;   36.725;  243.000;  477.000
200.507;  -67.225; -600.000; -373.000
200.653;  -13.550; -371.000; -194.000
200.798;  -30.100; -215.000; -125.000
200.944;   -0.350; -146.000;  -41.000
201.090;   38.475;   61.000;  222.000
201.236;   -0.275; -116.000; -158.000
201.382;  126.800;  874.000;  903.000
201.528;   -2.675;  -58.000;  -48.000
201.674;  -67.875; -386.000; -293.000
201.819;  -54.275; -540.000; -439.000
201.965;  -78.075; -699.000; -447.000
202.111;  -25.350; -273.000; -226.000
202.257;  -31.300; -250.000; -238.000
202.402;   23.625;   13.000;  -36.000
202.548;  -43.600; -169.000; -116.000
202.694;   80.125;  410.000; -183.000
202.840;  -79.750; -603.000; -531.000
202.985;  -80.750; -681.000; -639.000
203.131;  -97.625; -832.000; -666.000
203.277;  -16.725; -199.000; -262.000
203.423;  -46.650; -434.000; -520.000
203.568;  -51.125; -462.000; -237.000
203.714;  -67.175; -535.000; -542.000
203.860;  -88.725; -682.000; -641.000
204.005;   12.600;  112.000;  167.000
204.151;   81.400;  561.000;  556.000
204.296;  -50.650; -354.000; -221.000
204.442;  -72.900; -600.000; -547.000
204.588;  -83.975; -592.000; -579.000
204.733;    6.825;  178.000;  168.000
204.879; -141.225;-1018.000; -822.000
205.025;    6.150;  -99.000;  126.000
205.170;    5.775;  -17.000;   94.000
205.316;   92.000;  438.000;  661.000
205.461;  -78.250; -698.000; -554.000
205.607;   90.875;  609.000;  665.000
205.752;  -86.125; -626.000; -551.000
205.898;  -60.050; -501.000; -391.000
206.043;  -70.000; -578.000; -506.000
206.189;  -42.325; -243.000; -285.000
206.334;   69.725;  554.000;  606.000
206.480;   66.300;  409.000;  239.000
206.625;  -77.175; -529.000; -552.000
206.771;  -44.975; -451.000; -373.000
206.916;  -32.875; -210.000; -537.000
207.062;  -72.700; -545.000; -591.000
207.207;  -67.900; -546.000; -443.000
207.353;   56.950;  185.000;  460.000
207.498;    7.800;  196.000;   85.000
207.643;  -59.775; -501.000; -370.000
207.789; -145.200;-1069.000; -910.000
207.934;  -90.850; -665.000; -713.000
208.080;  -25.100; -154.000;   66.000
208.225;   -3.500;  -22.000;  -57.000
208.370;  -70.925; -727.000; -619.000
208.516;  -81.600; -741.000; -487.000
208.661;  -24.475; -127.000;  -69.000
208.806;  -22.975; -165.000; -171.000
208.952; -131.850;-1044.000; -731.000
209.097;   68.775;  378.000;  349.000
209.242;  -36.050; -307.000; -382.000
209.387;   71.925;  392.000;  350.000
209.533;  -35.500; -321.000; -350.000
209.678;   73.925;  472.000;  543.000
209.823;  -42.875; -408.000; -310.000
209.969;  -99.825; -860.000; -757.000
210.114; -107.150; -907.000; -719.000
210.259; -121.150; -939.000; -889.000
210.404;  -14.700; -171.000;  103.000
210.549;    6.750;  108.000;    3.000
210.695;  -16.075;   -3.000;  -95.000
210.840;   29.300;   94.000;   67.000
210.985;  -70.475; -484.000; -303.000
211.130;   66.975;  268.000;  406.000
211.275;   22.400;  207.000;  199.000
211.420;  -46.725; -300.000; -289.000
211.566;  -63.000; -536.000; -489.000
211.711;   30.375;  218.000;  157.000
211.856;  -66.550; -545.000; -519.000
212.001;    3.875;  151.000;   44.000
212.146;   24.325;  153.000;   49.000
212.291;  -27.475; -210.000; -186.000
212.436;  -31.550; -280.000;   -6.000
212.581;  -97.250; -685.000; -653.000
212.726;  -73.250; -487.000; -538.000
212.871;  -60.250; -552.000; -217.000
213.016; -150.725;-1172.000;-1029.000
213.161;   69.200;  406.000;  291.000
213.306;  -86.050; -435.000; -577.000
213.451;  -98.300; -778.000; -689.000
213.596;  -49.150; -455.000; -347.000
213.741;  -70.775; -448.000; -538.000
213.886;  -93.050; -498.000; -517.000
214.031;  -27.975; -294.000; -124.000
214.176;  -52.950; -408.000; -341.000
214.321;  -17.175; -296.000; -157.000
214.466;  -27.475; -163.000;  -43.000
214.611;  -14.225;  -61.000;  -10.000
214.756; -121.450; -948.000; -858.000
214.901;  -24.700; -388.000; -226.000
215.046; -117.850; -797.000; -825.000
215.191;   20.750;  128.000;   35.000
215.336;   -9.225; -157.000;  -19.000
215.480;  -68.700; -684.000; -505.000
215.625;   -9.850; -175.000;  -19.000
215.770;  -78.700; -757.000; -662.000
215.915;    5.150;   -5.000;  -97.000
216.060;   -4.075; -113.000;  -21.000
216.205; -106.950; -731.000; -779.000
216.349;  -79.325; -470.000; -533.000
216.494; -130.675; -939.000; -867.000
216.639; -132.750; -823.000; -888.000
216.784;  -99.575; -577.000; -525.000
216.929;   39.000;  392.000;  281.000
217.073;  -18.825; -244.000;  -31.000
217.218;    1.150;   78.000;  -47.000
217.363;  -97.500; -656.000; -618.000
217.507;  -90.550; -623.000; -588.000
217.652; -126.875; -845.000; -874.000
217.797;  -89.700; -708.000; -659.000
217.942; -120.350; -856.000; -720.000
218.086;   70.700;  608.000;  539.000
218.231;  -24.150; -174.000;  -26.000
218.376;  -35.225; -337.000; -229.000
218.520;    4.900;  -41.000;   96.000
218.665;  -31.025; -338.000; -204.000
218.810;  -39.425; -275.000; -233.000
218.954;    6.900;  201.000;   35.000
219.099; -112.175; -713.000; -963.000
219.243;  -68.700; -589.000; -554.000
219.388;  -33.375; -264.000; -136.000
219.532;   -7.050; -116.000; -116.000
219.677;  -81.525; -564.000; -521.000
219.822;    2.075;   33.000;   89.000
219.966;    1.925;   17.000;  -99.000
220.111;  -29.650; -328.000;  -40.000
220.255; -105.000; -797.000; -750.000
220.400;  -27.700; -180.000; -146.000
220.544;  -77.875; -516.000; -450.000
220.689;  -49.450; -422.000; -451.000
220.833;  -23.550; -123.000;  -58.000
220.978;  -51.175; -393.000; -563.000
221.122;   12.125;  319.000;  307.000
221.267; -133.300; -906.000; -837.000
221.411;  -57.775; -478.000; -394.000
221.555;  -13.300; -104.000;  -23.000
221.700;  -66.175; -329.000; -222.000
221.844;   35.850;  255.000;  272.000
221.989;  -34.975; -328.000; -311.000
222.133;  -39.375; -289.000; -307.000
222.277;    0.225;    5.000;   78.000
222.422;   21.500;  227.000;  113.000
222.566;  -35.100; -381.000; -214.000
222.711;  -58.100; -414.000; -479.000
222.855;  -89.050; -643.000; -586.000
222.999;  -87.675; -642.000; -717.000
223.144;  -10.100; -195.000; -194.000
223.288;   66.650;  423.000;  251.000
223.432;   18.350;  184.000;  230.000
223.576;   18.200;  152.000;  -21.000
223.721;   46.750;  364.000;  273.000
223.865;  -60.025; -472.000; -475.000
224.009;  254.475; 1673.000; 1631.000
224.153;  -89.825; -660.000; -671.000
224.298;  -74.550; -531.000; -489.000
224.442;   -2.175;  -74.000;  -33.000
224.586;    0.925; -169.000; -106.000
224.730; -107.650; -858.000; -670.000
224.875; -107.150; -739.000; -688.000
225.019;   18.050;  102.000;  188.000
225.163;   47.900;  208.000;  341.000
225.307;   23.325;   97.000;  -91.000
225.451;   47.100;  360.000;  481.000
225.595;   28.300;  264.000;  176.000
225.739;  -31.100; -170.000;  -94.000
225.884;   10.950;   86.000;    5.000
226.028;  -96.625; -760.000; -626.000
226.172;  -38.700; -260.000; -273.000
226.316; -122.375; -941.000; -902.000
226.460;  -79.275; -645.000; -493.000
226.604;  -59.900; -406.000; -400.000
226.748; -106.375; -836.000; -733.000
226.892;  -32.275; -227.000; -181.000
227.036;  -38.350; -537.000; -447.000
227.180;  -58.800; -551.000; -375.000
227.324;  -71.650; -561.000; -580.000
227.468; -117.450; -819.000; -717.000
227.612;   13.725;  242.000;  -28.000
227.756; -103.375; -845.000; -698.000
227.900;   47.575;  342.000;  441.000
228.044;  -62.250; -509.000; -290.000
228.188;   67.700;  448.000;  568.000
228.332;  -80.775; -546.000; -472.000
228.476;  -22.150; -223.000; -149.000
228.620;  -27.275; -210.000; -150.000
228.764;   76.325;  431.000;  349.000
228.908;  -35.150; -155.000;   30.000
229.052;  -72.775; -615.000; -528.000
229.195;  -25.700; -172.000;   13.000
229.339;  -18.025; -235.000; -305.000
229.483;  -28.450;    5.000; -162.000
229.627;   -9.125; -156.000;  139.000
229.771;  -42.975; -218.000; -294.000
229.915;    5.875;  230.000;   79.000
230.059;  -89.625; -648.000; -663.000
230.202;  -40.925; -370.000; -317.000
230.346;  -19.150; -107.000;  107.000
230.490;  -66.450; -489.000; -521.000
230.634; -114.775; -736.000; -553.000
230.777;   68.200;  478.000;  509.000
230.921;  -57.600; -450.000; -359.000
231.065;  -52.650; -246.000; -286.000
231.209;   39.600;  261.000;  265.000
231.352;   24.200;   54.000;   40.000
231.496;   30.575;  568.000;  188.000
231.640;  -82.125; -693.000; -621.000
231.783;   60.150;  546.000;  525.000
231.927;  -51.725; -294.000; -365.000
232.071; -127.825; -962.000; -736.000
232.214; -112.675; -980.000; -764.000
232.358; -109.850; -683.000; -599.000
232.502;    7.950;  -19.000;    7.000
232.645; -142.300;-1090.000; -927.000
232.789;  -23.650; -257.000; -218.000
232.933;  -38.275; -407.000; -224.000
233.076; -132.150;-1038.000; -897.000
233.220; -117.125; -752.000; -777.000
233.363;  -76.325; -669.000; -477.000
233.507;   55.400;  371.000;  129.000
233.650;  -98.500; -764.000; -834.000
233.794;   50.375;  438.000;  461.000
233.938;  -65.675; -530.000; -362.000
234.081;  -29.875;  -93.000;   31.000
234.225;  -57.100; -631.000; -539.000
234.368; -112.475; -773.000; -723.000
234.512;  -44.525; -385.000; -299.000
234.655;  -92.550; -582.000; -555.000
234.798;  -71.050; -493.000; -466.000
234.942; -131.425; -884.000;-1002.000
235.085;  -80.625; -651.000; -443.000
235.229;  -75.375; -405.000; -410.000
235.372;  -61.250; -247.000; -191.000
235.516;  -63.550; -397.000; -321.000
235.659;   13.000;   92.000;  121.000
235.802;   -7.000;  -38.000;  -22.000
235.946;   20.975;  335.000;  215.000
236.089;   19.000;  126.000;  250.000
236.233;   51.425;  275.000;  298.000
236.376;  -46.250; -235.000; -378.000
236.519;  -56.375; -297.000; -319.000
236.663;  -27.825; -215.000; -117.000
236.806; -150.350;-1029.000; -999.000
236.949;   46.875;  543.000;  431.000
237.092;   58.200;  412.000;  391.000
237.236;  -96.850; -589.000; -502.000
237.379;   74.350;  352.000;  428.000
237.522; -129.575; -879.000; -768.000
237.666;  -24.125; -271.000;   18.000
237.809; -111.525; -851.000; -823.000
237.952;   30.150;  469.000;  271.000
238.095;  -66.575; -447.000; -442.000
238.238;   86.250;  688.000;  700.000
238.382;    8.400;  166.000;  103.000
238.525;  -63.700; -598.000; -511.000
238.668; -144.450;-1060.000; -985.000
238.811;  -81.150; -638.000; -643.000
238.954;  -67.875; -483.000; -334.000
239.097;   89.900;  617.000;  664.000
239.241;   14.675;  394.000;  326.000
239.384;  -40.500; -254.000; -214.000
239.527;  -57.400; -424.000; -224.000
239.670; -149.850; -994.000;-1091.000
239.813; -113.825; -696.000; -658.000
239.956;   68.975;  579.000;  473.000
240.099; -113.475; -778.000; -725.000
240.242;   56.400;  428.000;  432.000
240.385;   47.675;  466.000;  450.000
240.528;  -71.700; -706.000; -473.000
240.671;    7.050;  189.000;  134.000
240.814;  -57.100; -441.000; -158.000
240.957; -118.800; -767.000; -578.000
241.100;  -96.850; -779.000; -755.000
241.243; -144.325;-1234.000; -893.000
241.386;  -73.100; -508.000; -379.000
241.529;  -84.425; -735.000; -547.000
241.672;  -69.050; -566.000; -495.000
241.815; -132.925; -832.000; -808.000
241.958;  -21.125; -125.000; -182.000
242.101;  -85.550; -545.000; -390.000
242.244;  -28.125; -270.000; -325.000
242.387;  -47.650; -304.000; -246.000
242.530;   48.200;  470.000;  134.000
242.673;  -49.025; -381.000; -309.000
242.815; -126.200; -925.000; -899.000
242.958;  -62.800; -482.000; -381.000
243.101;   18.400;  132.000;  187.000
243.244;  -72.700; -564.000; -521.000
243.387;  -57.350; -313.000; -316.000
243.530; -100.625; -657.000; -674.000
243.672;    9.950;   43.000;  -92.000
243.815;  -65.225; -355.000; -283.000
243.958;    1.450;   98.000;  -26.000
244.101;   -2.375;   59.000;  -16.000
244.243;  -15.025;  -47.000;  101.000
244.386; -105.950; -761.000; -630.000
244.529;  -21.775; -132.000; -139.000
244.672; -160.400;-1154.000; -951.000
244.814; -107.900; -621.000; -794.000
244.957;  -64.900; -380.000; -304.000
245.100;  -80.025; -489.000; -489.000
245.242;  -66.075; -387.000; -374.000
245.385;   -6.125;  -59.000;  -39.000
245.528; -129.150; -871.000; -705.000
245.670;   89.175;  612.000;  634.000
245.813;  -88.075; -599.000; -547.000
245.956;  -38.425; -324.000; -275.000
246.098;  -72.175; -508.000; -650.000
246.241;    2.350;  194.000;   48.000
246.383;  -15.575; -119.000;  -73.000
246.526;  -92.075; -454.000; -525.000
246.669; -129.050; -889.000; -780.000
246.811;   13.175;  172.000;   -1.000
246.954;  -64.550; -512.000; -426.000
247.096;  -22.450;  -84.000;   -6.000
247.239;  -69.250; -482.000; -445.000
247.381;  -77.075; -647.000; -488.000
247.524;   85.975;  645.000;  679.000
247.666;   -5.825;   58.000;   11.000
247.809; -113.700; -887.000; -691.000
247.951;   -8.775;  -75.000;  138.000
248.094;   18.700;  432.000;  308.000
248.236; -167.500;-1262.000;-1238.000
248.378;   -1.250; -356.000;  -81.000
248.521;  -19.750; -334.000; -337.000
248.663;  -49.900; -236.000; -267.000
248.806;  -23.975; -300.000; -266.000
248.948;  -88.375; -886.000; -763.000
249.090;  -50.650; -428.000; -398.000
249.233;  -55.175; -344.000; -381.000
249.375;  -69.150; -474.000; -451.000
249.518;  -16.275;  -83.000; -133.000
249.660;   -8.375; -103.000;    3.000
249.802; -174.425;-1303.000;-1189.000
249.945;  -72.475; -612.000; -540.000
250.087; -124.100; -834.000; -768.000
250.229;  -56.975; -362.000; -480.000
250.371;  -76.400; -494.000; -439.000
250.514;  -49.850; -310.000; -244.000
250.656;  -59.700;   69.000;  102.000
250.798; -128.400; -849.000; -800.000
250.940;  -74.400; -322.000; -322.000
251.083;  -28.525; -335.000; -111.000
251.225;   46.300;  338.000;  310.000
251.367;  -43.625; -274.000; -373.000
251.509;  -38.400; -265.000; -210.000
251.651;  -99.475; -731.000; -671.000
251.794;   55.375;  538.000;  632.000
251.936; -119.600; -821.000; -747.000
252.078;  -86.500; -540.000; -461.000
252.220;  -86.325; -645.000; -477.000
252.362;   74.375;  344.000;  462.000
252.504;  -78.450; -677.000; -584.000
252.646; -117.700; -875.000; -722.000
252.788;   -4.675;   14.000; -128.000
252.931;  -44.600; -257.000; -253.000
253.073;  -37.025; -376.000; -317.000
253.215;   -5.950;  141.000;  122.000
253.357;  -16.825;   82.000; -153.000
253.499;  -50.100; -374.000; -234.000
253.641;  -93.925; -749.000; -594.000
253.783;  -90.400; -609.000; -527.000
253.925;  -97.425; -586.000; -591.000
254.067; -116.875; -744.000; -667.000
254.209;  -36.500; -391.000; -259.000
254.351; -126.275; -865.000; -883.000
254.493;  -62.850; -441.000; -417.000
254.635; -131.450; -936.000; -818.000
254.777;  -93.700; -752.000; -687.000
254.918;  -69.175; -512.000; -430.000
255.060;  -62.175; -551.000; -395.000
255.202;  -62.400; -473.000; -261.000
255.344;  -80.025; -658.000; -455.000
255.486;  -79.300; -471.000; -406.000
255.628; -107.675; -780.000; -781.000
255.770;  -85.150; -676.000; -536.000
255.912;  -70.375; -559.000; -468.000
256.053;  -79.525; -730.000; -508.000
256.195;  158.550; 1008.000;  903.000
256.337; -106.500; -861.000; -595.000
256.479;   52.350;  532.000;  416.000
256.621;  -39.350; -394.000; -212.000
256.762;  -95.500; -789.000; -742.000
256.904;   47.700;  485.000;  487.000
257.046;  -44.750; -381.000; -271.000
257.188;  -56.075; -351.000; -264.000
257.329;  -75.475; -525.000; -464.000
257.471; -120.625; -939.000; -807.000
257.613;  -70.350; -584.000; -498.000
257.755; -155.875;-1073.000; -982.000
257.896;   30.900;  286.000;  392.000
258.038;  -80.050; -403.000; -352.000
258.180;  -46.600; -354.000; -279.000
258.321;  -86.075; -581.000; -457.000
258.463;  -10.025;  -71.000;  133.000
258.605;  -94.950; -562.000; -570.000
258.746; -114.600; -886.000; -772.000
258.888; -148.050;-1026.000;-1020.000
259.029;   15.650;  121.000;   -8.000
259.171;  -93.875; -614.000; -550.000
259.313;  -10.225;  -49.000;  -47.000
259.454;  -73.550; -536.000; -414.000
259.596;  -68.900; -483.000; -390.000
259.737;  -67.225; -590.000; -474.000
259.879;   36.375;  217.000;  311.000
260.020;  102.075;  901.000;  636.000
260.162;  -20.525; -146.000; -253.000
260.303; -126.950; -768.000; -687.000
260.445;  -85.850; -609.000; -613.000
260.586;   25.100;  392.000;  157.000
260.728;  -40.350; -360.000; -248.000
260.869; -121.375; -350.000; -343.000
261.011;   73.100;  706.000;  537.000
261.152;  -61.775; -479.000; -319.000
261.293;  -79.800; -576.000; -595.000
261.435;  -31.900; -219.000; -184.000
261.576;  -56.050; -455.000; -325.000
261.718;   56.825;  420.000;  470.000
261.859; -135.000; -940.000; -949.000
262.000; -150.000; -951.000;-1016.000
262.142;  -16.575;  -52.000;  -60.000
262.283; -114.000; -808.000; -691.000
262.424;  -98.550; -666.000; -625.000
262.566; -162.175;-1161.000; -983.000
262.707; -117.900; -840.000; -830.000
262.848; -121.125; -769.000; -726.000
262.990;  -47.800; -362.000; -345.000
263.131;   81.250;  650.000;  681.000
263.272;   -0.475;  -61.000;  -41.000
263.413;  -96.850; -589.000; -561.000
263.555;  -72.050; -669.000; -143.000
263.696;  -83.300; -550.000; -641.000
263.837;  -66.125; -449.000; -551.000
263.978;    3.650;   -5.000;  -77.000
264.119;  -47.025; -283.000; -264.000
264.261; -116.750; -847.000; -630.000
264.402;   -3.900;   33.000;   40.000
264.543;  -85.975; -509.000; -524.000
264.684;   -3.750;   61.000;  -50.000
264.825;  -75.000; -816.000; -538.000
264.966;  -11.575;  -84.000;  -67.000
265.107; -121.125; -646.000; -670.000
265.248; -124.475; -825.000; -812.000
265.390;  -14.625;  152.000;   -9.000
265.531;  -28.425; -238.000; -107.000
265.672;  -85.675; -557.000; -630.000
265.813;   62.075;  563.000;  439.000
265.954; -147.100; -959.000; -940.000
266.095;  -12.400; -372.000; -322.000
266.236; -103.025; -686.000; -548.000
266.377;  -39.125; -243.000; -297.000
266.518;  -77.225; -619.000; -547.000
266.659;   21.125;  170.000;  268.000
266.800;   -1.350;   83.000;   85.000
266.941;  -72.300; -487.000; -478.000
267.082;   20.625;  354.000;   99.000
267.223;  -55.150; -344.000; -273.000
267.364; -113.750; -892.000; -686.000
267.504;  -12.175;    3.000;  135.000
267.645;    3.725;  160.000;   67.000
267.786;  -56.325; -147.000;  -86.000
267.927;  -78.025; -473.000; -379.000
268.068;  -20.375; -186.000;  -61.000
268.209;  -61.900; -175.000; -413.000
268.350;  -72.700; -388.000; -532.000
268.490;  -84.225; -648.000; -521.000
268.631;   27.575;  127.000;  225.000
268.772; -120.075; -874.000; -647.000
268.913;  -49.225; -328.000; -476.000
269.054;  -29.200; -117.000;   12.000
269.194;  -51.800; -418.000; -402.000
269.335; -155.625;-1137.000;-1074.000
269.476;  -21.400;   33.000;  -35.000
269.617;  -53.850; -347.000; -392.000
269.757;  -87.975; -713.000; -646.000
269.898; -111.950; -856.000; -613.000
270.039;  -56.150; -415.000; -405.000
270.180; -138.975; -952.000; -816.000
270.320;  -32.575; -190.000; -250.000
270.461;  -50.125; -277.000; -249.000
270.602;  -19.475; -186.000; -156.000
270.742; -127.550; -868.000; -943.000
270.883;  -57.400; -442.000; -390.000
271.023;  -70.125; -358.000; -357.000
271.164;  -81.725; -607.000; -528.000
271.305; -113.900; -666.000; -654.000
271.445; -107.300; -722.000; -683.000
271.586;  -59.475; -462.000; -283.000
271.726;  -47.350; -397.000; -322.000
271.867;  -64.350; -594.000; -534.000
272.008;  147.325; -473.000; -285.000
272.148;  113.100;  462.000;  468.000
272.289;    5.700; -113.000; -181.000
272.429;   11.075;   19.000;  185.000
272.570;  -90.725; -633.000; -737.000
272.710; -104.875; -825.000; -775.000
272.851;  -20.475;  113.000; -130.000
272.991; -172.825;-1173.000;-1077.000
273.131;  -64.425; -419.000; -459.000
273.272; -103.475; -683.000; -723.000
273.412;   10.550; -143.000;  -31.000
273.553;  -60.550; -488.000; -507.000
273.693;  135.625;  913.000;  858.000
273.834;  -97.450; -894.000; -692.000
273.974;  -88.250; -664.000; -615.000
274.114; -102.675; -772.000; -560.000
274.255;   68.850;  414.000;  373.000
274.395;   -3.475; -180.000; -125.000
274.535;   35.850;  199.000;  350.000
274.676;   21.125;  225.000;   94.000
274.816;    3.975;  110.000;   34.000
274.956;  -88.075; -624.000; -690.000
275.097;  -88.975;-1014.000; -922.000
275.237; -107.825; -913.000; -803.000
275.377;  -88.975; -778.000; -689.000
275.517; -153.575; -878.000; -937.000
275.658;  -71.850; -590.000; -555.000
275.798;  -88.300; -606.000; -413.000
275.938;   19.825;  215.000;  323.000
276.078;  -97.925; -626.000; -395.000
276.218;    8.025;   99.000;  104.000
276.359; -146.025;-1026.000;-1024.000
276.499;  -75.950; -605.000; -446.000
276.639;  -40.950; -305.000; -151.000
276.779;  -46.725; -475.000; -357.000
276.919; -102.725; -783.000; -624.000
277.059;  -25.175; -261.000; -212.000
277.199;  -55.225; -357.000; -259.000
277.340;   38.475;  287.000;  175.000
277.480; -111.650; -840.000; -693.000
277.620;   22.500;  192.000;   16.000
277.760; -201.700;-1533.000;-1294.000
277.900;   14.825;  113.000;   33.000
278.040;   13.800;  137.000;  159.000
278.180;   20.975;  270.000;  170.000
278.320;   -4.075;   21.000;   56.000
278.460;  -72.725; -443.000; -469.000
278.600;  -95.625; -708.000; -598.000
278.740;   41.900;  448.000;  224.000
278.880;  -73.500; -768.000; -791.000
279.020;  -20.975; -194.000; -144.000
279.160;  -96.050; -672.000; -595.000
279.300; -122.200; -926.000; -873.000
279.440;  -98.125; -709.000; -622.000
279.579;  -45.250;-1014.000; -929.000
279.719;  -49.200; -410.000; -394.000
279.859;   63.975;   -4.000;   41.000
279.999;   14.200; -208.000;  101.000
280.139;  -31.950; -435.000; -387.000
280.279;  -77.025; -708.000; -745.000
280.419;  -19.075; -229.000; -147.000
280.559;  -40.250; -259.000; -180.000
280.698;  -83.600; -790.000; -639.000
280.838; -106.850; -778.000; -800.000
280.978;  -97.950; -846.000; -790.000
281.118; -111.725; -811.000; -704.000
281.257;   -1.800;   24.000;    6.000
281.397; -124.475;-1094.000; -960.000
281.537;  -90.150; -599.000; -712.000
281.677;  -17.025; -150.000; -101.000
281.816; -101.250; -700.000; -630.000
281.956;  -33.650; -193.000; -257.000
282.096;  -69.625; -539.000; -396.000
282.235; -110.475; -672.000; -638.000
282.375;  -26.025; -243.000;  -98.000
282.515; -107.425; -715.000; -707.000
282.654;   14.275;   29.000;  106.000
282.794;   13.475;  388.000;  244.000
282.934;  -63.525; -530.000; -491.000
283.073; -150.025;-1030.000; -857.000
283.213;  -56.275; -460.000; -467.000
283.353;  -31.775; -408.000; -349.000
283.492;  -43.500; -264.000; -296.000
283.632;  -33.775; -254.000; -168.000
283.771; -108.000; -859.000; -730.000
283.911;  -50.950; -369.000; -260.000
284.050; -117.475; -794.000; -748.000
284.190; -169.700;-1229.000;-1096.000
284.329; -147.975;-1055.000; -964.000
284.469;  -76.900; -516.000; -591.000
284.608;  -66.400; -559.000; -598.000
284.748;  -92.250; -614.000; -570.000
284.887;   -6.950;  -87.000;  -20.000
285.027; -123.925; -844.000; -892.000
285.166;  -47.525; -192.000; -249.000
285.306;    0.050; -116.000;  -33.000
285.445;  -48.900; -229.000; -343.000
285.584;  -90.725; -630.000; -494.000
285.724;  -42.675; -282.000; -322.000
285.863; -121.775; -857.000; -507.000
286.002;  -58.475; -366.000; -276.000
286.142; -111.375; -715.000; -622.000
286.281;  -83.225; -525.000; -493.000
286.420;  -82.325; -554.000; -417.000
286.560;  106.050;  653.000;  623.000
286.699; -153.725; -958.000; -912.000
286.838;  -89.850; -590.000; -591.000
286.978;  -91.775; -533.000; -537.000
287.117; -143.375;-1085.000; -950.000
287.256;  -34.275; -228.000; -211.000
287.395;  -58.800; -197.000; -378.000
287.535;  -69.950; -370.000; -298.000
287.674;  -69.725; -509.000; -484.000
287.813;   53.000;  661.000;  533.000
287.952; -133.275;-1010.000; -871.000
288.091; -157.750;-1049.000; -915.000
288.231;    6.750;   13.000;   15.000
288.370; -185.525;-1217.000;-1200.000
288.509;  -88.900; -728.000; -645.000
288.648;  -99.575; -770.000; -548.000
288.787;  -29.350; -243.000;  -87.000
288.926;  -68.400; -454.000; -475.000
289.065;  121.125;  859.000;  672.000
289.204;  -63.675; -377.000; -217.000
289.344; -102.425; -791.000; -690.000
289.483;   15.775;  416.000;  304.000
289.622;  -38.700; -291.000; -149.000
289.761;  -29.675; -309.000; -166.000
289.900; -121.050; -785.000; -626.000
290.039;  -14.500;  -12.000;  -95.000
290.178;  -57.125; -274.000; -180.000
290.317;  -81.500; -618.000; -479.000
290.456;  -71.500; -463.000; -451.000
290.595; -147.250; -961.000; -833.000
290.734; -150.275; -904.000; -891.000
290.873;  -77.875; -456.000; -420.000
291.011; -110.550; -833.000; -843.000
291.150; -100.850; -770.000; -682.000
291.289;  -36.025; -343.000; -110.000
291.428; -105.375; -599.000; -480.000
291.567;  -70.975; -370.000; -442.000
291.706;   -2.800;  109.000;  154.000
291.845;  -84.800; -597.000; -505.000
291.984; -160.525;-1234.000;-1061.000
292.122;   64.825;  602.000;  582.000
292.261;   49.700;  620.000;  463.000
292.400;    9.600; -144.000;  211.000
292.539; -127.375; -959.000; -813.000
292.678;  -37.050; -325.000; -300.000
292.816; -160.475;-1136.000; -965.000
292.955;  -96.750; -844.000; -684.000
293.094;  -34.425; -173.000; -337.000
293.233;  -49.175; -556.000; -400.000
293.371;  -51.375; -225.000;  -84.000
293.510; -115.275; -866.000; -780.000
293.649; -128.600; -959.000; -924.000
293.787;  -67.500;-1083.000;-1012.000
293.926;  -16.400; -113.000;  -32.000
294.065;  -50.225; -379.000; -290.000
294.203;   53.450;  298.000;  406.000
294.342;   26.375;   74.000;  156.000
294.481; 6406.000;51180.000; -836.000
294.619;  -27.850; -425.000; -582.000
294.758; -160.700;-1230.000;-1137.000
294.896;   57.350; -125.000;    5.000
295.035; -133.475;-1040.000;-1006.000
295.174; -133.550;-1082.000; -954.000
295.312;  -53.475; -323.000; -203.000
295.451;   -8.900; -307.000; -428.000
295.589;  -57.725; -389.000; -518.000
295.728;   10.975; -292.000; -165.000
295.866;  -15.100;  -36.000;  -51.000
296.005;  -59.850; -584.000; -341.000
296.143;  -79.150; -558.000; -596.000
296.282; -103.675; -957.000; -881.000
296.420; -101.800; -657.000; -557.000
296.559;  -98.025; -892.000; -633.000
296.697;    4.000; -847.000; -665.000
296.835;   28.850;-1141.000;-1002.000
296.974;   49.350;  -23.000;   39.000
297.112;   -3.800; -443.000; -504.000
297.251;  -75.425; -815.000; -755.000
297.389;   64.400; -576.000; -438.000
297.527;   27.500; -145.000;  -83.000
297.666;  -63.125; -486.000; -438.000
297.804;  -56.550; -404.000; -264.000
297.942;   -9.775; -136.000; -161.000
298.081;  -13.300; -183.000;   63.000
298.219;   51.425;  -17.000;  -19.000
298.357;   39.200; -144.000;  -71.000
298.495;    5.150; -810.000; -812.000
298.634;   69.500;  245.000;  219.000
298.772;   42.325; -220.000; -338.000
298.910;  -50.725; -309.000; -182.000
299.048;  -19.200; -130.000; -153.000
299.187;  -46.600; -350.000; -250.000
299.325;   23.900;   52.000;  122.000
299.463;   27.525; -389.000; -299.000
299.601;   88.350; -327.000; -271.000
299.739; -118.750; -908.000; -883.000
299.877;  -87.025; -791.000; -703.000
300.016;  -58.950;-1095.000; -935.000
300.154;  130.175;  -19.000; -161.000
300.292;   37.700; -428.000; -348.000
300.430;   11.125; -408.000; -291.000
300.568; -101.325; -940.000; -874.000
300.706;  -51.125; -366.000; -469.000
300.844;  -90.225;-1108.000; -979.000
300.982;  118.200;  246.000;  282.000
301.120; -134.300; -965.000; -866.000
301.258;  -77.700; -812.000; -705.000
301.396;   35.000;  104.000;  -41.000
301.534;   60.275; -218.000; -293.000
301.672;  -14.800; -664.000; -521.000
301.810;    9.450; -613.000; -545.000
301.948;   98.100;   53.000;  149.000
302.086;  534.375; -250.000;  -32.000
302.224;  857.900; -610.000; -585.000
302.362;   20.100; -558.000; -622.000
302.500;  -37.850; -923.000; -893.000
302.638;   95.675;  128.000;  245.000
302.776;  -13.425; -352.000; -408.000
302.913;   34.175;  447.000;  236.000
303.051;   -9.875;  -86.000;  -23.000
303.189;   27.500;   90.000;  118.000
303.327;  -46.350; -341.000; -256.000
303.465;  -92.900; -832.000; -588.000
303.603;  -89.375; -805.000; -604.000
303.740;   91.900;  417.000;  241.000
303.878;   -1.625; -800.000; -759.000
304.016; -111.800; -915.000; -790.000
304.154; -135.350;-1123.000;-1152.000
304.291;  -39.300; -505.000; -554.000
304.429;   13.025;  102.000;   74.000
304.567; -134.850; -908.000; -893.000
304.705;  -72.475; -408.000; -515.000
304.842;   88.875; -616.000; -540.000
304.980;   47.700;  215.000;   35.000
305.118;   22.600; -367.000; -365.000
305.255;  -93.725; -945.000; -927.000
305.393;   42.325;  178.000;  239.000
305.531; -113.900;-1173.000; -956.000
305.668;  -77.950; -663.000; -582.000
305.806;   79.200; -358.000; -439.000
305.943;   88.700; -629.000; -637.000
306.081;   28.175; -378.000; -267.000
306.219; -102.950; -863.000; -748.000
306.356;   -8.100;  158.000;   27.000
306.494;  103.750;  981.000;  761.000
306.631;   -5.500;  -11.000;  -55.000
306.769;  -19.425; -613.000; -485.000
306.906;  -27.700; -284.000; -258.000
307.044;  -79.350; -473.000; -488.000
307.181;  -60.475; -410.000; -332.000
307.319;   -6.750;  112.000;   87.000
307.456; -180.550;-1191.000;-1153.000
307.594; -103.725; -980.000; -727.000
307.731;  -22.650; -371.000; -164.000
307.868;   -6.125;  -15.000;   20.000
308.006; -150.625; -961.000; -847.000
308.143;  -86.200; -618.000; -330.000
308.281;  105.825;  -37.000; -254.000
308.418;  -43.650; -748.000; -640.000
308.555;  -76.825; -400.000; -250.000
308.693;  -91.350; -577.000; -573.000
308.830; -112.550; -712.000; -657.000
308.967;  -21.325; -215.000;  -95.000
309.105;  -56.250; -507.000; -396.000
309.242;    9.975; -468.000; -367.000
309.379;  205.375; -577.000; -655.000
309.517;  -95.300; -936.000; -948.000
309.654; -121.825; -910.000; -734.000
309.791;  -85.900; -662.000; -580.000
309.928; -125.825; -977.000; -914.000
310.065;  163.325;  819.000;  697.000
310.203;  -26.375; -825.000; -850.000
310.340;  -26.325; -465.000; -321.000
310.477;  -83.925; -412.000; -516.000
310.614;  -73.725; -383.000; -473.000
310.751;  -77.525; -427.000; -518.000
310.889;  -36.600;    1.000;   11.000
311.026; -161.875;-1161.000; -939.000
311.163;  -62.825; -386.000; -380.000
311.300;  -81.975; -512.000; -479.000
311.437;  -83.250; -658.000; -619.000
311.574; -163.750;-1226.000; -985.000
311.711;  -80.050; -595.000; -433.000
311.848;  -50.075; -380.000; -388.000
311.985;    5.975;  270.000;   93.000
312.122; -138.425; -932.000; -762.000
312.259; -123.000; -941.000; -994.000
312.396;  -76.425; -508.000; -551.000
312.533;  -89.125; -812.000; -790.000
312.670; -160.325;-1070.000; -898.000
312.807;  -39.550; -352.000; -367.000
312.944;  -88.950; -513.000; -611.000
313.081;  -42.575; -150.000; -415.000
313.218; -116.250;-1111.000; -867.000
313.355;   -6.475; -531.000; -449.000
313.492;   -7.175; -455.000; -292.000
313.629;  125.875;  815.000;  735.000
313.766; -156.175;-1176.000;-1008.000
313.902;  -17.250; -186.000;   21.000
314.039;  -56.625; -372.000; -289.000
314.176;   19.675;  286.000;  192.000
314.313;  -73.750; -569.000; -473.000
314.450;  -88.300; -788.000; -684.000
314.587;  -78.600; -468.000; -480.000
314.723;   -7.700;  -78.000;  130.000
314.860;   29.050;  318.000;  332.000
314.997;   26.300;  223.000;  142.000
315.134;  -43.650; -385.000; -368.000
315.270;  -43.200; -480.000; -496.000
315.407; -144.025;-1094.000; -967.000
315.544;  -56.525; -657.000; -538.000
315.681;  -75.100; -681.000; -565.000
315.817;   15.350; -133.000; -176.000
315.954;    4.500; -613.000; -392.000
316.091; -127.175;-1045.000;-1023.000
316.227;  -34.675;  -71.000; -179.000
316.364;   -2.250;   23.000;    6.000
316.500;  -46.375; -113.000; -300.000
316.637;  -51.050; -181.000; -302.000
316.774;  -93.175; -625.000; -358.000
316.910;  -98.250; -598.000; -629.000
317.047;  -70.025; -487.000; -351.000
317.183;  -58.625; -435.000; -566.000
317.320;  -11.425; -367.000; -321.000
317.456;  -80.300; -733.000; -805.000
317.593; -105.100; -598.000; -641.000
317.729;  -11.925;  168.000;  -67.000
317.866; -215.025;-1434.000;-1285.000
318.002;  -91.075; -708.000; -948.000
318.139; -115.525; -883.000; -867.000
318.275; -108.225;-1003.000; -738.000
318.412;  -77.000; -517.000; -336.000
318.548;  -36.900; -751.000; -720.000
318.685;  -99.875; -985.000; -888.000
318.821; -103.850; -762.000; -735.000
318.957;  -24.400;   34.000;  -23.000
319.094;   41.200;  297.000;  154.000
319.230;  -60.700; -756.000; -742.000
319.367;  106.825; -471.000; -520.000
319.503;   39.825; -538.000; -436.000
319.639;  -97.150; -877.000; -793.000
319.775;  -64.700; -750.000; -685.000
319.912;  -63.100; -424.000; -519.000
320.048; -101.250;-1184.000;-1184.000
320.184;   77.175;   59.000;   70.000
320.321;  -76.000; -497.000; -467.000
320.457;   67.900;  475.000;  662.000
320.593;  -71.900; -375.000; -382.000
320.729; -105.175; -732.000; -734.000
320.866;  -77.350; -577.000; -635.000
321.002;  -95.400; -759.000; -809.000
321.138;  -17.075; -135.000; -211.000
321.274;   50.375; -148.000; -115.000
321.410;  -22.500; -585.000; -353.000
321.546;  -52.600;-1011.000; -911.000
321.683;   51.225;  400.000;  185.000
321.819;  -12.925;  -48.000; -117.000
321.955; -111.875; -743.000; -722.000
322.091;  -61.850; -585.000; -540.000
322.227;  -16.725; -382.000; -202.000
322.363;  -32.450; -320.000; -215.000
322.499;  -59.100; -343.000; -331.000
322.635;  141.875;  636.000;  443.000
322.771;   22.350; -139.000;   12.000
322.907;   78.200;  129.000;  327.000
323.043;  -20.325; -115.000; -206.000
323.179;  -27.100; -394.000; -363.000
323.315;    7.475; -401.000; -371.000
323.451;   83.175; -328.000; -236.000
323.587;   56.950;  -60.000;  -77.000
323.723;   -2.000; -682.000; -601.000
323.859;  -26.675; -258.000;  -76.000
323.995;  -32.275; -467.000; -409.000
324.131; -133.425; -967.000; -892.000
324.267;  -46.750; -254.000; -276.000
324.402; -143.525; -960.000; -983.000
324.538;  -33.200; -279.000; -104.000
324.674;   12.525;  164.000;   77.000
324.810;   98.350;  226.000;  308.000
324.946;  -11.350; -810.000; -658.000
325.082;  -82.650; -568.000; -475.000
325.217;  -11.425;  -62.000;   16.000
325.353; -112.400; -764.000; -659.000
325.489;  -92.075; -540.000; -506.000
325.625;  -95.175; -579.000; -525.000
325.760;   63.875;  517.000;  376.000
325.896;  -24.875; -515.000; -702.000
326.032;  -51.275; -403.000; -352.000
326.168;  -69.875; -462.000; -369.000
326.303;  -76.750; -352.000; -461.000
326.439;  -26.525; -336.000; -276.000
326.575;   -7.725; -190.000;  -29.000
326.710;  -11.000; -156.000;  -30.000
326.846;  -24.475;  146.000;  103.000
326.982;  -94.300; -530.000; -548.000
327.117;  -79.550; -481.000; -442.000
327.253;  -86.250; -745.000; -742.000
327.388; -178.975;-1137.000;-1153.000
327.524;  -61.900; -811.000; -578.000
327.659;  -21.800;  -58.000;  -22.000
327.795;  -12.100;   69.000;   45.000
327.931;  -96.975; -723.000; -499.000
328.066;  -33.350; -417.000; -276.000
328.202;  -24.250;   12.000; -129.000
328.337;   96.275;  957.000;  713.000
328.473;   39.800;  -12.000;  -74.000
328.608;  -26.625; -256.000; -267.000
328.743; -101.950; -799.000; -664.000
328.879;    5.825;  214.000;  114.000
329.014;  -43.475; -102.000; -122.000
329.150;  -97.975; -358.000; -483.000
329.285;  -80.150; -465.000; -466.000
329.421;  -53.625; -548.000; -246.000
329.556;  -32.025;  -36.000;   85.000
329.691; -106.125; -633.000; -615.000
329.827; -101.375; -626.000; -480.000
329.962;  -51.150;  131.000; -301.000
330.097;  -86.075; -673.000; -585.000
330.233;  -50.050; -410.000; -223.000
330.368; -129.650; -839.000; -628.000
330.503;  -28.925;    3.000;   98.000
330.638;   -0.925;  -93.000; -125.000
330.774;  -67.900; -609.000; -530.000
330.909;  -45.550; -434.000; -244.000
331.044; -106.925; -714.000; -708.000
331.179; -184.525;-1217.000;-1109.000
331.315;   -5.925;   77.000;   20.000
331.450;   17.875;  157.000;  285.000
331.585;  -86.250; -805.000; -706.000
331.720;  -86.600; -510.000; -460.000
331.855;  -20.500;  -35.000; -102.000
331.990;  246.775;   62.000;  138.000
332.126;  130.350; -110.000;   71.000
332.261;  -28.650; -379.000; -265.000
332.396;  -11.375; -135.000; -242.000
332.531; -117.425;-1074.000;-1031.000
332.666;   22.800; -519.000; -363.000
332.801; -116.525; -726.000; -807.000
332.936;  -34.700; -192.000; -122.000
333.071; -144.275; -870.000; -817.000
333.206;   21.500;  307.000;  379.000
333.341;   10.775;  344.000;  418.000
333.476;  -85.725; -627.000; -623.000
333.611;  -35.950; -251.000; -173.000
333.746;  -44.725; -381.000; -464.000
333.881; -134.100; -973.000; -935.000
334.016; -123.675; -936.000; -917.000
334.151; -140.000; -746.000; -702.000
334.286;   19.350;  152.000;  186.000
334.421;  -23.675; -125.000; -178.000
334.556;  -86.950; -611.000; -567.000
334.690;  -99.050; -631.000; -577.000
334.825;   45.150;  381.000;   83.000
334.960;  -61.650; -285.000; -413.000
335.095;    7.075;  135.000;  -91.000
335.230; -111.075; -722.000; -738.000
335.365; -155.375;-1084.000; -990.000
335.499; -141.700;-1108.000;-1037.000
335.634;   26.275;    9.000;  534.000
335.769; -101.775; -755.000; -720.000
335.904;  -69.750; -603.000; -561.000
336.038;  -60.500; -735.000; -657.000
336.173; -138.500;-1206.000;-1194.000
336.308;   -9.300; -116.000; -189.000
336.443;    4.975; -544.000; -634.000
336.577;  -79.975; -936.000; -787.000
336.712;   46.025;   -4.000;  -12.000
336.847;  -41.800; -724.000; -607.000
336.981;   57.700; -272.000; -208.000
337.116;  300.100;  615.000;  501.000
337.250;  124.975; -434.000; -421.000
337.385;  261.225; -297.000; -208.000
337.520;   95.925; -632.000; -603.000
337.654;  -49.075; -215.000; -126.000
337.789; -142.650; -989.000; -933.000
337.923;  -42.425; -104.000; -205.000
338.058; -100.200; -673.000; -738.000
338.192;  -41.950; -611.000; -488.000
338.327;  -17.600;  -18.000; -155.000
338.461;  -70.650; -299.000; -469.000
338.596;  -89.525; -780.000; -638.000
338.730; -111.725; -767.000; -803.000
338.865;   87.325;  -46.000; -140.000
338.999;  -63.900; -846.000; -702.000
339.134;  -37.900; -634.000; -536.000
339.268;   -2.675; -741.000; -603.000
339.403;  354.500; -740.000; -775.000
339.537;  120.000; -894.000; -820.000
339.671; -110.950; -829.000; -813.000
339.806;  -67.500; -556.000; -512.000
339.940;    8.500; -261.000; -235.000
340.074; -108.900; -685.000; -510.000
340.209;  -42.700; -351.000; -230.000
340.343;  -93.000; -517.000; -573.000
340.477;  154.550;  998.000; 1036.000
340.612;  -50.525;-1033.000; -900.000
340.746;  116.000; -199.000; -243.000
340.880;  -89.575; -924.000; -785.000
341.014;  -14.150;  -45.000; -154.000
341.149; -115.525; -756.000; -718.000
341.283; -112.400; -839.000; -754.000
341.417;  -99.025;-1124.000; -938.000
341.551;   97.000; -768.000; -708.000
341.685;  -55.400; -633.000; -611.000
341.820;  -64.600; -562.000; -493.000
341.954;  -55.550; -218.000; -349.000
342.088; -150.550;-1102.000;-1019.000
342.222;   45.275;  565.000;  618.000
342.356;  -67.425; -395.000; -335.000
342.490;  -99.675; -880.000; -841.000
342.624;  -53.900; -339.000; -242.000
342.758;  -17.025; -364.000; -312.000
342.892;  -73.275; -710.000; -585.000
343.026;  -54.875;  -58.000; -116.000
343.160;  -59.425; -426.000; -376.000
343.294;  -85.925; -474.000; -337.000
343.428;  -41.625; -488.000; -448.000
343.562;  -34.500; -172.000;  -23.000
343.696;  -40.025; -385.000; -314.000
343.830;  -23.200; -362.000; -356.000
343.964;    3.700; -231.000; -168.000
344.098;  820.650;  199.000;   70.000
344.232;  694.300; -266.000; -127.000
344.366;   73.800; -567.000; -453.000
344.500;   16.450; -665.000; -744.000
344.634;    4.575; -324.000; -164.000
344.768;  -30.300; -531.000; -341.000
344.902;   17.025;  278.000;  256.000
345.035;  -77.625; -556.000; -496.000
345.169; -137.100; -933.000; -656.000
345.303;  -19.950; -308.000; -482.000
345.437;  -88.500; -826.000; -717.000
345.571;  -74.700; -675.000; -594.000
345.704;  -63.875; -309.000; -532.000
345.838;  -29.975; -331.000; -284.000
345.972;  -46.050; -543.000; -495.000
346.106;  169.875; -179.000; -190.000
346.239;  388.325; -312.000; -243.000
346.373;   -6.625; -343.000; -302.000
346.507; -154.150; -950.000; -962.000
346.640;  117.175;  -30.000;   13.000
346.774;  -61.750; -650.000; -797.000
346.908;  -17.225; -138.000;  -11.000
347.041;  -95.650; -646.000; -593.000
347.175;   10.575;  259.000;   27.000
347.309;  -92.025; -698.000; -628.000
347.442; -106.175; -883.000; -732.000
347.576;  263.350;  670.000;  668.000
347.709;  169.475; -123.000;  -52.000
347.843; -106.950; -933.000; -825.000
347.976;   36.175;  235.000;  294.000
348.110; -184.975;-1268.000;-1186.000
348.243; -104.000; -679.000; -772.000
348.377;    3.200;  -26.000;   60.000
348.510;   49.875;  403.000;  540.000
348.644;  -45.850;  -37.000; -159.000
348.777;   -5.800;  180.000;  191.000
348.911;  -44.775; -142.000; -112.000
349.044;  156.375;  471.000;  448.000
349.178;  125.475;-1069.000;-1006.000
349.311;  104.700;  141.000;  255.000
349.444;  -13.000; -927.000; -813.000
349.578;  -40.525; -347.000; -200.000
349.711; -115.050; -959.000; -862.000
349.845;  -16.650; -661.000; -591.000
349.978; -150.450;-1224.000;-1137.000
350.111;  -97.300; -546.000; -612.000
350.244;  -83.625; -596.000; -700.000
350.378;    1.300; -392.000; -393.000
350.511;  -78.900; -393.000; -426.000
350.644; -120.775; -808.000; -806.000
350.778;    9.000;  168.000;  104.000
350.911;   -2.100;  134.000;  140.000
351.044;  -94.275; -685.000; -615.000
351.177;  -41.825; -321.000; -281.000
351.310;  -22.500;    3.000; -131.000
351.444;  -92.225; -888.000; -788.000
351.577;   91.025;  140.000;   90.000
351.710;   94.075;  593.000;  417.000
351.843;  -41.225; -165.000;  -77.000
351.976;    1.650;  149.000;  -79.000
352.109;  -96.550; -621.000; -612.000
352.242;  -36.400; -464.000; -419.000
352.376;  -76.950; -580.000; -636.000
352.509;  142.775; -437.000; -356.000
352.642;  -21.825; -654.000; -604.000
352.775;   39.525; -141.000;  -98.000
352.908; -125.550; -933.000; -904.000
353.041; -109.625; -814.000; -824.000
353.174;  -70.450; -551.000; -424.000
353.307;  -89.725; -753.000; -764.000
353.440;   70.975;  541.000;  453.000
353.573; -129.275; -957.000;-1008.000
353.706;  -66.325; -384.000; -558.000
353.839;  -27.125; -264.000; -220.000
353.971;  -94.725; -657.000; -512.000
354.104;  -96.250; -896.000; -835.000
354.237;  -55.875; -627.000; -662.000
354.370;  -93.275; -846.000; -879.000
354.503; -179.975;-1231.000;-1308.000
354.636;  -42.650; -529.000; -348.000
354.769; -144.925; -937.000; -860.000
354.902;  -17.650; -230.000; -139.000
355.034;  -20.500; -164.000; -220.000
355.167;  -22.200; -262.000; -162.000
355.300; -104.125;-1061.000; -880.000
355.433;  982.450;  -71.000;  -14.000
355.565; 1506.200; -402.000; -384.000
355.698;  392.650; -356.000; -296.000
355.831;  -18.000; -882.000; -801.000
355.964;   69.875; -285.000; -170.000
356.096; -102.600; -856.000; -843.000
356.229;    2.300; -523.000; -530.000
356.362;  313.225; -373.000; -266.000
356.494;  616.450; -229.000; -162.000
356.627;  429.675;  269.000;  377.000
356.760;  644.425;  120.000;   53.000
356.892;  954.675; -286.000; -601.000
357.025;  599.250;  403.000;  389.000
357.157;  534.625; -167.000; -179.000
357.290;  707.925; -856.000; -713.000
357.423;  193.000; -667.000; -556.000
357.555;  117.850; -217.000; -228.000
357.688;  117.625; -483.000; -364.000
357.820;  407.650; -870.000; -877.000
357.953; 3442.025; -563.000; -589.000
358.085;  711.350; -632.000; -612.000
358.218;  996.750;-1131.000; -932.000
358.350;  162.275;  -58.000;  312.000
358.483; -136.975;-1300.000;-1187.000
358.615;  -49.200;-1182.000;-1078.000
358.747;  -79.775;-1187.000;-1058.000
358.880;    6.200; -810.000; -744.000
359.012;  -28.825; -376.000; -202.000
359.145;  -46.025; -480.000; -511.000
359.277;   38.475; -962.000; -913.000
359.409; 2844.425;  536.000;  231.000
359.542;  710.650; -738.000; -688.000
359.674;   52.525;   46.000;   13.000
359.806;  -68.300; -565.000; -438.000
359.939;  -70.700; -617.000; -516.000
360.071;   -2.225; -583.000; -579.000
360.203;  -31.575; -411.000; -364.000
360.335;   41.675;  164.000;  -16.000
360.468;  162.950; -249.000; -307.000
360.600; 2299.425; -547.000; -454.000
360.732; 2860.825; -546.000; -423.000
360.864;  369.050;-1216.000;-1044.000
360.996;  228.500; -516.000; -554.000
361.129;   27.225; -389.000; -598.000
361.261;    7.225;  110.000; -113.000
361.393;  -51.200; -252.000; -214.000
361.525;   14.075;   94.000;  244.000
361.657;  -59.675; -821.000; -703.000
361.789;    7.950; -139.000; -155.000
361.921;  177.950; -642.000; -593.000
362.053;  236.575;  524.000;  541.000
362.185;   35.000;  288.000;   72.000
362.318;  -92.375; -709.000; -705.000
362.450;  105.050;  294.000;  444.000
362.582;   61.975; -913.000; -870.000
362.714;  -49.700; -353.000; -332.000
362.846;  -91.525; -606.000; -490.000
362.978; -151.325; -941.000; -811.000
363.109;   26.100; -161.000; -260.000
363.241;  374.850; -739.000; -749.000
363.373;  402.100; -649.000; -564.000
363.505;  677.025; -186.000;  -91.000
363.637;  137.375; -787.000; -601.000
363.769; -129.325;-1067.000;-1080.000
363.901;  -76.250; -596.000; -654.000
364.033; -133.875;-1103.000;-1062.000
364.165;  -17.900; -283.000; -283.000
364.296;   68.975; -316.000; -177.000
364.428;   66.125;-1344.000;-1220.000
364.560;  -81.275; -679.000; -661.000
364.692;  -74.675; -738.000; -835.000
364.824;  220.450; -588.000; -456.000
364.955;  432.925; -402.000; -564.000
365.087;  945.375;-1097.000; -852.000
365.219;   15.400; -686.000; -816.000
365.351;  -78.850; -526.000; -572.000
365.482;   49.100;  300.000;  240.000
365.614;  -51.650; -402.000; -314.000
365.746; -101.200; -729.000; -752.000
365.877; -114.775; -706.000; -672.000
366.009;  271.375;  -35.000;  -62.000
366.141;  -97.700;-1249.000;-1134.000
366.272; -118.750; -803.000; -719.000
366.404; -122.800;-1005.000; -874.000
366.535;   -8.950; -139.000;  -12.000
366.667; -112.100; -644.000; -649.000
366.799;   21.200;  353.000;  203.000
366.930; -136.525; -862.000; -996.000
367.062;  105.950; -639.000; -613.000
367.193;  154.500; -872.000; -842.000
367.325;  -60.875; -580.000; -684.000
367.456;   39.400; -246.000;   31.000
367.588;  163.025; -371.000; -318.000
367.719;   36.750;  -44.000;  -45.000
367.851;  -30.875; -222.000; -241.000
367.982;  -62.275; -875.000; -732.000
368.113;   62.625; -475.000; -358.000
368.245; -131.400; -960.000; -841.000
368.376;  -25.600; -254.000; -302.000
368.508;  -38.725; -188.000; -263.000
368.639; -151.575;-1166.000;-1034.000
368.770;  -35.400; -670.000; -589.000
368.902;  -79.250; -836.000; -926.000
369.033; -118.425; -906.000; -855.000
369.164;  -62.250; -720.000; -653.000
369.296; -110.100; -452.000; -601.000
369.427;  -20.875; -209.000; -144.000
369.558;  -73.375; -593.000; -377.000
369.689;  -89.775; -721.000; -569.000
369.821; -134.750; -951.000; -845.000
369.952;  -35.825;   42.000; -108.000
370.083;  -56.375; -229.000; -108.000
370.214; -101.025; -735.000; -650.000
370.345;  -18.425;   65.000;   81.000
370.477;  -95.300; -810.000; -790.000
370.608;  188.050; -328.000; -264.000
370.739;  -77.300;-1233.000;-1292.000
370.870;  -57.125;-1102.000; -923.000
371.001;   64.150; -378.000; -467.000
371.132;  -82.300; -754.000; -735.000
371.263;  -28.050;  -42.000; -148.000
371.394; -141.475; -841.000; -748.000
371.525;   21.100;  345.000;  225.000
371.657; -110.475; -808.000; -670.000
371.788;   58.550;  103.000;  199.000
371.919;  154.875; -384.000; -304.000
372.050; 3327.875;  -91.000; -156.000
372.181;  993.975; -188.000; -294.000
372.311;  307.675;   42.000; -127.000
372.442;   17.300; -457.000; -451.000
372.573;  -23.400; -444.000; -340.000
372.704; -138.200;-1008.000; -980.000
372.835;   60.575; -228.000; -289.000
372.966;  -72.825; -646.000; -554.000
373.097;  -82.300; -575.000; -711.000
373.228;  -54.075; -717.000; -542.000
373.359;  111.200; -824.000; -536.000
373.490;  840.600; -881.000; -727.000
373.620;  994.150;-1001.000; -803.000
373.751; 1609.950; -332.000; -396.000
373.882;  692.625; -663.000; -733.000
374.013;   43.775; -449.000; -262.000
374.143;  -42.750; -581.000; -659.000
374.274; -106.800; -987.000; -908.000
374.405;  149.025; -388.000; -276.000
374.536;  387.400; -526.000; -387.000
374.666;  986.600; -759.000; -807.000
374.797;  184.050; -817.000; -868.000
374.928;  748.325; -710.000; -560.000
375.058;  772.850; -535.000; -500.000
375.189;   54.775;  -59.000;  -93.000
375.320; -115.050; -928.000;-1034.000
375.450;  -45.200; -625.000; -616.000
375.581;  -50.650; -526.000; -436.000
375.712;  -49.900; -574.000; -250.000
375.842;  269.350; -438.000; -415.000
375.973;  183.625; -554.000; -513.000
376.103;  -63.025; -665.000; -648.000
376.234; -105.300; -531.000; -552.000
376.364;  -53.725; -944.000; -867.000
376.495;  276.500;  925.000;  529.000
376.625;  -26.925; -472.000; -485.000
376.756;   40.800; -709.000; -678.000
376.886;  -90.200;-1178.000;-1026.000
377.017;   49.075;-1048.000;-1061.000
377.147;  356.850; -786.000; -782.000
377.278;   61.675;  174.000;  228.000
377.408; -140.725; -801.000; -815.000
377.538;  -96.425; -707.000; -693.000
377.669;  -88.950; -537.000; -613.000
377.799; -105.350; -645.000; -635.000
377.929;  -67.325; -610.000; -428.000
378.060; -139.700; -781.000; -847.000
378.190;  -71.250; -726.000; -531.000
378.320;  -53.675; -401.000; -406.000
378.451;  -26.000; -131.000;  -22.000
378.581;  -14.125;  -67.000; -110.000
378.711;  132.675; 1035.000;  866.000
378.841;  -25.550; -533.000; -675.000
378.972;  -91.100; -871.000; -751.000
379.102;  -20.925; -652.000; -579.000
379.232;  -33.275; -126.000;  -73.000
379.362; -113.950;-1001.000; -885.000
379.492;   -4.700; -373.000; -424.000
379.623;   79.850;    0.000;  111.000
379.753; -116.325;-1107.000; -974.000
379.883;  173.925;   59.000;  156.000
380.013;  -23.375;-1081.000;-1017.000
380.143; -124.300;-1097.000;-1056.000
380.273; -111.125; -985.000; -861.000
380.403;   -5.450; -344.000; -257.000
380.533;  -35.550; -651.000; -664.000
380.663;   56.750;  173.000;  128.000
380.793; -112.525;-1027.000;-1074.000
380.923;  -23.875; -103.000;  -34.000
381.053; -103.275; -613.000; -623.000
381.183;  -28.075; -106.000; -248.000
381.313;   11.725; -656.000; -470.000
381.443;   13.400; -692.000; -473.000
381.573;  167.425; -402.000; -409.000
381.703;  202.775;-1249.000;-1095.000
381.833; -148.350;-1454.000;-1336.000
381.963;   86.925; -134.000;  -87.000
382.093; 1267.850; -925.000; -909.000
382.223;  372.575; -713.000; -602.000
382.353;  -48.250; -801.000; -608.000
382.482;  304.550;-1091.000; -964.000
382.612;  682.900; -872.000; -644.000
382.742;  364.950; -695.000; -622.000
382.872;  210.750; -565.000; -551.000
383.002;   52.800;  347.000; -132.000
383.131;  -32.925; -226.000; -160.000
383.261;  -67.650; -706.000; -768.000
383.391;  272.025; -552.000; -377.000
383.521; 3297.800;  451.000;  263.000
383.650;  761.300; -947.000; -904.000
383.780;  -24.800; -783.000; -656.000
383.910;  104.950;  880.000;  802.000
384.039;   -1.375; -794.000; -656.000
384.169;  164.425;-1205.000;-1017.000
384.299;  -44.650; -650.000; -662.000
384.428;  -91.675; -764.000; -680.000
384.558;  -73.775; -308.000; -275.000
384.687;  -54.375; -414.000; -334.000
384.817;   10.875;   75.000;   -2.000
384.947;   -1.400; -234.000; -141.000
385.076;  262.900;  982.000;  912.000
385.206;   86.600;  369.000;  480.000
385.335;  -59.725; -549.000; -417.000
385.465;  -87.300; -655.000; -663.000
385.594;  109.525;  -53.000;  -44.000
385.724;  347.175; -868.000; -838.000
385.853;   93.175; -296.000; -270.000
385.982; 1234.400; -743.000; -787.000
386.112; 1904.825;-1052.000; -871.000
386.241;  114.500; -307.000; -312.000
386.371;   -0.150; -174.000;  -87.000
386.500;  -28.375; -825.000; -789.000
386.629;   -1.200; -874.000; -817.000
386.759;   50.725;  -43.000;   68.000
386.888;  -33.350; -170.000; -250.000
387.017;  -88.600; -648.000; -620.000
387.147; -106.325; -771.000; -798.000
387.276;  -14.975; -410.000; -397.000
387.405;    2.775; -398.000; -342.000
387.535;  -58.350; -452.000; -361.000
387.664;  -76.575; -692.000; -620.000
387.793;   57.650; -198.000; -113.000
387.922;  441.900;  255.000;  200.000
388.052;    3.300; -576.000; -423.000
388.181;  -10.700; -342.000; -472.000
388.310;  -26.975; -889.000; -710.000
388.439;  -60.400; -749.000; -742.000
388.568;  159.875;  365.000;  244.000
388.697;  944.400; -756.000; -653.000
388.826;  148.300; -768.000; -666.000
388.956;   39.975; -285.000; -307.000
389.085;  -48.450; -347.000; -287.000
389.214; -121.725; -842.000; -872.000
389.343;  -76.325; -645.000; -413.000
389.472;  405.875;  126.000;  149.000
389.601;  485.150;   91.000;    0.000
389.730;  -13.550; -568.000; -687.000
389.859;   44.925;  226.000;   46.000
389.988;  149.575; -423.000; -408.000
390.117;  108.250; -168.000; -146.000
390.246;  -17.700; -331.000; -320.000
390.375;   52.250; -673.000; -626.000
390.504;  -76.475; -703.000; -621.000
390.633; -114.400; -672.000; -726.000
390.761;  -83.225; -732.000; -645.000
390.890;  -10.500;   -4.000; -130.000
391.019;  -38.825; -421.000; -441.000
391.148; -130.550; -826.000; -855.000
391.277;  -73.175; -576.000; -493.000
391.406; -104.200; -821.000; -805.000
391.534;   -0.100;  574.000; -301.000
391.663;  -64.075; -583.000; -645.000
391.792; -106.525; -673.000; -701.000
391.921;   64.875;   -3.000;   15.000
392.050;  130.850; -287.000; -228.000
392.178;  -67.525;-1206.000;-1061.000
392.307;  121.100; -758.000; -712.000
392.436;   30.450; -427.000; -641.000
392.564;    2.100;  166.000;   -6.000
392.693;  -97.325; -860.000; -682.000
392.822;  165.600; -529.000; -534.000
392.950;   53.575; -880.000; -714.000
393.079;  280.100; -188.000; -328.000
393.208;   -0.700; -488.000; -511.000
393.336;  -19.650; -170.000; -145.000
393.465;  -57.825; -317.000; -199.000
393.593;  -12.450;   62.000;   79.000
393.722; -169.250;-1121.000; -916.000
393.850;  -44.750; -188.000;  -61.000
393.979; -165.950; -926.000; -805.000
394.107;  -67.600; -517.000; -537.000
394.236;  -46.600; -570.000; -507.000
394.364;  166.275;  383.000;  206.000
394.493;  222.475; -911.000; -767.000
394.621;  -39.650; -955.000; -916.000
394.750;  711.650; -873.000; -923.000
394.878; 2999.500; -247.000; -149.000
395.007; 3998.375; -721.000; -807.000
395.135;  292.150; -790.000; -721.000
395.263;  -84.175;-1038.000;-1040.000
395.392;   -3.100;  -25.000; -107.000
395.520; -149.150; -818.000; -679.000
395.648; -102.375; -865.000; -915.000
395.777;  -33.350; -366.000; -405.000
395.905;  -75.100; -449.000; -564.000
396.033;   -0.225;  217.000;  172.000
396.162;  385.650; -399.000; -453.000
396.290;  332.250;  -17.000;   -2.000
396.418;   68.375; -555.000; -514.000
396.546; -100.975; -571.000; -466.000
396.674; -111.100; -850.000; -878.000
396.803;    5.675;  -72.000;  -23.000
396.931;   72.875; -179.000; -199.000
397.059;    7.075;-1026.000; -989.000
397.187; -125.100;-1026.000; -975.000
397.315; -139.400; -884.000; -649.000
397.443; -113.625; -592.000; -443.000
397.572;  -98.800; -578.000; -424.000
397.700;  -25.350; -607.000; -614.000
397.828;   -4.150;  120.000;  -90.000
397.956;  -53.775; -508.000; -478.000
398.084;  -70.000; -767.000; -626.000
398.212;   16.650;  137.000;  124.000
398.340;   -3.775;  -56.000;  159.000
398.468;    5.925; -390.000; -169.000
398.596; -153.275; -993.000; -953.000
398.724; -142.825; -762.000; -767.000
398.852; -187.275;-1024.000; -976.000
398.980;  -63.525; -560.000; -560.000
399.108;  -70.425; -982.000; -735.000
399.236;   16.075;   13.000;    8.000
399.363;    2.850;  222.000;  196.000
399.491;  -81.825; -404.000; -398.000
399.619; -132.275; -829.000; -800.000
399.747; -105.025; -859.000; -771.000
399.875;   62.300;  220.000;  234.000
400.003;  -57.250; -359.000; -284.000
400.130;  -95.600; -421.000; -341.000
400.258;  -31.775;  -83.000;   38.000
400.386;  -84.975; -352.000; -168.000
400.514;  -67.925; -526.000; -587.000
400.641; -115.700; -928.000; -802.000
400.769; -136.800; -979.000; -888.000
400.897; -132.325; -838.000; -793.000
401.025;  -20.025; -166.000; -152.000
401.152;   -4.575;  220.000;   38.000
401.280;  -94.150; -430.000; -429.000
401.408; -141.400; -712.000; -576.000
401.535; -119.225; -735.000; -758.000
401.663; -202.125;-1134.000;-1054.000
401.790;  -97.175; -514.000; -525.000
401.918;   29.275;  436.000;  405.000
402.046;  -20.625;  134.000;  122.000
402.173;  -46.900;  -18.000;    7.000
402.301;  -77.375; -519.000; -397.000
402.428;   32.825;  528.000;  383.000
402.556; -158.750;-1188.000; -913.000
402.683;  -48.050;  -20.000;   -1.000
402.811;  -36.050;  -37.000; -206.000
402.938;  -21.150;   20.000;   27.000
403.066;  159.900; -574.000; -558.000
403.193;  299.400;  299.000;  239.000
403.321;  227.200; -396.000; -574.000
403.448;  294.800;   83.000;   27.000
403.575;  132.750;  -90.000;  -46.000
403.703; -114.825; -732.000; -557.000
403.830;  -76.350; -531.000; -496.000
403.957; -151.750;-1117.000;-1023.000
404.085;    5.150;  -61.000; -172.000
404.212;   84.900;  -50.000;   63.000
404.339;  279.725; -566.000; -306.000
404.467; 5974.850; -612.000; -524.000
404.594; 3678.350; -287.000; -227.000
404.721;  811.375; -869.000; -764.000
404.848;   70.025; -113.000; -202.000
404.976; -115.750; -856.000; -783.000
405.103;   -7.375;  -14.000;  -82.000
405.230;   -1.775;  190.000;  226.000
405.357;    7.675;  117.000;   44.000
405.484;  247.500;  -49.000;    5.000
405.612;   30.800; -548.000; -563.000
405.739;  -67.025; -488.000; -243.000
405.866;   83.725;  669.000;  385.000
405.993;  -63.025; -398.000; -102.000
406.120; -143.725; -801.000; -887.000
406.247;  -76.975; -323.000; -342.000
406.374;  382.375;  540.000;  629.000
406.501;   61.200; -632.000; -702.000
406.628;  -92.525; -621.000; -589.000
406.755; -111.825; -803.000; -620.000
406.882;  -54.500; -228.000; -277.000
407.009; -119.825; -719.000; -628.000
407.136;   33.400; -480.000; -401.000
407.263;   75.025; -939.000; -829.000
407.390;  -86.025; -692.000; -614.000
407.517; -188.425;-1139.000;-1187.000
407.644;  -54.400; -332.000; -256.000
407.771;  -93.725; -249.000; -287.000
407.898;   -2.025;  168.000;  328.000
408.025;  -82.775; -421.000; -313.000
408.151;  -19.250;   82.000;  153.000
408.278;  -91.400; -267.000; -216.000
408.405; -117.900; -931.000; -899.000
408.532;  -72.175; -549.000; -542.000
408.659; -121.150; -677.000; -648.000
408.785; -209.050;-1298.000;-1170.000
408.912;  -66.725; -412.000; -296.000
409.039; -123.275; -610.000; -686.000
409.166; -107.025; -591.000; -555.000
409.292; -112.300; -571.000; -534.000
409.419; -137.125; -665.000; -649.000
409.546;  -83.325; -431.000; -192.000
409.672; -127.375; -713.000; -545.000
409.799;  -15.975;  -36.000;   34.000
409.926;  -46.050; -180.000; -179.000
410.052; -208.100;-1127.000;-1091.000
410.179;  -72.925; -368.000; -392.000
410.305; -104.500; -375.000; -493.000
410.432;  -59.950; -220.000; -333.000
410.558;  -97.025; -305.000; -380.000
410.685; -117.175; -688.000; -431.000
410.812; -117.150; -409.000; -588.000
410.938; -140.700; -964.000; -808.000
411.065; -108.050; -671.000; -645.000
411.191;  -38.200; -189.000; -174.000
411.317; -127.000; -823.000; -742.000
411.444;  -59.475; -317.000; -246.000
411.570;  -88.975; -339.000; -294.000
411.697; -136.225; -758.000; -752.000
411.823; -175.150; -989.000; -999.000
411.949;  -30.550;  -56.000;   17.000
412.076; -123.200; -539.000; -519.000
412.202; -140.575; -758.000; -757.000
412.329; -146.275; -798.000; -752.000
412.455; -129.000; -821.000; -657.000
412.581;  -31.675;  -15.000;  172.000
412.707;  -83.800; -540.000; -457.000
412.834;    0.350;  156.000;  219.000
412.960;  -85.375; -785.000; -784.000
413.086; -106.675; -743.000; -701.000
413.212;  131.975;  604.000;  578.000
413.339;  -75.975; -685.000; -701.000
413.465;  -17.600; -364.000; -310.000
413.591; -113.925; -757.000; -474.000
413.717;  -66.600; -358.000; -366.000
413.843; -151.550; -839.000; -861.000
413.969;  -64.225;  -47.000; -292.000
414.096; -112.125; -679.000; -679.000
414.222;  -23.300;  -33.000;   85.000
414.348;  -49.700; -652.000; -385.000
414.474;   62.900;   38.000;  -52.000
414.600;  -23.550; -126.000; -144.000
414.726;   -7.800;  -96.000;  -55.000
414.852;  -63.450; -365.000; -342.000
414.978;   18.600;  104.000;  -18.000
415.104;   30.150;   38.000;   80.000
415.230;   -2.625; -329.000; -330.000
415.356;   16.375; -409.000; -514.000
415.482;  193.950;   13.000;  -35.000
415.608;  258.575; -247.000; -323.000
415.734;  988.375;   67.000;   38.000
415.860;20466.300; -875.000; -767.000
415.986;14290.500; -685.000; -607.000
416.111; 1193.275; -798.000; -652.000
416.237;  253.500; -424.000; -571.000
416.363; 1186.975; -765.000; -733.000
416.489; 4248.650; -324.000; -251.000
416.615;  431.725; -707.000; -742.000
416.741;  -32.025; -677.000; -784.000
416.866;  -95.650; -673.000; -736.000
416.992; -139.025; -801.000; -818.000
417.118;  -37.300;  -41.000;  -80.000
417.244;  -73.500; -798.000; -531.000
417.369;  -84.175; -801.000; -612.000
417.495;  -21.475; -325.000; -254.000
417.621;  -98.925;-1015.000; -803.000
417.746;  -15.975; -579.000; -572.000
417.872;   33.375; -254.000; -144.000
417.998;   49.400; -515.000; -530.000
418.123; 1109.000;-1073.000; -845.000
418.249; 5484.975; -512.000; -601.000
418.374;  719.775; -916.000; -824.000
418.500;   77.725; -383.000; -482.000
418.626;   97.575;   70.000;  -59.000
418.751;  112.050; -549.000; -448.000
418.877;  191.925; -637.000; -643.000
419.002; 1892.975; -688.000; -560.000
419.128;12827.500; -930.000; -721.000
419.253; 3053.800; -967.000; -837.000
419.379;  384.950; -391.000; -338.000
419.504;  413.775;  325.000;  415.000
419.629;  533.225; -393.000; -212.000
419.755; 3773.375; -317.000; -254.000
419.880;21782.800;  -98.000;   67.000
420.006;11746.125; -280.000; -221.000
420.131;29734.525; -662.000; -775.000
420.256; 4136.700; -315.000; -316.000
420.382;  538.950; -665.000; -687.000
420.507;   66.225; -649.000; -778.000
420.632;  107.325; -337.000; -339.000
420.758;  189.150; -251.000; -425.000
420.883;  -97.600; -876.000; -672.000
421.008; -118.725; -775.000; -619.000
421.133;  -93.800; -509.000; -467.000
421.259;  -58.900; -325.000; -259.000
421.384; -129.125; -834.000; -693.000
421.509;  -58.500;-1052.000; -862.000
421.634; 1028.625; -936.000; -820.000
421.759;  409.525; -359.000; -327.000
421.885;  -73.325; -717.000; -656.000
422.010;  -93.500; -673.000; -542.000
422.135; -147.800; -695.000; -727.000
422.260;   24.050;  340.000;  280.000
422.385;  -55.900;   12.000;  -98.000
422.510;  -24.150;  151.000;  -26.000
422.635;   -6.050;  -87.000;  -43.000
422.760;   80.625; -766.000; -791.000
422.885;   48.875;  -57.000;  -80.000
423.010;  -39.025; -112.000; -169.000
423.135;  -99.700; -481.000; -561.000
423.260;  -35.225; -150.000; -245.000
423.385;   53.000;  476.000;  222.000
423.510;   20.375;   71.000;  -22.000
423.635;   66.000;  133.000;   45.000
423.760;   45.175;  383.000;  328.000
423.885;   47.525;  336.000;  391.000
424.010;    5.725;  -68.000;  -13.000
424.135;  -29.525;    5.000;  -33.000
424.259;  -98.275; -654.000; -457.000
424.384;  -76.600; -279.000; -272.000
424.509;  -39.225; -260.000; -186.000
424.634; -105.750; -761.000; -623.000
424.759;  -32.900; -688.000; -544.000
424.883;  -25.600; -506.000; -527.000
425.008;  167.100; -502.000; -410.000
425.133; 2044.275; -679.000; -653.000
425.258;  910.375; -517.000; -381.000
425.382;  964.475; -867.000; -774.000
425.507; 2382.300; -487.000; -543.000
425.632;  372.650; -802.000; -663.000
425.756;  467.200; -256.000; -146.000
425.881; 6942.150; -831.000; -857.000
426.006;18267.075; -604.000; -355.000
426.130; 2782.750; -696.000; -508.000
426.255;  348.300; -611.000; -491.000
426.379;  161.050; -189.000; -577.000
426.504;  365.850;  660.000;  544.000
426.629; 4129.375; -519.000; -466.000
426.753; 2730.550;   64.000;  -46.000
426.878;  312.625; -252.000; -288.000
427.002;  164.225; -651.000; -668.000
427.127; 1662.400;  -35.000; -158.000
427.251;11694.775;  372.000;  401.000
427.375; 3180.150; -191.000; -173.000
427.500; 2134.975; -616.000; -610.000
427.624;  678.950; -234.000; -400.000
427.749;   68.275; -216.000; -225.000
427.873;  -50.250; -499.000; -412.000
427.997;  -55.250; -222.000; -230.000
428.122;   65.150;  795.000;  703.000
428.246;   61.700;  433.000;  434.000
428.371; -147.200; -869.000; -773.000
428.495; -130.650; -624.000; -646.000
428.619;  -40.275; -186.000; -117.000
428.743;   15.850;   65.000;  132.000
428.868;   -4.125; -732.000; -643.000
428.992; 1265.875; -219.000; -326.000
429.116;  493.750; -329.000; -357.000
429.240;  229.225;  419.000;  426.000
429.365;  -31.450; -454.000; -574.000
429.489;  -66.325; -638.000; -647.000
429.613;    1.350; -236.000; -177.000
429.737;   33.975; -563.000; -432.000
429.861;  243.725; -247.000; -133.000
429.985; 5748.725; -425.000; -305.000
430.109; 6095.300; -770.000; -908.000
430.234;  695.450;   76.000;  -50.000
430.358;   50.900; -250.000; -160.000
430.482;  -79.200; -672.000; -564.000
430.606;  -78.650; -655.000; -375.000
430.730;   -6.675; -437.000; -388.000
430.854;   86.400; -909.000; -835.000
430.978;  -90.625; -795.000; -764.000
431.102; -107.625; -499.000; -422.000
431.226; -131.575; -874.000; -815.000
431.350;   15.450;  345.000;  422.000
431.474; -104.575; -661.000; -373.000
431.597; -171.100;-1060.000; -848.000
431.721;  -88.725; -276.000; -267.000
431.845; -147.975; -704.000; -472.000
431.969;  -88.625; -304.000; -349.000
432.093;  -99.800; -395.000; -317.000
432.217;  -22.600;   32.000;   82.000
432.341; -105.150; -523.000; -518.000
432.464;   -9.450;   96.000;   40.000
432.588;  158.925; -401.000; -329.000
432.712;   73.900;  -52.000;  -52.000
432.836;   47.950;  213.000;  263.000
432.959;  -39.900; -372.000; -311.000
433.083;   80.350;   11.000;    2.000
433.207;  382.925;  285.000;  930.000
433.330; 5293.375; -391.000; -200.000
433.454; 6315.600; -654.000; -638.000
433.578; 3662.625;  583.000;  278.000
433.701;  627.750; -623.000; -675.000
433.825;   96.825; -292.000; -299.000
433.949;  131.550;   28.000;  -72.000
434.072;   19.300; -410.000; -323.000
434.196;  -26.775; -309.000; -117.000
434.319; 3764.300;25482.000;25124.000
434.443;  731.900; -656.000; -603.000
434.566; 2686.625;  281.000;   62.000
434.690;  427.850; -637.000; -383.000
434.813;   44.900; -251.000; -173.000
434.937;  -82.000; -569.000; -696.000
435.060;  -43.450; -423.000; -332.000
435.184;  245.675; -492.000; -217.000
435.307;  126.800;  159.000;  102.000
435.431;  -10.575;  -40.000;   24.000
435.554;  -88.825; -399.000; -240.000
435.677;  -96.450; -350.000; -258.000
435.801;  -52.475;  -25.000;   49.000
435.924;  -24.000;    1.000;  -67.000
436.048; -138.000;-1019.000; -732.000
436.171;  -83.225; -240.000;  -66.000
436.294;  -25.975; -248.000; -229.000
436.417;  100.450; -963.000; -849.000
436.541;  -90.300; -814.000; -840.000
436.664;  -62.500; -242.000; -316.000
436.787;  -39.075;   13.000;  113.000
436.910; -123.975; -792.000; -422.000
437.034;  -20.175;  142.000;  143.000
437.157;   38.625;  -11.000;    0.000
437.280;  -59.775; -392.000; -292.000
437.403; -115.375; -982.000; -869.000
437.526;  530.425; -903.000; -865.000
437.649; 1937.750; -505.000; -332.000
437.772;  249.125; -692.000; -540.000
437.896;  114.050;  700.000;  544.000
438.019; -110.625; -758.000; -503.000
438.142; -109.850; -596.000; -506.000
438.265;  -40.175; -639.000; -670.000
438.388;  482.025; -520.000; -410.000
438.511;   50.925; -597.000; -394.000
438.634;  -65.100; -247.000; -125.000
438.757; -157.275; -693.000; -619.000
438.880;  -29.975;  -34.000;  -57.000
439.003; -103.300; -417.000; -437.000
439.126;  -63.725; -287.000; -167.000
439.248;  -69.400;  -98.000; -139.000
439.371;  -46.000;    9.000;  -53.000
439.494;   22.800;  510.000;  439.000
439.617;  -63.800;   65.000;  -88.000
439.740; -196.300; -968.000; -816.000
439.863; -149.025; -755.000; -595.000
439.986; -124.775; -476.000; -431.000
440.108;  -64.875; -161.000; -112.000
440.231; -168.925; -950.000; -836.000
440.354;  -51.450;  -64.000; -150.000
440.477;   -4.625; -566.000; -542.000
440.599;  -28.400; -200.000; -225.000
440.722; -125.550; -709.000; -586.000
440.845;   49.400;  751.000;  928.000
440.968; -120.700; -415.000; -311.000
441.090;  -84.275; -199.000;  -33.000
441.213; -189.150;-1021.000; -825.000
441.336;  -65.550; -159.000;   -5.000
441.458; -102.675; -549.000; -396.000
441.581; -112.675; -628.000; -629.000
441.703;  -87.325; -152.000;   13.000
441.826; -118.725; -557.000; -400.000
441.948;  -68.900;   56.000;   51.000
442.071;   13.375;  555.000;  424.000
442.193; -130.950; -531.000; -485.000
442.316;   -6.975;  152.000;   97.000
442.438;   27.275; -233.000;  -10.000
442.561;   43.250;  272.000;  262.000
442.683;  460.650; -809.000; -522.000
442.806;  989.850;   -8.000;   74.000
442.928;  -18.925; -859.000; -604.000
443.051;  -79.950; -577.000; -373.000
443.173; -106.725; -341.000; -339.000
443.295; -105.700; -263.000; -371.000
443.418;  -78.175; -321.000;  -29.000
443.540;  -23.050; -106.000;   -4.000
443.662; -128.575; -563.000; -465.000
443.785;  -22.950;  335.000;  199.000
443.907; -112.125; -362.000; -208.000
444.029; -143.575; -767.000; -494.000
444.152; -147.225; -644.000; -554.000
444.274;  -40.600;  -18.000;  -24.000
444.396; -127.750; -461.000; -221.000
444.518; -136.475; -691.000; -454.000
444.640; -120.950; -268.000; -111.000
444.763;  -26.725;  388.000;  249.000
444.885; -118.600; -432.000; -392.000
445.007;  -39.800;   35.000;   86.000
445.129; -132.025; -610.000; -515.000
445.251; -110.975; -372.000; -439.000
445.373; -155.550; -537.000; -386.000
445.495;  -10.750;  242.000;  350.000
445.617;   48.700;  853.000;  753.000
445.739;  -94.925; -215.000;  -97.000
445.861;  -37.750; -245.000; -112.000
445.984;  -48.800; -267.000; -101.000
446.105;  158.050; -418.000; -251.000
446.227;  509.400; -176.000;  -19.000
446.349;   -9.550; -358.000; -249.000
446.471; -117.600; -615.000; -448.000
446.593;  -70.800; -316.000;   19.000
446.715;  -25.925;  -67.000;   41.000
446.837;   48.650;  697.000;  832.000
446.959; -105.450; -457.000; -478.000
447.081; -138.450; -628.000; -518.000
447.203;   41.175;  862.000;  834.000
447.325;  -99.975; -270.000;   42.000
447.446;  -27.350;  286.000;  530.000
447.568; -173.750; -921.000; -803.000
447.690;  -89.225; -236.000; -245.000
447.812; -157.875; -798.000; -519.000
447.933;  -49.450;  155.000;  127.000
448.055;  -73.975; -306.000; -261.000
448.177;  121.200;   31.000;   79.000
448.299;   38.750; -935.000; -727.000
448.420;    4.850;  -25.000;  159.000
448.542;  -56.775;   -3.000;   33.000
448.664;  -42.275;  109.000;  322.000
448.785;  -46.050;  265.000;   83.000
448.907;  -85.325; -614.000; -353.000
449.028;  -40.975; -771.000; -471.000
449.150;   53.025;  492.000;  589.000
449.272; -191.975;-1044.000; -913.000
449.393;   22.250;  612.000;  694.000
449.515; -144.325; -634.000; -581.000
449.636;  -66.725; -264.000; -155.000
449.758;   60.550;  763.000;  622.000
449.879; -100.500; -498.000; -396.000
450.001; -102.200; -149.000;  -49.000
450.122;  -61.675;  -95.000;  162.000
450.244;  -24.050;   37.000;  364.000
450.365; -105.275; -495.000; -301.000
450.486;  -49.600;   80.000;  268.000
450.608;    6.525;  393.000;  326.000
450.729;   68.425;  578.000;  645.000
450.850;   -3.000; -574.000; -466.000
450.972;  818.275; -552.000; -389.000
451.093; 5062.350;  190.000;  588.000
451.214; 2131.950; -516.000; -337.000
451.336;  386.450;  773.000;  579.000
451.457;   52.325;  264.000;  393.000
451.578;  -45.725; -118.000;  -74.000
451.699; -129.775; -546.000; -540.000
451.821;  -69.200; -284.000;  -50.000
451.942;   -5.175;  278.000;  285.000
452.063;   14.600;  228.000;  419.000
452.184;  588.225;  -54.000;  -49.000
452.305; 1094.675;  103.000;  170.000
452.427;  125.925; -549.000; -301.000
452.548;  -30.200;   23.000;   79.000
452.669;  -59.100; -257.000;  -89.000
452.790;  -45.050;    3.000;  -18.000
452.911;  -16.375;  195.000;  259.000
453.032;  -77.550; -289.000;  -60.000
453.153;  -52.400;  -29.000;   81.000
453.274;   61.150;  737.000;  868.000
453.395;  -60.225;  -51.000;  175.000
453.516;   19.325; 1317.000; 1388.000
453.637;  -67.525; -205.000; -150.000
453.758;  -62.950;   15.000;   69.000
453.879; -136.675; -462.000; -250.000
454.000;   70.800; 1086.000;  948.000
454.121; -140.800; -554.000; -326.000
454.242; -120.950; -599.000; -383.000
454.362;  -72.300;  -99.000;  114.000
454.483;  -48.400; -309.000; -229.000
454.604;   53.925;  512.000;  580.000
454.725; -146.600; -627.000; -555.000
454.846; -130.000; -474.000; -406.000
454.967;  -45.775;  230.000;  539.000
455.087;  -53.050;  179.000;  153.000
455.208;   12.400;  554.000;  856.000
455.329;  -84.500;  -22.000;   82.000
455.450;   23.300;  473.000;  633.000
455.570; -102.200; -234.000; -211.000
455.691;  -67.825;  201.000;  407.000
455.812; -108.775; -270.000;  -92.000
455.932;  -64.350;  107.000;  -97.000
456.053;  -90.900;   36.000;   24.000
456.173; -120.950; -433.000; -355.000
456.294; -149.550; -476.000; -303.000
456.415;  -66.700;  -73.000;   70.000
456.535;  -48.975;  297.000;  273.000
456.656;  -43.400;  132.000;  240.000
456.776;  -75.875;    3.000;  298.000
456.897;  -11.950;  308.000;  513.000
457.017;  -70.625; -153.000;   -3.000
457.138; -102.025; -402.000; -249.000
457.258;  -26.700;  263.000;  224.000
457.379;  -28.875;  509.000;  521.000
457.499;  -32.475;  443.000;  432.000
457.620; -126.975; -407.000; -231.000
457.740; -106.675; -132.000;  -11.000
457.860;  -66.775;   87.000;   44.000
457.981;  -60.650;  132.000;  124.000
458.101;  -96.175;  -89.000;   40.000
458.221;  -33.125;  336.000;  402.000
458.342;  -71.100;   -4.000;  -37.000
458.462;   18.450;  617.000;  352.000
458.582;  -43.375; -302.000; -294.000
458.703;   -2.300;  303.000;  154.000
458.823;  -36.050;   22.000;  163.000
458.943;   11.425;  341.000;  467.000
459.063;  -12.625; 1124.000;  192.000
459.183;  -31.200;  328.000;  313.000
459.304;   -0.975;  315.000;  517.000
459.424;  -62.500; -246.000;  -89.000
459.544;  328.600;  388.000;  764.000
459.664;  844.600;  499.000;  506.000
459.784;  312.675; 1004.000; 1175.000
459.904;   49.475;  867.000;  744.000
460.024;   49.575;  867.000;  684.000
460.144;   -9.475;  449.000;  554.000
460.264;   -5.650;  515.000;  327.000
460.385; -110.875; -145.000; -119.000
460.505;   36.575;  905.000;  858.000
460.625;  -98.900;  -17.000;  -68.000
460.745;  -29.675;  396.000;  541.000
460.864;  -66.675;  153.000;  469.000
460.984;    4.225;  499.000;  573.000
461.104;  124.050; 1656.000; 1775.000
461.224;    6.725;  657.000;  650.000
461.344;  -42.825;  431.000;  360.000
461.464;  -45.925;  258.000;  513.000
461.584;  -44.375;  283.000;  466.000
461.704;  -60.350;   58.000;  108.000
461.824;  -73.175;  238.000;  259.000
461.943;  -63.025;  191.000;  130.000
462.063;  -79.000;    2.000;  324.000
462.183;   30.475;  639.000;  717.000
462.303;   89.400; 1678.000; 1230.000
462.422;   19.000;  781.000;  840.000
462.542;  -37.900;  271.000;  391.000
462.662;   36.100;  353.000;  380.000
462.782;  253.275;  833.000;  572.000
462.901;  491.350;  545.000;  717.000
463.021;  278.475; 1702.000; 1638.000
463.141;  -16.175;  337.000;  770.000
463.260;  -25.425;  614.000;  474.000
463.380;    3.075;  902.000;  884.000
463.499;  -49.575;  342.000;  332.000
463.619;  -43.750;  581.000;  559.000
463.738;  103.350; 1644.000;  903.000
463.858;    6.875;  657.000;  811.000
463.978;  -47.425;  542.000;  396.000
464.097;   38.950;  921.000; 1114.000
464.217;  111.425; 1196.000; 1143.000
464.336;  104.950; 1068.000; 1130.000
464.455;  -50.075;  328.000;  659.000
464.575;   28.925;  597.000;  602.000
464.694;  149.325; 1204.000; 1179.000
464.814;  133.975; 1190.000; 1138.000
464.933;   58.600; 1095.000; 1027.000
465.052;   86.025; 1412.000; 1054.000
465.172;   65.850;  922.000;  799.000
465.291;  102.275; 1376.000; 1320.000
465.410;    0.600;  462.000;  735.000
465.530;   69.425; 1355.000; 1310.000
465.649;   67.050; 1209.000; 1273.000
465.768;  135.575; 1673.000; 1508.000
465.888;   51.500;  941.000; 1174.000
466.007;   86.575; 1335.000; 1440.000
466.126;  -10.625;  721.000;  641.000
466.245;   49.800; 1176.000; 1187.000
466.364;    8.950;  950.000; 1060.000
466.484;   46.725; 1024.000; 1213.000
466.603;   32.950; 1101.000; 1222.000
466.722;  108.575; 1490.000; 1769.000
466.841;   50.475; 1151.000; 1401.000
466.960;   32.250; 1069.000;  972.000
467.079;  130.200; 1971.000; 1786.000
467.198;   35.825; 1238.000; 1181.000
467.317;   86.200; 1768.000; 1162.000
467.436;   53.675; 1709.000; 1261.000
467.555;  117.900; 1796.000; 1746.000
467.674;   54.525; 1227.000; 1329.000
467.793;   58.750; 1376.000; 1374.000
467.912;   84.100; 1658.000; 1539.000
468.031;  122.200; 2038.000; 1930.000
468.150;  126.550; 1842.000; 1837.000
468.269;  183.250; 2313.000; 2090.000
468.388;  185.300; 2168.000; 2339.000
468.507;  256.450; 2884.000; 2903.000
468.626;  209.050; 2555.000; 2541.000
468.744;  124.925; 2018.000; 2174.000
468.863;  179.825; 2312.000; 2523.000
468.982;   85.700; 1503.000; 1555.000
469.101;  221.075; 2788.000; 2692.000
469.220;  142.325; 2333.000; 2176.000
469.338;  253.000; 2935.000; 3051.000
469.457;  204.775; 2719.000; 2545.000
469.576;  336.575; 3953.000; 3784.000
469.695;  239.400; 2877.000; 3066.000
469.813;  428.325; 4148.000; 4192.000
469.932;  391.475; 4255.000; 4485.000
470.051;  428.950; 4075.000; 4161.000
470.169;  850.950; 4470.000; 4338.000
470.288; 1517.050; 4700.000; 4809.000
470.406;  841.200; 5059.000; 5194.000
470.525;  645.175; 6101.000; 5787.000
470.644;  658.700; 6847.000; 6794.000
470.762;  818.325; 8397.000; 7873.000
470.881;  921.625; 8651.000; 8464.000
470.999; 1038.475; 9685.000; 9151.000
471.118; 1096.375;11174.000;10711.000

