
Integration time [ms]: 100.000
Averaging Nr. [scans]: 40
Smoothing Nr. [pixels]: 0
Data measured with spectrometer [name]: 2101012U2
Wave   ;Sample   ;Dark     ;Reference
[nm]   ;[counts] ;[counts] ;[counts] 

197.733;   49.250;  516.000;  404.000
197.879;  -85.350; -610.000; -634.000
198.025;  -60.225; -475.000; -420.000
198.171;  -77.825; -602.000; -612.000
198.317;  -32.250; -401.000; -316.000
198.463;  -55.500; -655.000; -404.000
198.609;   16.150;  181.000; -137.000
198.755;  -71.325; -644.000; -410.000
198.901;  -58.450; -505.000; -424.000
199.047;  -64.950; -615.000; -488.000
199.193;  -49.975; -230.000; -468.000
199.339;  -34.800; -222.000; -369.000
199.485;   33.025;  330.000;  271.000
199.631;    7.950;  227.000;  310.000
199.777;  -58.725; -466.000; -398.000
199.923;  -70.575; -610.000; -424.000
200.069;    3.275; -141.000;  -58.000
200.215;   64.275;  128.000;  453.000
200.361;   42.400;  243.000;  477.000
200.507;  -58.525; -600.000; -373.000
200.653;  -25.725; -371.000; -194.000
200.798;  -41.625; -215.000; -125.000
200.944;  -15.425; -146.000;  -41.000
201.090;   30.150;   61.000;  222.000
201.236;   -8.550; -116.000; -158.000
201.382;  135.900;  874.000;  903.000
201.528;    2.725;  -58.000;  -48.000
201.674;  -43.450; -386.000; -293.000
201.819;  -72.350; -540.000; -439.000
201.965;  -78.400; -699.000; -447.000
202.111;  -22.775; -273.000; -226.000
202.257;  -29.475; -250.000; -238.000
202.402;    2.775;   13.000;  -36.000
202.548;  -35.475; -169.000; -116.000
202.694;   97.450;  410.000; -183.000
202.840;  -73.000; -603.000; -531.000
202.985;  -80.700; -681.000; -639.000
203.131; -105.825; -832.000; -666.000
203.277;  -23.200; -199.000; -262.000
203.423;  -51.175; -434.000; -520.000
203.568;  -38.550; -462.000; -237.000
203.714;  -52.875; -535.000; -542.000
203.860;  -83.775; -682.000; -641.000
204.005;   10.600;  112.000;  167.000
204.151;   73.975;  561.000;  556.000
204.296;  -41.950; -354.000; -221.000
204.442;  -78.300; -600.000; -547.000
204.588;  -72.400; -592.000; -579.000
204.733;   27.800;  178.000;  168.000
204.879; -120.175;-1018.000; -822.000
205.025;    3.925;  -99.000;  126.000
205.170;    4.050;  -17.000;   94.000
205.316;   84.650;  438.000;  661.000
205.461;  -92.950; -698.000; -554.000
205.607;   95.000;  609.000;  665.000
205.752;  -79.025; -626.000; -551.000
205.898;  -52.750; -501.000; -391.000
206.043;  -60.550; -578.000; -506.000
206.189;  -51.350; -243.000; -285.000
206.334;   89.350;  554.000;  606.000
206.480;  101.525;  409.000;  239.000
206.625;  -90.950; -529.000; -552.000
206.771;  -45.000; -451.000; -373.000
206.916;  -35.950; -210.000; -537.000
207.062;  -67.875; -545.000; -591.000
207.207;  -49.675; -546.000; -443.000
207.353;   72.325;  185.000;  460.000
207.498;  -10.850;  196.000;   85.000
207.643;  -47.325; -501.000; -370.000
207.789; -132.700;-1069.000; -910.000
207.934;  -95.725; -665.000; -713.000
208.080;  -34.200; -154.000;   66.000
208.225;   -8.800;  -22.000;  -57.000
208.370;  -65.725; -727.000; -619.000
208.516;  -77.600; -741.000; -487.000
208.661;  -31.000; -127.000;  -69.000
208.806;  -31.325; -165.000; -171.000
208.952; -124.400;-1044.000; -731.000
209.097;   81.175;  378.000;  349.000
209.242;  -47.675; -307.000; -382.000
209.387;   64.700;  392.000;  350.000
209.533;  -49.825; -321.000; -350.000
209.678;   69.850;  472.000;  543.000
209.823;  -54.075; -408.000; -310.000
209.969; -107.175; -860.000; -757.000
210.114; -116.900; -907.000; -719.000
210.259; -116.950; -939.000; -889.000
210.404;   -9.500; -171.000;  103.000
210.549;    8.800;  108.000;    3.000
210.695;  -12.400;   -3.000;  -95.000
210.840;   25.975;   94.000;   67.000
210.985;  -69.250; -484.000; -303.000
211.130;   67.250;  268.000;  406.000
211.275;   19.200;  207.000;  199.000
211.420;  -49.625; -300.000; -289.000
211.566;  -73.725; -536.000; -489.000
211.711;   25.425;  218.000;  157.000
211.856;  -63.325; -545.000; -519.000
212.001;   12.875;  151.000;   44.000
212.146;   29.525;  153.000;   49.000
212.291;  -37.350; -210.000; -186.000
212.436;  -23.675; -280.000;   -6.000
212.581;  -85.125; -685.000; -653.000
212.726;  -69.925; -487.000; -538.000
212.871;  -54.800; -552.000; -217.000
213.016; -154.650;-1172.000;-1029.000
213.161;   73.875;  406.000;  291.000
213.306;  -66.475; -435.000; -577.000
213.451;  -95.250; -778.000; -689.000
213.596;  -36.150; -455.000; -347.000
213.741;  -58.475; -448.000; -538.000
213.886;  -60.325; -498.000; -517.000
214.031;  -17.250; -294.000; -124.000
214.176;  -53.375; -408.000; -341.000
214.321;  -24.575; -296.000; -157.000
214.466;  -22.250; -163.000;  -43.000
214.611;   -3.900;  -61.000;  -10.000
214.756; -118.500; -948.000; -858.000
214.901;  -27.500; -388.000; -226.000
215.046; -125.775; -797.000; -825.000
215.191;    4.475;  128.000;   35.000
215.336;  -31.075; -157.000;  -19.000
215.480;  -67.500; -684.000; -505.000
215.625;   -8.625; -175.000;  -19.000
215.770;  -88.875; -757.000; -662.000
215.915;   -4.600;   -5.000;  -97.000
216.060;   -7.200; -113.000;  -21.000
216.205; -106.900; -731.000; -779.000
216.349;  -84.125; -470.000; -533.000
216.494; -137.150; -939.000; -867.000
216.639; -118.975; -823.000; -888.000
216.784;  -89.000; -577.000; -525.000
216.929;   51.425;  392.000;  281.000
217.073;  -12.800; -244.000;  -31.000
217.218;   -0.125;   78.000;  -47.000
217.363;  -90.825; -656.000; -618.000
217.507;  -75.175; -623.000; -588.000
217.652; -116.125; -845.000; -874.000
217.797;  -91.500; -708.000; -659.000
217.942; -100.450; -856.000; -720.000
218.086;   76.125;  608.000;  539.000
218.231;  -13.250; -174.000;  -26.000
218.376;  -21.100; -337.000; -229.000
218.520;    3.600;  -41.000;   96.000
218.665;  -39.350; -338.000; -204.000
218.810;  -42.025; -275.000; -233.000
218.954;   27.875;  201.000;   35.000
219.099; -117.275; -713.000; -963.000
219.243;  -73.800; -589.000; -554.000
219.388;  -32.200; -264.000; -136.000
219.532;    0.700; -116.000; -116.000
219.677;  -83.025; -564.000; -521.000
219.822;   11.450;   33.000;   89.000
219.966;    9.000;   17.000;  -99.000
220.111;  -28.250; -328.000;  -40.000
220.255;  -95.650; -797.000; -750.000
220.400;  -11.450; -180.000; -146.000
220.544;  -67.975; -516.000; -450.000
220.689;  -44.750; -422.000; -451.000
220.833;  -17.575; -123.000;  -58.000
220.978;  -54.500; -393.000; -563.000
221.122;   14.450;  319.000;  307.000
221.267;  -95.925; -906.000; -837.000
221.411;  -64.575; -478.000; -394.000
221.555;   -3.775; -104.000;  -23.000
221.700;  -56.900; -329.000; -222.000
221.844;   24.775;  255.000;  272.000
221.989;  -45.500; -328.000; -311.000
222.133;  -27.500; -289.000; -307.000
222.277;   -3.000;    5.000;   78.000
222.422;   27.400;  227.000;  113.000
222.566;  -50.300; -381.000; -214.000
222.711;  -76.050; -414.000; -479.000
222.855;  -76.350; -643.000; -586.000
222.999;  -73.775; -642.000; -717.000
223.144;  -33.675; -195.000; -194.000
223.288;   50.600;  423.000;  251.000
223.432;   25.475;  184.000;  230.000
223.576;   13.475;  152.000;  -21.000
223.721;   45.150;  364.000;  273.000
223.865;  -55.575; -472.000; -475.000
224.009;  249.700; 1673.000; 1631.000
224.153;  -91.250; -660.000; -671.000
224.298;  -59.875; -531.000; -489.000
224.442;   -5.975;  -74.000;  -33.000
224.586;   -4.150; -169.000; -106.000
224.730; -104.750; -858.000; -670.000
224.875; -114.950; -739.000; -688.000
225.019;   20.875;  102.000;  188.000
225.163;   51.450;  208.000;  341.000
225.307;   11.075;   97.000;  -91.000
225.451;   64.150;  360.000;  481.000
225.595;   17.125;  264.000;  176.000
225.739;  -23.775; -170.000;  -94.000
225.884;   -7.375;   86.000;    5.000
226.028; -103.175; -760.000; -626.000
226.172;  -48.200; -260.000; -273.000
226.316; -125.050; -941.000; -902.000
226.460;  -76.725; -645.000; -493.000
226.604;  -51.675; -406.000; -400.000
226.748; -101.625; -836.000; -733.000
226.892;  -31.025; -227.000; -181.000
227.036;  -41.325; -537.000; -447.000
227.180;  -55.100; -551.000; -375.000
227.324;  -65.075; -561.000; -580.000
227.468; -112.925; -819.000; -717.000
227.612;   18.700;  242.000;  -28.000
227.756; -100.025; -845.000; -698.000
227.900;   56.450;  342.000;  441.000
228.044;  -58.000; -509.000; -290.000
228.188;   43.750;  448.000;  568.000
228.332;  -89.375; -546.000; -472.000
228.476;  -25.500; -223.000; -149.000
228.620;  -35.200; -210.000; -150.000
228.764;   74.950;  431.000;  349.000
228.908;  -23.725; -155.000;   30.000
229.052;  -65.150; -615.000; -528.000
229.195;  -12.825; -172.000;   13.000
229.339;  -27.400; -235.000; -305.000
229.483;  -32.950;    5.000; -162.000
229.627;   -1.625; -156.000;  139.000
229.771;  -60.250; -218.000; -294.000
229.915;    8.800;  230.000;   79.000
230.059;  -80.125; -648.000; -663.000
230.202;  -44.725; -370.000; -317.000
230.346;  -22.200; -107.000;  107.000
230.490;  -57.325; -489.000; -521.000
230.634; -114.575; -736.000; -553.000
230.777;   76.825;  478.000;  509.000
230.921;  -60.875; -450.000; -359.000
231.065;  -54.400; -246.000; -286.000
231.209;   17.975;  261.000;  265.000
231.352;    7.750;   54.000;   40.000
231.496;   18.450;  568.000;  188.000
231.640;  -94.425; -693.000; -621.000
231.783;   59.475;  546.000;  525.000
231.927;  -53.800; -294.000; -365.000
232.071; -129.750; -962.000; -736.000
232.214; -111.975; -980.000; -764.000
232.358; -100.500; -683.000; -599.000
232.502;    2.650;  -19.000;    7.000
232.645; -137.625;-1090.000; -927.000
232.789;  -17.925; -257.000; -218.000
232.933;  -45.225; -407.000; -224.000
233.076; -122.875;-1038.000; -897.000
233.220; -112.575; -752.000; -777.000
233.363;  -77.950; -669.000; -477.000
233.507;   48.525;  371.000;  129.000
233.650;  -96.375; -764.000; -834.000
233.794;   41.525;  438.000;  461.000
233.938;  -68.500; -530.000; -362.000
234.081;  -27.825;  -93.000;   31.000
234.225;  -72.400; -631.000; -539.000
234.368; -122.025; -773.000; -723.000
234.512;  -40.000; -385.000; -299.000
234.655;  -88.425; -582.000; -555.000
234.798;  -64.575; -493.000; -466.000
234.942; -125.200; -884.000;-1002.000
235.085;  -80.675; -651.000; -443.000
235.229;  -67.700; -405.000; -410.000
235.372;  -56.575; -247.000; -191.000
235.516;  -54.575; -397.000; -321.000
235.659;   25.975;   92.000;  121.000
235.802;  -16.825;  -38.000;  -22.000
235.946;   12.400;  335.000;  215.000
236.089;   23.450;  126.000;  250.000
236.233;   41.825;  275.000;  298.000
236.376;  -42.825; -235.000; -378.000
236.519;  -44.400; -297.000; -319.000
236.663;  -23.225; -215.000; -117.000
236.806; -142.725;-1029.000; -999.000
236.949;   73.050;  543.000;  431.000
237.092;   49.850;  412.000;  391.000
237.236;  -78.675; -589.000; -502.000
237.379;   57.400;  352.000;  428.000
237.522; -122.100; -879.000; -768.000
237.666;  -26.850; -271.000;   18.000
237.809; -127.300; -851.000; -823.000
237.952;   27.025;  469.000;  271.000
238.095;  -57.975; -447.000; -442.000
238.238;   69.125;  688.000;  700.000
238.382;   -0.100;  166.000;  103.000
238.525;  -69.350; -598.000; -511.000
238.668; -131.825;-1060.000; -985.000
238.811;  -91.650; -638.000; -643.000
238.954;  -53.075; -483.000; -334.000
239.097;   85.800;  617.000;  664.000
239.241;   11.400;  394.000;  326.000
239.384;  -33.025; -254.000; -214.000
239.527;  -53.800; -424.000; -224.000
239.670; -155.325; -994.000;-1091.000
239.813; -112.075; -696.000; -658.000
239.956;   71.725;  579.000;  473.000
240.099;  -98.425; -778.000; -725.000
240.242;   64.100;  428.000;  432.000
240.385;   53.475;  466.000;  450.000
240.528;  -79.275; -706.000; -473.000
240.671;   17.825;  189.000;  134.000
240.814;  -35.650; -441.000; -158.000
240.957;  -99.975; -767.000; -578.000
241.100;  -92.650; -779.000; -755.000
241.243; -139.050;-1234.000; -893.000
241.386;  -60.100; -508.000; -379.000
241.529;  -77.850; -735.000; -547.000
241.672;  -68.400; -566.000; -495.000
241.815; -113.525; -832.000; -808.000
241.958;  -27.575; -125.000; -182.000
242.101;  -77.750; -545.000; -390.000
242.244;  -55.350; -270.000; -325.000
242.387;  -41.575; -304.000; -246.000
242.530;   62.275;  470.000;  134.000
242.673;  -33.075; -381.000; -309.000
242.815; -119.600; -925.000; -899.000
242.958;  -80.725; -482.000; -381.000
243.101;    7.750;  132.000;  187.000
243.244;  -83.275; -564.000; -521.000
243.387;  -48.700; -313.000; -316.000
243.530;  -93.125; -657.000; -674.000
243.672;    4.325;   43.000;  -92.000
243.815;  -50.050; -355.000; -283.000
243.958;   -0.600;   98.000;  -26.000
244.101;   -7.975;   59.000;  -16.000
244.243;  -13.450;  -47.000;  101.000
244.386; -119.975; -761.000; -630.000
244.529;  -26.850; -132.000; -139.000
244.672; -156.375;-1154.000; -951.000
244.814; -103.375; -621.000; -794.000
244.957;  -68.200; -380.000; -304.000
245.100;  -78.750; -489.000; -489.000
245.242;  -70.625; -387.000; -374.000
245.385;   -9.650;  -59.000;  -39.000
245.528; -126.725; -871.000; -705.000
245.670;  103.900;  612.000;  634.000
245.813;  -81.450; -599.000; -547.000
245.956;  -26.000; -324.000; -275.000
246.098;  -86.325; -508.000; -650.000
246.241;    5.400;  194.000;   48.000
246.383;  -19.100; -119.000;  -73.000
246.526;  -66.850; -454.000; -525.000
246.669; -126.950; -889.000; -780.000
246.811;   22.275;  172.000;   -1.000
246.954;  -63.675; -512.000; -426.000
247.096;  -33.100;  -84.000;   -6.000
247.239;  -72.125; -482.000; -445.000
247.381;  -61.525; -647.000; -488.000
247.524;   85.850;  645.000;  679.000
247.666;  -27.250;   58.000;   11.000
247.809; -111.400; -887.000; -691.000
247.951;   -0.875;  -75.000;  138.000
248.094;    9.725;  432.000;  308.000
248.236; -165.450;-1262.000;-1238.000
248.378;    8.425; -356.000;  -81.000
248.521;  -35.275; -334.000; -337.000
248.663;  -43.750; -236.000; -267.000
248.806;  -20.100; -300.000; -266.000
248.948;  -93.775; -886.000; -763.000
249.090;  -47.000; -428.000; -398.000
249.233;  -49.950; -344.000; -381.000
249.375;  -61.775; -474.000; -451.000
249.518;  -25.675;  -83.000; -133.000
249.660;   -9.000; -103.000;    3.000
249.802; -168.225;-1303.000;-1189.000
249.945;  -72.950; -612.000; -540.000
250.087; -107.850; -834.000; -768.000
250.229;  -51.675; -362.000; -480.000
250.371;  -78.375; -494.000; -439.000
250.514;  -41.125; -310.000; -244.000
250.656;  -66.925;   69.000;  102.000
250.798; -118.500; -849.000; -800.000
250.940;  -63.650; -322.000; -322.000
251.083;  -21.650; -335.000; -111.000
251.225;   63.050;  338.000;  310.000
251.367;  -36.325; -274.000; -373.000
251.509;  -42.525; -265.000; -210.000
251.651;  -97.475; -731.000; -671.000
251.794;   75.775;  538.000;  632.000
251.936; -113.250; -821.000; -747.000
252.078;  -68.475; -540.000; -461.000
252.220;  -75.325; -645.000; -477.000
252.362;   85.675;  344.000;  462.000
252.504;  -57.925; -677.000; -584.000
252.646; -113.600; -875.000; -722.000
252.788;  -10.025;   14.000; -128.000
252.931;  -41.225; -257.000; -253.000
253.073;  -46.500; -376.000; -317.000
253.215;    5.175;  141.000;  122.000
253.357;  -15.875;   82.000; -153.000
253.499;  -49.900; -374.000; -234.000
253.641;  -84.100; -749.000; -594.000
253.783;  -77.225; -609.000; -527.000
253.925;  -89.250; -586.000; -591.000
254.067; -112.200; -744.000; -667.000
254.209;  -30.900; -391.000; -259.000
254.351; -135.225; -865.000; -883.000
254.493;  -59.800; -441.000; -417.000
254.635; -122.250; -936.000; -818.000
254.777;  -99.300; -752.000; -687.000
254.918;  -63.825; -512.000; -430.000
255.060;  -58.500; -551.000; -395.000
255.202;  -57.975; -473.000; -261.000
255.344;  -73.075; -658.000; -455.000
255.486;  -67.350; -471.000; -406.000
255.628; -114.075; -780.000; -781.000
255.770; -100.550; -676.000; -536.000
255.912;  -72.225; -559.000; -468.000
256.053;  -91.225; -730.000; -508.000
256.195;  147.525; 1008.000;  903.000
256.337; -106.925; -861.000; -595.000
256.479;   51.275;  532.000;  416.000
256.621;  -42.575; -394.000; -212.000
256.762; -101.350; -789.000; -742.000
256.904;   51.175;  485.000;  487.000
257.046;  -52.575; -381.000; -271.000
257.188;  -45.425; -351.000; -264.000
257.329;  -73.400; -525.000; -464.000
257.471; -118.100; -939.000; -807.000
257.613;  -73.775; -584.000; -498.000
257.755; -140.225;-1073.000; -982.000
257.896;   30.700;  286.000;  392.000
258.038;  -83.650; -403.000; -352.000
258.180;  -49.425; -354.000; -279.000
258.321;  -82.350; -581.000; -457.000
258.463;   -2.775;  -71.000;  133.000
258.605;  -87.025; -562.000; -570.000
258.746; -105.025; -886.000; -772.000
258.888; -153.900;-1026.000;-1020.000
259.029;   14.500;  121.000;   -8.000
259.171; -102.425; -614.000; -550.000
259.313;  -13.300;  -49.000;  -47.000
259.454;  -69.125; -536.000; -414.000
259.596;  -46.675; -483.000; -390.000
259.737;  -70.775; -590.000; -474.000
259.879;   41.900;  217.000;  311.000
260.020;  105.025;  901.000;  636.000
260.162;  -28.975; -146.000; -253.000
260.303; -126.750; -768.000; -687.000
260.445;  -91.450; -609.000; -613.000
260.586;   23.150;  392.000;  157.000
260.728;  -41.125; -360.000; -248.000
260.869;  -56.300; -350.000; -343.000
261.011;   77.425;  706.000;  537.000
261.152;  -60.400; -479.000; -319.000
261.293;  -79.975; -576.000; -595.000
261.435;  -31.025; -219.000; -184.000
261.576;  -54.250; -455.000; -325.000
261.718;   56.525;  420.000;  470.000
261.859; -139.850; -940.000; -949.000
262.000; -130.150; -951.000;-1016.000
262.142;  -18.550;  -52.000;  -60.000
262.283; -114.325; -808.000; -691.000
262.424;  -90.075; -666.000; -625.000
262.566; -160.150;-1161.000; -983.000
262.707; -113.775; -840.000; -830.000
262.848; -118.650; -769.000; -726.000
262.990;  -41.550; -362.000; -345.000
263.131;   80.575;  650.000;  681.000
263.272;  -10.475;  -61.000;  -41.000
263.413;  -91.625; -589.000; -561.000
263.555;  -79.900; -669.000; -143.000
263.696;  -76.900; -550.000; -641.000
263.837;  -62.900; -449.000; -551.000
263.978;   -5.725;   -5.000;  -77.000
264.119;  -44.350; -283.000; -264.000
264.261; -108.200; -847.000; -630.000
264.402;   -4.700;   33.000;   40.000
264.543;  -81.075; -509.000; -524.000
264.684;   -2.725;   61.000;  -50.000
264.825;  -63.925; -816.000; -538.000
264.966;  -16.000;  -84.000;  -67.000
265.107; -119.425; -646.000; -670.000
265.248; -130.250; -825.000; -812.000
265.390;  -14.200;  152.000;   -9.000
265.531;  -25.800; -238.000; -107.000
265.672; -101.125; -557.000; -630.000
265.813;   60.125;  563.000;  439.000
265.954; -147.850; -959.000; -940.000
266.095;  -12.525; -372.000; -322.000
266.236; -119.275; -686.000; -548.000
266.377;  -37.850; -243.000; -297.000
266.518;  -77.650; -619.000; -547.000
266.659;   24.850;  170.000;  268.000
266.800;   16.100;   83.000;   85.000
266.941;  -83.850; -487.000; -478.000
267.082;   34.450;  354.000;   99.000
267.223;  -60.625; -344.000; -273.000
267.364; -119.725; -892.000; -686.000
267.504;   -7.500;    3.000;  135.000
267.645;   -0.750;  160.000;   67.000
267.786;  -40.900; -147.000;  -86.000
267.927;  -61.300; -473.000; -379.000
268.068;   -8.800; -186.000;  -61.000
268.209;  -50.925; -175.000; -413.000
268.350;  -61.200; -388.000; -532.000
268.490;  -85.725; -648.000; -521.000
268.631;   30.950;  127.000;  225.000
268.772; -120.150; -874.000; -647.000
268.913;  -45.350; -328.000; -476.000
269.054;   -4.025; -117.000;   12.000
269.194;  -52.175; -418.000; -402.000
269.335; -162.875;-1137.000;-1074.000
269.476;  -24.875;   33.000;  -35.000
269.617;  -61.700; -347.000; -392.000
269.757;  -92.350; -713.000; -646.000
269.898; -103.775; -856.000; -613.000
270.039;  -54.225; -415.000; -405.000
270.180; -136.375; -952.000; -816.000
270.320;  -26.750; -190.000; -250.000
270.461;  -50.800; -277.000; -249.000
270.602;  -17.775; -186.000; -156.000
270.742; -116.150; -868.000; -943.000
270.883;  -53.400; -442.000; -390.000
271.023;  -75.025; -358.000; -357.000
271.164;  -72.475; -607.000; -528.000
271.305;  -94.250; -666.000; -654.000
271.445;  -78.175; -722.000; -683.000
271.586;  -63.900; -462.000; -283.000
271.726;  -49.950; -397.000; -322.000
271.867;  -53.025; -594.000; -534.000
272.008;  205.000; -473.000; -285.000
272.148;  143.600;  462.000;  468.000
272.289;   28.900; -113.000; -181.000
272.429;    9.000;   19.000;  185.000
272.570;  -86.975; -633.000; -737.000
272.710;  -95.000; -825.000; -775.000
272.851;  -31.750;  113.000; -130.000
272.991; -157.075;-1173.000;-1077.000
273.131;  -64.600; -419.000; -459.000
273.272;  -97.350; -683.000; -723.000
273.412;   21.600; -143.000;  -31.000
273.553;  -49.950; -488.000; -507.000
273.693;  128.575;  913.000;  858.000
273.834;  -92.725; -894.000; -692.000
273.974;  -65.275; -664.000; -615.000
274.114;  -85.375; -772.000; -560.000
274.255;   80.050;  414.000;  373.000
274.395;   11.225; -180.000; -125.000
274.535;   34.975;  199.000;  350.000
274.676;   20.150;  225.000;   94.000
274.816;    3.725;  110.000;   34.000
274.956;  -81.075; -624.000; -690.000
275.097;  -51.125;-1014.000; -922.000
275.237;  -96.025; -913.000; -803.000
275.377;  -98.750; -778.000; -689.000
275.517; -134.975; -878.000; -937.000
275.658;  -53.500; -590.000; -555.000
275.798;  -60.975; -606.000; -413.000
275.938;   21.575;  215.000;  323.000
276.078; -103.925; -626.000; -395.000
276.218;    7.225;   99.000;  104.000
276.359; -133.875;-1026.000;-1024.000
276.499;  -68.000; -605.000; -446.000
276.639;  -35.325; -305.000; -151.000
276.779;  -55.050; -475.000; -357.000
276.919; -104.200; -783.000; -624.000
277.059;  -36.600; -261.000; -212.000
277.199;  -52.375; -357.000; -259.000
277.340;   55.450;  287.000;  175.000
277.480; -108.575; -840.000; -693.000
277.620;   21.425;  192.000;   16.000
277.760; -202.975;-1533.000;-1294.000
277.900;    9.125;  113.000;   33.000
278.040;   11.625;  137.000;  159.000
278.180;   47.450;  270.000;  170.000
278.320;   -7.475;   21.000;   56.000
278.460;  -72.550; -443.000; -469.000
278.600;  -90.675; -708.000; -598.000
278.740;   44.450;  448.000;  224.000
278.880;  -49.150; -768.000; -791.000
279.020;   -4.075; -194.000; -144.000
279.160;  -95.600; -672.000; -595.000
279.300; -122.775; -926.000; -873.000
279.440;  -89.775; -709.000; -622.000
279.579;  -23.550;-1014.000; -929.000
279.719;  -37.575; -410.000; -394.000
279.859;   79.500;   -4.000;   41.000
279.999;   31.375; -208.000;  101.000
280.139;   -8.550; -435.000; -387.000
280.279;  -78.300; -708.000; -745.000
280.419;    1.475; -229.000; -147.000
280.559;  -33.800; -259.000; -180.000
280.698;  -84.725; -790.000; -639.000
280.838;  -77.300; -778.000; -800.000
280.978;  -90.525; -846.000; -790.000
281.118; -102.425; -811.000; -704.000
281.257;   24.350;   24.000;    6.000
281.397; -106.475;-1094.000; -960.000
281.537;  -85.300; -599.000; -712.000
281.677;  -23.550; -150.000; -101.000
281.816;  -92.650; -700.000; -630.000
281.956;  -23.675; -193.000; -257.000
282.096;  -61.525; -539.000; -396.000
282.235; -108.925; -672.000; -638.000
282.375;  -18.700; -243.000;  -98.000
282.515;  -93.975; -715.000; -707.000
282.654;   30.925;   29.000;  106.000
282.794;   32.775;  388.000;  244.000
282.934;  -58.600; -530.000; -491.000
283.073; -135.900;-1030.000; -857.000
283.213;  -52.900; -460.000; -467.000
283.353;  -33.075; -408.000; -349.000
283.492;  -22.575; -264.000; -296.000
283.632;  -37.125; -254.000; -168.000
283.771;  -86.100; -859.000; -730.000
283.911;  -49.700; -369.000; -260.000
284.050; -102.750; -794.000; -748.000
284.190; -170.775;-1229.000;-1096.000
284.329; -145.475;-1055.000; -964.000
284.469;  -59.275; -516.000; -591.000
284.608;  -50.900; -559.000; -598.000
284.748;  -88.225; -614.000; -570.000
284.887;   -8.750;  -87.000;  -20.000
285.027; -121.250; -844.000; -892.000
285.166;  -36.550; -192.000; -249.000
285.306;   24.700; -116.000;  -33.000
285.445;  -43.450; -229.000; -343.000
285.584;  -82.025; -630.000; -494.000
285.724;  -50.475; -282.000; -322.000
285.863; -114.400; -857.000; -507.000
286.002;  -36.650; -366.000; -276.000
286.142; -102.950; -715.000; -622.000
286.281;  -79.850; -525.000; -493.000
286.420;  -72.950; -554.000; -417.000
286.560;   95.800;  653.000;  623.000
286.699; -138.600; -958.000; -912.000
286.838;  -86.950; -590.000; -591.000
286.978;  -92.800; -533.000; -537.000
287.117; -131.550;-1085.000; -950.000
287.256;  -38.650; -228.000; -211.000
287.395;  -49.300; -197.000; -378.000
287.535;  -53.550; -370.000; -298.000
287.674;  -80.100; -509.000; -484.000
287.813;   65.125;  661.000;  533.000
287.952; -136.200;-1010.000; -871.000
288.091; -143.225;-1049.000; -915.000
288.231;   17.400;   13.000;   15.000
288.370; -169.225;-1217.000;-1200.000
288.509;  -85.825; -728.000; -645.000
288.648;  -94.950; -770.000; -548.000
288.787;  -34.600; -243.000;  -87.000
288.926;  -53.075; -454.000; -475.000
289.065;  118.600;  859.000;  672.000
289.204;  -50.050; -377.000; -217.000
289.344; -104.125; -791.000; -690.000
289.483;   24.875;  416.000;  304.000
289.622;  -18.325; -291.000; -149.000
289.761;  -15.925; -309.000; -166.000
289.900; -112.725; -785.000; -626.000
290.039;  -15.675;  -12.000;  -95.000
290.178;  -40.825; -274.000; -180.000
290.317;  -75.375; -618.000; -479.000
290.456;  -68.525; -463.000; -451.000
290.595; -140.825; -961.000; -833.000
290.734; -144.225; -904.000; -891.000
290.873;  -67.950; -456.000; -420.000
291.011; -111.475; -833.000; -843.000
291.150; -103.600; -770.000; -682.000
291.289;  -26.100; -343.000; -110.000
291.428;  -97.750; -599.000; -480.000
291.567;  -58.775; -370.000; -442.000
291.706;   -7.075;  109.000;  154.000
291.845;  -73.450; -597.000; -505.000
291.984; -168.775;-1234.000;-1061.000
292.122;   80.025;  602.000;  582.000
292.261;   59.775;  620.000;  463.000
292.400;   17.725; -144.000;  211.000
292.539; -127.200; -959.000; -813.000
292.678;  -42.300; -325.000; -300.000
292.816; -154.325;-1136.000; -965.000
292.955;  -90.575; -844.000; -684.000
293.094;  -23.975; -173.000; -337.000
293.233;  -52.975; -556.000; -400.000
293.371;  -41.025; -225.000;  -84.000
293.510; -104.525; -866.000; -780.000
293.649; -113.575; -959.000; -924.000
293.787;  -41.575;-1083.000;-1012.000
293.926;    6.250; -113.000;  -32.000
294.065;  -55.975; -379.000; -290.000
294.203;   68.100;  298.000;  406.000
294.342;   21.475;   74.000;  156.000
294.481; 5390.200;51180.000; -836.000
294.619;  -23.500; -425.000; -582.000
294.758; -138.650;-1230.000;-1137.000
294.896;   81.425; -125.000;    5.000
295.035; -122.375;-1040.000;-1006.000
295.174; -122.975;-1082.000; -954.000
295.312;  -38.300; -323.000; -203.000
295.451;   -0.075; -307.000; -428.000
295.589;  -44.550; -389.000; -518.000
295.728;   22.700; -292.000; -165.000
295.866;    2.825;  -36.000;  -51.000
296.005;  -54.050; -584.000; -341.000
296.143;  -70.150; -558.000; -596.000
296.282; -104.425; -957.000; -881.000
296.420;  -79.275; -657.000; -557.000
296.559;  -79.725; -892.000; -633.000
296.697;   48.725; -847.000; -665.000
296.835;   75.975;-1141.000;-1002.000
296.974;   57.350;  -23.000;   39.000
297.112;   23.875; -443.000; -504.000
297.251;  -62.700; -815.000; -755.000
297.389;  112.700; -576.000; -438.000
297.527;   47.450; -145.000;  -83.000
297.666;  -51.675; -486.000; -438.000
297.804;  -60.000; -404.000; -264.000
297.942;   -5.050; -136.000; -161.000
298.081;    6.450; -183.000;   63.000
298.219;   83.900;  -17.000;  -19.000
298.357;   60.250; -144.000;  -71.000
298.495;   50.975; -810.000; -812.000
298.634;  103.350;  245.000;  219.000
298.772;   73.175; -220.000; -338.000
298.910;  -41.275; -309.000; -182.000
299.048;   -6.625; -130.000; -153.000
299.187;  -46.875; -350.000; -250.000
299.325;   30.225;   52.000;  122.000
299.463;   65.450; -389.000; -299.000
299.601;  128.150; -327.000; -271.000
299.739; -110.925; -908.000; -883.000
299.877;  -84.425; -791.000; -703.000
300.016;  -33.400;-1095.000; -935.000
300.154;  188.625;  -19.000; -161.000
300.292;   78.350; -428.000; -348.000
300.430;   48.925; -408.000; -291.000
300.568;  -98.200; -940.000; -874.000
300.706;  -43.450; -366.000; -469.000
300.844;  -70.325;-1108.000; -979.000
300.982;  132.725;  246.000;  282.000
301.120; -106.050; -965.000; -866.000
301.258;  -63.625; -812.000; -705.000
301.396;   39.825;  104.000;  -41.000
301.534;   86.550; -218.000; -293.000
301.672;   -0.825; -664.000; -521.000
301.810;   65.650; -613.000; -545.000
301.948;  133.225;   53.000;  149.000
302.086;  705.550; -250.000;  -32.000
302.224; 1109.975; -610.000; -585.000
302.362;   60.875; -558.000; -622.000
302.500;  -17.200; -923.000; -893.000
302.638;  116.750;  128.000;  245.000
302.776;    2.975; -352.000; -408.000
302.913;   38.500;  447.000;  236.000
303.051;    6.275;  -86.000;  -23.000
303.189;   54.525;   90.000;  118.000
303.327;  -27.350; -341.000; -256.000
303.465;  -74.350; -832.000; -588.000
303.603;  -86.150; -805.000; -604.000
303.740;  116.375;  417.000;  241.000
303.878;   36.575; -800.000; -759.000
304.016;  -92.250; -915.000; -790.000
304.154; -112.375;-1123.000;-1152.000
304.291;  -39.525; -505.000; -554.000
304.429;    7.575;  102.000;   74.000
304.567; -127.125; -908.000; -893.000
304.705;  -50.175; -408.000; -515.000
304.842;  110.000; -616.000; -540.000
304.980;   54.250;  215.000;   35.000
305.118;   73.850; -367.000; -365.000
305.255;  -57.100; -945.000; -927.000
305.393;   55.625;  178.000;  239.000
305.531;  -85.275;-1173.000; -956.000
305.668;  -59.000; -663.000; -582.000
305.806;  121.375; -358.000; -439.000
305.943;  131.025; -629.000; -637.000
306.081;   70.750; -378.000; -267.000
306.219;  -92.625; -863.000; -748.000
306.356;   10.075;  158.000;   27.000
306.494;  118.150;  981.000;  761.000
306.631;    2.300;  -11.000;  -55.000
306.769;   15.750; -613.000; -485.000
306.906;   -6.100; -284.000; -258.000
307.044;  -65.325; -473.000; -488.000
307.181;  -55.525; -410.000; -332.000
307.319;    2.225;  112.000;   87.000
307.456; -165.000;-1191.000;-1153.000
307.594; -105.975; -980.000; -727.000
307.731;  -12.625; -371.000; -164.000
307.868;   -4.500;  -15.000;   20.000
308.006; -136.450; -961.000; -847.000
308.143;  -55.000; -618.000; -330.000
308.281;  158.075;  -37.000; -254.000
308.418;  -12.250; -748.000; -640.000
308.555;  -70.100; -400.000; -250.000
308.693;  -79.775; -577.000; -573.000
308.830; -100.925; -712.000; -657.000
308.967;  -17.975; -215.000;  -95.000
309.105;  -56.075; -507.000; -396.000
309.242;   45.675; -468.000; -367.000
309.379;  315.325; -577.000; -655.000
309.517;  -68.525; -936.000; -948.000
309.654; -108.950; -910.000; -734.000
309.791;  -78.850; -662.000; -580.000
309.928; -118.025; -977.000; -914.000
310.065;  175.600;  819.000;  697.000
310.203;    6.400; -825.000; -850.000
310.340;  -17.950; -465.000; -321.000
310.477;  -75.600; -412.000; -516.000
310.614;  -74.825; -383.000; -473.000
310.751;  -72.375; -427.000; -518.000
310.889;   -8.875;    1.000;   11.000
311.026; -156.050;-1161.000; -939.000
311.163;  -42.600; -386.000; -380.000
311.300;  -87.300; -512.000; -479.000
311.437;  -78.225; -658.000; -619.000
311.574; -160.175;-1226.000; -985.000
311.711;  -49.175; -595.000; -433.000
311.848;  -43.750; -380.000; -388.000
311.985;   11.050;  270.000;   93.000
312.122; -115.475; -932.000; -762.000
312.259; -126.225; -941.000; -994.000
312.396;  -83.075; -508.000; -551.000
312.533; -100.875; -812.000; -790.000
312.670; -123.450;-1070.000; -898.000
312.807;  -37.050; -352.000; -367.000
312.944;  -81.525; -513.000; -611.000
313.081;  -31.475; -150.000; -415.000
313.218; -105.825;-1111.000; -867.000
313.355;   -0.500; -531.000; -449.000
313.492;   14.275; -455.000; -292.000
313.629;  136.200;  815.000;  735.000
313.766; -149.400;-1176.000;-1008.000
313.902;  -10.400; -186.000;   21.000
314.039;  -46.050; -372.000; -289.000
314.176;   34.300;  286.000;  192.000
314.313;  -67.250; -569.000; -473.000
314.450;  -84.350; -788.000; -684.000
314.587;  -42.350; -468.000; -480.000
314.723;   -3.600;  -78.000;  130.000
314.860;   36.450;  318.000;  332.000
314.997;   31.450;  223.000;  142.000
315.134;  -40.425; -385.000; -368.000
315.270;  -19.050; -480.000; -496.000
315.407; -122.900;-1094.000; -967.000
315.544;  -49.575; -657.000; -538.000
315.681;  -59.100; -681.000; -565.000
315.817;   35.100; -133.000; -176.000
315.954;   17.225; -613.000; -392.000
316.091; -112.700;-1045.000;-1023.000
316.227;  -27.300;  -71.000; -179.000
316.364;    3.700;   23.000;    6.000
316.500;  -57.025; -113.000; -300.000
316.637;  -42.850; -181.000; -302.000
316.774;  -91.125; -625.000; -358.000
316.910;  -77.250; -598.000; -629.000
317.047;  -67.525; -487.000; -351.000
317.183;  -44.625; -435.000; -566.000
317.320;  -16.925; -367.000; -321.000
317.456;  -76.825; -733.000; -805.000
317.593; -103.325; -598.000; -641.000
317.729;    5.025;  168.000;  -67.000
317.866; -197.075;-1434.000;-1285.000
318.002;  -96.375; -708.000; -948.000
318.139;  -97.400; -883.000; -867.000
318.275; -111.825;-1003.000; -738.000
318.412;  -54.425; -517.000; -336.000
318.548;  -31.125; -751.000; -720.000
318.685;  -80.725; -985.000; -888.000
318.821;  -88.475; -762.000; -735.000
318.957;  -18.925;   34.000;  -23.000
319.094;   34.875;  297.000;  154.000
319.230;  -59.525; -756.000; -742.000
319.367;  160.500; -471.000; -520.000
319.503;   77.000; -538.000; -436.000
319.639; -103.775; -877.000; -793.000
319.775;  -49.400; -750.000; -685.000
319.912;  -47.400; -424.000; -519.000
320.048;  -81.600;-1184.000;-1184.000
320.184;   89.725;   59.000;   70.000
320.321;  -64.050; -497.000; -467.000
320.457;   55.125;  475.000;  662.000
320.593;  -70.925; -375.000; -382.000
320.729;  -97.925; -732.000; -734.000
320.866;  -59.475; -577.000; -635.000
321.002;  -83.025; -759.000; -809.000
321.138;    0.300; -135.000; -211.000
321.274;   81.275; -148.000; -115.000
321.410;  -41.175; -585.000; -353.000
321.546;  -29.000;-1011.000; -911.000
321.683;   63.125;  400.000;  185.000
321.819;   10.075;  -48.000; -117.000
321.955; -112.075; -743.000; -722.000
322.091;  -43.525; -585.000; -540.000
322.227;   -9.425; -382.000; -202.000
322.363;  -19.400; -320.000; -215.000
322.499;  -48.900; -343.000; -331.000
322.635;  162.125;  636.000;  443.000
322.771;   35.775; -139.000;   12.000
322.907;  104.775;  129.000;  327.000
323.043;  -21.500; -115.000; -206.000
323.179;  -27.200; -394.000; -363.000
323.315;   34.025; -401.000; -371.000
323.451;  104.250; -328.000; -236.000
323.587;   67.825;  -60.000;  -77.000
323.723;   22.250; -682.000; -601.000
323.859;   -4.975; -258.000;  -76.000
323.995;  -16.625; -467.000; -409.000
324.131; -105.900; -967.000; -892.000
324.267;  -25.325; -254.000; -276.000
324.402; -127.175; -960.000; -983.000
324.538;   -8.975; -279.000; -104.000
324.674;   23.625;  164.000;   77.000
324.810;  139.775;  226.000;  308.000
324.946;   10.750; -810.000; -658.000
325.082;  -74.725; -568.000; -475.000
325.217;   -4.225;  -62.000;   16.000
325.353; -101.900; -764.000; -659.000
325.489;  -83.600; -540.000; -506.000
325.625;  -71.975; -579.000; -525.000
325.760;   44.000;  517.000;  376.000
325.896;  -45.650; -515.000; -702.000
326.032;  -34.850; -403.000; -352.000
326.168;  -71.000; -462.000; -369.000
326.303;  -58.575; -352.000; -461.000
326.439;  -18.325; -336.000; -276.000
326.575;    5.600; -190.000;  -29.000
326.710;   -0.250; -156.000;  -30.000
326.846;   -5.050;  146.000;  103.000
326.982;  -93.175; -530.000; -548.000
327.117;  -83.575; -481.000; -442.000
327.253;  -78.075; -745.000; -742.000
327.388; -143.425;-1137.000;-1153.000
327.524;  -50.750; -811.000; -578.000
327.659;  -14.125;  -58.000;  -22.000
327.795;   -7.225;   69.000;   45.000
327.931;  -87.700; -723.000; -499.000
328.066;  -27.525; -417.000; -276.000
328.202;   -0.325;   12.000; -129.000
328.337;  112.325;  957.000;  713.000
328.473;   41.100;  -12.000;  -74.000
328.608;  -16.625; -256.000; -267.000
328.743;  -80.475; -799.000; -664.000
328.879;   11.225;  214.000;  114.000
329.014;  -34.000; -102.000; -122.000
329.150;  -88.525; -358.000; -483.000
329.285;  -58.100; -465.000; -466.000
329.421;  -54.000; -548.000; -246.000
329.556;   -6.875;  -36.000;   85.000
329.691;  -98.200; -633.000; -615.000
329.827;  -91.050; -626.000; -480.000
329.962;  -33.950;  131.000; -301.000
330.097;  -73.350; -673.000; -585.000
330.233;  -57.550; -410.000; -223.000
330.368; -131.475; -839.000; -628.000
330.503;  -11.700;    3.000;   98.000
330.638;    2.425;  -93.000; -125.000
330.774;  -53.775; -609.000; -530.000
330.909;  -44.525; -434.000; -244.000
331.044;  -93.875; -714.000; -708.000
331.179; -167.425;-1217.000;-1109.000
331.315;   11.950;   77.000;   20.000
331.450;    7.750;  157.000;  285.000
331.585;  -80.525; -805.000; -706.000
331.720;  -84.325; -510.000; -460.000
331.855;   -7.450;  -35.000; -102.000
331.990;  233.600;   62.000;  138.000
332.126;  123.425; -110.000;   71.000
332.261;  -22.600; -379.000; -265.000
332.396;    1.475; -135.000; -242.000
332.531; -104.525;-1074.000;-1031.000
332.666;   29.725; -519.000; -363.000
332.801;  -96.525; -726.000; -807.000
332.936;  -20.500; -192.000; -122.000
333.071; -126.525; -870.000; -817.000
333.206;   21.825;  307.000;  379.000
333.341;   39.400;  344.000;  418.000
333.476;  -77.425; -627.000; -623.000
333.611;  -43.800; -251.000; -173.000
333.746;  -52.475; -381.000; -464.000
333.881; -118.200; -973.000; -935.000
334.016; -121.525; -936.000; -917.000
334.151; -125.475; -746.000; -702.000
334.286;   46.150;  152.000;  186.000
334.421;  -22.200; -125.000; -178.000
334.556;  -79.525; -611.000; -567.000
334.690;  -79.100; -631.000; -577.000
334.825;   64.075;  381.000;   83.000
334.960;  -47.550; -285.000; -413.000
335.095;    1.125;  135.000;  -91.000
335.230;  -97.275; -722.000; -738.000
335.365; -120.400;-1084.000; -990.000
335.499; -120.925;-1108.000;-1037.000
335.634;   41.900;    9.000;  534.000
335.769; -101.325; -755.000; -720.000
335.904;  -60.000; -603.000; -561.000
336.038;  -55.025; -735.000; -657.000
336.173; -107.075;-1206.000;-1194.000
336.308;   27.675; -116.000; -189.000
336.443;   25.925; -544.000; -634.000
336.577;  -62.850; -936.000; -787.000
336.712;   93.200;   -4.000;  -12.000
336.847;  -19.300; -724.000; -607.000
336.981;  106.200; -272.000; -208.000
337.116;  324.325;  615.000;  501.000
337.250;  176.925; -434.000; -421.000
337.385;  230.500; -297.000; -208.000
337.520;   64.425; -632.000; -603.000
337.654;  -34.425; -215.000; -126.000
337.789; -139.950; -989.000; -933.000
337.923;  -28.450; -104.000; -205.000
338.058;  -70.750; -673.000; -738.000
338.192;  -17.275; -611.000; -488.000
338.327;   -6.875;  -18.000; -155.000
338.461;  -54.825; -299.000; -469.000
338.596;  -91.200; -780.000; -638.000
338.730;  -94.650; -767.000; -803.000
338.865;   71.000;  -46.000; -140.000
338.999;  -49.000; -846.000; -702.000
339.134;  -23.225; -634.000; -536.000
339.268;   21.200; -741.000; -603.000
339.403;  343.975; -740.000; -775.000
339.537;   98.050; -894.000; -820.000
339.671;  -98.600; -829.000; -813.000
339.806;  -65.600; -556.000; -512.000
339.940;   13.225; -261.000; -235.000
340.074;  -88.750; -685.000; -510.000
340.209;  -41.300; -351.000; -230.000
340.343;  -90.125; -517.000; -573.000
340.477;  153.925;  998.000; 1036.000
340.612;  -50.775;-1033.000; -900.000
340.746;  135.075; -199.000; -243.000
340.880;  -58.950; -924.000; -785.000
341.014;  -25.650;  -45.000; -154.000
341.149; -105.650; -756.000; -718.000
341.283; -108.350; -839.000; -754.000
341.417;  -89.900;-1124.000; -938.000
341.551;  157.100; -768.000; -708.000
341.685;  -33.200; -633.000; -611.000
341.820;  -41.800; -562.000; -493.000
341.954;  -48.875; -218.000; -349.000
342.088; -153.300;-1102.000;-1019.000
342.222;   47.325;  565.000;  618.000
342.356;  -54.550; -395.000; -335.000
342.490;  -94.050; -880.000; -841.000
342.624;  -48.575; -339.000; -242.000
342.758;   25.950; -364.000; -312.000
342.892;  -60.050; -710.000; -585.000
343.026;  -30.725;  -58.000; -116.000
343.160;  -57.875; -426.000; -376.000
343.294;  -67.325; -474.000; -337.000
343.428;   -3.450; -488.000; -448.000
343.562;   -8.900; -172.000;  -23.000
343.696;  -28.875; -385.000; -314.000
343.830;   -9.300; -362.000; -356.000
343.964;   24.500; -231.000; -168.000
344.098; 1039.000;  199.000;   70.000
344.232;  876.375; -266.000; -127.000
344.366;  100.275; -567.000; -453.000
344.500;   79.025; -665.000; -744.000
344.634;   46.425; -324.000; -164.000
344.768;    9.375; -531.000; -341.000
344.902;   19.950;  278.000;  256.000
345.035;  -62.825; -556.000; -496.000
345.169; -126.950; -933.000; -656.000
345.303;  -38.650; -308.000; -482.000
345.437;  -65.925; -826.000; -717.000
345.571;  -70.325; -675.000; -594.000
345.704;  -54.675; -309.000; -532.000
345.838;  -21.625; -331.000; -284.000
345.972;  -36.525; -543.000; -495.000
346.106;  161.250; -179.000; -190.000
346.239;  416.700; -312.000; -243.000
346.373;   19.150; -343.000; -302.000
346.507; -134.350; -950.000; -962.000
346.640;  163.825;  -30.000;   13.000
346.774;  -36.275; -650.000; -797.000
346.908;  -18.875; -138.000;  -11.000
347.041;  -99.350; -646.000; -593.000
347.175;    4.100;  259.000;   27.000
347.309;  -54.550; -698.000; -628.000
347.442;  -96.600; -883.000; -732.000
347.576;  302.075;  670.000;  668.000
347.709;  239.625; -123.000;  -52.000
347.843;  -78.650; -933.000; -825.000
347.976;   40.425;  235.000;  294.000
348.110; -178.000;-1268.000;-1186.000
348.243; -100.425; -679.000; -772.000
348.377;   -2.275;  -26.000;   60.000
348.510;   45.100;  403.000;  540.000
348.644;  -32.350;  -37.000; -159.000
348.777;    5.325;  180.000;  191.000
348.911;  -46.275; -142.000; -112.000
349.044;  195.600;  471.000;  448.000
349.178;  182.200;-1069.000;-1006.000
349.311;  134.550;  141.000;  255.000
349.444;  -10.325; -927.000; -813.000
349.578;  -13.150; -347.000; -200.000
349.711;  -94.750; -959.000; -862.000
349.845;    7.750; -661.000; -591.000
349.978; -129.200;-1224.000;-1137.000
350.111;  -84.200; -546.000; -612.000
350.244;  -68.300; -596.000; -700.000
350.378;   11.225; -392.000; -393.000
350.511;  -74.850; -393.000; -426.000
350.644;  -93.600; -808.000; -806.000
350.778;   -2.025;  168.000;  104.000
350.911;   15.625;  134.000;  140.000
351.044;  -86.000; -685.000; -615.000
351.177;  -29.400; -321.000; -281.000
351.310;  -26.175;    3.000; -131.000
351.444;  -78.575; -888.000; -788.000
351.577;  129.400;  140.000;   90.000
351.710;  105.625;  593.000;  417.000
351.843;  -26.300; -165.000;  -77.000
351.976;   12.825;  149.000;  -79.000
352.109; -105.200; -621.000; -612.000
352.242;  -14.150; -464.000; -419.000
352.376;  -45.650; -580.000; -636.000
352.509;  211.825; -437.000; -356.000
352.642;   34.525; -654.000; -604.000
352.775;   72.550; -141.000;  -98.000
352.908; -119.825; -933.000; -904.000
353.041; -105.175; -814.000; -824.000
353.174;  -57.175; -551.000; -424.000
353.307;  -64.050; -753.000; -764.000
353.440;   70.275;  541.000;  453.000
353.573; -109.875; -957.000;-1008.000
353.706;  -12.775; -384.000; -558.000
353.839;  -26.300; -264.000; -220.000
353.971;  -82.325; -657.000; -512.000
354.104;  -70.500; -896.000; -835.000
354.237;  -14.125; -627.000; -662.000
354.370;  -94.200; -846.000; -879.000
354.503; -177.925;-1231.000;-1308.000
354.636;  -29.675; -529.000; -348.000
354.769; -127.150; -937.000; -860.000
354.902;  -17.800; -230.000; -139.000
355.034;  -19.500; -164.000; -220.000
355.167;  -17.875; -262.000; -162.000
355.300;  -95.150;-1061.000; -880.000
355.433;  933.200;  -71.000;  -14.000
355.565; 1444.350; -402.000; -384.000
355.698;  370.825; -356.000; -296.000
355.831;   20.625; -882.000; -801.000
355.964;   97.375; -285.000; -170.000
356.096;  -83.400; -856.000; -843.000
356.229;   19.050; -523.000; -530.000
356.362;  310.225; -373.000; -266.000
356.494;  563.575; -229.000; -162.000
356.627;  521.100;  269.000;  377.000
356.760;  643.950;  120.000;   53.000
356.892;  928.475; -286.000; -601.000
357.025;  733.500;  403.000;  389.000
357.157;  692.900; -167.000; -179.000
357.290;  614.200; -856.000; -713.000
357.423;  200.250; -667.000; -556.000
357.555;  112.175; -217.000; -228.000
357.688;  141.425; -483.000; -364.000
357.820;  510.750; -870.000; -877.000
357.953; 4092.550; -563.000; -589.000
358.085;  907.250; -632.000; -612.000
358.218; 1346.425;-1131.000; -932.000
358.350;  238.425;  -58.000;  312.000
358.483; -104.950;-1300.000;-1187.000
358.615;    1.300;-1182.000;-1078.000
358.747;  -42.000;-1187.000;-1058.000
358.880;   33.300; -810.000; -744.000
359.012;   -0.400; -376.000; -202.000
359.145;  -44.400; -480.000; -511.000
359.277;   87.775; -962.000; -913.000
359.409; 3367.250;  536.000;  231.000
359.542;  899.875; -738.000; -688.000
359.674;   92.850;   46.000;   13.000
359.806;  -71.975; -565.000; -438.000
359.939;  -32.925; -617.000; -516.000
360.071;  -12.475; -583.000; -579.000
360.203;  -15.300; -411.000; -364.000
360.335;   50.025;  164.000;  -16.000
360.468;  208.700; -249.000; -307.000
360.600; 2666.950; -547.000; -454.000
360.732; 2690.075; -546.000; -423.000
360.864;  382.350;-1216.000;-1044.000
360.996;  325.050; -516.000; -554.000
361.129;   66.800; -389.000; -598.000
361.261;   21.950;  110.000; -113.000
361.393;  -26.925; -252.000; -214.000
361.525;   22.100;   94.000;  244.000
361.657;  -34.300; -821.000; -703.000
361.789;   17.525; -139.000; -155.000
361.921;  299.225; -642.000; -593.000
362.053;  301.975;  524.000;  541.000
362.185;   46.200;  288.000;   72.000
362.318;  -63.325; -709.000; -705.000
362.450;  129.450;  294.000;  444.000
362.582;  165.800; -913.000; -870.000
362.714;  -33.600; -353.000; -332.000
362.846;  -82.875; -606.000; -490.000
362.978; -132.600; -941.000; -811.000
363.109;   51.750; -161.000; -260.000
363.241;  512.575; -739.000; -749.000
363.373;  428.500; -649.000; -564.000
363.505;  630.725; -186.000;  -91.000
363.637;  143.675; -787.000; -601.000
363.769; -115.525;-1067.000;-1080.000
363.901;  -63.425; -596.000; -654.000
364.033; -119.700;-1103.000;-1062.000
364.165;   -2.425; -283.000; -283.000
364.296;   68.150; -316.000; -177.000
364.428;   59.825;-1344.000;-1220.000
364.560;  -67.225; -679.000; -661.000
364.692;  -57.525; -738.000; -835.000
364.824;  331.400; -588.000; -456.000
364.955;  442.200; -402.000; -564.000
365.087;  827.150;-1097.000; -852.000
365.219;   36.175; -686.000; -816.000
365.351;  -62.150; -526.000; -572.000
365.482;   61.675;  300.000;  240.000
365.614;  -52.050; -402.000; -314.000
365.746; -102.450; -729.000; -752.000
365.877;  -92.275; -706.000; -672.000
366.009;  235.325;  -35.000;  -62.000
366.141; -108.375;-1249.000;-1134.000
366.272;  -99.325; -803.000; -719.000
366.404; -107.100;-1005.000; -874.000
366.535;  -16.275; -139.000;  -12.000
366.667;  -94.350; -644.000; -649.000
366.799;   35.775;  353.000;  203.000
366.930; -119.800; -862.000; -996.000
367.062;  131.025; -639.000; -613.000
367.193;  142.500; -872.000; -842.000
367.325;  -58.000; -580.000; -684.000
367.456;   85.325; -246.000;   31.000
367.588;  151.100; -371.000; -318.000
367.719;   23.350;  -44.000;  -45.000
367.851;  -12.600; -222.000; -241.000
367.982;  -38.450; -875.000; -732.000
368.113;  117.100; -475.000; -358.000
368.245; -120.025; -960.000; -841.000
368.376;  -24.450; -254.000; -302.000
368.508;  -34.450; -188.000; -263.000
368.639; -129.325;-1166.000;-1034.000
368.770;   -2.425; -670.000; -589.000
368.902;  -58.100; -836.000; -926.000
369.033; -108.150; -906.000; -855.000
369.164;  -57.425; -720.000; -653.000
369.296; -110.500; -452.000; -601.000
369.427;   -3.425; -209.000; -144.000
369.558;  -38.900; -593.000; -377.000
369.689;  -80.450; -721.000; -569.000
369.821; -129.800; -951.000; -845.000
369.952;   -6.850;   42.000; -108.000
370.083;  -42.600; -229.000; -108.000
370.214;  -82.525; -735.000; -650.000
370.345;   -3.525;   65.000;   81.000
370.477;  -98.625; -810.000; -790.000
370.608;  282.375; -328.000; -264.000
370.739;  -36.500;-1233.000;-1292.000
370.870;  -11.325;-1102.000; -923.000
371.001;  107.375; -378.000; -467.000
371.132;  -68.550; -754.000; -735.000
371.263;  -27.025;  -42.000; -148.000
371.394; -131.025; -841.000; -748.000
371.525;   25.975;  345.000;  225.000
371.657; -104.300; -808.000; -670.000
371.788;   69.975;  103.000;  199.000
371.919;  208.400; -384.000; -304.000
372.050; 4073.275;  -91.000; -156.000
372.181; 1226.275; -188.000; -294.000
372.311;  443.750;   42.000; -127.000
372.442;   54.900; -457.000; -451.000
372.573;  -15.375; -444.000; -340.000
372.704; -116.550;-1008.000; -980.000
372.835;   97.925; -228.000; -289.000
372.966;  -55.325; -646.000; -554.000
373.097;  -62.100; -575.000; -711.000
373.228;  -19.400; -717.000; -542.000
373.359;  172.000; -824.000; -536.000
373.490; 1080.775; -881.000; -727.000
373.620; 1352.600;-1001.000; -803.000
373.751; 2078.675; -332.000; -396.000
373.882;  951.875; -663.000; -733.000
374.013;   94.725; -449.000; -262.000
374.143;  -27.525; -581.000; -659.000
374.274;  -98.325; -987.000; -908.000
374.405;  195.650; -388.000; -276.000
374.536;  520.550; -526.000; -387.000
374.666; 1306.725; -759.000; -807.000
374.797;  256.900; -817.000; -868.000
374.928;  998.200; -710.000; -560.000
375.058; 1021.625; -535.000; -500.000
375.189;   94.675;  -59.000;  -93.000
375.320;  -90.600; -928.000;-1034.000
375.450;  -58.225; -625.000; -616.000
375.581;  -47.625; -526.000; -436.000
375.712;  -37.650; -574.000; -250.000
375.842;  359.025; -438.000; -415.000
375.973;  278.175; -554.000; -513.000
376.103;  -29.200; -665.000; -648.000
376.234;  -67.200; -531.000; -552.000
376.364;  -19.450; -944.000; -867.000
376.495;  361.375;  925.000;  529.000
376.625;    9.150; -472.000; -485.000
376.756;   83.225; -709.000; -678.000
376.886;  -49.100;-1178.000;-1026.000
377.017;   33.425;-1048.000;-1061.000
377.147;  325.625; -786.000; -782.000
377.278;   57.850;  174.000;  228.000
377.408; -115.450; -801.000; -815.000
377.538;  -98.325; -707.000; -693.000
377.669;  -74.425; -537.000; -613.000
377.799;  -95.575; -645.000; -635.000
377.929;  -63.725; -610.000; -428.000
378.060; -133.350; -781.000; -847.000
378.190;  -61.025; -726.000; -531.000
378.320;  -47.975; -401.000; -406.000
378.451;    9.475; -131.000;  -22.000
378.581;    9.175;  -67.000; -110.000
378.711;  176.975; 1035.000;  866.000
378.841;  -10.675; -533.000; -675.000
378.972;  -70.475; -871.000; -751.000
379.102;    3.650; -652.000; -579.000
379.232;    3.150; -126.000;  -73.000
379.362;  -90.500;-1001.000; -885.000
379.492;   16.825; -373.000; -424.000
379.623;  124.500;    0.000;  111.000
379.753;  -76.000;-1107.000; -974.000
379.883;  217.550;   59.000;  156.000
380.013;   37.575;-1081.000;-1017.000
380.143;  -86.225;-1097.000;-1056.000
380.273; -101.450; -985.000; -861.000
380.403;    1.975; -344.000; -257.000
380.533;  -19.600; -651.000; -664.000
380.663;   89.150;  173.000;  128.000
380.793;  -86.425;-1027.000;-1074.000
380.923;  -25.850; -103.000;  -34.000
381.053;  -99.325; -613.000; -623.000
381.183;  -33.675; -106.000; -248.000
381.313;   29.650; -656.000; -470.000
381.443;   49.925; -692.000; -473.000
381.573;  243.875; -402.000; -409.000
381.703;  359.175;-1249.000;-1095.000
381.833; -111.625;-1454.000;-1336.000
381.963;  120.750; -134.000;  -87.000
382.093; 1598.600; -925.000; -909.000
382.223;  503.500; -713.000; -602.000
382.353;   -6.050; -801.000; -608.000
382.482;  459.825;-1091.000; -964.000
382.612;  898.825; -872.000; -644.000
382.742;  509.150; -695.000; -622.000
382.872;  322.550; -565.000; -551.000
383.002;   72.350;  347.000; -132.000
383.131;   -9.925; -226.000; -160.000
383.261;  -47.475; -706.000; -768.000
383.391;  286.250; -552.000; -377.000
383.521; 2999.875;  451.000;  263.000
383.650;  681.025; -947.000; -904.000
383.780;  -18.225; -783.000; -656.000
383.910;  119.600;  880.000;  802.000
384.039;   36.875; -794.000; -656.000
384.169;  268.375;-1205.000;-1017.000
384.299;  -10.025; -650.000; -662.000
384.428;  -89.725; -764.000; -680.000
384.558;  -28.350; -308.000; -275.000
384.687;  -40.925; -414.000; -334.000
384.817;   22.100;   75.000;   -2.000
384.947;   31.050; -234.000; -141.000
385.076;  313.100;  982.000;  912.000
385.206;  117.925;  369.000;  480.000
385.335;  -21.750; -549.000; -417.000
385.465;  -73.550; -655.000; -663.000
385.594;  150.925;  -53.000;  -44.000
385.724;  510.150; -868.000; -838.000
385.853;  155.850; -296.000; -270.000
385.982; 1589.350; -743.000; -787.000
386.112; 2483.300;-1052.000; -871.000
386.241;  159.975; -307.000; -312.000
386.371;   44.725; -174.000;  -87.000
386.500;   21.775; -825.000; -789.000
386.629;   23.250; -874.000; -817.000
386.759;   69.200;  -43.000;   68.000
386.888;   -2.775; -170.000; -250.000
387.017;  -74.175; -648.000; -620.000
387.147;  -78.500; -771.000; -798.000
387.276;   11.825; -410.000; -397.000
387.405;   29.200; -398.000; -342.000
387.535;  -27.775; -452.000; -361.000
387.664;  -74.400; -692.000; -620.000
387.793;   72.075; -198.000; -113.000
387.922;  589.400;  255.000;  200.000
388.052;   37.450; -576.000; -423.000
388.181;   24.575; -342.000; -472.000
388.310;   25.725; -889.000; -710.000
388.439;  -30.075; -749.000; -742.000
388.568;  227.075;  365.000;  244.000
388.697; 1256.675; -756.000; -653.000
388.826;  251.100; -768.000; -666.000
388.956;   82.825; -285.000; -307.000
389.085;  -29.700; -347.000; -287.000
389.214;  -98.350; -842.000; -872.000
389.343;  -62.400; -645.000; -413.000
389.472;  373.100;  126.000;  149.000
389.601;  520.600;   91.000;    0.000
389.730;   18.425; -568.000; -687.000
389.859;   65.800;  226.000;   46.000
389.988;  219.575; -423.000; -408.000
390.117;  183.675; -168.000; -146.000
390.246;    0.450; -331.000; -320.000
390.375;  148.400; -673.000; -626.000
390.504;  -62.300; -703.000; -621.000
390.633; -105.900; -672.000; -726.000
390.761;  -56.800; -732.000; -645.000
390.890;   47.725;   -4.000; -130.000
391.019;  -20.525; -421.000; -441.000
391.148; -130.450; -826.000; -855.000
391.277;  -64.050; -576.000; -493.000
391.406;  -67.175; -821.000; -805.000
391.534;   22.425;  574.000; -301.000
391.663;  -74.250; -583.000; -645.000
391.792;  -76.475; -673.000; -701.000
391.921;  131.950;   -3.000;   15.000
392.050;  224.475; -287.000; -228.000
392.178;  -22.100;-1206.000;-1061.000
392.307;  182.125; -758.000; -712.000
392.436;   83.375; -427.000; -641.000
392.564;    8.600;  166.000;   -6.000
392.693;  -89.325; -860.000; -682.000
392.822;  252.000; -529.000; -534.000
392.950;  125.425; -880.000; -714.000
393.079;  399.725; -188.000; -328.000
393.208;   42.900; -488.000; -511.000
393.336;  -11.050; -170.000; -145.000
393.465;  -40.425; -317.000; -199.000
393.593;    4.975;   62.000;   79.000
393.722; -156.350;-1121.000; -916.000
393.850;  -33.250; -188.000;  -61.000
393.979; -155.025; -926.000; -805.000
394.107;  -61.650; -517.000; -537.000
394.236;  -15.125; -570.000; -507.000
394.364;  211.750;  383.000;  206.000
394.493;  347.675; -911.000; -767.000
394.621;  -21.975; -955.000; -916.000
394.750;  671.050; -873.000; -923.000
394.878; 2770.350; -247.000; -149.000
395.007; 3804.150; -721.000; -807.000
395.135;  280.350; -790.000; -721.000
395.263; -103.175;-1038.000;-1040.000
395.392;   18.475;  -25.000; -107.000
395.520; -145.075; -818.000; -679.000
395.648;  -91.450; -865.000; -915.000
395.777;  -23.100; -366.000; -405.000
395.905;  -39.075; -449.000; -564.000
396.033;    0.225;  217.000;  172.000
396.162;  565.600; -399.000; -453.000
396.290;  512.375;  -17.000;   -2.000
396.418;  123.150; -555.000; -514.000
396.546;  -62.625; -571.000; -466.000
396.674; -100.350; -850.000; -878.000
396.803;   16.075;  -72.000;  -23.000
396.931;  112.525; -179.000; -199.000
397.059;   85.000;-1026.000; -989.000
397.187;  -99.900;-1026.000; -975.000
397.315; -126.800; -884.000; -649.000
397.443; -107.425; -592.000; -443.000
397.572; -110.775; -578.000; -424.000
397.700;   12.100; -607.000; -614.000
397.828;   26.100;  120.000;  -90.000
397.956;  -40.525; -508.000; -478.000
398.084;  -71.800; -767.000; -626.000
398.212;   34.500;  137.000;  124.000
398.340;    9.600;  -56.000;  159.000
398.468;   28.850; -390.000; -169.000
398.596; -124.800; -993.000; -953.000
398.724; -119.275; -762.000; -767.000
398.852; -156.750;-1024.000; -976.000
398.980;  -71.075; -560.000; -560.000
399.108;  -50.325; -982.000; -735.000
399.236;   47.050;   13.000;    8.000
399.363;   19.150;  222.000;  196.000
399.491;  -60.200; -404.000; -398.000
399.619; -111.100; -829.000; -800.000
399.747; -104.425; -859.000; -771.000
399.875;   99.425;  220.000;  234.000
400.003;  -37.900; -359.000; -284.000
400.130;  -98.650; -421.000; -341.000
400.258;  -26.050;  -83.000;   38.000
400.386;  -76.450; -352.000; -168.000
400.514;  -43.325; -526.000; -587.000
400.641;  -80.600; -928.000; -802.000
400.769; -143.675; -979.000; -888.000
400.897; -105.775; -838.000; -793.000
401.025;  -19.725; -166.000; -152.000
401.152;   -3.650;  220.000;   38.000
401.280;  -86.625; -430.000; -429.000
401.408; -113.875; -712.000; -576.000
401.535; -105.350; -735.000; -758.000
401.663; -184.775;-1134.000;-1054.000
401.790;  -88.000; -514.000; -525.000
401.918;   39.425;  436.000;  405.000
402.046;  -22.725;  134.000;  122.000
402.173;  -23.300;  -18.000;    7.000
402.301;  -72.250; -519.000; -397.000
402.428;   54.775;  528.000;  383.000
402.556; -146.850;-1188.000; -913.000
402.683;  -24.400;  -20.000;   -1.000
402.811;  -30.175;  -37.000; -206.000
402.938;  -15.500;   20.000;   27.000
403.066;  232.850; -574.000; -558.000
403.193;  392.475;  299.000;  239.000
403.321;  296.650; -396.000; -574.000
403.448;  379.175;   83.000;   27.000
403.575;  178.150;  -90.000;  -46.000
403.703;  -94.825; -732.000; -557.000
403.830;  -66.500; -531.000; -496.000
403.957; -143.050;-1117.000;-1023.000
404.085;   15.375;  -61.000; -172.000
404.212;  117.775;  -50.000;   63.000
404.339;  236.175; -566.000; -306.000
404.467; 5472.825; -612.000; -524.000
404.594; 3782.150; -287.000; -227.000
404.721;  952.750; -869.000; -764.000
404.848;   86.675; -113.000; -202.000
404.976; -110.275; -856.000; -783.000
405.103;    1.100;  -14.000;  -82.000
405.230;   -4.925;  190.000;  226.000
405.357;   31.525;  117.000;   44.000
405.484;  254.975;  -49.000;    5.000
405.612;   34.625; -548.000; -563.000
405.739;  -53.975; -488.000; -243.000
405.866;   82.575;  669.000;  385.000
405.993;  -35.275; -398.000; -102.000
406.120; -126.775; -801.000; -887.000
406.247;  -58.050; -323.000; -342.000
406.374;  510.750;  540.000;  629.000
406.501;  146.900; -632.000; -702.000
406.628;  -70.300; -621.000; -589.000
406.755; -106.075; -803.000; -620.000
406.882;  -39.075; -228.000; -277.000
407.009; -105.150; -719.000; -628.000
407.136;   71.900; -480.000; -401.000
407.263;  169.875; -939.000; -829.000
407.390;  -62.900; -692.000; -614.000
407.517; -172.850;-1139.000;-1187.000
407.644;  -48.975; -332.000; -256.000
407.771;  -72.350; -249.000; -287.000
407.898;    9.725;  168.000;  328.000
408.025;  -65.975; -421.000; -313.000
408.151;  -22.875;   82.000;  153.000
408.278;  -76.500; -267.000; -216.000
408.405; -116.175; -931.000; -899.000
408.532;  -61.075; -549.000; -542.000
408.659; -117.625; -677.000; -648.000
408.785; -195.525;-1298.000;-1170.000
408.912;  -63.775; -412.000; -296.000
409.039; -101.450; -610.000; -686.000
409.166; -102.900; -591.000; -555.000
409.292; -105.450; -571.000; -534.000
409.419; -118.325; -665.000; -649.000
409.546;  -91.550; -431.000; -192.000
409.672; -107.600; -713.000; -545.000
409.799;  -15.425;  -36.000;   34.000
409.926;  -43.650; -180.000; -179.000
410.052; -170.875;-1127.000;-1091.000
410.179;  -61.575; -368.000; -392.000
410.305;  -79.775; -375.000; -493.000
410.432;  -57.425; -220.000; -333.000
410.558;  -90.475; -305.000; -380.000
410.685; -103.250; -688.000; -431.000
410.812;  -91.925; -409.000; -588.000
410.938; -137.450; -964.000; -808.000
411.065; -104.500; -671.000; -645.000
411.191;  -19.725; -189.000; -174.000
411.317; -114.675; -823.000; -742.000
411.444;  -66.650; -317.000; -246.000
411.570;  -78.775; -339.000; -294.000
411.697; -128.825; -758.000; -752.000
411.823; -168.450; -989.000; -999.000
411.949;  -16.050;  -56.000;   17.000
412.076; -124.900; -539.000; -519.000
412.202; -113.100; -758.000; -757.000
412.329; -131.775; -798.000; -752.000
412.455; -119.875; -821.000; -657.000
412.581;  -23.525;  -15.000;  172.000
412.707;  -62.275; -540.000; -457.000
412.834;   28.550;  156.000;  219.000
412.960;  -75.975; -785.000; -784.000
413.086;  -95.900; -743.000; -701.000
413.212;  149.675;  604.000;  578.000
413.339;  -62.925; -685.000; -701.000
413.465;    9.200; -364.000; -310.000
413.591;  -94.825; -757.000; -474.000
413.717;  -56.800; -358.000; -366.000
413.843; -139.325; -839.000; -861.000
413.969;  -58.025;  -47.000; -292.000
414.096;  -90.900; -679.000; -679.000
414.222;   -6.675;  -33.000;   85.000
414.348;  -24.975; -652.000; -385.000
414.474;  120.275;   38.000;  -52.000
414.600;  -16.475; -126.000; -144.000
414.726;  -22.000;  -96.000;  -55.000
414.852;  -68.600; -365.000; -342.000
414.978;   33.025;  104.000;  -18.000
415.104;   31.100;   38.000;   80.000
415.230;    6.650; -329.000; -330.000
415.356;   31.950; -409.000; -514.000
415.482;  190.125;   13.000;  -35.000
415.608;  264.600; -247.000; -323.000
415.734;  929.925;   67.000;   38.000
415.860;19317.400; -875.000; -767.000
415.986;14078.900; -685.000; -607.000
416.111; 1206.825; -798.000; -652.000
416.237;  249.325; -424.000; -571.000
416.363; 1074.975; -765.000; -733.000
416.489; 3970.750; -324.000; -251.000
416.615;  419.850; -707.000; -742.000
416.741;  -28.025; -677.000; -784.000
416.866; -102.375; -673.000; -736.000
416.992; -129.475; -801.000; -818.000
417.118;  -40.325;  -41.000;  -80.000
417.244;  -57.500; -798.000; -531.000
417.369;  -81.375; -801.000; -612.000
417.495;  -13.300; -325.000; -254.000
417.621;  -76.700;-1015.000; -803.000
417.746;   -1.175; -579.000; -572.000
417.872;   49.225; -254.000; -144.000
417.998;   43.575; -515.000; -530.000
418.123;  997.650;-1073.000; -845.000
418.249; 5199.850; -512.000; -601.000
418.374;  715.425; -916.000; -824.000
418.500;  111.800; -383.000; -482.000
418.626;   86.550;   70.000;  -59.000
418.751;  112.725; -549.000; -448.000
418.877;  203.525; -637.000; -643.000
419.002; 1720.350; -688.000; -560.000
419.128;11985.750; -930.000; -721.000
419.253; 2924.600; -967.000; -837.000
419.379;  376.150; -391.000; -338.000
419.504;  362.225;  325.000;  415.000
419.629;  476.650; -393.000; -212.000
419.755; 3355.250; -317.000; -254.000
419.880;19907.575;  -98.000;   67.000
420.006;10945.150; -280.000; -221.000
420.131;28349.675; -662.000; -775.000
420.256; 4124.150; -315.000; -316.000
420.382;  541.675; -665.000; -687.000
420.507;   52.875; -649.000; -778.000
420.632;  163.150; -337.000; -339.000
420.758;  310.150; -251.000; -425.000
420.883;  -68.050; -876.000; -672.000
421.008;  -92.550; -775.000; -619.000
421.133;  -97.575; -509.000; -467.000
421.259;  -24.125; -325.000; -259.000
421.384; -110.875; -834.000; -693.000
421.509;  -25.425;-1052.000; -862.000
421.634; 1405.550; -936.000; -820.000
421.759;  630.125; -359.000; -327.000
421.885;  -55.300; -717.000; -656.000
422.010;  -83.600; -673.000; -542.000
422.135; -141.075; -695.000; -727.000
422.260;   36.050;  340.000;  280.000
422.385;  -46.525;   12.000;  -98.000
422.510;   17.825;  151.000;  -26.000
422.635;   18.325;  -87.000;  -43.000
422.760;  115.025; -766.000; -791.000
422.885;   60.050;  -57.000;  -80.000
423.010;  -42.150; -112.000; -169.000
423.135;  -99.550; -481.000; -561.000
423.260;   -1.625; -150.000; -245.000
423.385;   77.075;  476.000;  222.000
423.510;   36.200;   71.000;  -22.000
423.635;   92.200;  133.000;   45.000
423.760;   60.275;  383.000;  328.000
423.885;   60.450;  336.000;  391.000
424.010;   10.850;  -68.000;  -13.000
424.135;  -24.850;    5.000;  -33.000
424.259; -100.975; -654.000; -457.000
424.384;  -61.600; -279.000; -272.000
424.509;  -27.575; -260.000; -186.000
424.634;  -94.050; -761.000; -623.000
424.759;  -24.975; -688.000; -544.000
424.883;  -22.675; -506.000; -527.000
425.008;  158.425; -502.000; -410.000
425.133; 1940.950; -679.000; -653.000
425.258;  883.325; -517.000; -381.000
425.382; 1156.350; -867.000; -774.000
425.507; 2971.625; -487.000; -543.000
425.632;  458.900; -802.000; -663.000
425.756;  424.250; -256.000; -146.000
425.881; 6088.400; -831.000; -857.000
426.006;16439.000; -604.000; -355.000
426.130; 2631.400; -696.000; -508.000
426.255;  322.475; -611.000; -491.000
426.379;  143.350; -189.000; -577.000
426.504;  371.525;  660.000;  544.000
426.629; 3876.325; -519.000; -466.000
426.753; 2691.025;   64.000;  -46.000
426.878;  315.500; -252.000; -288.000
427.002;  146.900; -651.000; -668.000
427.127; 1557.975;  -35.000; -158.000
427.251;10883.600;  372.000;  401.000
427.375; 3158.550; -191.000; -173.000
427.500; 2572.450; -616.000; -610.000
427.624;  868.725; -234.000; -400.000
427.749;  109.450; -216.000; -225.000
427.873;  -38.450; -499.000; -412.000
427.997;  -32.975; -222.000; -230.000
428.122;   81.250;  795.000;  703.000
428.246;   63.700;  433.000;  434.000
428.371; -119.050; -869.000; -773.000
428.495; -107.375; -624.000; -646.000
428.619;  -44.400; -186.000; -117.000
428.743;   30.625;   65.000;  132.000
428.868;   25.925; -732.000; -643.000
428.992; 1605.400; -219.000; -326.000
429.116;  648.675; -329.000; -357.000
429.240;  319.000;  419.000;  426.000
429.365;   -7.875; -454.000; -574.000
429.489;  -43.750; -638.000; -647.000
429.613;   33.700; -236.000; -177.000
429.737;   29.800; -563.000; -432.000
429.861;  260.175; -247.000; -133.000
429.985; 5313.375; -425.000; -305.000
430.109; 5835.875; -770.000; -908.000
430.234;  679.400;   76.000;  -50.000
430.358;   62.450; -250.000; -160.000
430.482;  -65.375; -672.000; -564.000
430.606;  -57.025; -655.000; -375.000
430.730;   17.925; -437.000; -388.000
430.854;  175.475; -909.000; -835.000
430.978;  -63.775; -795.000; -764.000
431.102;  -84.150; -499.000; -422.000
431.226; -122.000; -874.000; -815.000
431.350;   33.975;  345.000;  422.000
431.474;  -74.250; -661.000; -373.000
431.597; -144.525;-1060.000; -848.000
431.721;  -79.475; -276.000; -267.000
431.845; -123.425; -704.000; -472.000
431.969;  -93.300; -304.000; -349.000
432.093;  -88.150; -395.000; -317.000
432.217;  -24.000;   32.000;   82.000
432.341;  -92.175; -523.000; -518.000
432.464;  -10.450;   96.000;   40.000
432.588;  250.550; -401.000; -329.000
432.712;  111.000;  -52.000;  -52.000
432.836;   54.350;  213.000;  263.000
432.959;  -10.550; -372.000; -311.000
433.083;   67.750;   11.000;    2.000
433.207;  366.275;  285.000;  930.000
433.330; 4806.850; -391.000; -200.000
433.454; 5987.750; -654.000; -638.000
433.578; 3433.175;  583.000;  278.000
433.701;  632.625; -623.000; -675.000
433.825;  169.550; -292.000; -299.000
433.949;  211.200;   28.000;  -72.000
434.072;   89.925; -410.000; -323.000
434.196;  -11.275; -309.000; -117.000
434.319; 3738.150;25482.000;25124.000
434.443;  726.675; -656.000; -603.000
434.566; 2557.200;  281.000;   62.000
434.690;  429.350; -637.000; -383.000
434.813;   38.250; -251.000; -173.000
434.937;  -80.450; -569.000; -696.000
435.060;  -43.050; -423.000; -332.000
435.184;  395.775; -492.000; -217.000
435.307;  210.425;  159.000;  102.000
435.431;    6.050;  -40.000;   24.000
435.554;  -72.875; -399.000; -240.000
435.677;  -77.425; -350.000; -258.000
435.801;  -36.275;  -25.000;   49.000
435.924;   -4.400;    1.000;  -67.000
436.048; -111.125;-1019.000; -732.000
436.171;  -77.275; -240.000;  -66.000
436.294;  -19.725; -248.000; -229.000
436.417;   74.600; -963.000; -849.000
436.541;  -92.875; -814.000; -840.000
436.664;  -48.150; -242.000; -316.000
436.787;  -12.275;   13.000;  113.000
436.910; -116.850; -792.000; -422.000
437.034;   18.425;  142.000;  143.000
437.157;   67.775;  -11.000;    0.000
437.280;  -39.700; -392.000; -292.000
437.403;  -72.075; -982.000; -869.000
437.526;  768.800; -903.000; -865.000
437.649; 2727.725; -505.000; -332.000
437.772;  430.575; -692.000; -540.000
437.896;  138.000;  700.000;  544.000
438.019;  -83.800; -758.000; -503.000
438.142;  -85.025; -596.000; -506.000
438.265;    7.925; -639.000; -670.000
438.388;  655.775; -520.000; -410.000
438.511;  124.950; -597.000; -394.000
438.634;  -25.150; -247.000; -125.000
438.757; -138.925; -693.000; -619.000
438.880;  -22.275;  -34.000;  -57.000
439.003;  -82.450; -417.000; -437.000
439.126;  -67.800; -287.000; -167.000
439.248;  -64.475;  -98.000; -139.000
439.371;  -50.800;    9.000;  -53.000
439.494;   27.900;  510.000;  439.000
439.617;  -50.150;   65.000;  -88.000
439.740; -173.450; -968.000; -816.000
439.863; -134.375; -755.000; -595.000
439.986; -119.725; -476.000; -431.000
440.108;  -58.425; -161.000; -112.000
440.231; -156.150; -950.000; -836.000
440.354;  -46.100;  -64.000; -150.000
440.477;   60.625; -566.000; -542.000
440.599;    0.925; -200.000; -225.000
440.722; -117.150; -709.000; -586.000
440.845;   66.025;  751.000;  928.000
440.968; -109.300; -415.000; -311.000
441.090;  -78.900; -199.000;  -33.000
441.213; -164.000;-1021.000; -825.000
441.336;  -70.000; -159.000;   -5.000
441.458;  -77.025; -549.000; -396.000
441.581;  -83.850; -628.000; -629.000
441.703;  -63.625; -152.000;   13.000
441.826; -120.750; -557.000; -400.000
441.948;  -59.725;   56.000;   51.000
442.071;   18.575;  555.000;  424.000
442.193; -103.475; -531.000; -485.000
442.316;   25.850;  152.000;   97.000
442.438;   39.825; -233.000;  -10.000
442.561;   61.450;  272.000;  262.000
442.683;  635.250; -809.000; -522.000
442.806; 1383.900;   -8.000;   74.000
442.928;   70.550; -859.000; -604.000
443.051;  -64.500; -577.000; -373.000
443.173; -107.825; -341.000; -339.000
443.295;  -91.150; -263.000; -371.000
443.418;  -66.025; -321.000;  -29.000
443.540;    7.975; -106.000;   -4.000
443.662; -113.600; -563.000; -465.000
443.785;  -20.675;  335.000;  199.000
443.907;  -95.250; -362.000; -208.000
444.029; -127.675; -767.000; -494.000
444.152; -147.400; -644.000; -554.000
444.274;  -37.775;  -18.000;  -24.000
444.396; -128.300; -461.000; -221.000
444.518; -135.450; -691.000; -454.000
444.640; -105.100; -268.000; -111.000
444.763;  -16.825;  388.000;  249.000
444.885; -117.050; -432.000; -392.000
445.007;  -35.750;   35.000;   86.000
445.129; -118.825; -610.000; -515.000
445.251; -126.050; -372.000; -439.000
445.373; -136.775; -537.000; -386.000
445.495;    5.350;  242.000;  350.000
445.617;   45.475;  853.000;  753.000
445.739;  -78.325; -215.000;  -97.000
445.861;  -30.000; -245.000; -112.000
445.984;  -34.125; -267.000; -101.000
446.105;  244.200; -418.000; -251.000
446.227;  719.875; -176.000;  -19.000
446.349;   37.075; -358.000; -249.000
446.471;  -79.025; -615.000; -448.000
446.593;  -63.850; -316.000;   19.000
446.715;   -4.100;  -67.000;   41.000
446.837;   55.500;  697.000;  832.000
446.959;  -94.100; -457.000; -478.000
447.081; -139.550; -628.000; -518.000
447.203;   46.025;  862.000;  834.000
447.325;  -91.100; -270.000;   42.000
447.446;   -7.300;  286.000;  530.000
447.568; -165.325; -921.000; -803.000
447.690;  -78.675; -236.000; -245.000
447.812; -143.875; -798.000; -519.000
447.933;  -26.925;  155.000;  127.000
448.055;  -70.850; -306.000; -261.000
448.177;  156.650;   31.000;   79.000
448.299;  131.550; -935.000; -727.000
448.420;   25.925;  -25.000;  159.000
448.542;  -37.725;   -3.000;   33.000
448.664;  -22.075;  109.000;  322.000
448.785;  -22.650;  265.000;   83.000
448.907;  -76.150; -614.000; -353.000
449.028;  -21.575; -771.000; -471.000
449.150;   72.700;  492.000;  589.000
449.272; -182.650;-1044.000; -913.000
449.393;   40.850;  612.000;  694.000
449.515; -157.600; -634.000; -581.000
449.636;  -59.175; -264.000; -155.000
449.758;   71.775;  763.000;  622.000
449.879;  -99.250; -498.000; -396.000
450.001;  -79.675; -149.000;  -49.000
450.122;  -42.225;  -95.000;  162.000
450.244;  -21.825;   37.000;  364.000
450.365; -103.950; -495.000; -301.000
450.486;  -32.900;   80.000;  268.000
450.608;   16.575;  393.000;  326.000
450.729;   75.950;  578.000;  645.000
450.850;   -6.000; -574.000; -466.000
450.972;  692.850; -552.000; -389.000
451.093; 4608.500;  190.000;  588.000
451.214; 2008.000; -516.000; -337.000
451.336;  378.750;  773.000;  579.000
451.457;   55.100;  264.000;  393.000
451.578;  -42.150; -118.000;  -74.000
451.699; -113.125; -546.000; -540.000
451.821;  -60.425; -284.000;  -50.000
451.942;    1.175;  278.000;  285.000
452.063;   31.700;  228.000;  419.000
452.184;  525.375;  -54.000;  -49.000
452.305; 1034.050;  103.000;  170.000
452.427;  120.450; -549.000; -301.000
452.548;  -15.925;   23.000;   79.000
452.669;  -49.975; -257.000;  -89.000
452.790;  -39.825;    3.000;  -18.000
452.911;   -2.300;  195.000;  259.000
453.032;  -79.650; -289.000;  -60.000
453.153;  -53.400;  -29.000;   81.000
453.274;   50.225;  737.000;  868.000
453.395;  -49.425;  -51.000;  175.000
453.516;  135.275; 1317.000; 1388.000
453.637;  -62.050; -205.000; -150.000
453.758;  -56.175;   15.000;   69.000
453.879; -128.975; -462.000; -250.000
454.000;   70.875; 1086.000;  948.000
454.121; -128.675; -554.000; -326.000
454.242; -122.675; -599.000; -383.000
454.362;  -60.300;  -99.000;  114.000
454.483;  -47.650; -309.000; -229.000
454.604;   42.250;  512.000;  580.000
454.725; -132.300; -627.000; -555.000
454.846; -139.425; -474.000; -406.000
454.967;  -40.750;  230.000;  539.000
455.087;  -51.475;  179.000;  153.000
455.208;   10.825;  554.000;  856.000
455.329;  -54.200;  -22.000;   82.000
455.450;   35.750;  473.000;  633.000
455.570;  -86.250; -234.000; -211.000
455.691;  -45.850;  201.000;  407.000
455.812; -112.650; -270.000;  -92.000
455.932;  -57.050;  107.000;  -97.000
456.053;  -91.550;   36.000;   24.000
456.173; -123.350; -433.000; -355.000
456.294; -143.850; -476.000; -303.000
456.415;  -80.675;  -73.000;   70.000
456.535;  -53.575;  297.000;  273.000
456.656;  -54.450;  132.000;  240.000
456.776;  -78.175;    3.000;  298.000
456.897;    3.975;  308.000;  513.000
457.017;  -89.750; -153.000;   -3.000
457.138; -102.050; -402.000; -249.000
457.258;  -25.150;  263.000;  224.000
457.379;  -28.775;  509.000;  521.000
457.499;  -25.800;  443.000;  432.000
457.620; -127.175; -407.000; -231.000
457.740; -102.250; -132.000;  -11.000
457.860;  -63.375;   87.000;   44.000
457.981;  -62.275;  132.000;  124.000
458.101;  -78.900;  -89.000;   40.000
458.221;  -30.750;  336.000;  402.000
458.342;  -63.275;   -4.000;  -37.000
458.462;   -2.025;  617.000;  352.000
458.582;  -51.775; -302.000; -294.000
458.703;   -2.025;  303.000;  154.000
458.823;  -35.575;   22.000;  163.000
458.943;   24.775;  341.000;  467.000
459.063;  -18.100; 1124.000;  192.000
459.183;  -19.600;  328.000;  313.000
459.304;    7.175;  315.000;  517.000
459.424;  -73.125; -246.000;  -89.000
459.544;  310.525;  388.000;  764.000
459.664;  800.725;  499.000;  506.000
459.784;  292.150; 1004.000; 1175.000
459.904;   52.450;  867.000;  744.000
460.024;   66.250;  867.000;  684.000
460.144;   10.175;  449.000;  554.000
460.264;  -10.850;  515.000;  327.000
460.385;  -99.400; -145.000; -119.000
460.505;   38.450;  905.000;  858.000
460.625; -105.225;  -17.000;  -68.000
460.745;  -27.975;  396.000;  541.000
460.864;  -48.500;  153.000;  469.000
460.984;    7.775;  499.000;  573.000
461.104;  149.050; 1656.000; 1775.000
461.224;    9.750;  657.000;  650.000
461.344;  -25.675;  431.000;  360.000
461.464;  -44.475;  258.000;  513.000
461.584;  -15.125;  283.000;  466.000
461.704;  -52.400;   58.000;  108.000
461.824;  -67.950;  238.000;  259.000
461.943;  -45.875;  191.000;  130.000
462.063;  -76.850;    2.000;  324.000
462.183;   27.550;  639.000;  717.000
462.303;  107.975; 1678.000; 1230.000
462.422;   20.550;  781.000;  840.000
462.542;  -47.350;  271.000;  391.000
462.662;   33.900;  353.000;  380.000
462.782;  233.750;  833.000;  572.000
462.901;  447.575;  545.000;  717.000
463.021;  276.975; 1702.000; 1638.000
463.141;  -12.650;  337.000;  770.000
463.260;   -9.300;  614.000;  474.000
463.380;    6.100;  902.000;  884.000
463.499;  -30.175;  342.000;  332.000
463.619;  -40.575;  581.000;  559.000
463.738;   91.650; 1644.000;  903.000
463.858;   19.075;  657.000;  811.000
463.978;  -30.575;  542.000;  396.000
464.097;   40.150;  921.000; 1114.000
464.217;  109.650; 1196.000; 1143.000
464.336;  108.200; 1068.000; 1130.000
464.455;  -29.350;  328.000;  659.000
464.575;   42.775;  597.000;  602.000
464.694;  176.925; 1204.000; 1179.000
464.814;  130.375; 1190.000; 1138.000
464.933;   72.775; 1095.000; 1027.000
465.052;   84.575; 1412.000; 1054.000
465.172;   92.525;  922.000;  799.000
465.291;  142.150; 1376.000; 1320.000
465.410;   11.625;  462.000;  735.000
465.530;   86.900; 1355.000; 1310.000
465.649;   72.050; 1209.000; 1273.000
465.768;  148.825; 1673.000; 1508.000
465.888;   52.450;  941.000; 1174.000
466.007;   83.000; 1335.000; 1440.000
466.126;  -15.100;  721.000;  641.000
466.245;   39.450; 1176.000; 1187.000
466.364;   15.375;  950.000; 1060.000
466.484;   53.275; 1024.000; 1213.000
466.603;   28.675; 1101.000; 1222.000
466.722;  117.475; 1490.000; 1769.000
466.841;   84.350; 1151.000; 1401.000
466.960;   28.050; 1069.000;  972.000
467.079;  131.175; 1971.000; 1786.000
467.198;   52.850; 1238.000; 1181.000
467.317;   84.000; 1768.000; 1162.000
467.436;   74.150; 1709.000; 1261.000
467.555;  129.575; 1796.000; 1746.000
467.674;   63.825; 1227.000; 1329.000
467.793;   42.075; 1376.000; 1374.000
467.912;   90.600; 1658.000; 1539.000
468.031;  114.725; 2038.000; 1930.000
468.150;  149.350; 1842.000; 1837.000
468.269;  200.225; 2313.000; 2090.000
468.388;  195.325; 2168.000; 2339.000
468.507;  259.275; 2884.000; 2903.000
468.626;  242.325; 2555.000; 2541.000
468.744;  148.300; 2018.000; 2174.000
468.863;  195.175; 2312.000; 2523.000
468.982;   87.500; 1503.000; 1555.000
469.101;  222.200; 2788.000; 2692.000
469.220;  159.250; 2333.000; 2176.000
469.338;  243.325; 2935.000; 3051.000
469.457;  190.650; 2719.000; 2545.000
469.576;  346.500; 3953.000; 3784.000
469.695;  238.775; 2877.000; 3066.000
469.813;  433.575; 4148.000; 4192.000
469.932;  399.175; 4255.000; 4485.000
470.051;  417.200; 4075.000; 4161.000
470.169;  825.900; 4470.000; 4338.000
470.288; 1415.150; 4700.000; 4809.000
470.406;  858.850; 5059.000; 5194.000
470.525;  628.000; 6101.000; 5787.000
470.644;  643.725; 6847.000; 6794.000
470.762;  812.750; 8397.000; 7873.000
470.881;  892.850; 8651.000; 8464.000
470.999; 1043.675; 9685.000; 9151.000
471.118; 1104.550;11174.000;10711.000

