
Integration time [ms]: 100.000
Averaging Nr. [scans]: 40
Smoothing Nr. [pixels]: 0
Data measured with spectrometer [name]: 2101012U2
Wave   ;Sample   ;Dark     ;Reference
[nm]   ;[counts] ;[counts] ;[counts] 

197.733;   60.825;  516.000;  404.000
197.879;  -86.050; -610.000; -634.000
198.025;  -46.975; -475.000; -420.000
198.171;  -68.150; -602.000; -612.000
198.317;  -26.425; -401.000; -316.000
198.463;  -67.200; -655.000; -404.000
198.609;   27.550;  181.000; -137.000
198.755;  -93.125; -644.000; -410.000
198.901;  -70.675; -505.000; -424.000
199.047;  -56.725; -615.000; -488.000
199.193;  -36.175; -230.000; -468.000
199.339;  -33.000; -222.000; -369.000
199.485;   36.425;  330.000;  271.000
199.631;    8.325;  227.000;  310.000
199.777;  -46.625; -466.000; -398.000
199.923;  -54.150; -610.000; -424.000
200.069;   -3.150; -141.000;  -58.000
200.215;   61.000;  128.000;  453.000
200.361;   41.150;  243.000;  477.000
200.507;  -70.275; -600.000; -373.000
200.653;  -36.300; -371.000; -194.000
200.798;  -40.400; -215.000; -125.000
200.944;   -1.500; -146.000;  -41.000
201.090;   22.150;   61.000;  222.000
201.236;   -4.100; -116.000; -158.000
201.382;  118.625;  874.000;  903.000
201.528;    2.450;  -58.000;  -48.000
201.674;  -33.225; -386.000; -293.000
201.819;  -70.675; -540.000; -439.000
201.965;  -94.800; -699.000; -447.000
202.111;  -15.800; -273.000; -226.000
202.257;  -36.875; -250.000; -238.000
202.402;    9.725;   13.000;  -36.000
202.548;  -30.075; -169.000; -116.000
202.694;   78.525;  410.000; -183.000
202.840;  -75.100; -603.000; -531.000
202.985;  -70.150; -681.000; -639.000
203.131; -104.675; -832.000; -666.000
203.277;  -27.050; -199.000; -262.000
203.423;  -55.725; -434.000; -520.000
203.568;  -33.775; -462.000; -237.000
203.714;  -60.425; -535.000; -542.000
203.860;  -66.725; -682.000; -641.000
204.005;   14.700;  112.000;  167.000
204.151;   74.800;  561.000;  556.000
204.296;  -40.100; -354.000; -221.000
204.442;  -71.475; -600.000; -547.000
204.588;  -74.625; -592.000; -579.000
204.733;   -1.425;  178.000;  168.000
204.879; -119.275;-1018.000; -822.000
205.025;   20.175;  -99.000;  126.000
205.170;  -10.050;  -17.000;   94.000
205.316;   72.900;  438.000;  661.000
205.461;  -73.600; -698.000; -554.000
205.607;   97.450;  609.000;  665.000
205.752;  -83.275; -626.000; -551.000
205.898;  -63.875; -501.000; -391.000
206.043;  -59.675; -578.000; -506.000
206.189;  -26.500; -243.000; -285.000
206.334;   68.600;  554.000;  606.000
206.480;   64.775;  409.000;  239.000
206.625;  -71.975; -529.000; -552.000
206.771;  -49.425; -451.000; -373.000
206.916;  -25.625; -210.000; -537.000
207.062;  -76.975; -545.000; -591.000
207.207;  -65.275; -546.000; -443.000
207.353;   61.100;  185.000;  460.000
207.498;   24.075;  196.000;   85.000
207.643;  -53.650; -501.000; -370.000
207.789; -122.325;-1069.000; -910.000
207.934;  -88.850; -665.000; -713.000
208.080;  -11.750; -154.000;   66.000
208.225;   -5.825;  -22.000;  -57.000
208.370;  -94.425; -727.000; -619.000
208.516;  -83.300; -741.000; -487.000
208.661;  -31.475; -127.000;  -69.000
208.806;  -16.225; -165.000; -171.000
208.952; -117.125;-1044.000; -731.000
209.097;   93.500;  378.000;  349.000
209.242;  -36.425; -307.000; -382.000
209.387;   74.500;  392.000;  350.000
209.533;  -34.025; -321.000; -350.000
209.678;   75.525;  472.000;  543.000
209.823;  -46.025; -408.000; -310.000
209.969; -102.100; -860.000; -757.000
210.114; -110.450; -907.000; -719.000
210.259; -112.125; -939.000; -889.000
210.404;   -9.650; -171.000;  103.000
210.549;   19.500;  108.000;    3.000
210.695;  -18.200;   -3.000;  -95.000
210.840;   33.500;   94.000;   67.000
210.985;  -61.625; -484.000; -303.000
211.130;   79.350;  268.000;  406.000
211.275;   23.150;  207.000;  199.000
211.420;  -46.375; -300.000; -289.000
211.566;  -64.325; -536.000; -489.000
211.711;   18.575;  218.000;  157.000
211.856;  -65.500; -545.000; -519.000
212.001;   19.225;  151.000;   44.000
212.146;   22.925;  153.000;   49.000
212.291;   -4.850; -210.000; -186.000
212.436;  -27.750; -280.000;   -6.000
212.581;  -81.050; -685.000; -653.000
212.726;  -66.325; -487.000; -538.000
212.871;  -55.325; -552.000; -217.000
213.016; -144.975;-1172.000;-1029.000
213.161;   60.750;  406.000;  291.000
213.306;  -69.825; -435.000; -577.000
213.451;  -82.625; -778.000; -689.000
213.596;  -38.750; -455.000; -347.000
213.741;  -46.625; -448.000; -538.000
213.886;  -76.325; -498.000; -517.000
214.031;  -30.525; -294.000; -124.000
214.176;  -63.375; -408.000; -341.000
214.321;  -12.825; -296.000; -157.000
214.466;  -30.300; -163.000;  -43.000
214.611;   -6.775;  -61.000;  -10.000
214.756; -123.375; -948.000; -858.000
214.901;  -19.850; -388.000; -226.000
215.046; -131.625; -797.000; -825.000
215.191;   20.875;  128.000;   35.000
215.336;   -5.800; -157.000;  -19.000
215.480;  -67.575; -684.000; -505.000
215.625;  -25.175; -175.000;  -19.000
215.770;  -84.050; -757.000; -662.000
215.915;    4.725;   -5.000;  -97.000
216.060;   -1.200; -113.000;  -21.000
216.205; -109.825; -731.000; -779.000
216.349;  -69.850; -470.000; -533.000
216.494; -142.100; -939.000; -867.000
216.639; -116.275; -823.000; -888.000
216.784;  -97.450; -577.000; -525.000
216.929;   47.825;  392.000;  281.000
217.073;    0.150; -244.000;  -31.000
217.218;   15.750;   78.000;  -47.000
217.363;  -81.950; -656.000; -618.000
217.507;  -81.025; -623.000; -588.000
217.652; -124.825; -845.000; -874.000
217.797;  -90.675; -708.000; -659.000
217.942; -107.050; -856.000; -720.000
218.086;   84.425;  608.000;  539.000
218.231;  -30.850; -174.000;  -26.000
218.376;  -21.775; -337.000; -229.000
218.520;    3.850;  -41.000;   96.000
218.665;  -43.075; -338.000; -204.000
218.810;  -40.050; -275.000; -233.000
218.954;   22.075;  201.000;   35.000
219.099; -116.650; -713.000; -963.000
219.243;  -76.600; -589.000; -554.000
219.388;  -36.525; -264.000; -136.000
219.532;   -9.950; -116.000; -116.000
219.677;  -77.750; -564.000; -521.000
219.822;    1.425;   33.000;   89.000
219.966;   -3.000;   17.000;  -99.000
220.111;  -17.500; -328.000;  -40.000
220.255; -103.925; -797.000; -750.000
220.400;  -20.375; -180.000; -146.000
220.544;  -54.625; -516.000; -450.000
220.689;  -38.150; -422.000; -451.000
220.833;  -20.025; -123.000;  -58.000
220.978;  -41.850; -393.000; -563.000
221.122;   19.075;  319.000;  307.000
221.267; -100.825; -906.000; -837.000
221.411;  -65.075; -478.000; -394.000
221.555;   -3.300; -104.000;  -23.000
221.700;  -56.525; -329.000; -222.000
221.844;   37.400;  255.000;  272.000
221.989;  -33.325; -328.000; -311.000
222.133;  -43.500; -289.000; -307.000
222.277;  -22.275;    5.000;   78.000
222.422;    8.125;  227.000;  113.000
222.566;  -47.500; -381.000; -214.000
222.711;  -37.875; -414.000; -479.000
222.855;  -77.300; -643.000; -586.000
222.999;  -81.725; -642.000; -717.000
223.144;  -35.600; -195.000; -194.000
223.288;   50.825;  423.000;  251.000
223.432;   31.150;  184.000;  230.000
223.576;   12.400;  152.000;  -21.000
223.721;   35.425;  364.000;  273.000
223.865;  -63.200; -472.000; -475.000
224.009;  208.700; 1673.000; 1631.000
224.153;  -80.900; -660.000; -671.000
224.298;  -65.175; -531.000; -489.000
224.442;  -19.825;  -74.000;  -33.000
224.586;   -1.375; -169.000; -106.000
224.730;  -81.700; -858.000; -670.000
224.875; -106.450; -739.000; -688.000
225.019;   18.150;  102.000;  188.000
225.163;   63.875;  208.000;  341.000
225.307;   20.450;   97.000;  -91.000
225.451;   37.775;  360.000;  481.000
225.595;   39.825;  264.000;  176.000
225.739;  -20.750; -170.000;  -94.000
225.884;    6.525;   86.000;    5.000
226.028;  -95.025; -760.000; -626.000
226.172;  -49.300; -260.000; -273.000
226.316; -117.775; -941.000; -902.000
226.460;  -73.050; -645.000; -493.000
226.604;  -50.125; -406.000; -400.000
226.748;  -92.625; -836.000; -733.000
226.892;  -34.350; -227.000; -181.000
227.036;  -49.775; -537.000; -447.000
227.180;  -55.150; -551.000; -375.000
227.324;  -73.400; -561.000; -580.000
227.468; -112.775; -819.000; -717.000
227.612;   11.100;  242.000;  -28.000
227.756;  -95.925; -845.000; -698.000
227.900;   45.550;  342.000;  441.000
228.044;  -56.125; -509.000; -290.000
228.188;   55.700;  448.000;  568.000
228.332;  -85.325; -546.000; -472.000
228.476;  -31.075; -223.000; -149.000
228.620;  -34.375; -210.000; -150.000
228.764;   68.625;  431.000;  349.000
228.908;  -12.200; -155.000;   30.000
229.052;  -54.775; -615.000; -528.000
229.195;  -24.250; -172.000;   13.000
229.339;  -27.525; -235.000; -305.000
229.483;  -24.550;    5.000; -162.000
229.627;  -12.300; -156.000;  139.000
229.771;  -43.675; -218.000; -294.000
229.915;    6.975;  230.000;   79.000
230.059;  -88.400; -648.000; -663.000
230.202;  -32.225; -370.000; -317.000
230.346;  -27.125; -107.000;  107.000
230.490;  -66.175; -489.000; -521.000
230.634; -105.250; -736.000; -553.000
230.777;   67.175;  478.000;  509.000
230.921;  -48.925; -450.000; -359.000
231.065;  -35.800; -246.000; -286.000
231.209;   28.475;  261.000;  265.000
231.352;   32.750;   54.000;   40.000
231.496;   -4.375;  568.000;  188.000
231.640;  -78.875; -693.000; -621.000
231.783;   65.825;  546.000;  525.000
231.927;  -35.875; -294.000; -365.000
232.071; -107.075; -962.000; -736.000
232.214; -115.325; -980.000; -764.000
232.358;  -97.075; -683.000; -599.000
232.502;    0.100;  -19.000;    7.000
232.645; -137.775;-1090.000; -927.000
232.789;  -27.875; -257.000; -218.000
232.933;  -43.900; -407.000; -224.000
233.076; -126.100;-1038.000; -897.000
233.220; -101.650; -752.000; -777.000
233.363;  -75.775; -669.000; -477.000
233.507;   52.650;  371.000;  129.000
233.650; -102.100; -764.000; -834.000
233.794;   38.575;  438.000;  461.000
233.938;  -62.625; -530.000; -362.000
234.081;  -10.950;  -93.000;   31.000
234.225;  -74.225; -631.000; -539.000
234.368; -113.400; -773.000; -723.000
234.512;  -37.150; -385.000; -299.000
234.655;  -83.925; -582.000; -555.000
234.798;  -61.425; -493.000; -466.000
234.942; -120.825; -884.000;-1002.000
235.085;  -69.225; -651.000; -443.000
235.229;  -73.100; -405.000; -410.000
235.372;  -43.975; -247.000; -191.000
235.516;  -57.200; -397.000; -321.000
235.659;   25.650;   92.000;  121.000
235.802;   -2.950;  -38.000;  -22.000
235.946;   31.375;  335.000;  215.000
236.089;   38.700;  126.000;  250.000
236.233;   47.650;  275.000;  298.000
236.376;  -59.425; -235.000; -378.000
236.519;  -46.800; -297.000; -319.000
236.663;  -40.750; -215.000; -117.000
236.806; -125.025;-1029.000; -999.000
236.949;   64.800;  543.000;  431.000
237.092;   63.850;  412.000;  391.000
237.236;  -90.050; -589.000; -502.000
237.379;   60.425;  352.000;  428.000
237.522; -117.175; -879.000; -768.000
237.666;   -1.875; -271.000;   18.000
237.809; -130.550; -851.000; -823.000
237.952;   32.900;  469.000;  271.000
238.095;  -61.925; -447.000; -442.000
238.238;   76.975;  688.000;  700.000
238.382;    8.675;  166.000;  103.000
238.525;  -62.125; -598.000; -511.000
238.668; -133.475;-1060.000; -985.000
238.811;  -77.625; -638.000; -643.000
238.954;  -62.825; -483.000; -334.000
239.097;   88.800;  617.000;  664.000
239.241;   21.750;  394.000;  326.000
239.384;  -31.625; -254.000; -214.000
239.527;  -60.750; -424.000; -224.000
239.670; -153.575; -994.000;-1091.000
239.813; -110.400; -696.000; -658.000
239.956;   73.275;  579.000;  473.000
240.099; -113.650; -778.000; -725.000
240.242;   63.325;  428.000;  432.000
240.385;   52.675;  466.000;  450.000
240.528;  -77.800; -706.000; -473.000
240.671;   16.375;  189.000;  134.000
240.814;  -39.800; -441.000; -158.000
240.957;  -97.125; -767.000; -578.000
241.100;  -95.300; -779.000; -755.000
241.243; -146.000;-1234.000; -893.000
241.386;  -55.950; -508.000; -379.000
241.529;  -90.625; -735.000; -547.000
241.672;  -57.725; -566.000; -495.000
241.815; -111.000; -832.000; -808.000
241.958;  -21.225; -125.000; -182.000
242.101;  -70.900; -545.000; -390.000
242.244;  -40.400; -270.000; -325.000
242.387;  -42.075; -304.000; -246.000
242.530;   54.975;  470.000;  134.000
242.673;  -40.850; -381.000; -309.000
242.815; -116.750; -925.000; -899.000
242.958;  -70.425; -482.000; -381.000
243.101;   11.200;  132.000;  187.000
243.244;  -73.525; -564.000; -521.000
243.387;  -53.100; -313.000; -316.000
243.530;  -91.300; -657.000; -674.000
243.672;    1.125;   43.000;  -92.000
243.815;  -51.850; -355.000; -283.000
243.958;   -5.950;   98.000;  -26.000
244.101;  -17.475;   59.000;  -16.000
244.243;  -19.300;  -47.000;  101.000
244.386; -115.400; -761.000; -630.000
244.529;  -16.900; -132.000; -139.000
244.672; -152.375;-1154.000; -951.000
244.814;  -95.000; -621.000; -794.000
244.957;  -61.500; -380.000; -304.000
245.100;  -67.075; -489.000; -489.000
245.242;  -62.775; -387.000; -374.000
245.385;  -12.025;  -59.000;  -39.000
245.528; -121.350; -871.000; -705.000
245.670;   78.800;  612.000;  634.000
245.813;  -82.700; -599.000; -547.000
245.956;  -34.150; -324.000; -275.000
246.098;  -76.650; -508.000; -650.000
246.241;    8.575;  194.000;   48.000
246.383;  -15.725; -119.000;  -73.000
246.526;  -77.000; -454.000; -525.000
246.669; -118.450; -889.000; -780.000
246.811;   24.275;  172.000;   -1.000
246.954;  -76.950; -512.000; -426.000
247.096;  -20.375;  -84.000;   -6.000
247.239;  -72.450; -482.000; -445.000
247.381;  -64.075; -647.000; -488.000
247.524;   77.850;  645.000;  679.000
247.666;  -26.350;   58.000;   11.000
247.809; -115.025; -887.000; -691.000
247.951;   -4.625;  -75.000;  138.000
248.094;   26.500;  432.000;  308.000
248.236; -161.325;-1262.000;-1238.000
248.378;   14.925; -356.000;  -81.000
248.521;  -26.100; -334.000; -337.000
248.663;  -34.725; -236.000; -267.000
248.806;  -22.950; -300.000; -266.000
248.948;  -91.675; -886.000; -763.000
249.090;  -50.475; -428.000; -398.000
249.233;  -49.700; -344.000; -381.000
249.375;  -62.900; -474.000; -451.000
249.518;  -11.625;  -83.000; -133.000
249.660;  -11.025; -103.000;    3.000
249.802; -167.175;-1303.000;-1189.000
249.945;  -73.375; -612.000; -540.000
250.087; -112.050; -834.000; -768.000
250.229;  -43.800; -362.000; -480.000
250.371;  -70.575; -494.000; -439.000
250.514;  -52.650; -310.000; -244.000
250.656;  -56.725;   69.000;  102.000
250.798; -122.925; -849.000; -800.000
250.940;  -61.400; -322.000; -322.000
251.083;  -25.700; -335.000; -111.000
251.225;   54.400;  338.000;  310.000
251.367;  -31.475; -274.000; -373.000
251.509;  -45.250; -265.000; -210.000
251.651;  -87.225; -731.000; -671.000
251.794;   56.400;  538.000;  632.000
251.936; -108.400; -821.000; -747.000
252.078;  -76.775; -540.000; -461.000
252.220;  -73.875; -645.000; -477.000
252.362;   96.500;  344.000;  462.000
252.504;  -67.350; -677.000; -584.000
252.646; -118.150; -875.000; -722.000
252.788;   -5.550;   14.000; -128.000
252.931;  -37.375; -257.000; -253.000
253.073;  -37.575; -376.000; -317.000
253.215;  -12.575;  141.000;  122.000
253.357;   -8.500;   82.000; -153.000
253.499;  -43.900; -374.000; -234.000
253.641;  -80.875; -749.000; -594.000
253.783;  -90.225; -609.000; -527.000
253.925;  -79.275; -586.000; -591.000
254.067; -111.600; -744.000; -667.000
254.209;  -26.550; -391.000; -259.000
254.351; -123.925; -865.000; -883.000
254.493;  -61.400; -441.000; -417.000
254.635; -126.350; -936.000; -818.000
254.777;  -90.050; -752.000; -687.000
254.918;  -74.175; -512.000; -430.000
255.060;  -53.625; -551.000; -395.000
255.202;  -63.950; -473.000; -261.000
255.344;  -82.450; -658.000; -455.000
255.486;  -66.550; -471.000; -406.000
255.628; -100.000; -780.000; -781.000
255.770;  -95.575; -676.000; -536.000
255.912;  -53.025; -559.000; -468.000
256.053;  -96.375; -730.000; -508.000
256.195;  140.850; 1008.000;  903.000
256.337;  -98.925; -861.000; -595.000
256.479;   53.550;  532.000;  416.000
256.621;  -55.025; -394.000; -212.000
256.762;  -91.575; -789.000; -742.000
256.904;   64.525;  485.000;  487.000
257.046;  -32.200; -381.000; -271.000
257.188;  -37.425; -351.000; -264.000
257.329;  -70.150; -525.000; -464.000
257.471; -119.700; -939.000; -807.000
257.613;  -66.275; -584.000; -498.000
257.755; -150.100;-1073.000; -982.000
257.896;   34.500;  286.000;  392.000
258.038;  -67.025; -403.000; -352.000
258.180;  -41.100; -354.000; -279.000
258.321;  -86.000; -581.000; -457.000
258.463;   -6.150;  -71.000;  133.000
258.605;  -81.075; -562.000; -570.000
258.746; -110.575; -886.000; -772.000
258.888; -168.425;-1026.000;-1020.000
259.029;   26.400;  121.000;   -8.000
259.171;  -88.275; -614.000; -550.000
259.313;   -4.250;  -49.000;  -47.000
259.454;  -69.450; -536.000; -414.000
259.596;  -65.050; -483.000; -390.000
259.737;  -75.825; -590.000; -474.000
259.879;   42.175;  217.000;  311.000
260.020;   93.925;  901.000;  636.000
260.162;  -25.350; -146.000; -253.000
260.303; -115.800; -768.000; -687.000
260.445;  -73.050; -609.000; -613.000
260.586;   23.750;  392.000;  157.000
260.728;  -32.625; -360.000; -248.000
260.869; -110.600; -350.000; -343.000
261.011;   79.075;  706.000;  537.000
261.152;  -53.550; -479.000; -319.000
261.293;  -78.825; -576.000; -595.000
261.435;  -32.950; -219.000; -184.000
261.576;  -56.000; -455.000; -325.000
261.718;   66.075;  420.000;  470.000
261.859; -120.400; -940.000; -949.000
262.000; -144.275; -951.000;-1016.000
262.142;   -8.000;  -52.000;  -60.000
262.283; -127.950; -808.000; -691.000
262.424;  -89.300; -666.000; -625.000
262.566; -150.300;-1161.000; -983.000
262.707; -108.550; -840.000; -830.000
262.848; -120.925; -769.000; -726.000
262.990;  -44.550; -362.000; -345.000
263.131;   83.475;  650.000;  681.000
263.272;  -16.450;  -61.000;  -41.000
263.413;  -93.075; -589.000; -561.000
263.555;  -72.250; -669.000; -143.000
263.696;  -87.150; -550.000; -641.000
263.837;  -45.450; -449.000; -551.000
263.978;  -18.100;   -5.000;  -77.000
264.119;  -49.200; -283.000; -264.000
264.261; -113.275; -847.000; -630.000
264.402;   -3.850;   33.000;   40.000
264.543;  -81.625; -509.000; -524.000
264.684;  -13.875;   61.000;  -50.000
264.825;  -81.250; -816.000; -538.000
264.966;   10.625;  -84.000;  -67.000
265.107; -122.625; -646.000; -670.000
265.248; -120.550; -825.000; -812.000
265.390;   -0.050;  152.000;   -9.000
265.531;  -22.950; -238.000; -107.000
265.672;  -93.950; -557.000; -630.000
265.813;   61.475;  563.000;  439.000
265.954; -144.575; -959.000; -940.000
266.095;  -23.075; -372.000; -322.000
266.236;  -91.775; -686.000; -548.000
266.377;  -33.000; -243.000; -297.000
266.518;  -78.875; -619.000; -547.000
266.659;   24.400;  170.000;  268.000
266.800;   -6.750;   83.000;   85.000
266.941;  -76.600; -487.000; -478.000
267.082;    9.400;  354.000;   99.000
267.223;  -54.125; -344.000; -273.000
267.364; -117.175; -892.000; -686.000
267.504;  -30.375;    3.000;  135.000
267.645;   -6.575;  160.000;   67.000
267.786;  -23.675; -147.000;  -86.000
267.927;  -79.450; -473.000; -379.000
268.068;  -21.575; -186.000;  -61.000
268.209;  -49.950; -175.000; -413.000
268.350;  -59.775; -388.000; -532.000
268.490;  -90.475; -648.000; -521.000
268.631;   31.500;  127.000;  225.000
268.772; -105.650; -874.000; -647.000
268.913;  -67.600; -328.000; -476.000
269.054;   -6.825; -117.000;   12.000
269.194;  -51.100; -418.000; -402.000
269.335; -153.450;-1137.000;-1074.000
269.476;  -18.900;   33.000;  -35.000
269.617;  -44.800; -347.000; -392.000
269.757;  -80.900; -713.000; -646.000
269.898; -114.000; -856.000; -613.000
270.039;  -71.850; -415.000; -405.000
270.180; -132.650; -952.000; -816.000
270.320;  -17.200; -190.000; -250.000
270.461;  -39.725; -277.000; -249.000
270.602;  -18.050; -186.000; -156.000
270.742; -116.650; -868.000; -943.000
270.883;  -54.525; -442.000; -390.000
271.023;  -50.525; -358.000; -357.000
271.164;  -76.025; -607.000; -528.000
271.305;  -96.275; -666.000; -654.000
271.445;  -91.350; -722.000; -683.000
271.586;  -67.650; -462.000; -283.000
271.726;  -45.575; -397.000; -322.000
271.867;  -49.575; -594.000; -534.000
272.008;  218.000; -473.000; -285.000
272.148;  140.825;  462.000;  468.000
272.289;    5.375; -113.000; -181.000
272.429;   15.000;   19.000;  185.000
272.570;  -97.900; -633.000; -737.000
272.710; -106.450; -825.000; -775.000
272.851;  -16.375;  113.000; -130.000
272.991; -156.750;-1173.000;-1077.000
273.131;  -70.875; -419.000; -459.000
273.272;  -90.600; -683.000; -723.000
273.412;   21.425; -143.000;  -31.000
273.553;  -47.825; -488.000; -507.000
273.693;  142.025;  913.000;  858.000
273.834;  -81.200; -894.000; -692.000
273.974;  -64.275; -664.000; -615.000
274.114;  -95.825; -772.000; -560.000
274.255;   91.200;  414.000;  373.000
274.395;   15.350; -180.000; -125.000
274.535;   35.550;  199.000;  350.000
274.676;   20.775;  225.000;   94.000
274.816;   13.325;  110.000;   34.000
274.956;  -87.875; -624.000; -690.000
275.097;  -59.275;-1014.000; -922.000
275.237; -111.750; -913.000; -803.000
275.377;  -96.725; -778.000; -689.000
275.517; -151.250; -878.000; -937.000
275.658;  -48.250; -590.000; -555.000
275.798;  -68.925; -606.000; -413.000
275.938;   27.250;  215.000;  323.000
276.078;  -96.900; -626.000; -395.000
276.218;   24.550;   99.000;  104.000
276.359; -125.325;-1026.000;-1024.000
276.499;  -60.800; -605.000; -446.000
276.639;   -9.300; -305.000; -151.000
276.779;  -53.150; -475.000; -357.000
276.919; -100.675; -783.000; -624.000
277.059;  -25.975; -261.000; -212.000
277.199;  -51.550; -357.000; -259.000
277.340;   42.675;  287.000;  175.000
277.480; -101.675; -840.000; -693.000
277.620;   31.200;  192.000;   16.000
277.760; -191.025;-1533.000;-1294.000
277.900;   18.850;  113.000;   33.000
278.040;   18.175;  137.000;  159.000
278.180;   40.675;  270.000;  170.000
278.320;    4.625;   21.000;   56.000
278.460;  -61.525; -443.000; -469.000
278.600;  -92.525; -708.000; -598.000
278.740;   46.825;  448.000;  224.000
278.880;  -34.450; -768.000; -791.000
279.020;    9.275; -194.000; -144.000
279.160;  -81.100; -672.000; -595.000
279.300; -112.600; -926.000; -873.000
279.440;  -82.875; -709.000; -622.000
279.579;    6.075;-1014.000; -929.000
279.719;  -43.350; -410.000; -394.000
279.859;   91.850;   -4.000;   41.000
279.999;   41.575; -208.000;  101.000
280.139;   -4.750; -435.000; -387.000
280.279;  -67.500; -708.000; -745.000
280.419;   13.025; -229.000; -147.000
280.559;  -33.000; -259.000; -180.000
280.698;  -83.875; -790.000; -639.000
280.838;  -96.500; -778.000; -800.000
280.978;  -89.950; -846.000; -790.000
281.118; -118.875; -811.000; -704.000
281.257;    9.325;   24.000;    6.000
281.397;  -99.075;-1094.000; -960.000
281.537;  -71.575; -599.000; -712.000
281.677;  -24.200; -150.000; -101.000
281.816;  -82.725; -700.000; -630.000
281.956;  -38.425; -193.000; -257.000
282.096;  -63.975; -539.000; -396.000
282.235; -112.675; -672.000; -638.000
282.375;  -16.675; -243.000;  -98.000
282.515;  -95.100; -715.000; -707.000
282.654;   32.250;   29.000;  106.000
282.794;   14.750;  388.000;  244.000
282.934;  -48.150; -530.000; -491.000
283.073; -140.800;-1030.000; -857.000
283.213;  -58.425; -460.000; -467.000
283.353;  -25.700; -408.000; -349.000
283.492;  -24.525; -264.000; -296.000
283.632;  -41.100; -254.000; -168.000
283.771;  -85.450; -859.000; -730.000
283.911;  -51.375; -369.000; -260.000
284.050; -103.025; -794.000; -748.000
284.190; -150.550;-1229.000;-1096.000
284.329; -133.500;-1055.000; -964.000
284.469;  -57.725; -516.000; -591.000
284.608;  -48.775; -559.000; -598.000
284.748;  -61.525; -614.000; -570.000
284.887;   -6.675;  -87.000;  -20.000
285.027; -120.950; -844.000; -892.000
285.166;  -30.100; -192.000; -249.000
285.306;   14.000; -116.000;  -33.000
285.445;  -31.125; -229.000; -343.000
285.584;  -93.875; -630.000; -494.000
285.724;  -59.000; -282.000; -322.000
285.863; -105.175; -857.000; -507.000
286.002;  -52.775; -366.000; -276.000
286.142; -108.750; -715.000; -622.000
286.281;  -72.100; -525.000; -493.000
286.420;  -82.750; -554.000; -417.000
286.560;  104.750;  653.000;  623.000
286.699; -132.825; -958.000; -912.000
286.838;  -80.725; -590.000; -591.000
286.978;  -92.200; -533.000; -537.000
287.117; -119.400;-1085.000; -950.000
287.256;  -31.200; -228.000; -211.000
287.395;  -52.150; -197.000; -378.000
287.535;  -53.150; -370.000; -298.000
287.674;  -69.000; -509.000; -484.000
287.813;   46.875;  661.000;  533.000
287.952; -123.975;-1010.000; -871.000
288.091; -143.575;-1049.000; -915.000
288.231;    9.000;   13.000;   15.000
288.370; -169.225;-1217.000;-1200.000
288.509;  -90.550; -728.000; -645.000
288.648;  -73.625; -770.000; -548.000
288.787;  -31.075; -243.000;  -87.000
288.926;  -72.000; -454.000; -475.000
289.065;  117.575;  859.000;  672.000
289.204;  -56.700; -377.000; -217.000
289.344;  -82.500; -791.000; -690.000
289.483;   20.325;  416.000;  304.000
289.622;  -37.025; -291.000; -149.000
289.761;  -10.275; -309.000; -166.000
289.900; -114.400; -785.000; -626.000
290.039;  -13.500;  -12.000;  -95.000
290.178;  -35.850; -274.000; -180.000
290.317;  -87.175; -618.000; -479.000
290.456;  -62.675; -463.000; -451.000
290.595; -147.200; -961.000; -833.000
290.734; -121.325; -904.000; -891.000
290.873;  -65.925; -456.000; -420.000
291.011; -110.450; -833.000; -843.000
291.150;  -98.825; -770.000; -682.000
291.289;  -21.300; -343.000; -110.000
291.428;  -79.050; -599.000; -480.000
291.567;  -58.000; -370.000; -442.000
291.706;  -21.375;  109.000;  154.000
291.845;  -72.725; -597.000; -505.000
291.984; -169.950;-1234.000;-1061.000
292.122;   66.825;  602.000;  582.000
292.261;   39.275;  620.000;  463.000
292.400;    0.625; -144.000;  211.000
292.539; -119.650; -959.000; -813.000
292.678;  -28.250; -325.000; -300.000
292.816; -154.675;-1136.000; -965.000
292.955;  -69.600; -844.000; -684.000
293.094;  -16.375; -173.000; -337.000
293.233;  -46.700; -556.000; -400.000
293.371;  -33.025; -225.000;  -84.000
293.510;  -95.150; -866.000; -780.000
293.649; -115.400; -959.000; -924.000
293.787;  -40.625;-1083.000;-1012.000
293.926;   -7.600; -113.000;  -32.000
294.065;  -40.075; -379.000; -290.000
294.203;   44.000;  298.000;  406.000
294.342;   13.700;   74.000;  156.000
294.481; 6361.750;51180.000; -836.000
294.619;  -42.150; -425.000; -582.000
294.758; -135.075;-1230.000;-1137.000
294.896;   85.600; -125.000;    5.000
295.035; -123.850;-1040.000;-1006.000
295.174; -115.075;-1082.000; -954.000
295.312;  -30.000; -323.000; -203.000
295.451;    7.200; -307.000; -428.000
295.589;  -51.725; -389.000; -518.000
295.728;   19.850; -292.000; -165.000
295.866;   17.000;  -36.000;  -51.000
296.005;  -54.725; -584.000; -341.000
296.143;  -54.675; -558.000; -596.000
296.282;  -88.550; -957.000; -881.000
296.420;  -83.575; -657.000; -557.000
296.559;  -75.700; -892.000; -633.000
296.697;   57.900; -847.000; -665.000
296.835;  121.425;-1141.000;-1002.000
296.974;   54.100;  -23.000;   39.000
297.112;   32.900; -443.000; -504.000
297.251;  -66.875; -815.000; -755.000
297.389;  150.675; -576.000; -438.000
297.527;   53.475; -145.000;  -83.000
297.666;  -32.375; -486.000; -438.000
297.804;  -50.075; -404.000; -264.000
297.942;    0.075; -136.000; -161.000
298.081;   -0.900; -183.000;   63.000
298.219;   90.025;  -17.000;  -19.000
298.357;   72.850; -144.000;  -71.000
298.495;   75.425; -810.000; -812.000
298.634;   98.750;  245.000;  219.000
298.772;   98.875; -220.000; -338.000
298.910;  -35.800; -309.000; -182.000
299.048;   -5.025; -130.000; -153.000
299.187;  -16.575; -350.000; -250.000
299.325;   28.925;   52.000;  122.000
299.463;   94.400; -389.000; -299.000
299.601;  161.750; -327.000; -271.000
299.739;  -91.450; -908.000; -883.000
299.877;  -71.375; -791.000; -703.000
300.016;  -24.100;-1095.000; -935.000
300.154;  217.625;  -19.000; -161.000
300.292;   78.900; -428.000; -348.000
300.430;   49.600; -408.000; -291.000
300.568;  -76.925; -940.000; -874.000
300.706;  -42.525; -366.000; -469.000
300.844;  -44.850;-1108.000; -979.000
300.982;  136.425;  246.000;  282.000
301.120; -100.975; -965.000; -866.000
301.258;  -65.125; -812.000; -705.000
301.396;   42.575;  104.000;  -41.000
301.534;  120.650; -218.000; -293.000
301.672;   27.125; -664.000; -521.000
301.810;   97.600; -613.000; -545.000
301.948;  138.775;   53.000;  149.000
302.086;  775.550; -250.000;  -32.000
302.224; 1184.150; -610.000; -585.000
302.362;   70.050; -558.000; -622.000
302.500;   15.725; -923.000; -893.000
302.638;  139.750;  128.000;  245.000
302.776;   16.525; -352.000; -408.000
302.913;   40.650;  447.000;  236.000
303.051;   14.150;  -86.000;  -23.000
303.189;   76.850;   90.000;  118.000
303.327;  -36.425; -341.000; -256.000
303.465;  -71.025; -832.000; -588.000
303.603;  -87.400; -805.000; -604.000
303.740;  114.650;  417.000;  241.000
303.878;   58.150; -800.000; -759.000
304.016;  -79.075; -915.000; -790.000
304.154; -111.650;-1123.000;-1152.000
304.291;  -18.200; -505.000; -554.000
304.429;   21.400;  102.000;   74.000
304.567; -122.500; -908.000; -893.000
304.705;  -48.800; -408.000; -515.000
304.842;  145.150; -616.000; -540.000
304.980;   68.775;  215.000;   35.000
305.118;   73.100; -367.000; -365.000
305.255;  -48.750; -945.000; -927.000
305.393;   75.200;  178.000;  239.000
305.531;  -77.675;-1173.000; -956.000
305.668;  -55.525; -663.000; -582.000
305.806;  142.625; -358.000; -439.000
305.943;  145.300; -629.000; -637.000
306.081;   75.600; -378.000; -267.000
306.219;  -85.150; -863.000; -748.000
306.356;   12.575;  158.000;   27.000
306.494;  121.450;  981.000;  761.000
306.631;  -13.850;  -11.000;  -55.000
306.769;   28.000; -613.000; -485.000
306.906;    5.625; -284.000; -258.000
307.044;  -62.200; -473.000; -488.000
307.181;  -61.300; -410.000; -332.000
307.319;   14.675;  112.000;   87.000
307.456; -163.075;-1191.000;-1153.000
307.594;  -85.575; -980.000; -727.000
307.731;   -1.700; -371.000; -164.000
307.868;    5.375;  -15.000;   20.000
308.006; -131.325; -961.000; -847.000
308.143;  -64.125; -618.000; -330.000
308.281;  212.450;  -37.000; -254.000
308.418;    2.450; -748.000; -640.000
308.555;  -60.925; -400.000; -250.000
308.693;  -63.400; -577.000; -573.000
308.830;  -97.625; -712.000; -657.000
308.967;  -16.400; -215.000;  -95.000
309.105;  -25.025; -507.000; -396.000
309.242;   67.250; -468.000; -367.000
309.379;  400.225; -577.000; -655.000
309.517;  -51.275; -936.000; -948.000
309.654; -100.150; -910.000; -734.000
309.791;  -66.850; -662.000; -580.000
309.928; -113.125; -977.000; -914.000
310.065;  201.425;  819.000;  697.000
310.203;   26.750; -825.000; -850.000
310.340;   14.875; -465.000; -321.000
310.477;  -66.775; -412.000; -516.000
310.614;  -52.700; -383.000; -473.000
310.751;  -67.475; -427.000; -518.000
310.889;  -28.125;    1.000;   11.000
311.026; -148.050;-1161.000; -939.000
311.163;  -42.550; -386.000; -380.000
311.300;  -70.225; -512.000; -479.000
311.437;  -66.650; -658.000; -619.000
311.574; -149.050;-1226.000; -985.000
311.711;  -55.875; -595.000; -433.000
311.848;  -22.525; -380.000; -388.000
311.985;   10.850;  270.000;   93.000
312.122; -115.775; -932.000; -762.000
312.259; -116.100; -941.000; -994.000
312.396;  -65.825; -508.000; -551.000
312.533;  -74.725; -812.000; -790.000
312.670; -117.900;-1070.000; -898.000
312.807;  -29.000; -352.000; -367.000
312.944;  -81.000; -513.000; -611.000
313.081;  -22.350; -150.000; -415.000
313.218; -102.450;-1111.000; -867.000
313.355;   35.875; -531.000; -449.000
313.492;   15.550; -455.000; -292.000
313.629;  132.525;  815.000;  735.000
313.766; -148.500;-1176.000;-1008.000
313.902;  -10.875; -186.000;   21.000
314.039;  -42.150; -372.000; -289.000
314.176;   32.100;  286.000;  192.000
314.313;  -88.700; -569.000; -473.000
314.450;  -69.675; -788.000; -684.000
314.587;  -56.750; -468.000; -480.000
314.723;    5.425;  -78.000;  130.000
314.860;   29.025;  318.000;  332.000
314.997;   39.925;  223.000;  142.000
315.134;  -29.900; -385.000; -368.000
315.270;   -2.350; -480.000; -496.000
315.407; -113.375;-1094.000; -967.000
315.544;  -37.575; -657.000; -538.000
315.681;  -50.250; -681.000; -565.000
315.817;   47.350; -133.000; -176.000
315.954;   29.475; -613.000; -392.000
316.091; -115.725;-1045.000;-1023.000
316.227;  -16.650;  -71.000; -179.000
316.364;   -2.750;   23.000;    6.000
316.500;  -40.650; -113.000; -300.000
316.637;  -39.950; -181.000; -302.000
316.774;  -76.325; -625.000; -358.000
316.910;  -90.250; -598.000; -629.000
317.047;  -59.475; -487.000; -351.000
317.183;  -45.625; -435.000; -566.000
317.320;  -37.525; -367.000; -321.000
317.456;  -78.350; -733.000; -805.000
317.593;  -93.200; -598.000; -641.000
317.729;   -2.600;  168.000;  -67.000
317.866; -188.900;-1434.000;-1285.000
318.002;  -90.250; -708.000; -948.000
318.139;  -87.975; -883.000; -867.000
318.275;  -87.600;-1003.000; -738.000
318.412;  -55.200; -517.000; -336.000
318.548;  -11.850; -751.000; -720.000
318.685;  -82.750; -985.000; -888.000
318.821; -103.300; -762.000; -735.000
318.957;  -11.300;   34.000;  -23.000
319.094;   47.500;  297.000;  154.000
319.230;  -48.950; -756.000; -742.000
319.367;  177.350; -471.000; -520.000
319.503;   86.575; -538.000; -436.000
319.639;  -86.775; -877.000; -793.000
319.775;  -41.475; -750.000; -685.000
319.912;  -43.625; -424.000; -519.000
320.048;  -67.025;-1184.000;-1184.000
320.184;   66.425;   59.000;   70.000
320.321;  -65.625; -497.000; -467.000
320.457;   64.500;  475.000;  662.000
320.593;  -65.125; -375.000; -382.000
320.729;  -98.650; -732.000; -734.000
320.866;  -78.500; -577.000; -635.000
321.002;  -64.475; -759.000; -809.000
321.138;    3.375; -135.000; -211.000
321.274;   88.225; -148.000; -115.000
321.410;   -8.550; -585.000; -353.000
321.546;   -0.050;-1011.000; -911.000
321.683;   62.400;  400.000;  185.000
321.819;    8.025;  -48.000; -117.000
321.955;  -95.500; -743.000; -722.000
322.091;  -34.875; -585.000; -540.000
322.227;    4.200; -382.000; -202.000
322.363;    2.225; -320.000; -215.000
322.499;  -25.125; -343.000; -331.000
322.635;  195.650;  636.000;  443.000
322.771;   47.775; -139.000;   12.000
322.907;  121.825;  129.000;  327.000
323.043;  -15.950; -115.000; -206.000
323.179;  -32.925; -394.000; -363.000
323.315;   65.100; -401.000; -371.000
323.451;  139.150; -328.000; -236.000
323.587;   70.300;  -60.000;  -77.000
323.723;   53.400; -682.000; -601.000
323.859;  -13.100; -258.000;  -76.000
323.995;  -23.475; -467.000; -409.000
324.131; -115.075; -967.000; -892.000
324.267;  -37.200; -254.000; -276.000
324.402; -123.425; -960.000; -983.000
324.538;   -7.250; -279.000; -104.000
324.674;   33.675;  164.000;   77.000
324.810;  170.250;  226.000;  308.000
324.946;   24.000; -810.000; -658.000
325.082;  -51.800; -568.000; -475.000
325.217;   -6.025;  -62.000;   16.000
325.353; -100.400; -764.000; -659.000
325.489;  -73.000; -540.000; -506.000
325.625;  -63.725; -579.000; -525.000
325.760;   48.250;  517.000;  376.000
325.896;  -38.575; -515.000; -702.000
326.032;  -41.050; -403.000; -352.000
326.168;  -53.425; -462.000; -369.000
326.303;  -47.825; -352.000; -461.000
326.439;  -16.575; -336.000; -276.000
326.575;    7.325; -190.000;  -29.000
326.710;   -9.275; -156.000;  -30.000
326.846;    0.450;  146.000;  103.000
326.982;  -82.150; -530.000; -548.000
327.117;  -77.175; -481.000; -442.000
327.253;  -84.125; -745.000; -742.000
327.388; -141.500;-1137.000;-1153.000
327.524;  -20.050; -811.000; -578.000
327.659;  -28.275;  -58.000;  -22.000
327.795;   -6.850;   69.000;   45.000
327.931;  -94.300; -723.000; -499.000
328.066;  -32.850; -417.000; -276.000
328.202;    2.075;   12.000; -129.000
328.337;   91.125;  957.000;  713.000
328.473;   40.150;  -12.000;  -74.000
328.608;  -18.825; -256.000; -267.000
328.743;  -75.200; -799.000; -664.000
328.879;   22.300;  214.000;  114.000
329.014;  -20.025; -102.000; -122.000
329.150;  -81.650; -358.000; -483.000
329.285;  -70.350; -465.000; -466.000
329.421;  -56.300; -548.000; -246.000
329.556;  -11.100;  -36.000;   85.000
329.691;  -97.175; -633.000; -615.000
329.827;  -92.375; -626.000; -480.000
329.962;  -30.650;  131.000; -301.000
330.097; -101.100; -673.000; -585.000
330.233;  -37.000; -410.000; -223.000
330.368; -122.250; -839.000; -628.000
330.503;  -14.250;    3.000;   98.000
330.638;    2.750;  -93.000; -125.000
330.774;  -40.725; -609.000; -530.000
330.909;  -42.650; -434.000; -244.000
331.044;  -89.150; -714.000; -708.000
331.179; -166.825;-1217.000;-1109.000
331.315;   14.100;   77.000;   20.000
331.450;    7.500;  157.000;  285.000
331.585;  -73.825; -805.000; -706.000
331.720;  -75.625; -510.000; -460.000
331.855;   -6.775;  -35.000; -102.000
331.990;  222.800;   62.000;  138.000
332.126;  110.175; -110.000;   71.000
332.261;  -20.550; -379.000; -265.000
332.396;   -8.650; -135.000; -242.000
332.531; -100.650;-1074.000;-1031.000
332.666;   25.400; -519.000; -363.000
332.801;  -95.975; -726.000; -807.000
332.936;   -5.875; -192.000; -122.000
333.071; -146.925; -870.000; -817.000
333.206;   21.400;  307.000;  379.000
333.341;   25.850;  344.000;  418.000
333.476;  -87.325; -627.000; -623.000
333.611;  -26.900; -251.000; -173.000
333.746;  -39.300; -381.000; -464.000
333.881;  -97.250; -973.000; -935.000
334.016; -117.325; -936.000; -917.000
334.151; -108.200; -746.000; -702.000
334.286;   36.675;  152.000;  186.000
334.421;  -14.400; -125.000; -178.000
334.556;  -67.975; -611.000; -567.000
334.690;  -79.025; -631.000; -577.000
334.825;   64.650;  381.000;   83.000
334.960;  -35.925; -285.000; -413.000
335.095;    8.125;  135.000;  -91.000
335.230;  -94.775; -722.000; -738.000
335.365; -136.175;-1084.000; -990.000
335.499; -115.975;-1108.000;-1037.000
335.634;   23.075;    9.000;  534.000
335.769;  -85.275; -755.000; -720.000
335.904;  -49.450; -603.000; -561.000
336.038;  -45.775; -735.000; -657.000
336.173; -103.450;-1206.000;-1194.000
336.308;   28.425; -116.000; -189.000
336.443;   39.675; -544.000; -634.000
336.577;  -47.850; -936.000; -787.000
336.712;   92.025;   -4.000;  -12.000
336.847;  -14.525; -724.000; -607.000
336.981;   95.700; -272.000; -208.000
337.116;  329.850;  615.000;  501.000
337.250;  219.200; -434.000; -421.000
337.385;  225.825; -297.000; -208.000
337.520;   48.250; -632.000; -603.000
337.654;  -39.950; -215.000; -126.000
337.789; -122.175; -989.000; -933.000
337.923;  -23.350; -104.000; -205.000
338.058;  -70.625; -673.000; -738.000
338.192;  -20.625; -611.000; -488.000
338.327;    2.225;  -18.000; -155.000
338.461;  -51.050; -299.000; -469.000
338.596;  -86.725; -780.000; -638.000
338.730; -101.800; -767.000; -803.000
338.865;   89.550;  -46.000; -140.000
338.999;  -53.100; -846.000; -702.000
339.134;  -24.550; -634.000; -536.000
339.268;   13.175; -741.000; -603.000
339.403;  342.375; -740.000; -775.000
339.537;   82.000; -894.000; -820.000
339.671; -111.525; -829.000; -813.000
339.806;  -70.350; -556.000; -512.000
339.940;   11.875; -261.000; -235.000
340.074;  -75.225; -685.000; -510.000
340.209;  -49.150; -351.000; -230.000
340.343;  -86.075; -517.000; -573.000
340.477;  165.175;  998.000; 1036.000
340.612;  -66.250;-1033.000; -900.000
340.746;  120.775; -199.000; -243.000
340.880;  -38.700; -924.000; -785.000
341.014;  -12.900;  -45.000; -154.000
341.149; -107.250; -756.000; -718.000
341.283; -101.100; -839.000; -754.000
341.417;  -68.325;-1124.000; -938.000
341.551;  209.525; -768.000; -708.000
341.685;  -25.375; -633.000; -611.000
341.820;  -45.875; -562.000; -493.000
341.954;  -47.875; -218.000; -349.000
342.088; -147.075;-1102.000;-1019.000
342.222;   56.425;  565.000;  618.000
342.356;  -30.000; -395.000; -335.000
342.490;  -84.850; -880.000; -841.000
342.624;  -33.825; -339.000; -242.000
342.758;   20.425; -364.000; -312.000
342.892;  -57.450; -710.000; -585.000
343.026;  -39.200;  -58.000; -116.000
343.160;  -68.925; -426.000; -376.000
343.294;  -82.550; -474.000; -337.000
343.428;    4.925; -488.000; -448.000
343.562;    4.450; -172.000;  -23.000
343.696;   -2.375; -385.000; -314.000
343.830;   -1.275; -362.000; -356.000
343.964;   38.175; -231.000; -168.000
344.098; 1178.225;  199.000;   70.000
344.232; 1016.025; -266.000; -127.000
344.366;  111.825; -567.000; -453.000
344.500;  125.350; -665.000; -744.000
344.634;   55.225; -324.000; -164.000
344.768;    6.075; -531.000; -341.000
344.902;   31.600;  278.000;  256.000
345.035;  -69.825; -556.000; -496.000
345.169; -122.700; -933.000; -656.000
345.303;   -8.900; -308.000; -482.000
345.437;  -54.575; -826.000; -717.000
345.571;  -70.525; -675.000; -594.000
345.704;  -50.925; -309.000; -532.000
345.838;   -0.025; -331.000; -284.000
345.972;  -10.475; -543.000; -495.000
346.106;  144.575; -179.000; -190.000
346.239;  439.050; -312.000; -243.000
346.373;   35.800; -343.000; -302.000
346.507; -130.225; -950.000; -962.000
346.640;  194.100;  -30.000;   13.000
346.774;  -22.550; -650.000; -797.000
346.908;   -5.900; -138.000;  -11.000
347.041;  -87.200; -646.000; -593.000
347.175;   -0.125;  259.000;   27.000
347.309;  -56.450; -698.000; -628.000
347.442;  -76.400; -883.000; -732.000
347.576;  337.250;  670.000;  668.000
347.709;  272.075; -123.000;  -52.000
347.843;  -79.000; -933.000; -825.000
347.976;   45.925;  235.000;  294.000
348.110; -166.875;-1268.000;-1186.000
348.243;  -97.125; -679.000; -772.000
348.377;   -5.500;  -26.000;   60.000
348.510;   55.300;  403.000;  540.000
348.644;  -30.425;  -37.000; -159.000
348.777;   -7.775;  180.000;  191.000
348.911;  -46.400; -142.000; -112.000
349.044;  213.075;  471.000;  448.000
349.178;  250.625;-1069.000;-1006.000
349.311;  115.600;  141.000;  255.000
349.444;  -14.450; -927.000; -813.000
349.578;   -6.275; -347.000; -200.000
349.711;  -99.650; -959.000; -862.000
349.845;   19.450; -661.000; -591.000
349.978; -142.450;-1224.000;-1137.000
350.111;  -68.900; -546.000; -612.000
350.244;  -64.850; -596.000; -700.000
350.378;   33.775; -392.000; -393.000
350.511;  -71.375; -393.000; -426.000
350.644;  -98.250; -808.000; -806.000
350.778;   14.300;  168.000;  104.000
350.911;    0.900;  134.000;  140.000
351.044;  -79.750; -685.000; -615.000
351.177;  -20.850; -321.000; -281.000
351.310;   -8.375;    3.000; -131.000
351.444;  -45.550; -888.000; -788.000
351.577;  151.650;  140.000;   90.000
351.710;  103.350;  593.000;  417.000
351.843;  -29.600; -165.000;  -77.000
351.976;    6.425;  149.000;  -79.000
352.109;  -67.850; -621.000; -612.000
352.242;  -19.475; -464.000; -419.000
352.376;  -41.875; -580.000; -636.000
352.509;  245.075; -437.000; -356.000
352.642;   66.300; -654.000; -604.000
352.775;   83.925; -141.000;  -98.000
352.908; -101.575; -933.000; -904.000
353.041;  -87.175; -814.000; -824.000
353.174;  -57.200; -551.000; -424.000
353.307;  -80.250; -753.000; -764.000
353.440;   67.025;  541.000;  453.000
353.573; -102.075; -957.000;-1008.000
353.706;  -28.325; -384.000; -558.000
353.839;   -7.850; -264.000; -220.000
353.971;  -80.250; -657.000; -512.000
354.104;  -65.675; -896.000; -835.000
354.237;  -15.475; -627.000; -662.000
354.370;  -66.925; -846.000; -879.000
354.503; -166.450;-1231.000;-1308.000
354.636;  -27.650; -529.000; -348.000
354.769; -124.100; -937.000; -860.000
354.902;   14.050; -230.000; -139.000
355.034;  -11.200; -164.000; -220.000
355.167;  -21.500; -262.000; -162.000
355.300;  -83.200;-1061.000; -880.000
355.433;  879.050;  -71.000;  -14.000
355.565; 1390.375; -402.000; -384.000
355.698;  342.675; -356.000; -296.000
355.831;    1.050; -882.000; -801.000
355.964;  122.700; -285.000; -170.000
356.096;  -57.275; -856.000; -843.000
356.229;   37.550; -523.000; -530.000
356.362;  297.700; -373.000; -266.000
356.494;  556.250; -229.000; -162.000
356.627;  563.075;  269.000;  377.000
356.760;  648.200;  120.000;   53.000
356.892;  867.275; -286.000; -601.000
357.025;  796.975;  403.000;  389.000
357.157;  759.425; -167.000; -179.000
357.290;  595.500; -856.000; -713.000
357.423;  200.525; -667.000; -556.000
357.555;  160.900; -217.000; -228.000
357.688;  176.525; -483.000; -364.000
357.820;  579.825; -870.000; -877.000
357.953; 4486.450; -563.000; -589.000
358.085; 1055.625; -632.000; -612.000
358.218; 1608.400;-1131.000; -932.000
358.350;  290.175;  -58.000;  312.000
358.483;  -86.325;-1300.000;-1187.000
358.615;   45.950;-1182.000;-1078.000
358.747;  -13.200;-1187.000;-1058.000
358.880;   74.550; -810.000; -744.000
359.012;   11.550; -376.000; -202.000
359.145;  -32.025; -480.000; -511.000
359.277;  121.800; -962.000; -913.000
359.409; 3694.200;  536.000;  231.000
359.542; 1032.325; -738.000; -688.000
359.674;   98.175;   46.000;   13.000
359.806;  -43.525; -565.000; -438.000
359.939;  -30.525; -617.000; -516.000
360.071;  -29.875; -583.000; -579.000
360.203;  -18.900; -411.000; -364.000
360.335;   52.200;  164.000;  -16.000
360.468;  239.100; -249.000; -307.000
360.600; 2899.875; -547.000; -454.000
360.732; 2598.125; -546.000; -423.000
360.864;  378.150;-1216.000;-1044.000
360.996;  390.225; -516.000; -554.000
361.129;   82.775; -389.000; -598.000
361.261;   35.750;  110.000; -113.000
361.393;  -21.950; -252.000; -214.000
361.525;   39.475;   94.000;  244.000
361.657;  -14.625; -821.000; -703.000
361.789;   30.750; -139.000; -155.000
361.921;  317.600; -642.000; -593.000
362.053;  331.050;  524.000;  541.000
362.185;   72.700;  288.000;   72.000
362.318;  -44.675; -709.000; -705.000
362.450;  164.850;  294.000;  444.000
362.582;  229.250; -913.000; -870.000
362.714;  -29.525; -353.000; -332.000
362.846;  -77.625; -606.000; -490.000
362.978; -146.550; -941.000; -811.000
363.109;   86.550; -161.000; -260.000
363.241;  569.925; -739.000; -749.000
363.373;  412.850; -649.000; -564.000
363.505;  586.125; -186.000;  -91.000
363.637;  162.800; -787.000; -601.000
363.769;  -95.650;-1067.000;-1080.000
363.901;  -55.375; -596.000; -654.000
364.033;  -90.950;-1103.000;-1062.000
364.165;    1.525; -283.000; -283.000
364.296;   84.275; -316.000; -177.000
364.428;   43.125;-1344.000;-1220.000
364.560;  -58.075; -679.000; -661.000
364.692;  -53.125; -738.000; -835.000
364.824;  386.075; -588.000; -456.000
364.955;  471.150; -402.000; -564.000
365.087;  759.000;-1097.000; -852.000
365.219;   37.600; -686.000; -816.000
365.351;  -64.650; -526.000; -572.000
365.482;   57.925;  300.000;  240.000
365.614;  -46.100; -402.000; -314.000
365.746;  -77.150; -729.000; -752.000
365.877;  -93.650; -706.000; -672.000
366.009;  233.000;  -35.000;  -62.000
366.141; -103.800;-1249.000;-1134.000
366.272; -103.475; -803.000; -719.000
366.404; -102.875;-1005.000; -874.000
366.535;  -10.900; -139.000;  -12.000
366.667;  -96.300; -644.000; -649.000
366.799;   46.175;  353.000;  203.000
366.930; -100.450; -862.000; -996.000
367.062;  137.950; -639.000; -613.000
367.193;  118.000; -872.000; -842.000
367.325;  -59.900; -580.000; -684.000
367.456;  112.050; -246.000;   31.000
367.588;  157.375; -371.000; -318.000
367.719;   34.750;  -44.000;  -45.000
367.851;  -15.400; -222.000; -241.000
367.982;  -28.275; -875.000; -732.000
368.113;  162.950; -475.000; -358.000
368.245;  -99.650; -960.000; -841.000
368.376;   -4.350; -254.000; -302.000
368.508;  -11.500; -188.000; -263.000
368.639; -135.425;-1166.000;-1034.000
368.770;   19.125; -670.000; -589.000
368.902;  -32.475; -836.000; -926.000
369.033;  -97.050; -906.000; -855.000
369.164;  -45.650; -720.000; -653.000
369.296;  -91.225; -452.000; -601.000
369.427;   -5.975; -209.000; -144.000
369.558;  -46.725; -593.000; -377.000
369.689;  -89.325; -721.000; -569.000
369.821; -121.550; -951.000; -845.000
369.952;  -17.175;   42.000; -108.000
370.083;  -39.875; -229.000; -108.000
370.214;  -69.275; -735.000; -650.000
370.345;   -5.500;   65.000;   81.000
370.477;  -75.550; -810.000; -790.000
370.608;  302.900; -328.000; -264.000
370.739;  -11.325;-1233.000;-1292.000
370.870;    3.200;-1102.000; -923.000
371.001;  144.825; -378.000; -467.000
371.132;  -56.300; -754.000; -735.000
371.263;  -15.700;  -42.000; -148.000
371.394; -134.350; -841.000; -748.000
371.525;   35.550;  345.000;  225.000
371.657;  -90.025; -808.000; -670.000
371.788;   89.600;  103.000;  199.000
371.919;  233.325; -384.000; -304.000
372.050; 4496.250;  -91.000; -156.000
372.181; 1405.100; -188.000; -294.000
372.311;  489.100;   42.000; -127.000
372.442;   86.225; -457.000; -451.000
372.573;   -2.725; -444.000; -340.000
372.704; -101.275;-1008.000; -980.000
372.835;  124.825; -228.000; -289.000
372.966;  -47.250; -646.000; -554.000
373.097;  -53.050; -575.000; -711.000
373.228;  -20.475; -717.000; -542.000
373.359;  227.500; -824.000; -536.000
373.490; 1223.925; -881.000; -727.000
373.620; 1551.400;-1001.000; -803.000
373.751; 2300.550; -332.000; -396.000
373.882; 1045.800; -663.000; -733.000
374.013;  120.525; -449.000; -262.000
374.143;   -9.225; -581.000; -659.000
374.274;  -84.375; -987.000; -908.000
374.405;  240.075; -388.000; -276.000
374.536;  590.925; -526.000; -387.000
374.666; 1519.575; -759.000; -807.000
374.797;  328.275; -817.000; -868.000
374.928; 1171.800; -710.000; -560.000
375.058; 1186.650; -535.000; -500.000
375.189;  129.050;  -59.000;  -93.000
375.320;  -84.525; -928.000;-1034.000
375.450;  -14.050; -625.000; -616.000
375.581;  -47.675; -526.000; -436.000
375.712;  -17.475; -574.000; -250.000
375.842;  419.475; -438.000; -415.000
375.973;  334.250; -554.000; -513.000
376.103;  -16.650; -665.000; -648.000
376.234;  -58.475; -531.000; -552.000
376.364;   -7.375; -944.000; -867.000
376.495;  402.300;  925.000;  529.000
376.625;   23.700; -472.000; -485.000
376.756;  126.250; -709.000; -678.000
376.886;  -46.475;-1178.000;-1026.000
377.017;   40.350;-1048.000;-1061.000
377.147;  309.575; -786.000; -782.000
377.278;   74.625;  174.000;  228.000
377.408; -124.000; -801.000; -815.000
377.538;  -85.275; -707.000; -693.000
377.669;  -67.250; -537.000; -613.000
377.799;  -78.950; -645.000; -635.000
377.929;  -39.225; -610.000; -428.000
378.060; -107.300; -781.000; -847.000
378.190;  -51.025; -726.000; -531.000
378.320;  -41.525; -401.000; -406.000
378.451;   -8.175; -131.000;  -22.000
378.581;   12.575;  -67.000; -110.000
378.711;  174.975; 1035.000;  866.000
378.841;    9.950; -533.000; -675.000
378.972;  -53.575; -871.000; -751.000
379.102;   20.775; -652.000; -579.000
379.232;    2.475; -126.000;  -73.000
379.362;  -93.275;-1001.000; -885.000
379.492;   56.725; -373.000; -424.000
379.623;  144.500;    0.000;  111.000
379.753;  -80.225;-1107.000; -974.000
379.883;  278.775;   59.000;  156.000
380.013;   69.625;-1081.000;-1017.000
380.143;  -75.225;-1097.000;-1056.000
380.273;  -80.050; -985.000; -861.000
380.403;   13.925; -344.000; -257.000
380.533;   -0.125; -651.000; -664.000
380.663;   94.275;  173.000;  128.000
380.793;  -73.150;-1027.000;-1074.000
380.923;  -14.225; -103.000;  -34.000
381.053;  -80.925; -613.000; -623.000
381.183;  -25.025; -106.000; -248.000
381.313;   84.625; -656.000; -470.000
381.443;   82.725; -692.000; -473.000
381.573;  290.900; -402.000; -409.000
381.703;  433.650;-1249.000;-1095.000
381.833; -102.550;-1454.000;-1336.000
381.963;  136.425; -134.000;  -87.000
382.093; 1737.925; -925.000; -909.000
382.223;  579.475; -713.000; -602.000
382.353;   14.800; -801.000; -608.000
382.482;  538.000;-1091.000; -964.000
382.612;  978.050; -872.000; -644.000
382.742;  583.225; -695.000; -622.000
382.872;  384.825; -565.000; -551.000
383.002;   86.575;  347.000; -132.000
383.131;   -7.175; -226.000; -160.000
383.261;  -24.975; -706.000; -768.000
383.391;  288.950; -552.000; -377.000
383.521; 2837.700;  451.000;  263.000
383.650;  648.875; -947.000; -904.000
383.780;  -17.025; -783.000; -656.000
383.910;  109.350;  880.000;  802.000
384.039;   58.350; -794.000; -656.000
384.169;  322.450;-1205.000;-1017.000
384.299;   -1.025; -650.000; -662.000
384.428;  -90.525; -764.000; -680.000
384.558;  -23.550; -308.000; -275.000
384.687;  -18.675; -414.000; -334.000
384.817;   27.750;   75.000;   -2.000
384.947;   56.925; -234.000; -141.000
385.076;  351.350;  982.000;  912.000
385.206;  123.525;  369.000;  480.000
385.335;  -23.700; -549.000; -417.000
385.465;  -70.625; -655.000; -663.000
385.594;  166.200;  -53.000;  -44.000
385.724;  601.125; -868.000; -838.000
385.853;  175.600; -296.000; -270.000
385.982; 1737.450; -743.000; -787.000
386.112; 2817.325;-1052.000; -871.000
386.241;  211.625; -307.000; -312.000
386.371;   46.600; -174.000;  -87.000
386.500;   42.800; -825.000; -789.000
386.629;   46.900; -874.000; -817.000
386.759;   74.500;  -43.000;   68.000
386.888;    3.400; -170.000; -250.000
387.017;  -58.525; -648.000; -620.000
387.147;  -69.150; -771.000; -798.000
387.276;   12.925; -410.000; -397.000
387.405;   29.875; -398.000; -342.000
387.535;  -31.550; -452.000; -361.000
387.664;  -50.300; -692.000; -620.000
387.793;   97.975; -198.000; -113.000
387.922;  681.800;  255.000;  200.000
388.052;   61.375; -576.000; -423.000
388.181;   45.500; -342.000; -472.000
388.310;   51.575; -889.000; -710.000
388.439;   -8.300; -749.000; -742.000
388.568;  231.525;  365.000;  244.000
388.697; 1358.700; -756.000; -653.000
388.826;  317.150; -768.000; -666.000
388.956;   94.975; -285.000; -307.000
389.085;   -6.525; -347.000; -287.000
389.214;  -86.925; -842.000; -872.000
389.343;  -46.975; -645.000; -413.000
389.472;  376.700;  126.000;  149.000
389.601;  544.750;   91.000;    0.000
389.730;   38.275; -568.000; -687.000
389.859;   77.975;  226.000;   46.000
389.988;  261.325; -423.000; -408.000
390.117;  201.825; -168.000; -146.000
390.246;   29.425; -331.000; -320.000
390.375;  172.900; -673.000; -626.000
390.504;  -38.750; -703.000; -621.000
390.633;  -83.350; -672.000; -726.000
390.761;  -56.675; -732.000; -645.000
390.890;   40.925;   -4.000; -130.000
391.019;  -22.250; -421.000; -441.000
391.148; -108.875; -826.000; -855.000
391.277;  -48.600; -576.000; -493.000
391.406;  -56.275; -821.000; -805.000
391.534;   14.150;  574.000; -301.000
391.663;  -58.000; -583.000; -645.000
391.792;  -68.175; -673.000; -701.000
391.921;  144.925;   -3.000;   15.000
392.050;  284.300; -287.000; -228.000
392.178;    7.700;-1206.000;-1061.000
392.307;  216.950; -758.000; -712.000
392.436;  134.375; -427.000; -641.000
392.564;   31.125;  166.000;   -6.000
392.693;  -76.675; -860.000; -682.000
392.822;  291.950; -529.000; -534.000
392.950;  162.900; -880.000; -714.000
393.079;  439.075; -188.000; -328.000
393.208;   73.275; -488.000; -511.000
393.336;    6.900; -170.000; -145.000
393.465;  -37.175; -317.000; -199.000
393.593;    7.600;   62.000;   79.000
393.722; -145.825;-1121.000; -916.000
393.850;  -29.225; -188.000;  -61.000
393.979; -149.300; -926.000; -805.000
394.107;  -56.150; -517.000; -537.000
394.236;  -13.725; -570.000; -507.000
394.364;  253.200;  383.000;  206.000
394.493;  443.600; -911.000; -767.000
394.621;   -5.225; -955.000; -916.000
394.750;  633.025; -873.000; -923.000
394.878; 2657.975; -247.000; -149.000
395.007; 3698.925; -721.000; -807.000
395.135;  281.950; -790.000; -721.000
395.263;  -87.375;-1038.000;-1040.000
395.392;    8.400;  -25.000; -107.000
395.520; -125.075; -818.000; -679.000
395.648;  -66.900; -865.000; -915.000
395.777;   12.825; -366.000; -405.000
395.905;  -38.475; -449.000; -564.000
396.033;   10.625;  217.000;  172.000
396.162;  729.575; -399.000; -453.000
396.290;  653.400;  -17.000;   -2.000
396.418;  157.250; -555.000; -514.000
396.546;  -45.625; -571.000; -466.000
396.674;  -83.325; -850.000; -878.000
396.803;   18.850;  -72.000;  -23.000
396.931;  132.000; -179.000; -199.000
397.059;  146.800;-1026.000; -989.000
397.187;  -79.725;-1026.000; -975.000
397.315; -125.900; -884.000; -649.000
397.443;  -96.925; -592.000; -443.000
397.572;  -93.825; -578.000; -424.000
397.700;   33.300; -607.000; -614.000
397.828;   52.350;  120.000;  -90.000
397.956;  -46.750; -508.000; -478.000
398.084;  -60.150; -767.000; -626.000
398.212;   47.750;  137.000;  124.000
398.340;   35.575;  -56.000;  159.000
398.468;   70.100; -390.000; -169.000
398.596; -123.125; -993.000; -953.000
398.724; -112.825; -762.000; -767.000
398.852; -154.075;-1024.000; -976.000
398.980;  -39.575; -560.000; -560.000
399.108;  -23.725; -982.000; -735.000
399.236;   61.550;   13.000;    8.000
399.363;   26.200;  222.000;  196.000
399.491;  -74.400; -404.000; -398.000
399.619; -123.000; -829.000; -800.000
399.747;  -89.600; -859.000; -771.000
399.875;   89.275;  220.000;  234.000
400.003;  -36.650; -359.000; -284.000
400.130;  -92.400; -421.000; -341.000
400.258;  -24.850;  -83.000;   38.000
400.386;  -68.250; -352.000; -168.000
400.514;  -19.375; -526.000; -587.000
400.641;  -57.075; -928.000; -802.000
400.769; -122.500; -979.000; -888.000
400.897;  -92.550; -838.000; -793.000
401.025;   -1.875; -166.000; -152.000
401.152;  -11.325;  220.000;   38.000
401.280;  -86.325; -430.000; -429.000
401.408; -112.575; -712.000; -576.000
401.535;  -96.075; -735.000; -758.000
401.663; -172.925;-1134.000;-1054.000
401.790;  -83.675; -514.000; -525.000
401.918;   57.250;  436.000;  405.000
402.046;  -17.350;  134.000;  122.000
402.173;  -39.375;  -18.000;    7.000
402.301;  -64.800; -519.000; -397.000
402.428;   48.600;  528.000;  383.000
402.556; -127.275;-1188.000; -913.000
402.683;  -21.675;  -20.000;   -1.000
402.811;   -3.225;  -37.000; -206.000
402.938;  -10.700;   20.000;   27.000
403.066;  278.400; -574.000; -558.000
403.193;  432.450;  299.000;  239.000
403.321;  350.400; -396.000; -574.000
403.448;  418.575;   83.000;   27.000
403.575;  195.625;  -90.000;  -46.000
403.703;  -87.975; -732.000; -557.000
403.830;  -54.025; -531.000; -496.000
403.957; -126.125;-1117.000;-1023.000
404.085;   18.600;  -61.000; -172.000
404.212;  105.150;  -50.000;   63.000
404.339;  239.425; -566.000; -306.000
404.467; 5195.500; -612.000; -524.000
404.594; 3875.925; -287.000; -227.000
404.721; 1061.975; -869.000; -764.000
404.848;   99.700; -113.000; -202.000
404.976; -111.650; -856.000; -783.000
405.103;  -12.325;  -14.000;  -82.000
405.230;  -13.450;  190.000;  226.000
405.357;   36.675;  117.000;   44.000
405.484;  234.375;  -49.000;    5.000
405.612;   60.700; -548.000; -563.000
405.739;  -59.225; -488.000; -243.000
405.866;   99.800;  669.000;  385.000
405.993;  -31.625; -398.000; -102.000
406.120; -120.375; -801.000; -887.000
406.247;  -52.225; -323.000; -342.000
406.374;  566.500;  540.000;  629.000
406.501;  186.275; -632.000; -702.000
406.628;  -66.425; -621.000; -589.000
406.755;  -85.000; -803.000; -620.000
406.882;  -22.850; -228.000; -277.000
407.009; -100.675; -719.000; -628.000
407.136;   88.825; -480.000; -401.000
407.263;  236.350; -939.000; -829.000
407.390;  -59.150; -692.000; -614.000
407.517; -156.550;-1139.000;-1187.000
407.644;  -59.175; -332.000; -256.000
407.771;  -95.875; -249.000; -287.000
407.898;   12.725;  168.000;  328.000
408.025;  -64.050; -421.000; -313.000
408.151;   -2.500;   82.000;  153.000
408.278;  -67.350; -267.000; -216.000
408.405; -108.575; -931.000; -899.000
408.532;  -60.050; -549.000; -542.000
408.659; -109.800; -677.000; -648.000
408.785; -195.075;-1298.000;-1170.000
408.912;  -61.425; -412.000; -296.000
409.039; -114.625; -610.000; -686.000
409.166; -102.550; -591.000; -555.000
409.292;  -97.350; -571.000; -534.000
409.419; -110.875; -665.000; -649.000
409.546;  -85.400; -431.000; -192.000
409.672; -104.500; -713.000; -545.000
409.799;  -26.950;  -36.000;   34.000
409.926;  -36.600; -180.000; -179.000
410.052; -163.100;-1127.000;-1091.000
410.179;  -55.800; -368.000; -392.000
410.305;  -89.675; -375.000; -493.000
410.432;  -40.050; -220.000; -333.000
410.558;  -95.325; -305.000; -380.000
410.685; -106.650; -688.000; -431.000
410.812;  -86.575; -409.000; -588.000
410.938; -130.750; -964.000; -808.000
411.065; -100.825; -671.000; -645.000
411.191;   -9.500; -189.000; -174.000
411.317; -118.350; -823.000; -742.000
411.444;  -72.575; -317.000; -246.000
411.570;  -51.950; -339.000; -294.000
411.697; -115.500; -758.000; -752.000
411.823; -160.975; -989.000; -999.000
411.949;  -26.250;  -56.000;   17.000
412.076; -112.075; -539.000; -519.000
412.202; -103.575; -758.000; -757.000
412.329; -113.250; -798.000; -752.000
412.455; -114.425; -821.000; -657.000
412.581;  -18.075;  -15.000;  172.000
412.707;  -40.325; -540.000; -457.000
412.834;   22.950;  156.000;  219.000
412.960;  -78.725; -785.000; -784.000
413.086;  -91.375; -743.000; -701.000
413.212;  180.725;  604.000;  578.000
413.339;  -34.675; -685.000; -701.000
413.465;   30.500; -364.000; -310.000
413.591;  -67.325; -757.000; -474.000
413.717;  -43.400; -358.000; -366.000
413.843; -135.725; -839.000; -861.000
413.969;  -54.050;  -47.000; -292.000
414.096; -112.550; -679.000; -679.000
414.222;   -8.375;  -33.000;   85.000
414.348;  -12.750; -652.000; -385.000
414.474;  144.375;   38.000;  -52.000
414.600;   -8.600; -126.000; -144.000
414.726;   -8.225;  -96.000;  -55.000
414.852;  -61.375; -365.000; -342.000
414.978;   33.575;  104.000;  -18.000
415.104;   32.200;   38.000;   80.000
415.230;   37.925; -329.000; -330.000
415.356;   59.150; -409.000; -514.000
415.482;  217.500;   13.000;  -35.000
415.608;  274.375; -247.000; -323.000
415.734;  902.925;   67.000;   38.000
415.860;18521.400; -875.000; -767.000
415.986;14042.850; -685.000; -607.000
416.111; 1229.250; -798.000; -652.000
416.237;  245.200; -424.000; -571.000
416.363;  967.350; -765.000; -733.000
416.489; 3829.950; -324.000; -251.000
416.615;  408.125; -707.000; -742.000
416.741;  -24.800; -677.000; -784.000
416.866;  -90.500; -673.000; -736.000
416.992; -122.975; -801.000; -818.000
417.118;  -20.300;  -41.000;  -80.000
417.244;  -46.650; -798.000; -531.000
417.369;  -62.325; -801.000; -612.000
417.495;   -2.400; -325.000; -254.000
417.621;  -68.900;-1015.000; -803.000
417.746;   18.650; -579.000; -572.000
417.872;   60.775; -254.000; -144.000
417.998;   41.225; -515.000; -530.000
418.123;  910.525;-1073.000; -845.000
418.249; 4989.375; -512.000; -601.000
418.374;  717.800; -916.000; -824.000
418.500;  112.100; -383.000; -482.000
418.626;  104.750;   70.000;  -59.000
418.751;  134.550; -549.000; -448.000
418.877;  208.625; -637.000; -643.000
419.002; 1579.075; -688.000; -560.000
419.128;11435.800; -930.000; -721.000
419.253; 2943.275; -967.000; -837.000
419.379;  387.675; -391.000; -338.000
419.504;  370.325;  325.000;  415.000
419.629;  469.300; -393.000; -212.000
419.755; 3031.475; -317.000; -254.000
419.880;18762.850;  -98.000;   67.000
420.006;10417.475; -280.000; -221.000
420.131;27524.700; -662.000; -775.000
420.256; 4179.975; -315.000; -316.000
420.382;  523.000; -665.000; -687.000
420.507;   72.600; -649.000; -778.000
420.632;  172.125; -337.000; -339.000
420.758;  370.750; -251.000; -425.000
420.883;  -65.275; -876.000; -672.000
421.008;  -81.825; -775.000; -619.000
421.133;  -85.875; -509.000; -467.000
421.259;  -33.700; -325.000; -259.000
421.384;  -96.675; -834.000; -693.000
421.509;   -9.975;-1052.000; -862.000
421.634; 1609.425; -936.000; -820.000
421.759;  749.850; -359.000; -327.000
421.885;  -25.400; -717.000; -656.000
422.010;  -62.675; -673.000; -542.000
422.135; -133.150; -695.000; -727.000
422.260;   39.950;  340.000;  280.000
422.385;  -42.275;   12.000;  -98.000
422.510;   23.825;  151.000;  -26.000
422.635;   45.225;  -87.000;  -43.000
422.760;  131.500; -766.000; -791.000
422.885;   70.975;  -57.000;  -80.000
423.010;  -34.200; -112.000; -169.000
423.135;  -85.975; -481.000; -561.000
423.260;   -1.175; -150.000; -245.000
423.385;   76.500;  476.000;  222.000
423.510;   39.425;   71.000;  -22.000
423.635;  104.275;  133.000;   45.000
423.760;   73.025;  383.000;  328.000
423.885;   59.025;  336.000;  391.000
424.010;   13.700;  -68.000;  -13.000
424.135;  -14.100;    5.000;  -33.000
424.259;  -84.325; -654.000; -457.000
424.384;  -58.975; -279.000; -272.000
424.509;  -22.450; -260.000; -186.000
424.634; -105.125; -761.000; -623.000
424.759;  -15.825; -688.000; -544.000
424.883;  -10.300; -506.000; -527.000
425.008;  168.675; -502.000; -410.000
425.133; 1841.850; -679.000; -653.000
425.258;  899.100; -517.000; -381.000
425.382; 1244.825; -867.000; -774.000
425.507; 3338.550; -487.000; -543.000
425.632;  522.650; -802.000; -663.000
425.756;  443.800; -256.000; -146.000
425.881; 5497.025; -831.000; -857.000
426.006;15454.675; -604.000; -355.000
426.130; 2637.100; -696.000; -508.000
426.255;  338.725; -611.000; -491.000
426.379;  147.800; -189.000; -577.000
426.504;  363.300;  660.000;  544.000
426.629; 3734.100; -519.000; -466.000
426.753; 2727.500;   64.000;  -46.000
426.878;  325.225; -252.000; -288.000
427.002;  142.475; -651.000; -668.000
427.127; 1487.025;  -35.000; -158.000
427.251;10410.375;  372.000;  401.000
427.375; 3163.800; -191.000; -173.000
427.500; 2767.125; -616.000; -610.000
427.624; 1015.350; -234.000; -400.000
427.749;  127.675; -216.000; -225.000
427.873;  -27.225; -499.000; -412.000
427.997;  -46.875; -222.000; -230.000
428.122;   74.350;  795.000;  703.000
428.246;   75.725;  433.000;  434.000
428.371; -127.950; -869.000; -773.000
428.495;  -96.950; -624.000; -646.000
428.619;  -32.625; -186.000; -117.000
428.743;   35.950;   65.000;  132.000
428.868;   48.250; -732.000; -643.000
428.992; 1767.575; -219.000; -326.000
429.116;  763.325; -329.000; -357.000
429.240;  352.525;  419.000;  426.000
429.365;    1.925; -454.000; -574.000
429.489;  -25.725; -638.000; -647.000
429.613;   34.975; -236.000; -177.000
429.737;   47.100; -563.000; -432.000
429.861;  250.475; -247.000; -133.000
429.985; 5022.025; -425.000; -305.000
430.109; 5841.125; -770.000; -908.000
430.234;  699.825;   76.000;  -50.000
430.358;   57.325; -250.000; -160.000
430.482;  -64.700; -672.000; -564.000
430.606;  -66.300; -655.000; -375.000
430.730;   37.350; -437.000; -388.000
430.854;  204.825; -909.000; -835.000
430.978;  -32.475; -795.000; -764.000
431.102;  -79.175; -499.000; -422.000
431.226; -113.775; -874.000; -815.000
431.350;   32.150;  345.000;  422.000
431.474;  -64.925; -661.000; -373.000
431.597; -136.600;-1060.000; -848.000
431.721;  -66.125; -276.000; -267.000
431.845; -128.475; -704.000; -472.000
431.969;  -82.800; -304.000; -349.000
432.093;  -90.800; -395.000; -317.000
432.217;  -11.175;   32.000;   82.000
432.341;  -86.300; -523.000; -518.000
432.464;   20.900;   96.000;   40.000
432.588;  291.850; -401.000; -329.000
432.712;  156.075;  -52.000;  -52.000
432.836;   54.575;  213.000;  263.000
432.959;  -15.625; -372.000; -311.000
433.083;   63.000;   11.000;    2.000
433.207;  352.650;  285.000;  930.000
433.330; 4475.575; -391.000; -200.000
433.454; 5814.000; -654.000; -638.000
433.578; 3337.225;  583.000;  278.000
433.701;  666.350; -623.000; -675.000
433.825;  201.375; -292.000; -299.000
433.949;  260.775;   28.000;  -72.000
434.072;  127.925; -410.000; -323.000
434.196;  -10.625; -309.000; -117.000
434.319; 3644.175;25482.000;25124.000
434.443;  712.500; -656.000; -603.000
434.566; 2504.300;  281.000;   62.000
434.690;  437.325; -637.000; -383.000
434.813;   68.775; -251.000; -173.000
434.937;  -67.775; -569.000; -696.000
435.060;   -8.000; -423.000; -332.000
435.184;  486.725; -492.000; -217.000
435.307;  264.525;  159.000;  102.000
435.431;    3.450;  -40.000;   24.000
435.554;  -81.875; -399.000; -240.000
435.677;  -88.100; -350.000; -258.000
435.801;  -48.975;  -25.000;   49.000
435.924;    7.200;    1.000;  -67.000
436.048;  -95.250;-1019.000; -732.000
436.171;  -71.375; -240.000;  -66.000
436.294;  -24.675; -248.000; -229.000
436.417;   72.350; -963.000; -849.000
436.541;  -94.375; -814.000; -840.000
436.664;  -41.125; -242.000; -316.000
436.787;  -30.775;   13.000;  113.000
436.910; -118.525; -792.000; -422.000
437.034;    7.900;  142.000;  143.000
437.157;   89.950;  -11.000;    0.000
437.280;  -26.025; -392.000; -292.000
437.403;  -52.225; -982.000; -869.000
437.526;  922.675; -903.000; -865.000
437.649; 3235.650; -505.000; -332.000
437.772;  550.125; -692.000; -540.000
437.896;  155.775;  700.000;  544.000
438.019;  -83.700; -758.000; -503.000
438.142;  -65.625; -596.000; -506.000
438.265;   26.000; -639.000; -670.000
438.388;  770.300; -520.000; -410.000
438.511;  180.725; -597.000; -394.000
438.634;  -20.250; -247.000; -125.000
438.757; -128.600; -693.000; -619.000
438.880;  -18.525;  -34.000;  -57.000
439.003;  -78.175; -417.000; -437.000
439.126;  -57.075; -287.000; -167.000
439.248;  -76.750;  -98.000; -139.000
439.371;  -35.525;    9.000;  -53.000
439.494;   26.625;  510.000;  439.000
439.617;  -59.025;   65.000;  -88.000
439.740; -175.425; -968.000; -816.000
439.863; -142.800; -755.000; -595.000
439.986; -127.600; -476.000; -431.000
440.108;  -40.300; -161.000; -112.000
440.231; -155.775; -950.000; -836.000
440.354;  -29.050;  -64.000; -150.000
440.477;   76.950; -566.000; -542.000
440.599;   41.475; -200.000; -225.000
440.722; -112.900; -709.000; -586.000
440.845;   78.975;  751.000;  928.000
440.968;  -99.925; -415.000; -311.000
441.090;  -66.575; -199.000;  -33.000
441.213; -157.350;-1021.000; -825.000
441.336;  -49.425; -159.000;   -5.000
441.458;  -67.100; -549.000; -396.000
441.581;  -57.525; -628.000; -629.000
441.703;  -78.025; -152.000;   13.000
441.826; -109.400; -557.000; -400.000
441.948;  -65.575;   56.000;   51.000
442.071;   30.175;  555.000;  424.000
442.193; -111.150; -531.000; -485.000
442.316;   31.750;  152.000;   97.000
442.438;   49.400; -233.000;  -10.000
442.561;   87.950;  272.000;  262.000
442.683;  752.275; -809.000; -522.000
442.806; 1636.750;   -8.000;   74.000
442.928;  124.675; -859.000; -604.000
443.051;  -50.025; -577.000; -373.000
443.173; -100.650; -341.000; -339.000
443.295;  -74.725; -263.000; -371.000
443.418;  -71.850; -321.000;  -29.000
443.540;    8.000; -106.000;   -4.000
443.662; -105.800; -563.000; -465.000
443.785;  -12.000;  335.000;  199.000
443.907;  -99.275; -362.000; -208.000
444.029; -114.575; -767.000; -494.000
444.152; -139.625; -644.000; -554.000
444.274;  -42.450;  -18.000;  -24.000
444.396; -117.550; -461.000; -221.000
444.518; -128.025; -691.000; -454.000
444.640; -113.000; -268.000; -111.000
444.763;  -22.075;  388.000;  249.000
444.885; -127.400; -432.000; -392.000
445.007;  -30.950;   35.000;   86.000
445.129; -109.925; -610.000; -515.000
445.251; -105.075; -372.000; -439.000
445.373; -137.675; -537.000; -386.000
445.495;    1.775;  242.000;  350.000
445.617;   53.375;  853.000;  753.000
445.739;  -65.175; -215.000;  -97.000
445.861;  -21.500; -245.000; -112.000
445.984;  -18.525; -267.000; -101.000
446.105;  283.125; -418.000; -251.000
446.227;  845.125; -176.000;  -19.000
446.349;   68.625; -358.000; -249.000
446.471;  -85.775; -615.000; -448.000
446.593;  -46.875; -316.000;   19.000
446.715;    7.150;  -67.000;   41.000
446.837;   57.475;  697.000;  832.000
446.959;  -95.450; -457.000; -478.000
447.081; -129.225; -628.000; -518.000
447.203;   49.175;  862.000;  834.000
447.325;  -79.850; -270.000;   42.000
447.446;   -4.850;  286.000;  530.000
447.568; -157.975; -921.000; -803.000
447.690;  -72.025; -236.000; -245.000
447.812; -156.050; -798.000; -519.000
447.933;  -26.500;  155.000;  127.000
448.055;  -74.375; -306.000; -261.000
448.177;  199.725;   31.000;   79.000
448.299;  173.000; -935.000; -727.000
448.420;   54.925;  -25.000;  159.000
448.542;  -31.325;   -3.000;   33.000
448.664;  -36.525;  109.000;  322.000
448.785;  -33.400;  265.000;   83.000
448.907;  -78.250; -614.000; -353.000
449.028;  -11.850; -771.000; -471.000
449.150;   79.425;  492.000;  589.000
449.272; -156.600;-1044.000; -913.000
449.393;   37.350;  612.000;  694.000
449.515; -140.850; -634.000; -581.000
449.636;  -37.350; -264.000; -155.000
449.758;   68.775;  763.000;  622.000
449.879;  -84.975; -498.000; -396.000
450.001;  -74.150; -149.000;  -49.000
450.122;  -25.250;  -95.000;  162.000
450.244;  -19.600;   37.000;  364.000
450.365;  -95.300; -495.000; -301.000
450.486;  -46.050;   80.000;  268.000
450.608;    5.600;  393.000;  326.000
450.729;   65.850;  578.000;  645.000
450.850;  -22.300; -574.000; -466.000
450.972;  619.900; -552.000; -389.000
451.093; 4300.675;  190.000;  588.000
451.214; 1955.700; -516.000; -337.000
451.336;  337.800;  773.000;  579.000
451.457;   58.075;  264.000;  393.000
451.578;  -41.900; -118.000;  -74.000
451.699; -121.675; -546.000; -540.000
451.821;  -67.050; -284.000;  -50.000
451.942;   -3.550;  278.000;  285.000
452.063;   24.975;  228.000;  419.000
452.184;  473.175;  -54.000;  -49.000
452.305;  996.175;  103.000;  170.000
452.427;  122.975; -549.000; -301.000
452.548;  -19.600;   23.000;   79.000
452.669;  -30.850; -257.000;  -89.000
452.790;  -31.800;    3.000;  -18.000
452.911;    0.875;  195.000;  259.000
453.032;  -58.275; -289.000;  -60.000
453.153;  -29.000;  -29.000;   81.000
453.274;   81.125;  737.000;  868.000
453.395;  -35.350;  -51.000;  175.000
453.516;  129.275; 1317.000; 1388.000
453.637;  -60.600; -205.000; -150.000
453.758;  -49.600;   15.000;   69.000
453.879; -109.950; -462.000; -250.000
454.000;   76.975; 1086.000;  948.000
454.121;  -94.450; -554.000; -326.000
454.242; -114.875; -599.000; -383.000
454.362;  -65.525;  -99.000;  114.000
454.483;  -49.750; -309.000; -229.000
454.604;   64.750;  512.000;  580.000
454.725; -118.025; -627.000; -555.000
454.846; -114.725; -474.000; -406.000
454.967;  -17.650;  230.000;  539.000
455.087;  -51.100;  179.000;  153.000
455.208;   16.900;  554.000;  856.000
455.329;  -59.475;  -22.000;   82.000
455.450;   27.950;  473.000;  633.000
455.570;  -80.325; -234.000; -211.000
455.691;  -45.850;  201.000;  407.000
455.812; -110.150; -270.000;  -92.000
455.932;  -59.775;  107.000;  -97.000
456.053;  -78.925;   36.000;   24.000
456.173; -113.450; -433.000; -355.000
456.294; -131.675; -476.000; -303.000
456.415;  -66.075;  -73.000;   70.000
456.535;  -46.575;  297.000;  273.000
456.656;  -42.950;  132.000;  240.000
456.776;  -68.700;    3.000;  298.000
456.897;   -2.750;  308.000;  513.000
457.017;  -77.650; -153.000;   -3.000
457.138; -109.025; -402.000; -249.000
457.258;  -11.975;  263.000;  224.000
457.379;   -4.825;  509.000;  521.000
457.499;  -23.775;  443.000;  432.000
457.620; -118.075; -407.000; -231.000
457.740;  -83.375; -132.000;  -11.000
457.860;  -69.800;   87.000;   44.000
457.981;  -42.675;  132.000;  124.000
458.101;  -72.325;  -89.000;   40.000
458.221;  -19.425;  336.000;  402.000
458.342;  -64.250;   -4.000;  -37.000
458.462;    4.400;  617.000;  352.000
458.582;  -48.375; -302.000; -294.000
458.703;   -0.025;  303.000;  154.000
458.823;  -27.025;   22.000;  163.000
458.943;   23.250;  341.000;  467.000
459.063;  -12.975; 1124.000;  192.000
459.183;   -9.925;  328.000;  313.000
459.304;   -4.750;  315.000;  517.000
459.424;  -62.825; -246.000;  -89.000
459.544;  280.050;  388.000;  764.000
459.664;  765.250;  499.000;  506.000
459.784;  302.600; 1004.000; 1175.000
459.904;   47.625;  867.000;  744.000
460.024;   81.450;  867.000;  684.000
460.144;   22.050;  449.000;  554.000
460.264;   -0.375;  515.000;  327.000
460.385;  -96.800; -145.000; -119.000
460.505;   37.900;  905.000;  858.000
460.625;  -90.600;  -17.000;  -68.000
460.745;  -23.425;  396.000;  541.000
460.864;  -37.175;  153.000;  469.000
460.984;   24.600;  499.000;  573.000
461.104;  140.875; 1656.000; 1775.000
461.224;   10.575;  657.000;  650.000
461.344;  -25.075;  431.000;  360.000
461.464;  -22.500;  258.000;  513.000
461.584;  -13.125;  283.000;  466.000
461.704;  -36.675;   58.000;  108.000
461.824;  -51.400;  238.000;  259.000
461.943;  -30.425;  191.000;  130.000
462.063;  -78.800;    2.000;  324.000
462.183;   39.350;  639.000;  717.000
462.303;  102.350; 1678.000; 1230.000
462.422;   25.350;  781.000;  840.000
462.542;  -31.425;  271.000;  391.000
462.662;   48.725;  353.000;  380.000
462.782;  217.150;  833.000;  572.000
462.901;  442.625;  545.000;  717.000
463.021;  271.350; 1702.000; 1638.000
463.141;   -6.025;  337.000;  770.000
463.260;  -15.975;  614.000;  474.000
463.380;    3.900;  902.000;  884.000
463.499;  -49.425;  342.000;  332.000
463.619;  -38.375;  581.000;  559.000
463.738;  110.500; 1644.000;  903.000
463.858;   24.925;  657.000;  811.000
463.978;  -39.075;  542.000;  396.000
464.097;   52.050;  921.000; 1114.000
464.217;  101.150; 1196.000; 1143.000
464.336;  115.675; 1068.000; 1130.000
464.455;  -40.900;  328.000;  659.000
464.575;   55.575;  597.000;  602.000
464.694;  197.375; 1204.000; 1179.000
464.814;  122.375; 1190.000; 1138.000
464.933;   75.175; 1095.000; 1027.000
465.052;  100.125; 1412.000; 1054.000
465.172;  100.975;  922.000;  799.000
465.291;  153.250; 1376.000; 1320.000
465.410;   15.400;  462.000;  735.000
465.530;   99.775; 1355.000; 1310.000
465.649;   69.725; 1209.000; 1273.000
465.768;  132.600; 1673.000; 1508.000
465.888;   59.200;  941.000; 1174.000
466.007;  103.875; 1335.000; 1440.000
466.126;    4.300;  721.000;  641.000
466.245;   55.075; 1176.000; 1187.000
466.364;   17.250;  950.000; 1060.000
466.484;   44.025; 1024.000; 1213.000
466.603;   29.650; 1101.000; 1222.000
466.722;  117.475; 1490.000; 1769.000
466.841;   86.875; 1151.000; 1401.000
466.960;   52.425; 1069.000;  972.000
467.079;  121.800; 1971.000; 1786.000
467.198;   66.700; 1238.000; 1181.000
467.317;   90.100; 1768.000; 1162.000
467.436;   70.900; 1709.000; 1261.000
467.555;  122.000; 1796.000; 1746.000
467.674;   56.625; 1227.000; 1329.000
467.793;   47.750; 1376.000; 1374.000
467.912;   83.700; 1658.000; 1539.000
468.031;  129.725; 2038.000; 1930.000
468.150;  141.125; 1842.000; 1837.000
468.269;  183.275; 2313.000; 2090.000
468.388;  190.875; 2168.000; 2339.000
468.507;  247.575; 2884.000; 2903.000
468.626;  256.275; 2555.000; 2541.000
468.744;  139.350; 2018.000; 2174.000
468.863;  200.600; 2312.000; 2523.000
468.982;   90.075; 1503.000; 1555.000
469.101;  232.400; 2788.000; 2692.000
469.220;  158.575; 2333.000; 2176.000
469.338;  259.500; 2935.000; 3051.000
469.457;  203.600; 2719.000; 2545.000
469.576;  347.050; 3953.000; 3784.000
469.695;  243.325; 2877.000; 3066.000
469.813;  412.850; 4148.000; 4192.000
469.932;  427.175; 4255.000; 4485.000
470.051;  430.275; 4075.000; 4161.000
470.169;  813.200; 4470.000; 4338.000
470.288; 1380.100; 4700.000; 4809.000
470.406;  851.400; 5059.000; 5194.000
470.525;  633.225; 6101.000; 5787.000
470.644;  651.300; 6847.000; 6794.000
470.762;  818.150; 8397.000; 7873.000
470.881;  902.175; 8651.000; 8464.000
470.999; 1027.775; 9685.000; 9151.000
471.118; 1099.350;11174.000;10711.000

