
Integration time [ms]: 100.000
Averaging Nr. [scans]: 40
Smoothing Nr. [pixels]: 0
Data measured with spectrometer [name]: 2101012U2
Wave   ;Sample   ;Dark     ;Reference
[nm]   ;[counts] ;[counts] ;[counts] 

197.733;   59.100;  516.000;  404.000
197.879;  -72.475; -610.000; -634.000
198.025;  -24.700; -475.000; -420.000
198.171;  -69.675; -602.000; -612.000
198.317;  -20.325; -401.000; -316.000
198.463;  -54.625; -655.000; -404.000
198.609;   31.350;  181.000; -137.000
198.755;  -71.275; -644.000; -410.000
198.901;  -55.650; -505.000; -424.000
199.047;  -56.550; -615.000; -488.000
199.193;  -29.500; -230.000; -468.000
199.339;  -34.950; -222.000; -369.000
199.485;   47.875;  330.000;  271.000
199.631;   16.725;  227.000;  310.000
199.777;  -47.600; -466.000; -398.000
199.923;  -53.675; -610.000; -424.000
200.069;   -2.700; -141.000;  -58.000
200.215;   56.575;  128.000;  453.000
200.361;   55.325;  243.000;  477.000
200.507;  -54.350; -600.000; -373.000
200.653;  -19.525; -371.000; -194.000
200.798;  -38.900; -215.000; -125.000
200.944;  -10.300; -146.000;  -41.000
201.090;   41.100;   61.000;  222.000
201.236;   10.475; -116.000; -158.000
201.382;  112.025;  874.000;  903.000
201.528;   22.250;  -58.000;  -48.000
201.674;  -50.175; -386.000; -293.000
201.819;  -52.025; -540.000; -439.000
201.965;  -82.250; -699.000; -447.000
202.111;  -27.625; -273.000; -226.000
202.257;  -42.100; -250.000; -238.000
202.402;   13.125;   13.000;  -36.000
202.548;  -28.500; -169.000; -116.000
202.694;   80.775;  410.000; -183.000
202.840;  -70.825; -603.000; -531.000
202.985;  -74.950; -681.000; -639.000
203.131;  -97.950; -832.000; -666.000
203.277;  -18.575; -199.000; -262.000
203.423;  -57.325; -434.000; -520.000
203.568;  -28.550; -462.000; -237.000
203.714;  -50.050; -535.000; -542.000
203.860;  -61.550; -682.000; -641.000
204.005;   29.625;  112.000;  167.000
204.151;   78.900;  561.000;  556.000
204.296;  -42.625; -354.000; -221.000
204.442;  -67.975; -600.000; -547.000
204.588;  -70.775; -592.000; -579.000
204.733;   22.200;  178.000;  168.000
204.879; -128.600;-1018.000; -822.000
205.025;   13.650;  -99.000;  126.000
205.170;   -1.400;  -17.000;   94.000
205.316;   73.350;  438.000;  661.000
205.461;  -66.025; -698.000; -554.000
205.607;   79.075;  609.000;  665.000
205.752;  -63.575; -626.000; -551.000
205.898;  -49.875; -501.000; -391.000
206.043;  -65.450; -578.000; -506.000
206.189;  -44.650; -243.000; -285.000
206.334;   74.875;  554.000;  606.000
206.480;   84.700;  409.000;  239.000
206.625;  -69.125; -529.000; -552.000
206.771;  -32.150; -451.000; -373.000
206.916;  -21.075; -210.000; -537.000
207.062;  -61.275; -545.000; -591.000
207.207;  -61.525; -546.000; -443.000
207.353;   52.950;  185.000;  460.000
207.498;    8.425;  196.000;   85.000
207.643;  -38.100; -501.000; -370.000
207.789; -117.125;-1069.000; -910.000
207.934;  -70.525; -665.000; -713.000
208.080;  -27.425; -154.000;   66.000
208.225;    2.425;  -22.000;  -57.000
208.370;  -80.100; -727.000; -619.000
208.516;  -63.100; -741.000; -487.000
208.661;  -18.325; -127.000;  -69.000
208.806;  -25.425; -165.000; -171.000
208.952; -104.875;-1044.000; -731.000
209.097;   83.900;  378.000;  349.000
209.242;  -37.575; -307.000; -382.000
209.387;   78.425;  392.000;  350.000
209.533;  -44.750; -321.000; -350.000
209.678;   62.400;  472.000;  543.000
209.823;  -45.475; -408.000; -310.000
209.969;  -99.925; -860.000; -757.000
210.114; -109.575; -907.000; -719.000
210.259;  -87.000; -939.000; -889.000
210.404;  -13.075; -171.000;  103.000
210.549;    5.625;  108.000;    3.000
210.695;  -20.600;   -3.000;  -95.000
210.840;   27.125;   94.000;   67.000
210.985;  -58.025; -484.000; -303.000
211.130;   66.450;  268.000;  406.000
211.275;    6.525;  207.000;  199.000
211.420;  -47.300; -300.000; -289.000
211.566;  -72.225; -536.000; -489.000
211.711;   20.875;  218.000;  157.000
211.856;  -55.550; -545.000; -519.000
212.001;    5.075;  151.000;   44.000
212.146;   29.475;  153.000;   49.000
212.291;  -21.925; -210.000; -186.000
212.436;  -22.000; -280.000;   -6.000
212.581;  -74.600; -685.000; -653.000
212.726;  -69.700; -487.000; -538.000
212.871;  -40.575; -552.000; -217.000
213.016; -142.600;-1172.000;-1029.000
213.161;   62.975;  406.000;  291.000
213.306;  -67.725; -435.000; -577.000
213.451;  -97.975; -778.000; -689.000
213.596;  -41.450; -455.000; -347.000
213.741;  -38.900; -448.000; -538.000
213.886;  -66.750; -498.000; -517.000
214.031;  -26.450; -294.000; -124.000
214.176;  -46.150; -408.000; -341.000
214.321;   -2.950; -296.000; -157.000
214.466;  -34.950; -163.000;  -43.000
214.611;    6.725;  -61.000;  -10.000
214.756; -110.075; -948.000; -858.000
214.901;    3.400; -388.000; -226.000
215.046; -114.600; -797.000; -825.000
215.191;   19.200;  128.000;   35.000
215.336;  -10.500; -157.000;  -19.000
215.480;  -66.725; -684.000; -505.000
215.625;   -8.225; -175.000;  -19.000
215.770;  -76.275; -757.000; -662.000
215.915;   -2.825;   -5.000;  -97.000
216.060;   12.625; -113.000;  -21.000
216.205;  -98.750; -731.000; -779.000
216.349;  -58.675; -470.000; -533.000
216.494; -117.600; -939.000; -867.000
216.639; -102.125; -823.000; -888.000
216.784;  -80.425; -577.000; -525.000
216.929;   56.975;  392.000;  281.000
217.073;  -17.225; -244.000;  -31.000
217.218;    8.050;   78.000;  -47.000
217.363;  -74.850; -656.000; -618.000
217.507;  -71.650; -623.000; -588.000
217.652; -117.500; -845.000; -874.000
217.797;  -78.575; -708.000; -659.000
217.942; -108.975; -856.000; -720.000
218.086;   74.250;  608.000;  539.000
218.231;  -13.475; -174.000;  -26.000
218.376;  -18.125; -337.000; -229.000
218.520;    5.250;  -41.000;   96.000
218.665;  -23.525; -338.000; -204.000
218.810;  -32.825; -275.000; -233.000
218.954;   16.175;  201.000;   35.000
219.099; -105.800; -713.000; -963.000
219.243;  -59.050; -589.000; -554.000
219.388;  -31.725; -264.000; -136.000
219.532;   -8.000; -116.000; -116.000
219.677;  -70.725; -564.000; -521.000
219.822;    7.475;   33.000;   89.000
219.966;    0.150;   17.000;  -99.000
220.111;  -31.125; -328.000;  -40.000
220.255;  -94.850; -797.000; -750.000
220.400;  -10.025; -180.000; -146.000
220.544;  -53.975; -516.000; -450.000
220.689;  -39.125; -422.000; -451.000
220.833;  -24.550; -123.000;  -58.000
220.978;  -39.975; -393.000; -563.000
221.122;   16.225;  319.000;  307.000
221.267;  -97.000; -906.000; -837.000
221.411;  -73.100; -478.000; -394.000
221.555;    3.500; -104.000;  -23.000
221.700;  -38.850; -329.000; -222.000
221.844;   34.800;  255.000;  272.000
221.989;  -44.150; -328.000; -311.000
222.133;  -33.075; -289.000; -307.000
222.277;  -10.475;    5.000;   78.000
222.422;   24.175;  227.000;  113.000
222.566;  -26.850; -381.000; -214.000
222.711;  -50.300; -414.000; -479.000
222.855;  -71.425; -643.000; -586.000
222.999;  -80.200; -642.000; -717.000
223.144;  -23.850; -195.000; -194.000
223.288;   50.550;  423.000;  251.000
223.432;   26.075;  184.000;  230.000
223.576;   16.675;  152.000;  -21.000
223.721;   39.500;  364.000;  273.000
223.865;  -45.775; -472.000; -475.000
224.009;  194.525; 1673.000; 1631.000
224.153;  -76.750; -660.000; -671.000
224.298;  -54.500; -531.000; -489.000
224.442;   -3.450;  -74.000;  -33.000
224.586;  -15.825; -169.000; -106.000
224.730;  -98.125; -858.000; -670.000
224.875; -113.500; -739.000; -688.000
225.019;   23.150;  102.000;  188.000
225.163;   45.000;  208.000;  341.000
225.307;   19.525;   97.000;  -91.000
225.451;   53.725;  360.000;  481.000
225.595;   36.675;  264.000;  176.000
225.739;  -15.275; -170.000;  -94.000
225.884;    8.175;   86.000;    5.000
226.028;  -99.000; -760.000; -626.000
226.172;  -36.400; -260.000; -273.000
226.316; -110.000; -941.000; -902.000
226.460;  -42.975; -645.000; -493.000
226.604;  -71.925; -406.000; -400.000
226.748;  -87.525; -836.000; -733.000
226.892;  -41.250; -227.000; -181.000
227.036;  -35.750; -537.000; -447.000
227.180;  -46.950; -551.000; -375.000
227.324;  -53.900; -561.000; -580.000
227.468; -105.675; -819.000; -717.000
227.612;    6.975;  242.000;  -28.000
227.756; -104.325; -845.000; -698.000
227.900;   53.875;  342.000;  441.000
228.044;  -56.300; -509.000; -290.000
228.188;   54.525;  448.000;  568.000
228.332;  -84.425; -546.000; -472.000
228.476;   -8.525; -223.000; -149.000
228.620;  -27.525; -210.000; -150.000
228.764;   62.525;  431.000;  349.000
228.908;  -18.900; -155.000;   30.000
229.052;  -51.800; -615.000; -528.000
229.195;  -11.125; -172.000;   13.000
229.339;  -17.075; -235.000; -305.000
229.483;  -28.775;    5.000; -162.000
229.627;    5.525; -156.000;  139.000
229.771;  -45.875; -218.000; -294.000
229.915;   14.325;  230.000;   79.000
230.059;  -85.975; -648.000; -663.000
230.202;  -41.825; -370.000; -317.000
230.346;  -25.075; -107.000;  107.000
230.490;  -55.100; -489.000; -521.000
230.634; -105.475; -736.000; -553.000
230.777;   84.275;  478.000;  509.000
230.921;  -47.925; -450.000; -359.000
231.065;  -37.400; -246.000; -286.000
231.209;   29.625;  261.000;  265.000
231.352;   29.300;   54.000;   40.000
231.496;    9.000;  568.000;  188.000
231.640;  -72.875; -693.000; -621.000
231.783;   67.400;  546.000;  525.000
231.927;  -27.800; -294.000; -365.000
232.071; -111.575; -962.000; -736.000
232.214;  -99.525; -980.000; -764.000
232.358;  -96.550; -683.000; -599.000
232.502;   10.475;  -19.000;    7.000
232.645; -120.825;-1090.000; -927.000
232.789;  -11.600; -257.000; -218.000
232.933;  -35.050; -407.000; -224.000
233.076;  -90.250;-1038.000; -897.000
233.220;  -98.150; -752.000; -777.000
233.363;  -69.500; -669.000; -477.000
233.507;   52.350;  371.000;  129.000
233.650;  -82.125; -764.000; -834.000
233.794;   49.200;  438.000;  461.000
233.938;  -52.650; -530.000; -362.000
234.081;  -14.025;  -93.000;   31.000
234.225;  -65.325; -631.000; -539.000
234.368; -115.150; -773.000; -723.000
234.512;  -30.225; -385.000; -299.000
234.655;  -70.850; -582.000; -555.000
234.798;  -59.400; -493.000; -466.000
234.942; -128.500; -884.000;-1002.000
235.085;  -68.800; -651.000; -443.000
235.229;  -80.650; -405.000; -410.000
235.372;  -33.925; -247.000; -191.000
235.516;  -69.450; -397.000; -321.000
235.659;   18.400;   92.000;  121.000
235.802;  -11.150;  -38.000;  -22.000
235.946;   22.700;  335.000;  215.000
236.089;   37.175;  126.000;  250.000
236.233;   37.375;  275.000;  298.000
236.376;  -44.350; -235.000; -378.000
236.519;  -47.950; -297.000; -319.000
236.663;  -30.750; -215.000; -117.000
236.806; -131.825;-1029.000; -999.000
236.949;   44.350;  543.000;  431.000
237.092;   69.050;  412.000;  391.000
237.236;  -76.200; -589.000; -502.000
237.379;   77.075;  352.000;  428.000
237.522; -108.200; -879.000; -768.000
237.666;   -9.250; -271.000;   18.000
237.809; -110.825; -851.000; -823.000
237.952;   20.700;  469.000;  271.000
238.095;  -59.275; -447.000; -442.000
238.238;   72.750;  688.000;  700.000
238.382;   -2.050;  166.000;  103.000
238.525;  -61.475; -598.000; -511.000
238.668; -123.300;-1060.000; -985.000
238.811;  -80.600; -638.000; -643.000
238.954;  -63.325; -483.000; -334.000
239.097;   82.400;  617.000;  664.000
239.241;   19.825;  394.000;  326.000
239.384;  -36.575; -254.000; -214.000
239.527;  -70.600; -424.000; -224.000
239.670; -135.225; -994.000;-1091.000
239.813;  -94.025; -696.000; -658.000
239.956;   66.075;  579.000;  473.000
240.099; -101.500; -778.000; -725.000
240.242;   61.100;  428.000;  432.000
240.385;   46.675;  466.000;  450.000
240.528;  -57.325; -706.000; -473.000
240.671;    0.400;  189.000;  134.000
240.814;  -37.100; -441.000; -158.000
240.957;  -83.350; -767.000; -578.000
241.100;  -94.550; -779.000; -755.000
241.243; -129.475;-1234.000; -893.000
241.386;  -61.425; -508.000; -379.000
241.529;  -84.050; -735.000; -547.000
241.672;  -61.150; -566.000; -495.000
241.815; -106.850; -832.000; -808.000
241.958;  -20.600; -125.000; -182.000
242.101;  -74.800; -545.000; -390.000
242.244;  -21.150; -270.000; -325.000
242.387;  -52.575; -304.000; -246.000
242.530;   42.950;  470.000;  134.000
242.673;  -53.850; -381.000; -309.000
242.815; -110.750; -925.000; -899.000
242.958;  -55.850; -482.000; -381.000
243.101;   23.225;  132.000;  187.000
243.244;  -79.775; -564.000; -521.000
243.387;  -48.925; -313.000; -316.000
243.530;  -96.950; -657.000; -674.000
243.672;   -3.125;   43.000;  -92.000
243.815;  -36.900; -355.000; -283.000
243.958;    0.925;   98.000;  -26.000
244.101;   -4.075;   59.000;  -16.000
244.243;   -0.400;  -47.000;  101.000
244.386;  -99.825; -761.000; -630.000
244.529;  -19.175; -132.000; -139.000
244.672; -151.600;-1154.000; -951.000
244.814; -100.275; -621.000; -794.000
244.957;  -35.275; -380.000; -304.000
245.100;  -64.950; -489.000; -489.000
245.242;  -53.100; -387.000; -374.000
245.385;   -7.000;  -59.000;  -39.000
245.528; -105.225; -871.000; -705.000
245.670;   86.900;  612.000;  634.000
245.813;  -79.700; -599.000; -547.000
245.956;  -20.925; -324.000; -275.000
246.098;  -72.650; -508.000; -650.000
246.241;    6.275;  194.000;   48.000
246.383;  -14.025; -119.000;  -73.000
246.526;  -78.275; -454.000; -525.000
246.669; -110.175; -889.000; -780.000
246.811;   26.650;  172.000;   -1.000
246.954;  -63.875; -512.000; -426.000
247.096;  -15.575;  -84.000;   -6.000
247.239;  -76.250; -482.000; -445.000
247.381;  -61.900; -647.000; -488.000
247.524;   72.050;  645.000;  679.000
247.666;    2.550;   58.000;   11.000
247.809; -100.900; -887.000; -691.000
247.951;  -10.050;  -75.000;  138.000
248.094;   24.500;  432.000;  308.000
248.236; -149.500;-1262.000;-1238.000
248.378;  -13.925; -356.000;  -81.000
248.521;  -37.775; -334.000; -337.000
248.663;  -39.625; -236.000; -267.000
248.806;  -33.950; -300.000; -266.000
248.948; -107.750; -886.000; -763.000
249.090;  -43.650; -428.000; -398.000
249.233;  -57.600; -344.000; -381.000
249.375;  -51.325; -474.000; -451.000
249.518;  -28.350;  -83.000; -133.000
249.660;  -12.275; -103.000;    3.000
249.802; -162.950;-1303.000;-1189.000
249.945;  -75.525; -612.000; -540.000
250.087; -121.700; -834.000; -768.000
250.229;  -43.550; -362.000; -480.000
250.371;  -73.100; -494.000; -439.000
250.514;  -52.375; -310.000; -244.000
250.656;   -9.625;   69.000;  102.000
250.798; -113.300; -849.000; -800.000
250.940;  -66.200; -322.000; -322.000
251.083;  -35.700; -335.000; -111.000
251.225;   57.950;  338.000;  310.000
251.367;  -30.550; -274.000; -373.000
251.509;  -35.825; -265.000; -210.000
251.651;  -89.525; -731.000; -671.000
251.794;   32.375;  538.000;  632.000
251.936; -113.275; -821.000; -747.000
252.078;  -69.975; -540.000; -461.000
252.220;  -66.075; -645.000; -477.000
252.362;   49.600;  344.000;  462.000
252.504;  -75.525; -677.000; -584.000
252.646; -112.350; -875.000; -722.000
252.788;   -5.075;   14.000; -128.000
252.931;  -32.875; -257.000; -253.000
253.073;  -44.875; -376.000; -317.000
253.215;  -12.825;  141.000;  122.000
253.357;   -6.450;   82.000; -153.000
253.499;  -56.425; -374.000; -234.000
253.641;  -86.575; -749.000; -594.000
253.783;  -79.775; -609.000; -527.000
253.925;  -77.450; -586.000; -591.000
254.067;  -96.025; -744.000; -667.000
254.209;  -31.025; -391.000; -259.000
254.351; -120.750; -865.000; -883.000
254.493;  -59.850; -441.000; -417.000
254.635; -137.325; -936.000; -818.000
254.777;  -81.775; -752.000; -687.000
254.918;  -57.725; -512.000; -430.000
255.060;  -57.350; -551.000; -395.000
255.202;  -63.500; -473.000; -261.000
255.344;  -69.300; -658.000; -455.000
255.486;  -64.525; -471.000; -406.000
255.628;  -99.200; -780.000; -781.000
255.770;  -78.825; -676.000; -536.000
255.912;  -49.175; -559.000; -468.000
256.053;  -79.600; -730.000; -508.000
256.195;  136.825; 1008.000;  903.000
256.337;  -93.400; -861.000; -595.000
256.479;   65.975;  532.000;  416.000
256.621;  -51.800; -394.000; -212.000
256.762;  -92.750; -789.000; -742.000
256.904;   51.725;  485.000;  487.000
257.046;  -27.075; -381.000; -271.000
257.188;  -43.350; -351.000; -264.000
257.329;  -59.450; -525.000; -464.000
257.471; -111.650; -939.000; -807.000
257.613;  -74.125; -584.000; -498.000
257.755; -149.200;-1073.000; -982.000
257.896;   35.075;  286.000;  392.000
258.038;  -64.025; -403.000; -352.000
258.180;  -31.475; -354.000; -279.000
258.321;  -84.225; -581.000; -457.000
258.463;   -2.375;  -71.000;  133.000
258.605;  -96.925; -562.000; -570.000
258.746; -102.450; -886.000; -772.000
258.888; -150.825;-1026.000;-1020.000
259.029;   23.300;  121.000;   -8.000
259.171;  -89.650; -614.000; -550.000
259.313;    0.350;  -49.000;  -47.000
259.454;  -70.025; -536.000; -414.000
259.596;  -68.825; -483.000; -390.000
259.737;  -79.925; -590.000; -474.000
259.879;   28.700;  217.000;  311.000
260.020;   76.200;  901.000;  636.000
260.162;  -31.625; -146.000; -253.000
260.303; -107.600; -768.000; -687.000
260.445;  -73.275; -609.000; -613.000
260.586;   10.375;  392.000;  157.000
260.728;  -35.675; -360.000; -248.000
260.869;  -69.250; -350.000; -343.000
261.011;   71.925;  706.000;  537.000
261.152;  -66.350; -479.000; -319.000
261.293;  -69.325; -576.000; -595.000
261.435;  -22.700; -219.000; -184.000
261.576;  -46.300; -455.000; -325.000
261.718;   50.300;  420.000;  470.000
261.859; -117.425; -940.000; -949.000
262.000; -129.300; -951.000;-1016.000
262.142;  -15.175;  -52.000;  -60.000
262.283; -114.600; -808.000; -691.000
262.424;  -89.025; -666.000; -625.000
262.566; -145.875;-1161.000; -983.000
262.707; -101.575; -840.000; -830.000
262.848; -120.775; -769.000; -726.000
262.990;  -42.325; -362.000; -345.000
263.131;   68.325;  650.000;  681.000
263.272;   -7.850;  -61.000;  -41.000
263.413;  -93.500; -589.000; -561.000
263.555;  -58.075; -669.000; -143.000
263.696;  -90.650; -550.000; -641.000
263.837;  -54.725; -449.000; -551.000
263.978;   -4.825;   -5.000;  -77.000
264.119;  -37.900; -283.000; -264.000
264.261; -102.575; -847.000; -630.000
264.402;   15.125;   33.000;   40.000
264.543;  -90.725; -509.000; -524.000
264.684;    1.350;   61.000;  -50.000
264.825;  -86.325; -816.000; -538.000
264.966;    5.625;  -84.000;  -67.000
265.107; -120.650; -646.000; -670.000
265.248; -112.125; -825.000; -812.000
265.390;   -2.425;  152.000;   -9.000
265.531;  -16.175; -238.000; -107.000
265.672;  -91.750; -557.000; -630.000
265.813;   61.975;  563.000;  439.000
265.954; -134.750; -959.000; -940.000
266.095;  -10.400; -372.000; -322.000
266.236;  -83.900; -686.000; -548.000
266.377;  -46.725; -243.000; -297.000
266.518;  -66.925; -619.000; -547.000
266.659;   24.550;  170.000;  268.000
266.800;   -6.550;   83.000;   85.000
266.941;  -71.375; -487.000; -478.000
267.082;    6.650;  354.000;   99.000
267.223;  -50.650; -344.000; -273.000
267.364; -120.350; -892.000; -686.000
267.504;  -18.750;    3.000;  135.000
267.645;   -9.375;  160.000;   67.000
267.786;  -24.525; -147.000;  -86.000
267.927;  -75.000; -473.000; -379.000
268.068;  -22.000; -186.000;  -61.000
268.209;  -37.250; -175.000; -413.000
268.350;  -55.650; -388.000; -532.000
268.490;  -88.000; -648.000; -521.000
268.631;   23.875;  127.000;  225.000
268.772; -105.925; -874.000; -647.000
268.913;  -53.000; -328.000; -476.000
269.054;  -16.775; -117.000;   12.000
269.194;  -45.050; -418.000; -402.000
269.335; -151.475;-1137.000;-1074.000
269.476;  -18.825;   33.000;  -35.000
269.617;  -64.425; -347.000; -392.000
269.757;  -99.350; -713.000; -646.000
269.898; -117.225; -856.000; -613.000
270.039;  -54.550; -415.000; -405.000
270.180; -130.150; -952.000; -816.000
270.320;  -37.250; -190.000; -250.000
270.461;  -39.275; -277.000; -249.000
270.602;  -14.300; -186.000; -156.000
270.742; -117.825; -868.000; -943.000
270.883;  -50.475; -442.000; -390.000
271.023;  -62.200; -358.000; -357.000
271.164;  -59.975; -607.000; -528.000
271.305; -100.275; -666.000; -654.000
271.445;  -96.800; -722.000; -683.000
271.586;  -58.900; -462.000; -283.000
271.726;  -41.575; -397.000; -322.000
271.867;  -71.925; -594.000; -534.000
272.008;   50.350; -473.000; -285.000
272.148;   67.500;  462.000;  468.000
272.289;   -7.325; -113.000; -181.000
272.429;   -4.925;   19.000;  185.000
272.570;  -88.900; -633.000; -737.000
272.710;  -95.825; -825.000; -775.000
272.851;  -25.675;  113.000; -130.000
272.991; -149.500;-1173.000;-1077.000
273.131;  -68.225; -419.000; -459.000
273.272; -103.500; -683.000; -723.000
273.412;  -13.125; -143.000;  -31.000
273.553;  -54.925; -488.000; -507.000
273.693;  119.050;  913.000;  858.000
273.834; -114.025; -894.000; -692.000
273.974;  -83.700; -664.000; -615.000
274.114;  -98.150; -772.000; -560.000
274.255;   52.100;  414.000;  373.000
274.395;  -31.550; -180.000; -125.000
274.535;   24.200;  199.000;  350.000
274.676;    7.425;  225.000;   94.000
274.816;   -4.850;  110.000;   34.000
274.956;  -86.275; -624.000; -690.000
275.097;  -99.650;-1014.000; -922.000
275.237; -122.075; -913.000; -803.000
275.377;  -81.500; -778.000; -689.000
275.517; -155.075; -878.000; -937.000
275.658;  -65.300; -590.000; -555.000
275.798;  -77.000; -606.000; -413.000
275.938;   23.100;  215.000;  323.000
276.078;  -88.100; -626.000; -395.000
276.218;   -8.800;   99.000;  104.000
276.359; -129.575;-1026.000;-1024.000
276.499;  -75.625; -605.000; -446.000
276.639;  -36.100; -305.000; -151.000
276.779;  -44.850; -475.000; -357.000
276.919; -102.700; -783.000; -624.000
277.059;  -28.675; -261.000; -212.000
277.199;  -48.550; -357.000; -259.000
277.340;   31.525;  287.000;  175.000
277.480; -101.350; -840.000; -693.000
277.620;   17.100;  192.000;   16.000
277.760; -179.925;-1533.000;-1294.000
277.900;   -5.300;  113.000;   33.000
278.040;   -1.425;  137.000;  159.000
278.180;   21.975;  270.000;  170.000
278.320;   -9.225;   21.000;   56.000
278.460;  -54.175; -443.000; -469.000
278.600;  -81.475; -708.000; -598.000
278.740;   40.525;  448.000;  224.000
278.880; -104.550; -768.000; -791.000
279.020;  -13.975; -194.000; -144.000
279.160;  -86.600; -672.000; -595.000
279.300; -105.700; -926.000; -873.000
279.440;  -92.425; -709.000; -622.000
279.579;  -79.925;-1014.000; -929.000
279.719;  -67.000; -410.000; -394.000
279.859;   40.775;   -4.000;   41.000
279.999;   -5.275; -208.000;  101.000
280.139;  -24.175; -435.000; -387.000
280.279;  -89.350; -708.000; -745.000
280.419;  -12.325; -229.000; -147.000
280.559;  -47.575; -259.000; -180.000
280.698;  -85.650; -790.000; -639.000
280.838; -107.250; -778.000; -800.000
280.978;  -93.100; -846.000; -790.000
281.118; -109.275; -811.000; -704.000
281.257;   20.200;   24.000;    6.000
281.397; -132.075;-1094.000; -960.000
281.537;  -92.000; -599.000; -712.000
281.677;  -21.000; -150.000; -101.000
281.816;  -76.300; -700.000; -630.000
281.956;  -32.825; -193.000; -257.000
282.096;  -52.900; -539.000; -396.000
282.235;  -86.475; -672.000; -638.000
282.375;  -16.900; -243.000;  -98.000
282.515;  -94.750; -715.000; -707.000
282.654;   25.825;   29.000;  106.000
282.794;   20.250;  388.000;  244.000
282.934;  -54.750; -530.000; -491.000
283.073; -118.600;-1030.000; -857.000
283.213;  -54.725; -460.000; -467.000
283.353;  -53.475; -408.000; -349.000
283.492;  -31.600; -264.000; -296.000
283.632;  -45.000; -254.000; -168.000
283.771;  -88.150; -859.000; -730.000
283.911;  -61.275; -369.000; -260.000
284.050;  -89.875; -794.000; -748.000
284.190; -144.825;-1229.000;-1096.000
284.329; -130.450;-1055.000; -964.000
284.469;  -83.325; -516.000; -591.000
284.608;  -53.125; -559.000; -598.000
284.748;  -74.900; -614.000; -570.000
284.887;    6.925;  -87.000;  -20.000
285.027; -109.925; -844.000; -892.000
285.166;  -34.000; -192.000; -249.000
285.306;  -14.125; -116.000;  -33.000
285.445;  -34.675; -229.000; -343.000
285.584;  -91.450; -630.000; -494.000
285.724;  -39.300; -282.000; -322.000
285.863; -108.300; -857.000; -507.000
286.002;  -45.200; -366.000; -276.000
286.142; -103.625; -715.000; -622.000
286.281;  -62.125; -525.000; -493.000
286.420;  -91.075; -554.000; -417.000
286.560;   78.550;  653.000;  623.000
286.699; -129.525; -958.000; -912.000
286.838;  -84.825; -590.000; -591.000
286.978;  -91.875; -533.000; -537.000
287.117; -122.725;-1085.000; -950.000
287.256;  -42.425; -228.000; -211.000
287.395;  -38.225; -197.000; -378.000
287.535;  -40.000; -370.000; -298.000
287.674;  -82.200; -509.000; -484.000
287.813;   46.800;  661.000;  533.000
287.952; -115.450;-1010.000; -871.000
288.091; -140.000;-1049.000; -915.000
288.231;    8.750;   13.000;   15.000
288.370; -159.600;-1217.000;-1200.000
288.509;  -87.150; -728.000; -645.000
288.648;  -80.600; -770.000; -548.000
288.787;  -11.575; -243.000;  -87.000
288.926;  -62.325; -454.000; -475.000
289.065;  115.800;  859.000;  672.000
289.204;  -51.675; -377.000; -217.000
289.344;  -77.925; -791.000; -690.000
289.483;   16.225;  416.000;  304.000
289.622;  -15.275; -291.000; -149.000
289.761;  -30.350; -309.000; -166.000
289.900; -107.550; -785.000; -626.000
290.039;  -18.525;  -12.000;  -95.000
290.178;  -39.300; -274.000; -180.000
290.317;  -81.650; -618.000; -479.000
290.456;  -62.150; -463.000; -451.000
290.595; -122.075; -961.000; -833.000
290.734; -133.425; -904.000; -891.000
290.873;  -73.225; -456.000; -420.000
291.011; -100.550; -833.000; -843.000
291.150;  -95.700; -770.000; -682.000
291.289;  -28.900; -343.000; -110.000
291.428;  -81.800; -599.000; -480.000
291.567;  -44.050; -370.000; -442.000
291.706;   -1.000;  109.000;  154.000
291.845;  -73.875; -597.000; -505.000
291.984; -157.675;-1234.000;-1061.000
292.122;   68.700;  602.000;  582.000
292.261;   38.250;  620.000;  463.000
292.400;   -0.950; -144.000;  211.000
292.539; -128.425; -959.000; -813.000
292.678;  -31.400; -325.000; -300.000
292.816; -143.325;-1136.000; -965.000
292.955;  -87.675; -844.000; -684.000
293.094;  -38.650; -173.000; -337.000
293.233;  -49.750; -556.000; -400.000
293.371;  -44.250; -225.000;  -84.000
293.510; -107.075; -866.000; -780.000
293.649; -133.675; -959.000; -924.000
293.787; -110.275;-1083.000;-1012.000
293.926;  -25.975; -113.000;  -32.000
294.065;  -46.575; -379.000; -290.000
294.203;   33.225;  298.000;  406.000
294.342;   38.825;   74.000;  156.000
294.481; 5001.300;51180.000; -836.000
294.619;  -43.100; -425.000; -582.000
294.758; -146.550;-1230.000;-1137.000
294.896;   21.975; -125.000;    5.000
295.035; -133.525;-1040.000;-1006.000
295.174; -119.900;-1082.000; -954.000
295.312;  -41.725; -323.000; -203.000
295.451;  -43.975; -307.000; -428.000
295.589;  -66.525; -389.000; -518.000
295.728;    9.800; -292.000; -165.000
295.866;  -11.625;  -36.000;  -51.000
296.005;  -69.300; -584.000; -341.000
296.143;  -67.050; -558.000; -596.000
296.282;  -89.025; -957.000; -881.000
296.420;  -84.175; -657.000; -557.000
296.559;  -72.575; -892.000; -633.000
296.697;  -58.575; -847.000; -665.000
296.835;  -68.125;-1141.000;-1002.000
296.974;   25.050;  -23.000;   39.000
297.112;  -18.950; -443.000; -504.000
297.251;  -87.650; -815.000; -755.000
297.389;  -14.700; -576.000; -438.000
297.527;   13.475; -145.000;  -83.000
297.666;  -56.025; -486.000; -438.000
297.804;  -53.875; -404.000; -264.000
297.942;    4.725; -136.000; -161.000
298.081;  -14.675; -183.000;   63.000
298.219;   10.750;  -17.000;  -19.000
298.357;  -12.500; -144.000;  -71.000
298.495;  -56.300; -810.000; -812.000
298.634;   14.475;  245.000;  219.000
298.772;   -7.925; -220.000; -338.000
298.910;  -56.200; -309.000; -182.000
299.048;  -15.125; -130.000; -153.000
299.187;  -55.800; -350.000; -250.000
299.325;    1.300;   52.000;  122.000
299.463;  -30.475; -389.000; -299.000
299.601;   -4.875; -327.000; -271.000
299.739; -125.950; -908.000; -883.000
299.877;  -86.200; -791.000; -703.000
300.016; -107.275;-1095.000; -935.000
300.154;   46.075;  -19.000; -161.000
300.292;  -33.025; -428.000; -348.000
300.430;  -11.550; -408.000; -291.000
300.568; -121.425; -940.000; -874.000
300.706;  -56.225; -366.000; -469.000
300.844; -118.625;-1108.000; -979.000
300.982;   57.850;  246.000;  282.000
301.120; -116.250; -965.000; -866.000
301.258;  -75.675; -812.000; -705.000
301.396;    6.825;  104.000;  -41.000
301.534;  -18.425; -218.000; -293.000
301.672;  -71.825; -664.000; -521.000
301.810;  -61.875; -613.000; -545.000
301.948;   32.500;   53.000;  149.000
302.086;  205.350; -250.000;  -32.000
302.224;  221.825; -610.000; -585.000
302.362;  -48.250; -558.000; -622.000
302.500;  -96.850; -923.000; -893.000
302.638;   43.225;  128.000;  245.000
302.776;  -39.950; -352.000; -408.000
302.913;   40.525;  447.000;  236.000
303.051;  -39.250;  -86.000;  -23.000
303.189;   17.625;   90.000;  118.000
303.327;  -48.325; -341.000; -256.000
303.465;  -86.125; -832.000; -588.000
303.603; -104.150; -805.000; -604.000
303.740;   57.950;  417.000;  241.000
303.878;  -79.875; -800.000; -759.000
304.016;  -89.525; -915.000; -790.000
304.154; -148.875;-1123.000;-1152.000
304.291;  -57.050; -505.000; -554.000
304.429;   -7.875;  102.000;   74.000
304.567; -132.975; -908.000; -893.000
304.705;  -83.550; -408.000; -515.000
304.842;  -32.650; -616.000; -540.000
304.980;   30.875;  215.000;   35.000
305.118;  -26.525; -367.000; -365.000
305.255; -122.200; -945.000; -927.000
305.393;   28.800;  178.000;  239.000
305.531; -130.800;-1173.000; -956.000
305.668;  -72.400; -663.000; -582.000
305.806;    3.600; -358.000; -439.000
305.943;  -14.725; -629.000; -637.000
306.081;   -9.875; -378.000; -267.000
306.219;  -95.325; -863.000; -748.000
306.356;   10.600;  158.000;   27.000
306.494;  136.075;  981.000;  761.000
306.631;   -1.075;  -11.000;  -55.000
306.769;   19.625; -613.000; -485.000
306.906;  -25.100; -284.000; -258.000
307.044;  -47.425; -473.000; -488.000
307.181;  -39.775; -410.000; -332.000
307.319;   28.925;  112.000;   87.000
307.456; -155.350;-1191.000;-1153.000
307.594;  -89.250; -980.000; -727.000
307.731;  -23.700; -371.000; -164.000
307.868;    5.025;  -15.000;   20.000
308.006; -128.100; -961.000; -847.000
308.143;  -52.425; -618.000; -330.000
308.281;   48.850;  -37.000; -254.000
308.418;  -42.475; -748.000; -640.000
308.555;  -55.575; -400.000; -250.000
308.693;  -59.450; -577.000; -573.000
308.830;  -73.800; -712.000; -657.000
308.967;    0.125; -215.000;  -95.000
309.105;  -19.425; -507.000; -396.000
309.242;   -2.725; -468.000; -367.000
309.379;   49.725; -577.000; -655.000
309.517;  -77.600; -936.000; -948.000
309.654;  -92.400; -910.000; -734.000
309.791;  -51.325; -662.000; -580.000
309.928;  -88.275; -977.000; -914.000
310.065;  156.400;  819.000;  697.000
310.203;  -62.850; -825.000; -850.000
310.340;  -11.025; -465.000; -321.000
310.477;  -55.175; -412.000; -516.000
310.614;  -47.875; -383.000; -473.000
310.751;  -50.175; -427.000; -518.000
310.889;  -10.875;    1.000;   11.000
311.026; -125.200;-1161.000; -939.000
311.163;  -32.625; -386.000; -380.000
311.300;  -57.725; -512.000; -479.000
311.437;  -48.625; -658.000; -619.000
311.574; -132.300;-1226.000; -985.000
311.711;  -44.300; -595.000; -433.000
311.848;  -28.875; -380.000; -388.000
311.985;   16.850;  270.000;   93.000
312.122;  -99.425; -932.000; -762.000
312.259;  -81.825; -941.000; -994.000
312.396;  -55.950; -508.000; -551.000
312.533;  -62.325; -812.000; -790.000
312.670; -121.575;-1070.000; -898.000
312.807;  -19.450; -352.000; -367.000
312.944;  -64.475; -513.000; -611.000
313.081;  -16.750; -150.000; -415.000
313.218;  -84.375;-1111.000; -867.000
313.355;   -2.800; -531.000; -449.000
313.492;    2.975; -455.000; -292.000
313.629;  136.325;  815.000;  735.000
313.766; -139.200;-1176.000;-1008.000
313.902;   -5.200; -186.000;   21.000
314.039;  -33.225; -372.000; -289.000
314.176;   47.950;  286.000;  192.000
314.313;  -64.550; -569.000; -473.000
314.450;  -52.825; -788.000; -684.000
314.587;  -52.425; -468.000; -480.000
314.723;   16.375;  -78.000;  130.000
314.860;   36.900;  318.000;  332.000
314.997;   48.850;  223.000;  142.000
315.134;  -17.425; -385.000; -368.000
315.270;  -11.750; -480.000; -496.000
315.407; -110.350;-1094.000; -967.000
315.544;  -12.200; -657.000; -538.000
315.681;  -48.550; -681.000; -565.000
315.817;   52.500; -133.000; -176.000
315.954;   48.550; -613.000; -392.000
316.091; -105.125;-1045.000;-1023.000
316.227;  -17.725;  -71.000; -179.000
316.364;   11.575;   23.000;    6.000
316.500;  -28.025; -113.000; -300.000
316.637;  -42.350; -181.000; -302.000
316.774;  -83.950; -625.000; -358.000
316.910;  -71.925; -598.000; -629.000
317.047;  -52.650; -487.000; -351.000
317.183;  -53.200; -435.000; -566.000
317.320;   28.500; -367.000; -321.000
317.456;  -34.900; -733.000; -805.000
317.593;  -81.175; -598.000; -641.000
317.729;    5.175;  168.000;  -67.000
317.866; -180.475;-1434.000;-1285.000
318.002;  -86.725; -708.000; -948.000
318.139; -124.100; -883.000; -867.000
318.275; -112.750;-1003.000; -738.000
318.412;  -90.800; -517.000; -336.000
318.548;  -71.225; -751.000; -720.000
318.685;  -96.500; -985.000; -888.000
318.821;  -74.000; -762.000; -735.000
318.957;  -19.550;   34.000;  -23.000
319.094;   40.325;  297.000;  154.000
319.230;  -80.725; -756.000; -742.000
319.367;    8.775; -471.000; -520.000
319.503;  -19.750; -538.000; -436.000
319.639;  -80.325; -877.000; -793.000
319.775;  -93.325; -750.000; -685.000
319.912;  -57.750; -424.000; -519.000
320.048;  -83.100;-1184.000;-1184.000
320.184;   95.750;   59.000;   70.000
320.321;  -54.775; -497.000; -467.000
320.457;   67.550;  475.000;  662.000
320.593;  -56.225; -375.000; -382.000
320.729;  -91.825; -732.000; -734.000
320.866;  -67.425; -577.000; -635.000
321.002;  -83.700; -759.000; -809.000
321.138;  -47.125; -135.000; -211.000
321.274;   31.725; -148.000; -115.000
321.410;  -55.025; -585.000; -353.000
321.546;  -89.625;-1011.000; -911.000
321.683;   22.950;  400.000;  185.000
321.819;   -6.850;  -48.000; -117.000
321.955; -105.025; -743.000; -722.000
322.091;  -51.025; -585.000; -540.000
322.227;  -43.775; -382.000; -202.000
322.363;  -47.175; -320.000; -215.000
322.499;  -53.575; -343.000; -331.000
322.635;  102.500;  636.000;  443.000
322.771;  -24.150; -139.000;   12.000
322.907;   55.900;  129.000;  327.000
323.043;  -45.525; -115.000; -206.000
323.179;  -48.325; -394.000; -363.000
323.315;  -42.175; -401.000; -371.000
323.451;   17.700; -328.000; -236.000
323.587;   56.475;  -60.000;  -77.000
323.723;  -39.050; -682.000; -601.000
323.859;  -27.675; -258.000;  -76.000
323.995;  -41.275; -467.000; -409.000
324.131; -130.600; -967.000; -892.000
324.267;  -37.800; -254.000; -276.000
324.402; -126.175; -960.000; -983.000
324.538;  -30.800; -279.000; -104.000
324.674;  -11.775;  164.000;   77.000
324.810;   48.675;  226.000;  308.000
324.946;  -47.800; -810.000; -658.000
325.082;  -64.475; -568.000; -475.000
325.217;  -22.825;  -62.000;   16.000
325.353; -106.300; -764.000; -659.000
325.489;  -80.650; -540.000; -506.000
325.625;  -73.875; -579.000; -525.000
325.760;   73.475;  517.000;  376.000
325.896;   11.675; -515.000; -702.000
326.032;  -61.075; -403.000; -352.000
326.168;  -63.175; -462.000; -369.000
326.303;  -60.125; -352.000; -461.000
326.439;  -10.525; -336.000; -276.000
326.575;   -2.150; -190.000;  -29.000
326.710;   -5.175; -156.000;  -30.000
326.846;  -17.975;  146.000;  103.000
326.982;  -77.150; -530.000; -548.000
327.117;  -63.200; -481.000; -442.000
327.253;  -58.125; -745.000; -742.000
327.388; -164.650;-1137.000;-1153.000
327.524;  -67.800; -811.000; -578.000
327.659;  -31.025;  -58.000;  -22.000
327.795;  -14.800;   69.000;   45.000
327.931;  -76.800; -723.000; -499.000
328.066;  -30.000; -417.000; -276.000
328.202;  -22.200;   12.000; -129.000
328.337;  105.600;  957.000;  713.000
328.473;   37.825;  -12.000;  -74.000
328.608;   -8.000; -256.000; -267.000
328.743;  -99.475; -799.000; -664.000
328.879;   29.225;  214.000;  114.000
329.014;  -39.300; -102.000; -122.000
329.150;  -77.050; -358.000; -483.000
329.285;  -83.050; -465.000; -466.000
329.421;  -44.050; -548.000; -246.000
329.556;  -15.875;  -36.000;   85.000
329.691;  -83.100; -633.000; -615.000
329.827;  -74.750; -626.000; -480.000
329.962;  -31.800;  131.000; -301.000
330.097;  -66.825; -673.000; -585.000
330.233;  -41.200; -410.000; -223.000
330.368; -107.050; -839.000; -628.000
330.503;  -10.200;    3.000;   98.000
330.638;  -17.750;  -93.000; -125.000
330.774;  -74.000; -609.000; -530.000
330.909;  -34.350; -434.000; -244.000
331.044;  -94.575; -714.000; -708.000
331.179; -170.550;-1217.000;-1109.000
331.315;    6.450;   77.000;   20.000
331.450;   11.575;  157.000;  285.000
331.585;  -70.300; -805.000; -706.000
331.720;  -95.975; -510.000; -460.000
331.855;    2.500;  -35.000; -102.000
331.990;  400.900;   62.000;  138.000
332.126;  211.125; -110.000;   71.000
332.261;    7.925; -379.000; -265.000
332.396;   29.800; -135.000; -242.000
332.531;  -53.575;-1074.000;-1031.000
332.666;   93.450; -519.000; -363.000
332.801;  -86.350; -726.000; -807.000
332.936;  -20.575; -192.000; -122.000
333.071; -124.725; -870.000; -817.000
333.206;    3.250;  307.000;  379.000
333.341;   37.950;  344.000;  418.000
333.476;  -83.275; -627.000; -623.000
333.611;  -40.850; -251.000; -173.000
333.746;  -40.900; -381.000; -464.000
333.881; -128.350; -973.000; -935.000
334.016; -110.675; -936.000; -917.000
334.151; -117.250; -746.000; -702.000
334.286;   17.800;  152.000;  186.000
334.421;  -15.350; -125.000; -178.000
334.556;  -78.050; -611.000; -567.000
334.690;  -89.925; -631.000; -577.000
334.825;   57.875;  381.000;   83.000
334.960;  -48.200; -285.000; -413.000
335.095;   24.700;  135.000;  -91.000
335.230;  -95.275; -722.000; -738.000
335.365; -117.050;-1084.000; -990.000
335.499; -129.000;-1108.000;-1037.000
335.634;   25.575;    9.000;  534.000
335.769;  -97.500; -755.000; -720.000
335.904;  -47.900; -603.000; -561.000
336.038;  -32.175; -735.000; -657.000
336.173;  -93.650;-1206.000;-1194.000
336.308;   21.175; -116.000; -189.000
336.443;   81.500; -544.000; -634.000
336.577;  -54.100; -936.000; -787.000
336.712;   79.750;   -4.000;  -12.000
336.847;  -10.025; -724.000; -607.000
336.981;   68.825; -272.000; -208.000
337.116;  304.000;  615.000;  501.000
337.250;  139.450; -434.000; -421.000
337.385;  477.825; -297.000; -208.000
337.520;  229.600; -632.000; -603.000
337.654;  -40.325; -215.000; -126.000
337.789; -108.025; -989.000; -933.000
337.923;  -42.550; -104.000; -205.000
338.058; -101.625; -673.000; -738.000
338.192;  -48.350; -611.000; -488.000
338.327;  -13.400;  -18.000; -155.000
338.461;  -68.150; -299.000; -469.000
338.596;  -90.000; -780.000; -638.000
338.730;  -82.950; -767.000; -803.000
338.865;  178.300;  -46.000; -140.000
338.999;   15.350; -846.000; -702.000
339.134;   26.300; -634.000; -536.000
339.268;   33.025; -741.000; -603.000
339.403;  556.975; -740.000; -775.000
339.537;  269.500; -894.000; -820.000
339.671;  -92.525; -829.000; -813.000
339.806;  -17.525; -556.000; -512.000
339.940;   52.075; -261.000; -235.000
340.074;  -88.650; -685.000; -510.000
340.209;  -42.525; -351.000; -230.000
340.343;  -83.950; -517.000; -573.000
340.477;  133.100;  998.000; 1036.000
340.612;    8.275;-1033.000; -900.000
340.746;  236.500; -199.000; -243.000
340.880;  -98.850; -924.000; -785.000
341.014;  -29.500;  -45.000; -154.000
341.149; -116.225; -756.000; -718.000
341.283;  -99.350; -839.000; -754.000
341.417; -132.975;-1124.000; -938.000
341.551;  -18.850; -768.000; -708.000
341.685;  -69.750; -633.000; -611.000
341.820;  -38.300; -562.000; -493.000
341.954;  -32.200; -218.000; -349.000
342.088; -156.550;-1102.000;-1019.000
342.222;   48.025;  565.000;  618.000
342.356;  -67.125; -395.000; -335.000
342.490; -120.600; -880.000; -841.000
342.624;  -54.550; -339.000; -242.000
342.758;  -50.100; -364.000; -312.000
342.892;  -92.075; -710.000; -585.000
343.026;  -41.525;  -58.000; -116.000
343.160;  -59.100; -426.000; -376.000
343.294;  -76.025; -474.000; -337.000
343.428;  -67.300; -488.000; -448.000
343.562;  -35.500; -172.000;  -23.000
343.696;  -40.850; -385.000; -314.000
343.830;  -53.200; -362.000; -356.000
343.964;  -21.525; -231.000; -168.000
344.098;  298.125;  199.000;   70.000
344.232;  256.000; -266.000; -127.000
344.366;   52.675; -567.000; -453.000
344.500;  -43.175; -665.000; -744.000
344.634;  -26.500; -324.000; -164.000
344.768;  -56.475; -531.000; -341.000
344.902;   11.300;  278.000;  256.000
345.035;  -64.550; -556.000; -496.000
345.169; -124.825; -933.000; -656.000
345.303;  -46.575; -308.000; -482.000
345.437; -116.300; -826.000; -717.000
345.571;  -54.725; -675.000; -594.000
345.704;  -65.625; -309.000; -532.000
345.838;  -17.525; -331.000; -284.000
345.972;  -63.825; -543.000; -495.000
346.106;  254.100; -179.000; -190.000
346.239;  482.150; -312.000; -243.000
346.373;   12.525; -343.000; -302.000
346.507; -129.450; -950.000; -962.000
346.640;   30.425;  -30.000;   13.000
346.774;  -82.050; -650.000; -797.000
346.908;  -30.025; -138.000;  -11.000
347.041;  -86.875; -646.000; -593.000
347.175;   -6.100;  259.000;   27.000
347.309; -103.300; -698.000; -628.000
347.442; -111.750; -883.000; -732.000
347.576;  117.000;  670.000;  668.000
347.709;   39.600; -123.000;  -52.000
347.843; -118.825; -933.000; -825.000
347.976;   31.250;  235.000;  294.000
348.110; -172.450;-1268.000;-1186.000
348.243;  -91.625; -679.000; -772.000
348.377;    7.750;  -26.000;   60.000
348.510;   60.550;  403.000;  540.000
348.644;  -49.200;  -37.000; -159.000
348.777;   -5.825;  180.000;  191.000
348.911;  -40.100; -142.000; -112.000
349.044;   98.225;  471.000;  448.000
349.178;  -15.575;-1069.000;-1006.000
349.311;  108.000;  141.000;  255.000
349.444;   31.350; -927.000; -813.000
349.578;  -12.125; -347.000; -200.000
349.711; -129.275; -959.000; -862.000
349.845;  -60.325; -661.000; -591.000
349.978; -170.050;-1224.000;-1137.000
350.111;  -71.250; -546.000; -612.000
350.244; -101.475; -596.000; -700.000
350.378;  -48.125; -392.000; -393.000
350.511;  -64.750; -393.000; -426.000
350.644; -106.250; -808.000; -806.000
350.778;    3.825;  168.000;  104.000
350.911;    3.800;  134.000;  140.000
351.044;  -84.950; -685.000; -615.000
351.177;  -36.150; -321.000; -281.000
351.310;  -13.800;    3.000; -131.000
351.444; -105.150; -888.000; -788.000
351.577;   17.675;  140.000;   90.000
351.710;   78.325;  593.000;  417.000
351.843;  -52.950; -165.000;  -77.000
351.976;   -4.325;  149.000;  -79.000
352.109; -102.150; -621.000; -612.000
352.242;  -55.600; -464.000; -419.000
352.376; -101.825; -580.000; -636.000
352.509;   23.150; -437.000; -356.000
352.642;  -87.425; -654.000; -604.000
352.775;   10.425; -141.000;  -98.000
352.908; -110.825; -933.000; -904.000
353.041; -102.325; -814.000; -824.000
353.174;  -55.150; -551.000; -424.000
353.307;  -81.825; -753.000; -764.000
353.440;   69.050;  541.000;  453.000
353.573;  -99.675; -957.000;-1008.000
353.706;  -39.800; -384.000; -558.000
353.839;  -24.400; -264.000; -220.000
353.971;  -99.800; -657.000; -512.000
354.104; -104.425; -896.000; -835.000
354.237;  -85.300; -627.000; -662.000
354.370;  -97.800; -846.000; -879.000
354.503; -173.575;-1231.000;-1308.000
354.636;  -11.575; -529.000; -348.000
354.769; -120.450; -937.000; -860.000
354.902;  -16.200; -230.000; -139.000
355.034;  -10.725; -164.000; -220.000
355.167;   -2.550; -262.000; -162.000
355.300;  -51.000;-1061.000; -880.000
355.433; 1471.600;  -71.000;  -14.000
355.565; 2313.925; -402.000; -384.000
355.698;  602.750; -356.000; -296.000
355.831;   -5.775; -882.000; -801.000
355.964;   32.350; -285.000; -170.000
356.096;  -73.925; -856.000; -843.000
356.229;  -10.850; -523.000; -530.000
356.362;  519.575; -373.000; -266.000
356.494;  962.275; -229.000; -162.000
356.627;  340.925;  269.000;  377.000
356.760;  914.900;  120.000;   53.000
356.892; 1546.675; -286.000; -601.000
357.025;  363.475;  403.000;  389.000
357.157;  258.650; -167.000; -179.000
357.290; 1225.300; -856.000; -713.000
357.423;  373.650; -667.000; -556.000
357.555;  108.875; -217.000; -228.000
357.688;  144.950; -483.000; -364.000
357.820;  181.775; -870.000; -877.000
357.953; 1439.700; -563.000; -589.000
358.085;  226.100; -632.000; -612.000
358.218;  143.300;-1131.000; -932.000
358.350;   60.825;  -58.000;  312.000
358.483; -157.825;-1300.000;-1187.000
358.615; -125.950;-1182.000;-1078.000
358.747; -131.775;-1187.000;-1058.000
358.880;  -33.425; -810.000; -744.000
359.012;  -29.325; -376.000; -202.000
359.145;  -48.425; -480.000; -511.000
359.277;  -62.525; -962.000; -913.000
359.409; 1225.100;  536.000;  231.000
359.542;  291.175; -738.000; -688.000
359.674;   15.625;   46.000;   13.000
359.806;  -79.150; -565.000; -438.000
359.939;  -17.350; -617.000; -516.000
360.071;   38.350; -583.000; -579.000
360.203;  -20.075; -411.000; -364.000
360.335;   21.125;  164.000;  -16.000
360.468;   95.725; -249.000; -307.000
360.600; 1300.600; -547.000; -454.000
360.732; 4249.975; -546.000; -423.000
360.864;  666.025;-1216.000;-1044.000
360.996;   87.750; -516.000; -554.000
361.129;  -48.825; -389.000; -598.000
361.261;    0.275;  110.000; -113.000
361.393;  -54.325; -252.000; -214.000
361.525;    7.150;   94.000;  244.000
361.657; -100.350; -821.000; -703.000
361.789;  -27.750; -139.000; -155.000
361.921;  -43.025; -642.000; -593.000
362.053;   87.900;  524.000;  541.000
362.185;    0.950;  288.000;   72.000
362.318; -108.625; -709.000; -705.000
362.450;   39.800;  294.000;  444.000
362.582;  -68.950; -913.000; -870.000
362.714;  -51.850; -353.000; -332.000
362.846;  -81.125; -606.000; -490.000
362.978; -145.975; -941.000; -811.000
363.109;  -28.525; -161.000; -260.000
363.241;  177.025; -739.000; -749.000
363.373;  666.225; -649.000; -564.000
363.505; 1038.675; -186.000;  -91.000
363.637;  249.400; -787.000; -601.000
363.769; -120.450;-1067.000;-1080.000
363.901;  -73.400; -596.000; -654.000
364.033; -138.000;-1103.000;-1062.000
364.165;  -14.100; -283.000; -283.000
364.296;   84.525; -316.000; -177.000
364.428;  204.075;-1344.000;-1220.000
364.560;  -56.375; -679.000; -661.000
364.692;  -73.475; -738.000; -835.000
364.824;   13.975; -588.000; -456.000
364.955;  516.100; -402.000; -564.000
365.087; 1687.950;-1097.000; -852.000
365.219;  101.750; -686.000; -816.000
365.351;  -70.150; -526.000; -572.000
365.482;   28.150;  300.000;  240.000
365.614;  -60.225; -402.000; -314.000
365.746;  -98.875; -729.000; -752.000
365.877;  -81.525; -706.000; -672.000
366.009;  412.875;  -35.000;  -62.000
366.141;  -20.300;-1249.000;-1134.000
366.272;  -91.450; -803.000; -719.000
366.404; -115.600;-1005.000; -874.000
366.535;   -3.725; -139.000;  -12.000
366.667; -100.175; -644.000; -649.000
366.799;   22.225;  353.000;  203.000
366.930; -129.600; -862.000; -996.000
367.062;  192.550; -639.000; -613.000
367.193;  345.525; -872.000; -842.000
367.325;  -24.675; -580.000; -684.000
367.456;   11.125; -246.000;   31.000
367.588;  286.800; -371.000; -318.000
367.719;   39.450;  -44.000;  -45.000
367.851;  -32.825; -222.000; -241.000
367.982; -104.475; -875.000; -732.000
368.113;   -9.175; -475.000; -358.000
368.245; -131.150; -960.000; -841.000
368.376;  -46.950; -254.000; -302.000
368.508;  -64.425; -188.000; -263.000
368.639; -152.275;-1166.000;-1034.000
368.770;  -79.525; -670.000; -589.000
368.902; -100.500; -836.000; -926.000
369.033; -129.575; -906.000; -855.000
369.164;  -20.575; -720.000; -653.000
369.296;  -98.175; -452.000; -601.000
369.427;  -17.775; -209.000; -144.000
369.558;  -73.725; -593.000; -377.000
369.689;  -83.275; -721.000; -569.000
369.821; -129.125; -951.000; -845.000
369.952;  -15.325;   42.000; -108.000
370.083;  -54.700; -229.000; -108.000
370.214;  -84.825; -735.000; -650.000
370.345;  -17.725;   65.000;   81.000
370.477;  -96.125; -810.000; -790.000
370.608;   49.825; -328.000; -264.000
370.739; -119.650;-1233.000;-1292.000
370.870; -116.825;-1102.000; -923.000
371.001;   -1.775; -378.000; -467.000
371.132;  -96.625; -754.000; -735.000
371.263;  -31.875;  -42.000; -148.000
371.394; -137.900; -841.000; -748.000
371.525;   31.875;  345.000;  225.000
371.657; -117.925; -808.000; -670.000
371.788;   35.375;  103.000;  199.000
371.919;   11.400; -384.000; -304.000
372.050; 1266.500;  -91.000; -156.000
372.181;  406.875; -188.000; -294.000
372.311;  105.000;   42.000; -127.000
372.442;  -60.650; -457.000; -451.000
372.573;  -37.800; -444.000; -340.000
372.704; -150.650;-1008.000; -980.000
372.835;  -23.600; -228.000; -289.000
372.966;  -87.475; -646.000; -554.000
373.097;  -92.350; -575.000; -711.000
373.228;  -89.300; -717.000; -542.000
373.359;  -29.975; -824.000; -536.000
373.490;  172.550; -881.000; -727.000
373.620;  264.525;-1001.000; -803.000
373.751;  533.350; -332.000; -396.000
373.882;  231.700; -663.000; -733.000
374.013;  -24.375; -449.000; -262.000
374.143;  -68.600; -581.000; -659.000
374.274; -125.475; -987.000; -908.000
374.405;   53.350; -388.000; -276.000
374.536;  116.000; -526.000; -387.000
374.666;  305.925; -759.000; -807.000
374.797;    0.475; -817.000; -868.000
374.928;  182.375; -710.000; -560.000
375.058;  191.250; -535.000; -500.000
375.189;   16.400;  -59.000;  -93.000
375.320; -115.750; -928.000;-1034.000
375.450;  -48.425; -625.000; -616.000
375.581;  -43.450; -526.000; -436.000
375.712;  -47.100; -574.000; -250.000
375.842;   29.625; -438.000; -415.000
375.973;   -6.600; -554.000; -513.000
376.103; -104.350; -665.000; -648.000
376.234;  -85.400; -531.000; -552.000
376.364; -118.700; -944.000; -867.000
376.495;  162.125;  925.000;  529.000
376.625;  -42.575; -472.000; -485.000
376.756;  -55.700; -709.000; -678.000
376.886; -134.600;-1178.000;-1026.000
377.017;  156.500;-1048.000;-1061.000
377.147;  684.575; -786.000; -782.000
377.278;   97.775;  174.000;  228.000
377.408; -117.700; -801.000; -815.000
377.538;  -92.600; -707.000; -693.000
377.669;  -78.175; -537.000; -613.000
377.799;  -92.525; -645.000; -635.000
377.929;  -80.875; -610.000; -428.000
378.060; -124.775; -781.000; -847.000
378.190;  -32.675; -726.000; -531.000
378.320;  -41.425; -401.000; -406.000
378.451;  -28.550; -131.000;  -22.000
378.581;   -6.250;  -67.000; -110.000
378.711;   90.550; 1035.000;  866.000
378.841;  -52.600; -533.000; -675.000
378.972; -117.050; -871.000; -751.000
379.102;  -61.425; -652.000; -579.000
379.232;  -34.800; -126.000;  -73.000
379.362; -106.275;-1001.000; -885.000
379.492;  -47.325; -373.000; -424.000
379.623;   43.000;    0.000;  111.000
379.753; -113.525;-1107.000; -974.000
379.883;   83.925;   59.000;  156.000
380.013;  -94.425;-1081.000;-1017.000
380.143; -111.675;-1097.000;-1056.000
380.273;  -97.950; -985.000; -861.000
380.403;   -2.925; -344.000; -257.000
380.533;  -39.650; -651.000; -664.000
380.663;   28.575;  173.000;  128.000
380.793; -142.275;-1027.000;-1074.000
380.923;  -26.850; -103.000;  -34.000
381.053; -102.650; -613.000; -623.000
381.183;  -40.000; -106.000; -248.000
381.313;  -73.325; -656.000; -470.000
381.443;  -35.125; -692.000; -473.000
381.573;  -24.875; -402.000; -409.000
381.703;  -72.250;-1249.000;-1095.000
381.833; -176.850;-1454.000;-1336.000
381.963;   19.925; -134.000;  -87.000
382.093;  393.100; -925.000; -909.000
382.223;   98.575; -713.000; -602.000
382.353;  -81.100; -801.000; -608.000
382.482;   26.900;-1091.000; -964.000
382.612;  188.250; -872.000; -644.000
382.742;   82.300; -695.000; -622.000
382.872;   -7.225; -565.000; -551.000
383.002;   34.000;  347.000; -132.000
383.131;  -33.975; -226.000; -160.000
383.261;  -27.650; -706.000; -768.000
383.391;  322.075; -552.000; -377.000
383.521; 5028.125;  451.000;  263.000
383.650; 1531.900; -947.000; -904.000
383.780;   47.800; -783.000; -656.000
383.910;   95.775;  880.000;  802.000
384.039;  -77.775; -794.000; -656.000
384.169;  -90.575;-1205.000;-1017.000
384.299;  -86.125; -650.000; -662.000
384.428; -127.225; -764.000; -680.000
384.558;  -40.575; -308.000; -275.000
384.687;  -64.425; -414.000; -334.000
384.817;   -1.850;   75.000;   -2.000
384.947;  -34.050; -234.000; -141.000
385.076;  163.075;  982.000;  912.000
385.206;   47.825;  369.000;  480.000
385.335;  -49.550; -549.000; -417.000
385.465; -107.875; -655.000; -663.000
385.594;   29.150;  -53.000;  -44.000
385.724;   49.425; -868.000; -838.000
385.853;    4.700; -296.000; -270.000
385.982;  349.575; -743.000; -787.000
386.112;  670.125;-1052.000; -871.000
386.241;   18.475; -307.000; -312.000
386.371;  -16.450; -174.000;  -87.000
386.500;  -49.900; -825.000; -789.000
386.629;   -1.025; -874.000; -817.000
386.759;   72.450;  -43.000;   68.000
386.888;  -14.225; -170.000; -250.000
387.017;  -98.275; -648.000; -620.000
387.147;  -89.500; -771.000; -798.000
387.276;  -60.350; -410.000; -397.000
387.405;  -38.900; -398.000; -342.000
387.535;  -75.700; -452.000; -361.000
387.664;  -65.975; -692.000; -620.000
387.793;  -15.925; -198.000; -113.000
387.922;  152.250;  255.000;  200.000
388.052;  -57.225; -576.000; -423.000
388.181;  -28.800; -342.000; -472.000
388.310;  -85.800; -889.000; -710.000
388.439;  -90.525; -749.000; -742.000
388.568;   41.525;  365.000;  244.000
388.697;  257.675; -756.000; -653.000
388.826;    2.025; -768.000; -666.000
388.956;  -33.450; -285.000; -307.000
389.085;  -51.925; -347.000; -287.000
389.214;  -93.075; -842.000; -872.000
389.343;  -61.425; -645.000; -413.000
389.472;  554.150;  126.000;  149.000
389.601;  642.550;   91.000;    0.000
389.730;   -4.975; -568.000; -687.000
389.859;   22.000;  226.000;   46.000
389.988;   35.600; -423.000; -408.000
390.117;   33.725; -168.000; -146.000
390.246;  -42.075; -331.000; -320.000
390.375;  -59.350; -673.000; -626.000
390.504;  -89.325; -703.000; -621.000
390.633; -105.825; -672.000; -726.000
390.761;  -94.400; -732.000; -645.000
390.890;  -29.550;   -4.000; -130.000
391.019;  -56.575; -421.000; -441.000
391.148; -121.650; -826.000; -855.000
391.277;  -77.250; -576.000; -493.000
391.406; -116.725; -821.000; -805.000
391.534;   10.725;  574.000; -301.000
391.663;  -83.700; -583.000; -645.000
391.792;  -96.675; -673.000; -701.000
391.921;   -3.150;   -3.000;   15.000
392.050;   11.450; -287.000; -228.000
392.178; -132.775;-1206.000;-1061.000
392.307;  -34.975; -758.000; -712.000
392.436;  -34.325; -427.000; -641.000
392.564;   -8.500;  166.000;   -6.000
392.693;  -93.200; -860.000; -682.000
392.822;   -5.750; -529.000; -534.000
392.950;  -38.700; -880.000; -714.000
393.079;   65.125; -188.000; -328.000
393.208;  -49.250; -488.000; -511.000
393.336;  -31.400; -170.000; -145.000
393.465;  -53.950; -317.000; -199.000
393.593;   -8.850;   62.000;   79.000
393.722; -148.975;-1121.000; -916.000
393.850;  -20.750; -188.000;  -61.000
393.979; -133.250; -926.000; -805.000
394.107;  -48.250; -517.000; -537.000
394.236;  -49.950; -570.000; -507.000
394.364;  108.975;  383.000;  206.000
394.493;   76.900; -911.000; -767.000
394.621;   10.750; -955.000; -916.000
394.750; 1177.625; -873.000; -923.000
394.878; 4549.300; -247.000; -149.000
395.007; 6735.800; -721.000; -807.000
395.135;  623.925; -790.000; -721.000
395.263;  -48.725;-1038.000;-1040.000
395.392;   14.975;  -25.000; -107.000
395.520; -119.675; -818.000; -679.000
395.648; -122.225; -865.000; -915.000
395.777;  -75.550; -366.000; -405.000
395.905;  -79.025; -449.000; -564.000
396.033;   -4.300;  217.000;  172.000
396.162;  108.550; -399.000; -453.000
396.290;  129.025;  -17.000;   -2.000
396.418;  -51.700; -555.000; -514.000
396.546;  -79.525; -571.000; -466.000
396.674; -118.650; -850.000; -878.000
396.803;  -38.400;  -72.000;  -23.000
396.931;  -30.775; -179.000; -199.000
397.059; -121.950;-1026.000; -989.000
397.187; -127.825;-1026.000; -975.000
397.315; -127.850; -884.000; -649.000
397.443;  -88.150; -592.000; -443.000
397.572;  -92.450; -578.000; -424.000
397.700;  -77.050; -607.000; -614.000
397.828;  -41.300;  120.000;  -90.000
397.956;  -37.900; -508.000; -478.000
398.084;  -40.075; -767.000; -626.000
398.212;   -5.775;  137.000;  124.000
398.340;  -11.700;  -56.000;  159.000
398.468;  -56.400; -390.000; -169.000
398.596; -143.575; -993.000; -953.000
398.724; -133.950; -762.000; -767.000
398.852; -148.825;-1024.000; -976.000
398.980;  -63.750; -560.000; -560.000
399.108; -102.400; -982.000; -735.000
399.236;   -7.000;   13.000;    8.000
399.363;   -2.275;  222.000;  196.000
399.491;  -56.525; -404.000; -398.000
399.619; -127.300; -829.000; -800.000
399.747; -107.250; -859.000; -771.000
399.875;   44.450;  220.000;  234.000
400.003;  -71.275; -359.000; -284.000
400.130;  -95.425; -421.000; -341.000
400.258;  -24.850;  -83.000;   38.000
400.386;  -61.475; -352.000; -168.000
400.514;  -79.650; -526.000; -587.000
400.641; -148.100; -928.000; -802.000
400.769; -134.000; -979.000; -888.000
400.897; -124.575; -838.000; -793.000
401.025;  -19.275; -166.000; -152.000
401.152;   -6.300;  220.000;   38.000
401.280;  -83.725; -430.000; -429.000
401.408; -106.050; -712.000; -576.000
401.535; -104.500; -735.000; -758.000
401.663; -179.975;-1134.000;-1054.000
401.790;  -81.975; -514.000; -525.000
401.918;   20.850;  436.000;  405.000
402.046;  -11.275;  134.000;  122.000
402.173;  -42.975;  -18.000;    7.000
402.301;  -67.625; -519.000; -397.000
402.428;   34.850;  528.000;  383.000
402.556; -144.425;-1188.000; -913.000
402.683;  -30.425;  -20.000;   -1.000
402.811;  -17.625;  -37.000; -206.000
402.938;  -24.625;   20.000;   27.000
403.066;    8.500; -574.000; -558.000
403.193;   92.050;  299.000;  239.000
403.321;   67.325; -396.000; -574.000
403.448;  124.150;   83.000;   27.000
403.575;   52.125;  -90.000;  -46.000
403.703;  -93.175; -732.000; -557.000
403.830;  -49.225; -531.000; -496.000
403.957; -118.300;-1117.000;-1023.000
404.085;   41.400;  -61.000; -172.000
404.212;  118.975;  -50.000;   63.000
404.339;  444.550; -566.000; -306.000
404.467; 9170.900; -612.000; -524.000
404.594; 5713.675; -287.000; -227.000
404.721; 1004.000; -869.000; -764.000
404.848;  108.700; -113.000; -202.000
404.976;  -84.650; -856.000; -783.000
405.103;   -3.225;  -14.000;  -82.000
405.230;    4.675;  190.000;  226.000
405.357;   57.400;  117.000;   44.000
405.484;  428.950;  -49.000;    5.000
405.612;  131.225; -548.000; -563.000
405.739;  -45.550; -488.000; -243.000
405.866;   83.775;  669.000;  385.000
405.993;  -53.125; -398.000; -102.000
406.120; -128.250; -801.000; -887.000
406.247;  -83.800; -323.000; -342.000
406.374;  129.825;  540.000;  629.000
406.501;  -82.300; -632.000; -702.000
406.628;  -90.625; -621.000; -589.000
406.755; -122.375; -803.000; -620.000
406.882;  -53.125; -228.000; -277.000
407.009; -108.150; -719.000; -628.000
407.136;  -43.050; -480.000; -401.000
407.263;  -45.650; -939.000; -829.000
407.390;  -76.150; -692.000; -614.000
407.517; -182.000;-1139.000;-1187.000
407.644;  -81.000; -332.000; -256.000
407.771; -137.375; -249.000; -287.000
407.898;   -5.475;  168.000;  328.000
408.025;  -74.175; -421.000; -313.000
408.151;  -16.650;   82.000;  153.000
408.278;  -61.775; -267.000; -216.000
408.405; -118.500; -931.000; -899.000
408.532;  -91.300; -549.000; -542.000
408.659; -111.125; -677.000; -648.000
408.785; -184.200;-1298.000;-1170.000
408.912;  -62.250; -412.000; -296.000
409.039; -106.925; -610.000; -686.000
409.166;  -79.500; -591.000; -555.000
409.292; -114.050; -571.000; -534.000
409.419;  -98.925; -665.000; -649.000
409.546;  -90.450; -431.000; -192.000
409.672; -112.125; -713.000; -545.000
409.799;  -37.725;  -36.000;   34.000
409.926;  -35.725; -180.000; -179.000
410.052; -178.025;-1127.000;-1091.000
410.179;  -82.750; -368.000; -392.000
410.305;  -88.750; -375.000; -493.000
410.432;  -33.850; -220.000; -333.000
410.558;  -79.125; -305.000; -380.000
410.685; -103.175; -688.000; -431.000
410.812; -103.575; -409.000; -588.000
410.938; -125.275; -964.000; -808.000
411.065; -115.000; -671.000; -645.000
411.191;  -35.775; -189.000; -174.000
411.317; -133.250; -823.000; -742.000
411.444;  -72.400; -317.000; -246.000
411.570;  -75.050; -339.000; -294.000
411.697; -109.700; -758.000; -752.000
411.823; -181.750; -989.000; -999.000
411.949;  -51.200;  -56.000;   17.000
412.076; -104.650; -539.000; -519.000
412.202; -115.800; -758.000; -757.000
412.329; -130.350; -798.000; -752.000
412.455; -106.475; -821.000; -657.000
412.581;  -40.850;  -15.000;  172.000
412.707;  -92.025; -540.000; -457.000
412.834;   10.350;  156.000;  219.000
412.960;  -94.175; -785.000; -784.000
413.086; -108.325; -743.000; -701.000
413.212;  123.825;  604.000;  578.000
413.339;  -98.925; -685.000; -701.000
413.465;  -56.075; -364.000; -310.000
413.591; -101.625; -757.000; -474.000
413.717;  -40.200; -358.000; -366.000
413.843; -126.975; -839.000; -861.000
413.969;  -45.000;  -47.000; -292.000
414.096;  -92.275; -679.000; -679.000
414.222;   -3.650;  -33.000;   85.000
414.348;  -71.025; -652.000; -385.000
414.474;    3.900;   38.000;  -52.000
414.600;  -28.200; -126.000; -144.000
414.726;   -4.150;  -96.000;  -55.000
414.852;  -34.500; -365.000; -342.000
414.978;   43.500;  104.000;  -18.000
415.104;   54.450;   38.000;   80.000
415.230;   50.775; -329.000; -330.000
415.356;   80.500; -409.000; -514.000
415.482;  247.325;   13.000;  -35.000
415.608;  421.725; -247.000; -323.000
415.734; 1378.225;   67.000;   38.000
415.860;28164.300; -875.000; -767.000
415.986;23558.925; -685.000; -607.000
416.111; 2235.150; -798.000; -652.000
416.237;  488.850; -424.000; -571.000
416.363; 1676.900; -765.000; -733.000
416.489; 6903.225; -324.000; -251.000
416.615;  949.500; -707.000; -742.000
416.741;   59.575; -677.000; -784.000
416.866;  -61.675; -673.000; -736.000
416.992;  -76.475; -801.000; -818.000
417.118;   -5.825;  -41.000;  -80.000
417.244;  -59.175; -798.000; -531.000
417.369;  -68.900; -801.000; -612.000
417.495;    4.875; -325.000; -254.000
417.621;  -76.800;-1015.000; -803.000
417.746;    7.100; -579.000; -572.000
417.872;   68.550; -254.000; -144.000
417.998;  143.225; -515.000; -530.000
418.123; 1578.050;-1073.000; -845.000
418.249; 8796.975; -512.000; -601.000
418.374; 1512.000; -916.000; -824.000
418.500;  255.425; -383.000; -482.000
418.626;  174.625;   70.000;  -59.000
418.751;  174.800; -549.000; -448.000
418.877;  306.775; -637.000; -643.000
419.002; 2595.000; -688.000; -560.000
419.128;19907.775; -930.000; -721.000
419.253; 5804.375; -967.000; -837.000
419.379;  777.650; -391.000; -338.000
419.504;  582.625;  325.000;  415.000
419.629;  844.000; -393.000; -212.000
419.755; 5407.775; -317.000; -254.000
419.880;35214.300;  -98.000;   67.000
420.006;17858.100; -280.000; -221.000
420.131;44483.725; -662.000; -775.000
420.256; 7286.250; -315.000; -316.000
420.382; 1020.975; -665.000; -687.000
420.507;  200.550; -649.000; -778.000
420.632;   57.825; -337.000; -339.000
420.758;   58.525; -251.000; -425.000
420.883;  -93.000; -876.000; -672.000
421.008;  -97.575; -775.000; -619.000
421.133;  -82.325; -509.000; -467.000
421.259;  -48.425; -325.000; -259.000
421.384; -130.500; -834.000; -693.000
421.509; -112.000;-1052.000; -862.000
421.634;  194.900; -936.000; -820.000
421.759;  114.025; -359.000; -327.000
421.885;  -90.325; -717.000; -656.000
422.010;  -90.350; -673.000; -542.000
422.135; -139.950; -695.000; -727.000
422.260;   24.800;  340.000;  280.000
422.385;  -39.475;   12.000;  -98.000
422.510;   -0.925;  151.000;  -26.000
422.635;  -33.775;  -87.000;  -43.000
422.760;  -18.400; -766.000; -791.000
422.885;   22.900;  -57.000;  -80.000
423.010;  -26.850; -112.000; -169.000
423.135;  -87.125; -481.000; -561.000
423.260;  -36.575; -150.000; -245.000
423.385;   15.825;  476.000;  222.000
423.510;    2.750;   71.000;  -22.000
423.635;    4.400;  133.000;   45.000
423.760;   57.500;  383.000;  328.000
423.885;   34.300;  336.000;  391.000
424.010;   -2.025;  -68.000;  -13.000
424.135;  -12.025;    5.000;  -33.000
424.259;  -47.725; -654.000; -457.000
424.384;  -45.225; -279.000; -272.000
424.509;  -16.725; -260.000; -186.000
424.634;  -82.775; -761.000; -623.000
424.759;  -30.250; -688.000; -544.000
424.883;    6.925; -506.000; -527.000
425.008;  208.425; -502.000; -410.000
425.133; 2949.475; -679.000; -653.000
425.258; 1612.075; -517.000; -381.000
425.382;  490.825; -867.000; -774.000
425.507; 1146.375; -487.000; -543.000
425.632;  379.675; -802.000; -663.000
425.756;  692.425; -256.000; -146.000
425.881; 9974.225; -831.000; -857.000
426.006;31336.975; -604.000; -355.000
426.130; 5270.975; -696.000; -508.000
426.255;  724.425; -611.000; -491.000
426.379;  307.375; -189.000; -577.000
426.504;  512.325;  660.000;  544.000
426.629; 5829.300; -519.000; -466.000
426.753; 4663.225;   64.000;  -46.000
426.878;  577.925; -252.000; -288.000
427.002;  303.675; -651.000; -668.000
427.127; 2096.100;  -35.000; -158.000
427.251;17584.600;  372.000;  401.000
427.375; 5830.250; -191.000; -173.000
427.500; 1345.975; -616.000; -610.000
427.624;  418.350; -234.000; -400.000
427.749;  103.250; -216.000; -225.000
427.873;  -21.775; -499.000; -412.000
427.997;  -33.600; -222.000; -230.000
428.122;   51.950;  795.000;  703.000
428.246;   28.600;  433.000;  434.000
428.371; -132.750; -869.000; -773.000
428.495;  -92.850; -624.000; -646.000
428.619;  -53.100; -186.000; -117.000
428.743;    4.000;   65.000;  132.000
428.868;  -69.400; -732.000; -643.000
428.992;  477.300; -219.000; -326.000
429.116;  197.900; -329.000; -357.000
429.240;  120.100;  419.000;  426.000
429.365;  -39.925; -454.000; -574.000
429.489;  -56.200; -638.000; -647.000
429.613;   44.750; -236.000; -177.000
429.737;   93.475; -563.000; -432.000
429.861;  394.375; -247.000; -133.000
429.985; 8074.775; -425.000; -305.000
430.109;10411.725; -770.000; -908.000
430.234; 1284.375;   76.000;  -50.000
430.358;  160.800; -250.000; -160.000
430.482;  -28.700; -672.000; -564.000
430.606;  -63.300; -655.000; -375.000
430.730;  -43.200; -437.000; -388.000
430.854;  -61.850; -909.000; -835.000
430.978;  -87.225; -795.000; -764.000
431.102;  -83.000; -499.000; -422.000
431.226; -104.850; -874.000; -815.000
431.350;   15.100;  345.000;  422.000
431.474;  -72.600; -661.000; -373.000
431.597; -153.150;-1060.000; -848.000
431.721;  -72.650; -276.000; -267.000
431.845; -102.250; -704.000; -472.000
431.969;  -77.100; -304.000; -349.000
432.093;  -79.475; -395.000; -317.000
432.217;  -13.500;   32.000;   82.000
432.341;  -75.300; -523.000; -518.000
432.464;   -4.400;   96.000;   40.000
432.588;  -16.875; -401.000; -329.000
432.712;   12.825;  -52.000;  -52.000
432.836;   70.500;  213.000;  263.000
432.959;   31.250; -372.000; -311.000
433.083;  180.675;   11.000;    2.000
433.207;  586.725;  285.000;  930.000
433.330; 7707.275; -391.000; -200.000
433.454;10916.950; -654.000; -638.000
433.578; 5960.000;  583.000;  278.000
433.701; 1314.675; -623.000; -675.000
433.825;  170.000; -292.000; -299.000
433.949;   54.850;   28.000;  -72.000
434.072;   -0.975; -410.000; -323.000
434.196;    1.200; -309.000; -117.000
434.319; 3421.550;25482.000;25124.000
434.443;  895.550; -656.000; -603.000
434.566; 4207.000;  281.000;   62.000
434.690;  950.300; -637.000; -383.000
434.813;  174.975; -251.000; -173.000
434.937;  -23.350; -569.000; -696.000
435.060;  -51.500; -423.000; -332.000
435.184;  -11.775; -492.000; -217.000
435.307;   21.075;  159.000;  102.000
435.431;  -29.075;  -40.000;   24.000
435.554;  -71.650; -399.000; -240.000
435.677;  -78.125; -350.000; -258.000
435.801;  -40.500;  -25.000;   49.000
435.924;  -34.825;    1.000;  -67.000
436.048; -154.125;-1019.000; -732.000
436.171;  -64.825; -240.000;  -66.000
436.294;    1.075; -248.000; -229.000
436.417;  244.650; -963.000; -849.000
436.541;  -15.300; -814.000; -840.000
436.664;  -30.400; -242.000; -316.000
436.787;  -23.500;   13.000;  113.000
436.910; -106.850; -792.000; -422.000
437.034;  -16.400;  142.000;  143.000
437.157;   19.775;  -11.000;    0.000
437.280;  -79.000; -392.000; -292.000
437.403; -131.150; -982.000; -869.000
437.526;   37.275; -903.000; -865.000
437.649;  525.250; -505.000; -332.000
437.772;    1.200; -692.000; -540.000
437.896;   56.800;  700.000;  544.000
438.019;  -85.575; -758.000; -503.000
438.142;  -85.475; -596.000; -506.000
438.265; -122.275; -639.000; -670.000
438.388;   23.400; -520.000; -410.000
438.511;  -49.225; -597.000; -394.000
438.634;  -69.775; -247.000; -125.000
438.757; -138.200; -693.000; -619.000
438.880;  -49.125;  -34.000;  -57.000
439.003;  -88.700; -417.000; -437.000
439.126;  -65.675; -287.000; -167.000
439.248;  -59.725;  -98.000; -139.000
439.371;  -45.975;    9.000;  -53.000
439.494;   25.850;  510.000;  439.000
439.617;  -62.400;   65.000;  -88.000
439.740; -168.700; -968.000; -816.000
439.863; -138.575; -755.000; -595.000
439.986; -103.900; -476.000; -431.000
440.108;  -45.650; -161.000; -112.000
440.231; -160.750; -950.000; -836.000
440.354;  -55.200;  -64.000; -150.000
440.477; -107.050; -566.000; -542.000
440.599;  -84.975; -200.000; -225.000
440.722; -131.475; -709.000; -586.000
440.845;   58.575;  751.000;  928.000
440.968; -124.925; -415.000; -311.000
441.090;  -59.175; -199.000;  -33.000
441.213; -154.850;-1021.000; -825.000
441.336;  -43.800; -159.000;   -5.000
441.458; -102.300; -549.000; -396.000
441.581; -112.050; -628.000; -629.000
441.703;  -72.525; -152.000;   13.000
441.826; -104.825; -557.000; -400.000
441.948;  -55.450;   56.000;   51.000
442.071;   25.525;  555.000;  424.000
442.193; -132.975; -531.000; -485.000
442.316;   20.325;  152.000;   97.000
442.438;   75.775; -233.000;  -10.000
442.561;   72.575;  272.000;  262.000
442.683;   71.600; -809.000; -522.000
442.806;  268.150;   -8.000;   74.000
442.928; -100.375; -859.000; -604.000
443.051;  -86.100; -577.000; -373.000
443.173;  -96.000; -341.000; -339.000
443.295;  -86.225; -263.000; -371.000
443.418;  -80.775; -321.000;  -29.000
443.540;  -37.675; -106.000;   -4.000
443.662; -118.800; -563.000; -465.000
443.785;  -11.200;  335.000;  199.000
443.907;  -95.375; -362.000; -208.000
444.029; -123.575; -767.000; -494.000
444.152; -151.575; -644.000; -554.000
444.274;  -44.950;  -18.000;  -24.000
444.396; -115.625; -461.000; -221.000
444.518; -117.025; -691.000; -454.000
444.640;  -98.400; -268.000; -111.000
444.763;  -31.200;  388.000;  249.000
444.885; -114.700; -432.000; -392.000
445.007;  -25.525;   35.000;   86.000
445.129; -120.850; -610.000; -515.000
445.251; -104.950; -372.000; -439.000
445.373; -144.025; -537.000; -386.000
445.495;    5.075;  242.000;  350.000
445.617;   36.800;  853.000;  753.000
445.739;  -78.700; -215.000;  -97.000
445.861;  -79.250; -245.000; -112.000
445.984;  -46.800; -267.000; -101.000
446.105;  -12.625; -418.000; -251.000
446.227;  124.675; -176.000;  -19.000
446.349;  -80.975; -358.000; -249.000
446.471; -119.275; -615.000; -448.000
446.593;  -89.500; -316.000;   19.000
446.715;  -35.225;  -67.000;   41.000
446.837;   49.175;  697.000;  832.000
446.959;  -98.975; -457.000; -478.000
447.081; -133.300; -628.000; -518.000
447.203;   57.750;  862.000;  834.000
447.325;  -95.200; -270.000;   42.000
447.446;    4.175;  286.000;  530.000
447.568; -155.025; -921.000; -803.000
447.690;  -86.775; -236.000; -245.000
447.812; -138.500; -798.000; -519.000
447.933;  -32.150;  155.000;  127.000
448.055;  -73.050; -306.000; -261.000
448.177;   38.525;   31.000;   79.000
448.299;  -87.350; -935.000; -727.000
448.420;  -12.525;  -25.000;  159.000
448.542;  -64.775;   -3.000;   33.000
448.664;  -15.450;  109.000;  322.000
448.785;  -35.925;  265.000;   83.000
448.907;  -99.475; -614.000; -353.000
449.028;  -98.425; -771.000; -471.000
449.150;   35.950;  492.000;  589.000
449.272; -177.125;-1044.000; -913.000
449.393;   23.900;  612.000;  694.000
449.515; -142.200; -634.000; -581.000
449.636;  -69.275; -264.000; -155.000
449.758;   58.775;  763.000;  622.000
449.879;  -76.475; -498.000; -396.000
450.001;  -65.475; -149.000;  -49.000
450.122;  -26.725;  -95.000;  162.000
450.244;  -19.075;   37.000;  364.000
450.365;  -68.225; -495.000; -301.000
450.486;   -0.275;   80.000;  268.000
450.608;   43.225;  393.000;  326.000
450.729;  118.525;  578.000;  645.000
450.850;  113.025; -574.000; -466.000
450.972; 1204.000; -552.000; -389.000
451.093; 8078.925;  190.000;  588.000
451.214; 4244.650; -516.000; -337.000
451.336;  687.350;  773.000;  579.000
451.457;  120.450;  264.000;  393.000
451.578;  -17.050; -118.000;  -74.000
451.699;  -90.625; -546.000; -540.000
451.821;  -64.825; -284.000;  -50.000
451.942;   -3.950;  278.000;  285.000
452.063;   67.625;  228.000;  419.000
452.184;  822.700;  -54.000;  -49.000
452.305; 1782.550;  103.000;  170.000
452.427;  364.125; -549.000; -301.000
452.548;   25.125;   23.000;   79.000
452.669;  -59.950; -257.000;  -89.000
452.790;  -49.050;    3.000;  -18.000
452.911;  -18.150;  195.000;  259.000
453.032;  -70.050; -289.000;  -60.000
453.153;  -63.200;  -29.000;   81.000
453.274;   47.500;  737.000;  868.000
453.395;  -67.550;  -51.000;  175.000
453.516;  101.150; 1317.000; 1388.000
453.637;  -88.325; -205.000; -150.000
453.758;  -51.900;   15.000;   69.000
453.879; -125.125; -462.000; -250.000
454.000;   55.450; 1086.000;  948.000
454.121; -117.025; -554.000; -326.000
454.242;  -94.100; -599.000; -383.000
454.362;  -61.575;  -99.000;  114.000
454.483;    4.675; -309.000; -229.000
454.604;   67.100;  512.000;  580.000
454.725; -106.750; -627.000; -555.000
454.846; -138.325; -474.000; -406.000
454.967;  -16.700;  230.000;  539.000
455.087;  -39.550;  179.000;  153.000
455.208;    5.775;  554.000;  856.000
455.329;  -64.500;  -22.000;   82.000
455.450;   69.175;  473.000;  633.000
455.570;  -70.475; -234.000; -211.000
455.691;  -36.500;  201.000;  407.000
455.812;  -86.950; -270.000;  -92.000
455.932;  -56.950;  107.000;  -97.000
456.053;  -82.400;   36.000;   24.000
456.173;  -98.000; -433.000; -355.000
456.294; -135.125; -476.000; -303.000
456.415;  -57.200;  -73.000;   70.000
456.535;  -29.475;  297.000;  273.000
456.656;  -41.425;  132.000;  240.000
456.776;  -71.125;    3.000;  298.000
456.897;   -0.425;  308.000;  513.000
457.017;  -60.175; -153.000;   -3.000
457.138;  -98.450; -402.000; -249.000
457.258;  -36.700;  263.000;  224.000
457.379;    0.875;  509.000;  521.000
457.499;  -33.100;  443.000;  432.000
457.620; -103.200; -407.000; -231.000
457.740;  -88.350; -132.000;  -11.000
457.860;  -41.400;   87.000;   44.000
457.981;  -35.900;  132.000;  124.000
458.101;  -52.675;  -89.000;   40.000
458.221;  -15.550;  336.000;  402.000
458.342;  -48.650;   -4.000;  -37.000
458.462;   53.625;  617.000;  352.000
458.582;   25.325; -302.000; -294.000
458.703;   77.050;  303.000;  154.000
458.823;   13.800;   22.000;  163.000
458.943;   56.275;  341.000;  467.000
459.063;   16.850; 1124.000;  192.000
459.183;  -10.125;  328.000;  313.000
459.304;    6.750;  315.000;  517.000
459.424;  -40.925; -246.000;  -89.000
459.544;  485.050;  388.000;  764.000
459.664; 1350.350;  499.000;  506.000
459.784;  532.375; 1004.000; 1175.000
459.904;   87.075;  867.000;  744.000
460.024;   54.200;  867.000;  684.000
460.144;  -17.100;  449.000;  554.000
460.264;   -2.550;  515.000;  327.000
460.385;  -77.125; -145.000; -119.000
460.505;   35.650;  905.000;  858.000
460.625;  -92.950;  -17.000;  -68.000
460.745;   -3.125;  396.000;  541.000
460.864;  -44.300;  153.000;  469.000
460.984;   39.300;  499.000;  573.000
461.104;  147.900; 1656.000; 1775.000
461.224;    4.575;  657.000;  650.000
461.344;  -37.400;  431.000;  360.000
461.464;  -34.675;  258.000;  513.000
461.584;  -24.100;  283.000;  466.000
461.704;  -56.800;   58.000;  108.000
461.824;  -55.525;  238.000;  259.000
461.943;  -40.925;  191.000;  130.000
462.063;  -79.225;    2.000;  324.000
462.183;   31.225;  639.000;  717.000
462.303;   77.500; 1678.000; 1230.000
462.422;   33.450;  781.000;  840.000
462.542;  -41.725;  271.000;  391.000
462.662;   49.550;  353.000;  380.000
462.782;  360.375;  833.000;  572.000
462.901;  766.775;  545.000;  717.000
463.021;  395.875; 1702.000; 1638.000
463.141;    6.000;  337.000;  770.000
463.260;   -5.100;  614.000;  474.000
463.380;    5.100;  902.000;  884.000
463.499;  -24.400;  342.000;  332.000
463.619;  -24.950;  581.000;  559.000
463.738;  108.125; 1644.000;  903.000
463.858;   14.275;  657.000;  811.000
463.978;  -44.200;  542.000;  396.000
464.097;   50.875;  921.000; 1114.000
464.217;  147.825; 1196.000; 1143.000
464.336;  154.950; 1068.000; 1130.000
464.455;  -32.200;  328.000;  659.000
464.575;   25.025;  597.000;  602.000
464.694;  130.275; 1204.000; 1179.000
464.814;  164.450; 1190.000; 1138.000
464.933;   82.325; 1095.000; 1027.000
465.052;   96.525; 1412.000; 1054.000
465.172;   70.200;  922.000;  799.000
465.291;  108.000; 1376.000; 1320.000
465.410;    8.925;  462.000;  735.000
465.530;   74.850; 1355.000; 1310.000
465.649;   60.425; 1209.000; 1273.000
465.768;  141.825; 1673.000; 1508.000
465.888;   78.025;  941.000; 1174.000
466.007;   95.825; 1335.000; 1440.000
466.126;    4.950;  721.000;  641.000
466.245;   33.450; 1176.000; 1187.000
466.364;   17.175;  950.000; 1060.000
466.484;   52.675; 1024.000; 1213.000
466.603;   33.650; 1101.000; 1222.000
466.722;  113.650; 1490.000; 1769.000
466.841;   63.100; 1151.000; 1401.000
466.960;   38.700; 1069.000;  972.000
467.079;  134.725; 1971.000; 1786.000
467.198;   59.200; 1238.000; 1181.000
467.317;   80.575; 1768.000; 1162.000
467.436;   73.450; 1709.000; 1261.000
467.555;  117.750; 1796.000; 1746.000
467.674;   60.750; 1227.000; 1329.000
467.793;   60.900; 1376.000; 1374.000
467.912;   88.875; 1658.000; 1539.000
468.031;  135.150; 2038.000; 1930.000
468.150;  145.950; 1842.000; 1837.000
468.269;  165.625; 2313.000; 2090.000
468.388;  173.850; 2168.000; 2339.000
468.507;  252.425; 2884.000; 2903.000
468.626;  235.950; 2555.000; 2541.000
468.744;  148.225; 2018.000; 2174.000
468.863;  195.475; 2312.000; 2523.000
468.982;   87.650; 1503.000; 1555.000
469.101;  214.925; 2788.000; 2692.000
469.220;  152.900; 2333.000; 2176.000
469.338;  235.325; 2935.000; 3051.000
469.457;  197.025; 2719.000; 2545.000
469.576;  349.500; 3953.000; 3784.000
469.695;  243.125; 2877.000; 3066.000
469.813;  421.700; 4148.000; 4192.000
469.932;  415.125; 4255.000; 4485.000
470.051;  449.075; 4075.000; 4161.000
470.169; 1018.950; 4470.000; 4338.000
470.288; 2068.675; 4700.000; 4809.000
470.406; 1211.650; 5059.000; 5194.000
470.525;  694.075; 6101.000; 5787.000
470.644;  641.650; 6847.000; 6794.000
470.762;  816.500; 8397.000; 7873.000
470.881;  920.700; 8651.000; 8464.000
470.999; 1065.900; 9685.000; 9151.000
471.118; 1109.775;11174.000;10711.000

