
Integration time [ms]: 200.000
Averaging Nr. [scans]: 10
Smoothing Nr. [pixels]: 0
Data measured with spectrometer [name]: 2101012U2
Wave   ;Sample   ;Dark     ;Reference
[nm]   ;[counts] ;[counts] ;[counts] 

197.733;  130.000;  516.000;  404.000
197.879; -176.900; -610.000; -634.000
198.025; -101.000; -475.000; -420.000
198.171; -139.300; -602.000; -612.000
198.317;  -59.500; -401.000; -316.000
198.463; -111.100; -655.000; -404.000
198.609;   60.800;  181.000; -137.000
198.755; -165.800; -644.000; -410.000
198.901; -133.700; -505.000; -424.000
199.047; -111.500; -615.000; -488.000
199.193;  -62.700; -230.000; -468.000
199.339;  -93.500; -222.000; -369.000
199.485;   96.900;  330.000;  271.000
199.631;   41.300;  227.000;  310.000
199.777; -100.700; -466.000; -398.000
199.923; -119.800; -610.000; -424.000
200.069;    7.200; -141.000;  -58.000
200.215;  130.600;  128.000;  453.000
200.361;   96.000;  243.000;  477.000
200.507; -121.600; -600.000; -373.000
200.653;  -66.000; -371.000; -194.000
200.798;  -52.800; -215.000; -125.000
200.944;   -3.900; -146.000;  -41.000
201.090;   87.200;   61.000;  222.000
201.236;    2.900; -116.000; -158.000
201.382;  317.300;  874.000;  903.000
201.528;   10.700;  -58.000;  -48.000
201.674;  -55.700; -386.000; -293.000
201.819; -113.800; -540.000; -439.000
201.965; -148.900; -699.000; -447.000
202.111;  -25.900; -273.000; -226.000
202.257;  -73.500; -250.000; -238.000
202.402;   25.600;   13.000;  -36.000
202.548;  -63.600; -169.000; -116.000
202.694;  162.500;  410.000; -183.000
202.840; -104.200; -603.000; -531.000
202.985; -149.100; -681.000; -639.000
203.131; -220.300; -832.000; -666.000
203.277;  -12.800; -199.000; -262.000
203.423;  -98.700; -434.000; -520.000
203.568;  -77.300; -462.000; -237.000
203.714; -120.000; -535.000; -542.000
203.860; -153.700; -682.000; -641.000
204.005;   58.200;  112.000;  167.000
204.151;  192.200;  561.000;  556.000
204.296;  -88.200; -354.000; -221.000
204.442; -147.800; -600.000; -547.000
204.588; -158.000; -592.000; -579.000
204.733;   58.800;  178.000;  168.000
204.879; -253.400;-1018.000; -822.000
205.025;   28.400;  -99.000;  126.000
205.170;   12.600;  -17.000;   94.000
205.316;  172.100;  438.000;  661.000
205.461; -158.500; -698.000; -554.000
205.607;  208.000;  609.000;  665.000
205.752; -163.300; -626.000; -551.000
205.898;  -90.100; -501.000; -391.000
206.043; -108.200; -578.000; -506.000
206.189;  -77.200; -243.000; -285.000
206.334;  188.000;  554.000;  606.000
206.480;  147.700;  409.000;  239.000
206.625; -133.400; -529.000; -552.000
206.771;  -81.500; -451.000; -373.000
206.916;  -83.000; -210.000; -537.000
207.062; -164.500; -545.000; -591.000
207.207; -101.700; -546.000; -443.000
207.353;  120.500;  185.000;  460.000
207.498;   24.700;  196.000;   85.000
207.643;  -63.300; -501.000; -370.000
207.789; -274.800;-1069.000; -910.000
207.934; -190.500; -665.000; -713.000
208.080;  -28.200; -154.000;   66.000
208.225;   15.700;  -22.000;  -57.000
208.370; -126.600; -727.000; -619.000
208.516; -162.400; -741.000; -487.000
208.661;  -59.900; -127.000;  -69.000
208.806;  -16.900; -165.000; -171.000
208.952; -249.200;-1044.000; -731.000
209.097;  173.700;  378.000;  349.000
209.242;  -92.600; -307.000; -382.000
209.387;  128.200;  392.000;  350.000
209.533;  -76.300; -321.000; -350.000
209.678;  211.800;  472.000;  543.000
209.823; -108.000; -408.000; -310.000
209.969; -225.800; -860.000; -757.000
210.114; -212.700; -907.000; -719.000
210.259; -208.400; -939.000; -889.000
210.404;   -3.200; -171.000;  103.000
210.549;   20.800;  108.000;    3.000
210.695;  -40.000;   -3.000;  -95.000
210.840;   95.300;   94.000;   67.000
210.985; -113.700; -484.000; -303.000
211.130;  160.300;  268.000;  406.000
211.275;   34.300;  207.000;  199.000
211.420; -102.600; -300.000; -289.000
211.566; -120.300; -536.000; -489.000
211.711;   64.700;  218.000;  157.000
211.856; -112.800; -545.000; -519.000
212.001;   60.200;  151.000;   44.000
212.146;   49.400;  153.000;   49.000
212.291;  -26.700; -210.000; -186.000
212.436;  -61.100; -280.000;   -6.000
212.581; -149.700; -685.000; -653.000
212.726; -151.800; -487.000; -538.000
212.871;  -92.500; -552.000; -217.000
213.016; -291.600;-1172.000;-1029.000
213.161;  143.200;  406.000;  291.000
213.306; -163.700; -435.000; -577.000
213.451; -186.700; -778.000; -689.000
213.596;  -60.600; -455.000; -347.000
213.741; -116.600; -448.000; -538.000
213.886; -130.000; -498.000; -517.000
214.031;  -47.000; -294.000; -124.000
214.176; -118.900; -408.000; -341.000
214.321;  -44.600; -296.000; -157.000
214.466;  -45.400; -163.000;  -43.000
214.611;   13.600;  -61.000;  -10.000
214.756; -264.600; -948.000; -858.000
214.901;  -49.700; -388.000; -226.000
215.046; -225.800; -797.000; -825.000
215.191;   52.400;  128.000;   35.000
215.336;    2.100; -157.000;  -19.000
215.480; -153.000; -684.000; -505.000
215.625;   -9.500; -175.000;  -19.000
215.770; -165.200; -757.000; -662.000
215.915;   23.500;   -5.000;  -97.000
216.060;   16.300; -113.000;  -21.000
216.205; -225.300; -731.000; -779.000
216.349; -134.300; -470.000; -533.000
216.494; -268.600; -939.000; -867.000
216.639; -220.600; -823.000; -888.000
216.784; -187.400; -577.000; -525.000
216.929;  133.600;  392.000;  281.000
217.073;  -11.700; -244.000;  -31.000
217.218;   16.300;   78.000;  -47.000
217.363; -172.300; -656.000; -618.000
217.507; -143.700; -623.000; -588.000
217.652; -258.600; -845.000; -874.000
217.797; -180.200; -708.000; -659.000
217.942; -217.400; -856.000; -720.000
218.086;  196.200;  608.000;  539.000
218.231;  -34.400; -174.000;  -26.000
218.376;  -24.500; -337.000; -229.000
218.520;   42.800;  -41.000;   96.000
218.665;  -24.700; -338.000; -204.000
218.810;  -63.900; -275.000; -233.000
218.954;   69.800;  201.000;   35.000
219.099; -232.300; -713.000; -963.000
219.243; -127.700; -589.000; -554.000
219.388;  -46.500; -264.000; -136.000
219.532;  -15.500; -116.000; -116.000
219.677; -145.300; -564.000; -521.000
219.822;   40.400;   33.000;   89.000
219.966;   44.100;   17.000;  -99.000
220.111;  -57.300; -328.000;  -40.000
220.255; -212.500; -797.000; -750.000
220.400;   -7.000; -180.000; -146.000
220.544; -134.100; -516.000; -450.000
220.689; -105.100; -422.000; -451.000
220.833;  -22.100; -123.000;  -58.000
220.978;  -71.000; -393.000; -563.000
221.122;   67.500;  319.000;  307.000
221.267; -236.700; -906.000; -837.000
221.411; -115.200; -478.000; -394.000
221.555;    1.200; -104.000;  -23.000
221.700;  -72.600; -329.000; -222.000
221.844;   95.600;  255.000;  272.000
221.989;  -86.200; -328.000; -311.000
222.133;  -63.900; -289.000; -307.000
222.277;   -3.800;    5.000;   78.000
222.422;   81.100;  227.000;  113.000
222.566;  -64.900; -381.000; -214.000
222.711; -121.100; -414.000; -479.000
222.855; -128.200; -643.000; -586.000
222.999; -158.200; -642.000; -717.000
223.144;  -44.600; -195.000; -194.000
223.288;  136.900;  423.000;  251.000
223.432;   40.100;  184.000;  230.000
223.576;   81.400;  152.000;  -21.000
223.721;  103.800;  364.000;  273.000
223.865; -111.300; -472.000; -475.000
224.009;  472.900; 1673.000; 1631.000
224.153; -129.800; -660.000; -671.000
224.298; -124.600; -531.000; -489.000
224.442;  -23.100;  -74.000;  -33.000
224.586;    1.200; -169.000; -106.000
224.730; -176.400; -858.000; -670.000
224.875; -202.500; -739.000; -688.000
225.019;   44.500;  102.000;  188.000
225.163;  139.400;  208.000;  341.000
225.307;   41.200;   97.000;  -91.000
225.451;  132.000;  360.000;  481.000
225.595;   78.400;  264.000;  176.000
225.739;  -43.800; -170.000;  -94.000
225.884;   38.400;   86.000;    5.000
226.028; -169.100; -760.000; -626.000
226.172;  -62.400; -260.000; -273.000
226.316; -240.100; -941.000; -902.000
226.460; -125.600; -645.000; -493.000
226.604; -100.700; -406.000; -400.000
226.748; -176.100; -836.000; -733.000
226.892;  -33.700; -227.000; -181.000
227.036;  -88.900; -537.000; -447.000
227.180;  -90.100; -551.000; -375.000
227.324; -123.500; -561.000; -580.000
227.468; -244.500; -819.000; -717.000
227.612;   61.300;  242.000;  -28.000
227.756; -138.800; -845.000; -698.000
227.900;  128.700;  342.000;  441.000
228.044;  -64.600; -509.000; -290.000
228.188;  130.800;  448.000;  568.000
228.332; -192.800; -546.000; -472.000
228.476;  -50.200; -223.000; -149.000
228.620;  -48.500; -210.000; -150.000
228.764;  173.100;  431.000;  349.000
228.908;  -22.800; -155.000;   30.000
229.052; -121.100; -615.000; -528.000
229.195;   10.100; -172.000;   13.000
229.339;  -26.100; -235.000; -305.000
229.483;  -18.100;    5.000; -162.000
229.627;   45.800; -156.000;  139.000
229.771;  -79.700; -218.000; -294.000
229.915;   80.500;  230.000;   79.000
230.059; -163.900; -648.000; -663.000
230.202;  -74.900; -370.000; -317.000
230.346;   13.000; -107.000;  107.000
230.490; -113.300; -489.000; -521.000
230.634; -183.400; -736.000; -553.000
230.777;  200.700;  478.000;  509.000
230.921; -117.500; -450.000; -359.000
231.065;  -86.100; -246.000; -286.000
231.209;   92.700;  261.000;  265.000
231.352;   93.300;   54.000;   40.000
231.496;   71.300;  568.000;  188.000
231.640; -162.300; -693.000; -621.000
231.783;  148.500;  546.000;  525.000
231.927;  -91.600; -294.000; -365.000
232.071; -247.600; -962.000; -736.000
232.214; -214.700; -980.000; -764.000
232.358; -176.200; -683.000; -599.000
232.502;   37.800;  -19.000;    7.000
232.645; -266.600;-1090.000; -927.000
232.789;  -49.200; -257.000; -218.000
232.933;  -32.400; -407.000; -224.000
233.076; -244.900;-1038.000; -897.000
233.220; -202.300; -752.000; -777.000
233.363; -154.300; -669.000; -477.000
233.507;  124.300;  371.000;  129.000
233.650; -176.100; -764.000; -834.000
233.794;  124.500;  438.000;  461.000
233.938;  -82.400; -530.000; -362.000
234.081;  -35.600;  -93.000;   31.000
234.225; -142.600; -631.000; -539.000
234.368; -234.400; -773.000; -723.000
234.512;  -93.500; -385.000; -299.000
234.655; -122.000; -582.000; -555.000
234.798;  -96.700; -493.000; -466.000
234.942; -219.800; -884.000;-1002.000
235.085; -132.800; -651.000; -443.000
235.229; -137.300; -405.000; -410.000
235.372; -101.300; -247.000; -191.000
235.516;  -99.400; -397.000; -321.000
235.659;   75.900;   92.000;  121.000
235.802;  -30.500;  -38.000;  -22.000
235.946;   91.300;  335.000;  215.000
236.089;   91.000;  126.000;  250.000
236.233;  124.800;  275.000;  298.000
236.376;  -67.300; -235.000; -378.000
236.519;  -67.400; -297.000; -319.000
236.663;  -19.000; -215.000; -117.000
236.806; -299.300;-1029.000; -999.000
236.949;  147.800;  543.000;  431.000
237.092;  169.000;  412.000;  391.000
237.236; -170.300; -589.000; -502.000
237.379;  159.600;  352.000;  428.000
237.522; -243.600; -879.000; -768.000
237.666;    6.600; -271.000;   18.000
237.809; -250.200; -851.000; -823.000
237.952;   81.800;  469.000;  271.000
238.095; -105.300; -447.000; -442.000
238.238;  232.300;  688.000;  700.000
238.382;    4.600;  166.000;  103.000
238.525; -112.800; -598.000; -511.000
238.668; -273.800;-1060.000; -985.000
238.811; -157.900; -638.000; -643.000
238.954;  -96.200; -483.000; -334.000
239.097;  240.600;  617.000;  664.000
239.241;  100.900;  394.000;  326.000
239.384;  -66.600; -254.000; -214.000
239.527;  -88.400; -424.000; -224.000
239.670; -258.100; -994.000;-1091.000
239.813; -200.600; -696.000; -658.000
239.956;  197.300;  579.000;  473.000
240.099; -217.400; -778.000; -725.000
240.242;  172.700;  428.000;  432.000
240.385;  118.400;  466.000;  450.000
240.528; -122.900; -706.000; -473.000
240.671;   78.000;  189.000;  134.000
240.814;  -85.600; -441.000; -158.000
240.957; -195.000; -767.000; -578.000
241.100; -188.900; -779.000; -755.000
241.243; -303.900;-1234.000; -893.000
241.386; -125.600; -508.000; -379.000
241.529; -171.600; -735.000; -547.000
241.672; -133.800; -566.000; -495.000
241.815; -211.500; -832.000; -808.000
241.958;  -22.000; -125.000; -182.000
242.101; -152.800; -545.000; -390.000
242.244;  -53.900; -270.000; -325.000
242.387;  -56.600; -304.000; -246.000
242.530;  155.300;  470.000;  134.000
242.673;  -66.400; -381.000; -309.000
242.815; -242.700; -925.000; -899.000
242.958; -115.200; -482.000; -381.000
243.101;   32.400;  132.000;  187.000
243.244; -167.300; -564.000; -521.000
243.387;  -78.400; -313.000; -316.000
243.530; -194.500; -657.000; -674.000
243.672;    3.600;   43.000;  -92.000
243.815;  -93.300; -355.000; -283.000
243.958;    9.700;   98.000;  -26.000
244.101;   -9.300;   59.000;  -16.000
244.243;   28.400;  -47.000;  101.000
244.386; -201.900; -761.000; -630.000
244.529;  -15.500; -132.000; -139.000
244.672; -297.900;-1154.000; -951.000
244.814; -192.800; -621.000; -794.000
244.957;  -89.900; -380.000; -304.000
245.100; -121.900; -489.000; -489.000
245.242;  -97.200; -387.000; -374.000
245.385;   -9.900;  -59.000;  -39.000
245.528; -235.200; -871.000; -705.000
245.670;  214.400;  612.000;  634.000
245.813; -156.900; -599.000; -547.000
245.956;  -59.000; -324.000; -275.000
246.098; -150.900; -508.000; -650.000
246.241;   29.500;  194.000;   48.000
246.383;  -17.800; -119.000;  -73.000
246.526; -121.100; -454.000; -525.000
246.669; -219.300; -889.000; -780.000
246.811;   92.400;  172.000;   -1.000
246.954;  -90.900; -512.000; -426.000
247.096;    1.900;  -84.000;   -6.000
247.239; -111.300; -482.000; -445.000
247.381; -140.400; -647.000; -488.000
247.524;  209.800;  645.000;  679.000
247.666;   18.500;   58.000;   11.000
247.809; -203.100; -887.000; -691.000
247.951;    6.600;  -75.000;  138.000
248.094;   60.200;  432.000;  308.000
248.236; -325.700;-1262.000;-1238.000
248.378;    9.200; -356.000;  -81.000
248.521;   -6.100; -334.000; -337.000
248.663;  -43.100; -236.000; -267.000
248.806;    5.300; -300.000; -266.000
248.948; -183.200; -886.000; -763.000
249.090;  -93.700; -428.000; -398.000
249.233;  -57.900; -344.000; -381.000
249.375; -155.300; -474.000; -451.000
249.518;   -8.400;  -83.000; -133.000
249.660;   18.700; -103.000;    3.000
249.802; -333.200;-1303.000;-1189.000
249.945; -111.300; -612.000; -540.000
250.087; -234.800; -834.000; -768.000
250.229;  -65.500; -362.000; -480.000
250.371; -119.300; -494.000; -439.000
250.514;  -74.800; -310.000; -244.000
250.656;  -24.100;   69.000;  102.000
250.798; -226.700; -849.000; -800.000
250.940;  -88.300; -322.000; -322.000
251.083;  -30.700; -335.000; -111.000
251.225;  148.700;  338.000;  310.000
251.367;  -69.100; -274.000; -373.000
251.509;  -32.800; -265.000; -210.000
251.651; -178.400; -731.000; -671.000
251.794;  141.000;  538.000;  632.000
251.936; -199.400; -821.000; -747.000
252.078; -119.100; -540.000; -461.000
252.220; -139.300; -645.000; -477.000
252.362;  163.000;  344.000;  462.000
252.504; -121.800; -677.000; -584.000
252.646; -227.900; -875.000; -722.000
252.788;   30.900;   14.000; -128.000
252.931;  -22.100; -257.000; -253.000
253.073;  -77.400; -376.000; -317.000
253.215;    8.300;  141.000;  122.000
253.357;  -23.400;   82.000; -153.000
253.499;  -90.400; -374.000; -234.000
253.641; -178.900; -749.000; -594.000
253.783; -172.000; -609.000; -527.000
253.925; -128.700; -586.000; -591.000
254.067; -213.100; -744.000; -667.000
254.209;  -44.700; -391.000; -259.000
254.351; -253.200; -865.000; -883.000
254.493; -104.300; -441.000; -417.000
254.635; -220.700; -936.000; -818.000
254.777; -156.800; -752.000; -687.000
254.918; -153.700; -512.000; -430.000
255.060; -111.900; -551.000; -395.000
255.202;  -64.500; -473.000; -261.000
255.344; -152.400; -658.000; -455.000
255.486; -140.600; -471.000; -406.000
255.628; -196.400; -780.000; -781.000
255.770; -147.200; -676.000; -536.000
255.912; -140.200; -559.000; -468.000
256.053; -188.300; -730.000; -508.000
256.195;  362.600; 1008.000;  903.000
256.337; -194.200; -861.000; -595.000
256.479;  185.200;  532.000;  416.000
256.621;  -87.200; -394.000; -212.000
256.762; -166.100; -789.000; -742.000
256.904;  135.800;  485.000;  487.000
257.046;  -78.800; -381.000; -271.000
257.188;  -56.800; -351.000; -264.000
257.329; -140.000; -525.000; -464.000
257.471; -216.300; -939.000; -807.000
257.613; -104.500; -584.000; -498.000
257.755; -273.000;-1073.000; -982.000
257.896;   94.100;  286.000;  392.000
258.038; -131.400; -403.000; -352.000
258.180;  -59.700; -354.000; -279.000
258.321; -150.100; -581.000; -457.000
258.463;    7.600;  -71.000;  133.000
258.605; -170.500; -562.000; -570.000
258.746; -208.800; -886.000; -772.000
258.888; -271.800;-1026.000;-1020.000
259.029;   94.300;  121.000;   -8.000
259.171; -172.100; -614.000; -550.000
259.313;   42.700;  -49.000;  -47.000
259.454; -146.400; -536.000; -414.000
259.596;  -77.800; -483.000; -390.000
259.737; -119.400; -590.000; -474.000
259.879;  103.000;  217.000;  311.000
260.020;  241.200;  901.000;  636.000
260.162;  -34.100; -146.000; -253.000
260.303; -215.300; -768.000; -687.000
260.445; -123.300; -609.000; -613.000
260.586;   96.100;  392.000;  157.000
260.728;  -83.400; -360.000; -248.000
260.869;  -99.600; -350.000; -343.000
261.011;  160.100;  706.000;  537.000
261.152;  -94.100; -479.000; -319.000
261.293; -147.600; -576.000; -595.000
261.435;  -37.200; -219.000; -184.000
261.576;  -84.700; -455.000; -325.000
261.718;  143.400;  420.000;  470.000
261.859; -243.000; -940.000; -949.000
262.000; -230.000; -951.000;-1016.000
262.142;    8.900;  -52.000;  -60.000
262.283; -219.300; -808.000; -691.000
262.424; -132.800; -666.000; -625.000
262.566; -292.500;-1161.000; -983.000
262.707; -205.600; -840.000; -830.000
262.848; -228.700; -769.000; -726.000
262.990;  -67.900; -362.000; -345.000
263.131;  222.000;  650.000;  681.000
263.272;   20.800;  -61.000;  -41.000
263.413; -155.300; -589.000; -561.000
263.555; -115.400; -669.000; -143.000
263.696; -149.200; -550.000; -641.000
263.837; -105.400; -449.000; -551.000
263.978;   28.100;   -5.000;  -77.000
264.119;  -52.300; -283.000; -264.000
264.261; -214.300; -847.000; -630.000
264.402;   24.700;   33.000;   40.000
264.543; -132.100; -509.000; -524.000
264.684;    2.700;   61.000;  -50.000
264.825; -122.600; -816.000; -538.000
264.966;   52.100;  -84.000;  -67.000
265.107; -210.900; -646.000; -670.000
265.248; -226.000; -825.000; -812.000
265.390;   -0.700;  152.000;   -9.000
265.531;  -13.700; -238.000; -107.000
265.672; -164.800; -557.000; -630.000
265.813;  174.800;  563.000;  439.000
265.954; -277.300; -959.000; -940.000
266.095;    1.500; -372.000; -322.000
266.236; -169.800; -686.000; -548.000
266.377;  -43.600; -243.000; -297.000
266.518; -126.400; -619.000; -547.000
266.659;   94.900;  170.000;  268.000
266.800;   71.800;   83.000;   85.000
266.941; -143.000; -487.000; -478.000
267.082;   85.900;  354.000;   99.000
267.223;  -68.200; -344.000; -273.000
267.364; -217.500; -892.000; -686.000
267.504;   19.900;    3.000;  135.000
267.645;   31.400;  160.000;   67.000
267.786;  -61.100; -147.000;  -86.000
267.927; -147.100; -473.000; -379.000
268.068;   -5.900; -186.000;  -61.000
268.209;  -63.600; -175.000; -413.000
268.350; -112.100; -388.000; -532.000
268.490; -137.200; -648.000; -521.000
268.631;   71.500;  127.000;  225.000
268.772; -196.800; -874.000; -647.000
268.913;  -76.400; -328.000; -476.000
269.054;   13.600; -117.000;   12.000
269.194;  -75.800; -418.000; -402.000
269.335; -302.600;-1137.000;-1074.000
269.476;   19.400;   33.000;  -35.000
269.617;  -64.100; -347.000; -392.000
269.757; -170.600; -713.000; -646.000
269.898; -192.000; -856.000; -613.000
270.039; -101.900; -415.000; -405.000
270.180; -264.000; -952.000; -816.000
270.320;   20.700; -190.000; -250.000
270.461;  -29.900; -277.000; -249.000
270.602;  -12.900; -186.000; -156.000
270.742; -215.000; -868.000; -943.000
270.883;  -94.100; -442.000; -390.000
271.023;  -88.000; -358.000; -357.000
271.164; -134.200; -607.000; -528.000
271.305; -189.300; -666.000; -654.000
271.445; -143.700; -722.000; -683.000
271.586; -114.900; -462.000; -283.000
271.726;  -65.200; -397.000; -322.000
271.867;  -98.500; -594.000; -534.000
272.008;  321.500; -473.000; -285.000
272.148;  285.700;  462.000;  468.000
272.289;   60.300; -113.000; -181.000
272.429;   32.600;   19.000;  185.000
272.570; -133.700; -633.000; -737.000
272.710; -201.300; -825.000; -775.000
272.851;  -19.900;  113.000; -130.000
272.991; -327.000;-1173.000;-1077.000
273.131;  -86.300; -419.000; -459.000
273.272; -178.000; -683.000; -723.000
273.412;   29.600; -143.000;  -31.000
273.553;  -92.400; -488.000; -507.000
273.693;  339.800;  913.000;  858.000
273.834; -148.100; -894.000; -692.000
273.974; -131.900; -664.000; -615.000
274.114; -154.700; -772.000; -560.000
274.255;  187.900;  414.000;  373.000
274.395;   47.200; -180.000; -125.000
274.535;  130.800;  199.000;  350.000
274.676;   57.900;  225.000;   94.000
274.816;   48.200;  110.000;   34.000
274.956; -130.800; -624.000; -690.000
275.097; -108.300;-1014.000; -922.000
275.237; -175.300; -913.000; -803.000
275.377; -180.300; -778.000; -689.000
275.517; -274.700; -878.000; -937.000
275.658; -122.700; -590.000; -555.000
275.798; -111.400; -606.000; -413.000
275.938;  107.400;  215.000;  323.000
276.078; -157.700; -626.000; -395.000
276.218;   79.700;   99.000;  104.000
276.359; -248.500;-1026.000;-1024.000
276.499; -106.900; -605.000; -446.000
276.639;  -34.100; -305.000; -151.000
276.779;  -66.500; -475.000; -357.000
276.919; -193.900; -783.000; -624.000
277.059;  -30.600; -261.000; -212.000
277.199;  -64.300; -357.000; -259.000
277.340;   81.500;  287.000;  175.000
277.480; -191.300; -840.000; -693.000
277.620;  103.200;  192.000;   16.000
277.760; -412.200;-1533.000;-1294.000
277.900;  101.300;  113.000;   33.000
278.040;   94.000;  137.000;  159.000
278.180;  118.500;  270.000;  170.000
278.320;   41.500;   21.000;   56.000
278.460; -100.800; -443.000; -469.000
278.600; -157.400; -708.000; -598.000
278.740;  149.700;  448.000;  224.000
278.880;  -53.900; -768.000; -791.000
279.020;   94.000; -194.000; -144.000
279.160; -155.200; -672.000; -595.000
279.300; -224.400; -926.000; -873.000
279.440; -142.100; -709.000; -622.000
279.579;  -55.900;-1014.000; -929.000
279.719;  -64.000; -410.000; -394.000
279.859;  134.100;   -4.000;   41.000
279.999;   80.000; -208.000;  101.000
280.139;  -19.000; -435.000; -387.000
280.279; -156.200; -708.000; -745.000
280.419;    9.500; -229.000; -147.000
280.559;  -20.100; -259.000; -180.000
280.698; -151.000; -790.000; -639.000
280.838; -163.700; -778.000; -800.000
280.978; -163.100; -846.000; -790.000
281.118; -184.600; -811.000; -704.000
281.257;   61.200;   24.000;    6.000
281.397; -168.800;-1094.000; -960.000
281.537; -145.300; -599.000; -712.000
281.677;    5.500; -150.000; -101.000
281.816; -149.300; -700.000; -630.000
281.956;  -10.500; -193.000; -257.000
282.096;  -70.700; -539.000; -396.000
282.235; -134.500; -672.000; -638.000
282.375;    8.600; -243.000;  -98.000
282.515; -125.900; -715.000; -707.000
282.654;  115.400;   29.000;  106.000
282.794;  125.600;  388.000;  244.000
282.934;  -75.700; -530.000; -491.000
283.073; -252.700;-1030.000; -857.000
283.213;  -65.100; -460.000; -467.000
283.353;   -7.100; -408.000; -349.000
283.492;  -23.400; -264.000; -296.000
283.632;  -31.500; -254.000; -168.000
283.771; -163.100; -859.000; -730.000
283.911;  -48.600; -369.000; -260.000
284.050; -158.900; -794.000; -748.000
284.190; -293.000;-1229.000;-1096.000
284.329; -259.800;-1055.000; -964.000
284.469;  -80.700; -516.000; -591.000
284.608;  -74.200; -559.000; -598.000
284.748; -134.900; -614.000; -570.000
284.887;   48.400;  -87.000;  -20.000
285.027; -211.400; -844.000; -892.000
285.166;   -0.100; -192.000; -249.000
285.306;   83.000; -116.000;  -33.000
285.445;  -48.200; -229.000; -343.000
285.584; -137.600; -630.000; -494.000
285.724;  -10.600; -282.000; -322.000
285.863; -200.400; -857.000; -507.000
286.002;  -72.500; -366.000; -276.000
286.142; -189.500; -715.000; -622.000
286.281; -106.400; -525.000; -493.000
286.420; -104.800; -554.000; -417.000
286.560;  234.000;  653.000;  623.000
286.699; -238.000; -958.000; -912.000
286.838; -152.700; -590.000; -591.000
286.978; -136.600; -533.000; -537.000
287.117; -248.100;-1085.000; -950.000
287.256;   -5.900; -228.000; -211.000
287.395;  -57.500; -197.000; -378.000
287.535;  -58.800; -370.000; -298.000
287.674; -114.100; -509.000; -484.000
287.813;  145.100;  661.000;  533.000
287.952; -226.800;-1010.000; -871.000
288.091; -228.800;-1049.000; -915.000
288.231;   98.300;   13.000;   15.000
288.370; -313.200;-1217.000;-1200.000
288.509; -159.500; -728.000; -645.000
288.648; -143.900; -770.000; -548.000
288.787;   -6.900; -243.000;  -87.000
288.926; -101.000; -454.000; -475.000
289.065;  324.200;  859.000;  672.000
289.204;  -72.100; -377.000; -217.000
289.344; -144.900; -791.000; -690.000
289.483;  101.300;  416.000;  304.000
289.622;   -1.000; -291.000; -149.000
289.761;   10.600; -309.000; -166.000
289.900; -164.200; -785.000; -626.000
290.039;   16.400;  -12.000;  -95.000
290.178;  -20.600; -274.000; -180.000
290.317; -122.400; -618.000; -479.000
290.456;  -80.200; -463.000; -451.000
290.595; -228.100; -961.000; -833.000
290.734; -245.100; -904.000; -891.000
290.873;  -85.400; -456.000; -420.000
291.011; -177.700; -833.000; -843.000
291.150; -183.300; -770.000; -682.000
291.289;   -1.700; -343.000; -110.000
291.428; -149.200; -599.000; -480.000
291.567;  -68.000; -370.000; -442.000
291.706;   18.000;  109.000;  154.000
291.845; -148.400; -597.000; -505.000
291.984; -287.300;-1234.000;-1061.000
292.122;  220.200;  602.000;  582.000
292.261;  143.000;  620.000;  463.000
292.400;   92.000; -144.000;  211.000
292.539; -204.500; -959.000; -813.000
292.678;  -61.600; -325.000; -300.000
292.816; -302.900;-1136.000; -965.000
292.955; -133.400; -844.000; -684.000
293.094;   -3.800; -173.000; -337.000
293.233;  -47.500; -556.000; -400.000
293.371;  -33.000; -225.000;  -84.000
293.510; -169.900; -866.000; -780.000
293.649; -235.300; -959.000; -924.000
293.787;  -93.200;-1083.000;-1012.000
293.926;   67.000; -113.000;  -32.000
294.065;  -23.300; -379.000; -290.000
294.203;  144.600;  298.000;  406.000
294.342;  126.800;   74.000;  156.000
294.481;11532.900;51180.000; -836.000
294.619;  -18.400; -425.000; -582.000
294.758; -246.700;-1230.000;-1137.000
294.896;  221.700; -125.000;    5.000
295.035; -215.500;-1040.000;-1006.000
295.174; -225.100;-1082.000; -954.000
295.312;  -33.400; -323.000; -203.000
295.451;   20.800; -307.000; -428.000
295.589;  -35.300; -389.000; -518.000
295.728;   89.300; -292.000; -165.000
295.866;   77.100;  -36.000;  -51.000
296.005;  -53.600; -584.000; -341.000
296.143;  -92.800; -558.000; -596.000
296.282; -161.100; -957.000; -881.000
296.420; -102.000; -657.000; -557.000
296.559;  -98.600; -892.000; -633.000
296.697;   75.400; -847.000; -665.000
296.835;  160.300;-1141.000;-1002.000
296.974;  153.900;  -23.000;   39.000
297.112;   57.300; -443.000; -504.000
297.251;  -87.800; -815.000; -755.000
297.389;  252.300; -576.000; -438.000
297.527;  161.800; -145.000;  -83.000
297.666;  -31.500; -486.000; -438.000
297.804;  -59.700; -404.000; -264.000
297.942;   68.300; -136.000; -161.000
298.081;   28.100; -183.000;   63.000
298.219;  216.100;  -17.000;  -19.000
298.357;  142.500; -144.000;  -71.000
298.495;  104.200; -810.000; -812.000
298.634;  196.600;  245.000;  219.000
298.772;  174.200; -220.000; -338.000
298.910;  -28.900; -309.000; -182.000
299.048;   14.400; -130.000; -153.000
299.187;  -13.900; -350.000; -250.000
299.325;   70.500;   52.000;  122.000
299.463;  139.600; -389.000; -299.000
299.601;  303.100; -327.000; -271.000
299.739; -166.900; -908.000; -883.000
299.877; -117.000; -791.000; -703.000
300.016;  -67.300;-1095.000; -935.000
300.154;  372.200;  -19.000; -161.000
300.292;  214.900; -428.000; -348.000
300.430;  122.100; -408.000; -291.000
300.568; -167.700; -940.000; -874.000
300.706;  -53.400; -366.000; -469.000
300.844; -139.400;-1108.000; -979.000
300.982;  271.000;  246.000;  282.000
301.120; -187.000; -965.000; -866.000
301.258;  -86.700; -812.000; -705.000
301.396;  127.800;  104.000;  -41.000
301.534;  198.800; -218.000; -293.000
301.672;   72.900; -664.000; -521.000
301.810;  110.000; -613.000; -545.000
301.948;  366.100;   53.000;  149.000
302.086; 1181.500; -250.000;  -32.000
302.224; 1994.900; -610.000; -585.000
302.362;  159.700; -558.000; -622.000
302.500;   12.000; -923.000; -893.000
302.638;  272.300;  128.000;  245.000
302.776;   69.600; -352.000; -408.000
302.913;  170.700;  447.000;  236.000
303.051;   47.000;  -86.000;  -23.000
303.189;  196.400;   90.000;  118.000
303.327;   18.100; -341.000; -256.000
303.465; -105.900; -832.000; -588.000
303.603; -152.700; -805.000; -604.000
303.740;  274.800;  417.000;  241.000
303.878;   97.900; -800.000; -759.000
304.016; -154.400; -915.000; -790.000
304.154; -218.000;-1123.000;-1152.000
304.291;   -5.400; -505.000; -554.000
304.429;   89.400;  102.000;   74.000
304.567; -183.100; -908.000; -893.000
304.705;  -47.400; -408.000; -515.000
304.842;  242.900; -616.000; -540.000
304.980;  189.700;  215.000;   35.000
305.118;  169.100; -367.000; -365.000
305.255;  -38.900; -945.000; -927.000
305.393;  167.700;  178.000;  239.000
305.531; -179.500;-1173.000; -956.000
305.668;  -79.700; -663.000; -582.000
305.806;  213.300; -358.000; -439.000
305.943;  222.000; -629.000; -637.000
306.081;  135.100; -378.000; -267.000
306.219; -157.500; -863.000; -748.000
306.356;   48.600;  158.000;   27.000
306.494;  319.000;  981.000;  761.000
306.631;   79.500;  -11.000;  -55.000
306.769;   70.200; -613.000; -485.000
306.906;   58.200; -284.000; -258.000
307.044;  -67.800; -473.000; -488.000
307.181;  -18.600; -410.000; -332.000
307.319;   92.400;  112.000;   87.000
307.456; -288.000;-1191.000;-1153.000
307.594; -169.600; -980.000; -727.000
307.731;   35.600; -371.000; -164.000
307.868;   89.600;  -15.000;   20.000
308.006; -204.000; -961.000; -847.000
308.143;  -77.000; -618.000; -330.000
308.281;  514.800;  -37.000; -254.000
308.418;   73.300; -748.000; -640.000
308.555;  -63.600; -400.000; -250.000
308.693; -105.100; -577.000; -573.000
308.830; -136.400; -712.000; -657.000
308.967;   67.000; -215.000;  -95.000
309.105;   10.600; -507.000; -396.000
309.242;  210.700; -468.000; -367.000
309.379;  924.600; -577.000; -655.000
309.517;    1.400; -936.000; -948.000
309.654; -115.200; -910.000; -734.000
309.791;  -78.700; -662.000; -580.000
309.928; -163.400; -977.000; -914.000
310.065;  415.800;  819.000;  697.000
310.203;   68.200; -825.000; -850.000
310.340;  104.500; -465.000; -321.000
310.477;  -95.600; -412.000; -516.000
310.614;  -77.700; -383.000; -473.000
310.751;  -65.200; -427.000; -518.000
310.889;   18.100;    1.000;   11.000
311.026; -253.000;-1161.000; -939.000
311.163;  -42.500; -386.000; -380.000
311.300;  -80.200; -512.000; -479.000
311.437;  -80.200; -658.000; -619.000
311.574; -265.600;-1226.000; -985.000
311.711;  -62.800; -595.000; -433.000
311.848;   -0.500; -380.000; -388.000
311.985;   90.900;  270.000;   93.000
312.122; -149.100; -932.000; -762.000
312.259; -179.200; -941.000; -994.000
312.396;  -96.400; -508.000; -551.000
312.533; -115.500; -812.000; -790.000
312.670; -193.300;-1070.000; -898.000
312.807;  -14.400; -352.000; -367.000
312.944;  -89.600; -513.000; -611.000
313.081;   27.500; -150.000; -415.000
313.218; -141.700;-1111.000; -867.000
313.355;   54.400; -531.000; -449.000
313.492;  131.000; -455.000; -292.000
313.629;  390.600;  815.000;  735.000
313.766; -255.900;-1176.000;-1008.000
313.902;   62.200; -186.000;   21.000
314.039;  -45.500; -372.000; -289.000
314.176;  163.400;  286.000;  192.000
314.313;  -83.900; -569.000; -473.000
314.450;  -95.100; -788.000; -684.000
314.587;  -41.100; -468.000; -480.000
314.723;   69.500;  -78.000;  130.000
314.860;  191.100;  318.000;  332.000
314.997;  125.800;  223.000;  142.000
315.134;    5.100; -385.000; -368.000
315.270;   -1.800; -480.000; -496.000
315.407; -196.700;-1094.000; -967.000
315.544;  -25.900; -657.000; -538.000
315.681;  -60.300; -681.000; -565.000
315.817;  131.900; -133.000; -176.000
315.954;  133.900; -613.000; -392.000
316.091; -184.100;-1045.000;-1023.000
316.227;   -4.500;  -71.000; -179.000
316.364;   91.100;   23.000;    6.000
316.500;  -30.100; -113.000; -300.000
316.637;  -19.800; -181.000; -302.000
316.774; -133.900; -625.000; -358.000
316.910; -111.300; -598.000; -629.000
317.047;  -69.900; -487.000; -351.000
317.183;  -50.800; -435.000; -566.000
317.320;   23.700; -367.000; -321.000
317.456;  -96.700; -733.000; -805.000
317.593; -107.100; -598.000; -641.000
317.729;   75.900;  168.000;  -67.000
317.866; -327.800;-1434.000;-1285.000
318.002; -161.600; -708.000; -948.000
318.139; -159.200; -883.000; -867.000
318.275; -161.000;-1003.000; -738.000
318.412;  -55.700; -517.000; -336.000
318.548;   -9.100; -751.000; -720.000
318.685; -180.300; -985.000; -888.000
318.821; -139.900; -762.000; -735.000
318.957;   32.600;   34.000;  -23.000
319.094;  170.900;  297.000;  154.000
319.230;  -68.800; -756.000; -742.000
319.367;  322.700; -471.000; -520.000
319.503;  146.000; -538.000; -436.000
319.639; -148.200; -877.000; -793.000
319.775;  -83.400; -750.000; -685.000
319.912;  -44.300; -424.000; -519.000
320.048; -151.900;-1184.000;-1184.000
320.184;  191.200;   59.000;   70.000
320.321;  -77.400; -497.000; -467.000
320.457;  156.900;  475.000;  662.000
320.593;  -95.700; -375.000; -382.000
320.729; -165.100; -732.000; -734.000
320.866; -100.900; -577.000; -635.000
321.002;  -96.800; -759.000; -809.000
321.138;   28.900; -135.000; -211.000
321.274;  178.300; -148.000; -115.000
321.410;   -5.500; -585.000; -353.000
321.546;   -9.000;-1011.000; -911.000
321.683;  200.100;  400.000;  185.000
321.819;   65.300;  -48.000; -117.000
321.955; -163.500; -743.000; -722.000
322.091;  -27.500; -585.000; -540.000
322.227;   43.500; -382.000; -202.000
322.363;   38.400; -320.000; -215.000
322.499;  -32.900; -343.000; -331.000
322.635;  375.100;  636.000;  443.000
322.771;  107.500; -139.000;   12.000
322.907;  233.400;  129.000;  327.000
323.043;    3.700; -115.000; -206.000
323.179;  -18.500; -394.000; -363.000
323.315;  117.700; -401.000; -371.000
323.451;  310.500; -328.000; -236.000
323.587;  191.900;  -60.000;  -77.000
323.723;   79.400; -682.000; -601.000
323.859;   34.200; -258.000;  -76.000
323.995;   -6.000; -467.000; -409.000
324.131; -237.400; -967.000; -892.000
324.267;  -44.500; -254.000; -276.000
324.402; -203.100; -960.000; -983.000
324.538;   34.200; -279.000; -104.000
324.674;  122.200;  164.000;   77.000
324.810;  403.500;  226.000;  308.000
324.946;  120.500; -810.000; -658.000
325.082;  -66.100; -568.000; -475.000
325.217;   48.400;  -62.000;   16.000
325.353; -168.800; -764.000; -659.000
325.489; -125.000; -540.000; -506.000
325.625; -125.900; -579.000; -525.000
325.760;  142.900;  517.000;  376.000
325.896;  -35.600; -515.000; -702.000
326.032;  -39.600; -403.000; -352.000
326.168;  -67.300; -462.000; -369.000
326.303;  -88.700; -352.000; -461.000
326.439;    7.700; -336.000; -276.000
326.575;   66.600; -190.000;  -29.000
326.710;   67.800; -156.000;  -30.000
326.846;   61.700;  146.000;  103.000
326.982; -126.200; -530.000; -548.000
327.117;  -99.200; -481.000; -442.000
327.253; -121.600; -745.000; -742.000
327.388; -191.900;-1137.000;-1153.000
327.524;   -3.700; -811.000; -578.000
327.659;   14.100;  -58.000;  -22.000
327.795;   14.900;   69.000;   45.000
327.931; -151.100; -723.000; -499.000
328.066;    7.800; -417.000; -276.000
328.202;   38.100;   12.000; -129.000
328.337;  291.600;  957.000;  713.000
328.473;   61.300;  -12.000;  -74.000
328.608;   24.200; -256.000; -267.000
328.743; -127.300; -799.000; -664.000
328.879;  103.500;  214.000;  114.000
329.014;  -66.500; -102.000; -122.000
329.150; -113.300; -358.000; -483.000
329.285;  -95.100; -465.000; -466.000
329.421;  -34.400; -548.000; -246.000
329.556;    3.700;  -36.000;   85.000
329.691; -162.000; -633.000; -615.000
329.827; -120.600; -626.000; -480.000
329.962;  -24.300;  131.000; -301.000
330.097; -151.600; -673.000; -585.000
330.233;  -31.200; -410.000; -223.000
330.368; -207.500; -839.000; -628.000
330.503;   53.400;    3.000;   98.000
330.638;   79.700;  -93.000; -125.000
330.774;  -76.300; -609.000; -530.000
330.909;  -50.000; -434.000; -244.000
331.044; -138.200; -714.000; -708.000
331.179; -292.200;-1217.000;-1109.000
331.315;   81.000;   77.000;   20.000
331.450;   99.900;  157.000;  285.000
331.585; -124.000; -805.000; -706.000
331.720; -113.300; -510.000; -460.000
331.855;   41.300;  -35.000; -102.000
331.990;  394.100;   62.000;  138.000
332.126;  240.700; -110.000;   71.000
332.261;    6.800; -379.000; -265.000
332.396;    9.200; -135.000; -242.000
332.531; -173.200;-1074.000;-1031.000
332.666;  105.800; -519.000; -363.000
332.801; -117.800; -726.000; -807.000
332.936;   24.100; -192.000; -122.000
333.071; -243.400; -870.000; -817.000
333.206;  120.100;  307.000;  379.000
333.341;  153.800;  344.000;  418.000
333.476; -126.900; -627.000; -623.000
333.611;  -24.100; -251.000; -173.000
333.746;  -15.700; -381.000; -464.000
333.881; -155.000; -973.000; -935.000
334.016; -198.800; -936.000; -917.000
334.151; -172.500; -746.000; -702.000
334.286;  132.500;  152.000;  186.000
334.421;   49.300; -125.000; -178.000
334.556; -104.500; -611.000; -567.000
334.690;  -83.100; -631.000; -577.000
334.825;  191.500;  381.000;   83.000
334.960;  -37.500; -285.000; -413.000
335.095;   89.300;  135.000;  -91.000
335.230; -160.700; -722.000; -738.000
335.365; -202.800;-1084.000; -990.000
335.499; -200.300;-1108.000;-1037.000
335.634;  136.500;    9.000;  534.000
335.769; -114.000; -755.000; -720.000
335.904;  -61.800; -603.000; -561.000
336.038;  -42.000; -735.000; -657.000
336.173; -157.800;-1206.000;-1194.000
336.308;   91.300; -116.000; -189.000
336.443;   74.000; -544.000; -634.000
336.577;  -80.000; -936.000; -787.000
336.712;  192.600;   -4.000;  -12.000
336.847;    8.300; -724.000; -607.000
336.981;  201.600; -272.000; -208.000
337.116;  664.200;  615.000;  501.000
337.250;  401.800; -434.000; -421.000
337.385;  393.500; -297.000; -208.000
337.520;  123.300; -632.000; -603.000
337.654;  -35.200; -215.000; -126.000
337.789; -186.100; -989.000; -933.000
337.923;  -20.800; -104.000; -205.000
338.058; -119.900; -673.000; -738.000
338.192;   -3.000; -611.000; -488.000
338.327;   70.400;  -18.000; -155.000
338.461;  -90.200; -299.000; -469.000
338.596; -134.500; -780.000; -638.000
338.730; -156.800; -767.000; -803.000
338.865;  187.400;  -46.000; -140.000
338.999;  -97.900; -846.000; -702.000
339.134;  -43.100; -634.000; -536.000
339.268;   54.700; -741.000; -603.000
339.403;  618.500; -740.000; -775.000
339.537;  156.800; -894.000; -820.000
339.671; -155.000; -829.000; -813.000
339.806;  -94.900; -556.000; -512.000
339.940;   97.300; -261.000; -235.000
340.074; -138.400; -685.000; -510.000
340.209;   -7.400; -351.000; -230.000
340.343; -136.900; -517.000; -573.000
340.477;  392.000;  998.000; 1036.000
340.612;  -86.600;-1033.000; -900.000
340.746;  223.900; -199.000; -243.000
340.880; -111.300; -924.000; -785.000
341.014;   41.000;  -45.000; -154.000
341.149; -150.900; -756.000; -718.000
341.283; -183.700; -839.000; -754.000
341.417; -120.100;-1124.000; -938.000
341.551;  371.200; -768.000; -708.000
341.685;   12.200; -633.000; -611.000
341.820;  -66.700; -562.000; -493.000
341.954;  -42.600; -218.000; -349.000
342.088; -245.600;-1102.000;-1019.000
342.222;  119.900;  565.000;  618.000
342.356;  -48.100; -395.000; -335.000
342.490; -115.700; -880.000; -841.000
342.624;  -24.600; -339.000; -242.000
342.758;   64.800; -364.000; -312.000
342.892;  -68.800; -710.000; -585.000
343.026;    5.200;  -58.000; -116.000
343.160;  -57.200; -426.000; -376.000
343.294;  -75.800; -474.000; -337.000
343.428;   -2.900; -488.000; -448.000
343.562;   39.200; -172.000;  -23.000
343.696;    5.900; -385.000; -314.000
343.830;   46.500; -362.000; -356.000
343.964;   93.100; -231.000; -168.000
344.098; 1913.600;  199.000;   70.000
344.232; 1658.500; -266.000; -127.000
344.366;  244.300; -567.000; -453.000
344.500;  188.000; -665.000; -744.000
344.634;  139.900; -324.000; -164.000
344.768;   66.100; -531.000; -341.000
344.902;  110.800;  278.000;  256.000
345.035; -102.700; -556.000; -496.000
345.169; -218.000; -933.000; -656.000
345.303;   -8.200; -308.000; -482.000
345.437; -109.500; -826.000; -717.000
345.571;  -99.800; -675.000; -594.000
345.704;  -72.100; -309.000; -532.000
345.838;   55.800; -331.000; -284.000
345.972;   -3.800; -543.000; -495.000
346.106;  304.100; -179.000; -190.000
346.239;  789.000; -312.000; -243.000
346.373;   92.800; -343.000; -302.000
346.507; -232.200; -950.000; -962.000
346.640;  354.400;  -30.000;   13.000
346.774;   -0.400; -650.000; -797.000
346.908;   67.600; -138.000;  -11.000
347.041; -145.100; -646.000; -593.000
347.175;   49.900;  259.000;   27.000
347.309;  -60.400; -698.000; -628.000
347.442; -151.700; -883.000; -732.000
347.576;  645.600;  670.000;  668.000
347.709;  482.900; -123.000;  -52.000
347.843; -118.800; -933.000; -825.000
347.976;  155.900;  235.000;  294.000
348.110; -288.100;-1268.000;-1186.000
348.243; -137.500; -679.000; -772.000
348.377;   31.600;  -26.000;   60.000
348.510;  177.500;  403.000;  540.000
348.644;   20.500;  -37.000; -159.000
348.777;   72.000;  180.000;  191.000
348.911;  -38.400; -142.000; -112.000
349.044;  414.100;  471.000;  448.000
349.178;  396.800;-1069.000;-1006.000
349.311;  285.100;  141.000;  255.000
349.444;  -47.500; -927.000; -813.000
349.578;   34.500; -347.000; -200.000
349.711; -126.800; -959.000; -862.000
349.845;   75.100; -661.000; -591.000
349.978; -229.900;-1224.000;-1137.000
350.111;  -82.600; -546.000; -612.000
350.244;  -87.600; -596.000; -700.000
350.378;   91.700; -392.000; -393.000
350.511;  -78.900; -393.000; -426.000
350.644; -154.200; -808.000; -806.000
350.778;  100.300;  168.000;  104.000
350.911;   62.000;  134.000;  140.000
351.044; -126.600; -685.000; -615.000
351.177;    6.200; -321.000; -281.000
351.310;   50.700;    3.000; -131.000
351.444;  -95.900; -888.000; -788.000
351.577;  344.200;  140.000;   90.000
351.710;  289.700;  593.000;  417.000
351.843;   -7.300; -165.000;  -77.000
351.976;   58.900;  149.000;  -79.000
352.109; -100.400; -621.000; -612.000
352.242;   23.600; -464.000; -419.000
352.376;  -39.400; -580.000; -636.000
352.509;  455.800; -437.000; -356.000
352.642;   85.700; -654.000; -604.000
352.775;  201.900; -141.000;  -98.000
352.908; -165.800; -933.000; -904.000
353.041; -141.500; -814.000; -824.000
353.174;  -38.100; -551.000; -424.000
353.307; -124.700; -753.000; -764.000
353.440;  193.300;  541.000;  453.000
353.573; -158.700; -957.000;-1008.000
353.706;   27.000; -384.000; -558.000
353.839;   29.000; -264.000; -220.000
353.971; -123.200; -657.000; -512.000
354.104; -107.800; -896.000; -835.000
354.237;  -23.100; -627.000; -662.000
354.370; -109.800; -846.000; -879.000
354.503; -319.200;-1231.000;-1308.000
354.636;   -0.900; -529.000; -348.000
354.769; -185.400; -937.000; -860.000
354.902;   30.200; -230.000; -139.000
355.034;   22.500; -164.000; -220.000
355.167;  -11.000; -262.000; -162.000
355.300; -157.700;-1061.000; -880.000
355.433; 1599.900;  -71.000;  -14.000
355.565; 2454.500; -402.000; -384.000
355.698;  619.000; -356.000; -296.000
355.831;   36.400; -882.000; -801.000
355.964;  256.700; -285.000; -170.000
356.096; -115.600; -856.000; -843.000
356.229;  127.000; -523.000; -530.000
356.362;  566.800; -373.000; -266.000
356.494; 1031.500; -229.000; -162.000
356.627; 1026.500;  269.000;  377.000
356.760; 1159.800;  120.000;   53.000
356.892; 1504.300; -286.000; -601.000
357.025; 1470.300;  403.000;  389.000
357.157; 1317.300; -167.000; -179.000
357.290;  961.100; -856.000; -713.000
357.423;  338.200; -667.000; -556.000
357.555;  291.500; -217.000; -228.000
357.688;  327.200; -483.000; -364.000
357.820;  804.100; -870.000; -877.000
357.953; 6814.200; -563.000; -589.000
358.085; 1584.700; -632.000; -612.000
358.218; 2800.900;-1131.000; -932.000
358.350;  577.500;  -58.000;  312.000
358.483; -176.900;-1300.000;-1187.000
358.615;   31.800;-1182.000;-1078.000
358.747;  -57.300;-1187.000;-1058.000
358.880;  146.500; -810.000; -744.000
359.012;   86.200; -376.000; -202.000
359.145;  -22.100; -480.000; -511.000
359.277;  115.100; -962.000; -913.000
359.409; 5952.600;  536.000;  231.000
359.542; 1490.100; -738.000; -688.000
359.674;  182.700;   46.000;   13.000
359.806;  -51.600; -565.000; -438.000
359.939;  -35.300; -617.000; -516.000
360.071;   -2.500; -583.000; -579.000
360.203;    7.300; -411.000; -364.000
360.335;  143.100;  164.000;  -16.000
360.468;  413.700; -249.000; -307.000
360.600; 4425.700; -547.000; -454.000
360.732; 4227.000; -546.000; -423.000
360.864;  614.500;-1216.000;-1044.000
360.996;  710.400; -516.000; -554.000
361.129;  183.000; -389.000; -598.000
361.261;  119.200;  110.000; -113.000
361.393;   45.600; -252.000; -214.000
361.525;  125.800;   94.000;  244.000
361.657;   16.800; -821.000; -703.000
361.789;  108.500; -139.000; -155.000
361.921;  607.600; -642.000; -593.000
362.053;  591.500;  524.000;  541.000
362.185;  206.000;  288.000;   72.000
362.318;  -66.100; -709.000; -705.000
362.450;  392.200;  294.000;  444.000
362.582;  452.900; -913.000; -870.000
362.714;   28.000; -353.000; -332.000
362.846; -104.500; -606.000; -490.000
362.978; -215.800; -941.000; -811.000
363.109;  194.200; -161.000; -260.000
363.241; 1032.000; -739.000; -749.000
363.373;  744.100; -649.000; -564.000
363.505; 1053.000; -186.000;  -91.000
363.637;  250.000; -787.000; -601.000
363.769; -211.200;-1067.000;-1080.000
363.901;  -67.400; -596.000; -654.000
364.033; -192.400;-1103.000;-1062.000
364.165;   55.200; -283.000; -283.000
364.296;  191.800; -316.000; -177.000
364.428;   75.500;-1344.000;-1220.000
364.560;  -87.400; -679.000; -661.000
364.692;  -80.200; -738.000; -835.000
364.824;  713.000; -588.000; -456.000
364.955;  796.600; -402.000; -564.000
365.087; 1252.300;-1097.000; -852.000
365.219;   62.200; -686.000; -816.000
365.351;  -46.500; -526.000; -572.000
365.482;  225.200;  300.000;  240.000
365.614;  -36.900; -402.000; -314.000
365.746; -150.200; -729.000; -752.000
365.877; -147.700; -706.000; -672.000
366.009;  451.900;  -35.000;  -62.000
366.141; -178.500;-1249.000;-1134.000
366.272; -162.200; -803.000; -719.000
366.404; -161.800;-1005.000; -874.000
366.535;   59.300; -139.000;  -12.000
366.667; -133.300; -644.000; -649.000
366.799;  148.300;  353.000;  203.000
366.930; -156.600; -862.000; -996.000
367.062;  275.900; -639.000; -613.000
367.193;  208.000; -872.000; -842.000
367.325; -103.000; -580.000; -684.000
367.456;  270.600; -246.000;   31.000
367.588;  324.700; -371.000; -318.000
367.719;   92.100;  -44.000;  -45.000
367.851;   31.700; -222.000; -241.000
367.982;  -28.500; -875.000; -732.000
368.113;  303.900; -475.000; -358.000
368.245; -183.700; -960.000; -841.000
368.376;   55.600; -254.000; -302.000
368.508;   12.100; -188.000; -263.000
368.639; -221.000;-1166.000;-1034.000
368.770;   11.900; -670.000; -589.000
368.902;  -53.900; -836.000; -926.000
369.033; -155.700; -906.000; -855.000
369.164;  -20.200; -720.000; -653.000
369.296; -155.100; -452.000; -601.000
369.427;   80.900; -209.000; -144.000
369.558;    1.100; -593.000; -377.000
369.689; -118.400; -721.000; -569.000
369.821; -197.900; -951.000; -845.000
369.952;   55.500;   42.000; -108.000
370.083;  -36.100; -229.000; -108.000
370.214; -103.700; -735.000; -650.000
370.345;   68.500;   65.000;   81.000
370.477; -117.200; -810.000; -790.000
370.608;  601.700; -328.000; -264.000
370.739;  -58.400;-1233.000;-1292.000
370.870;  -15.000;-1102.000; -923.000
371.001;  285.500; -378.000; -467.000
371.132;  -87.200; -754.000; -735.000
371.263;   52.800;  -42.000; -148.000
371.394; -195.000; -841.000; -748.000
371.525;  128.400;  345.000;  225.000
371.657; -116.500; -808.000; -670.000
371.788;  204.300;  103.000;  199.000
371.919;  460.300; -384.000; -304.000
372.050; 7392.800;  -91.000; -156.000
372.181; 2114.200; -188.000; -294.000
372.311;  874.900;   42.000; -127.000
372.442;  160.300; -457.000; -451.000
372.573;   40.200; -444.000; -340.000
372.704; -178.800;-1008.000; -980.000
372.835;  239.900; -228.000; -289.000
372.966;  -39.100; -646.000; -554.000
373.097;  -48.700; -575.000; -711.000
373.228;  -33.600; -717.000; -542.000
373.359;  381.600; -824.000; -536.000
373.490; 2043.800; -881.000; -727.000
373.620; 2462.000;-1001.000; -803.000
373.751; 3873.200; -332.000; -396.000
373.882; 1693.500; -663.000; -733.000
374.013;  209.200; -449.000; -262.000
374.143;  -34.900; -581.000; -659.000
374.274; -126.100; -987.000; -908.000
374.405;  440.300; -388.000; -276.000
374.536; 1041.300; -526.000; -387.000
374.666; 2432.200; -759.000; -807.000
374.797;  588.900; -817.000; -868.000
374.928; 1986.600; -710.000; -560.000
375.058; 1968.900; -535.000; -500.000
375.189;  217.900;  -59.000;  -93.000
375.320; -172.900; -928.000;-1034.000
375.450;  -17.500; -625.000; -616.000
375.581;  -21.700; -526.000; -436.000
375.712;   13.100; -574.000; -250.000
375.842;  746.900; -438.000; -415.000
375.973;  558.200; -554.000; -513.000
376.103;   34.500; -665.000; -648.000
376.234;  -81.000; -531.000; -552.000
376.364;   -3.300; -944.000; -867.000
376.495;  799.700;  925.000;  529.000
376.625;  107.600; -472.000; -485.000
376.756;  203.000; -709.000; -678.000
376.886;  -60.800;-1178.000;-1026.000
377.017;   71.800;-1048.000;-1061.000
377.147;  532.600; -786.000; -782.000
377.278;  158.600;  174.000;  228.000
377.408; -187.600; -801.000; -815.000
377.538; -170.000; -707.000; -693.000
377.669;  -84.600; -537.000; -613.000
377.799;  -91.600; -645.000; -635.000
377.929;  -27.300; -610.000; -428.000
378.060; -146.300; -781.000; -847.000
378.190;  -24.700; -726.000; -531.000
378.320;  -40.900; -401.000; -406.000
378.451;   70.600; -131.000;  -22.000
378.581;   89.500;  -67.000; -110.000
378.711;  398.200; 1035.000;  866.000
378.841;   77.600; -533.000; -675.000
378.972;  -51.600; -871.000; -751.000
379.102;  107.400; -652.000; -579.000
379.232;   56.500; -126.000;  -73.000
379.362; -123.900;-1001.000; -885.000
379.492;  141.600; -373.000; -424.000
379.623;  295.000;    0.000;  111.000
379.753;  -93.300;-1107.000; -974.000
379.883;  517.300;   59.000;  156.000
380.013;   55.600;-1081.000;-1017.000
380.143; -142.100;-1097.000;-1056.000
380.273; -139.400; -985.000; -861.000
380.403;   98.700; -344.000; -257.000
380.533;   41.200; -651.000; -664.000
380.663;  250.300;  173.000;  128.000
380.793; -109.500;-1027.000;-1074.000
380.923;   39.800; -103.000;  -34.000
381.053; -107.500; -613.000; -623.000
381.183;   41.700; -106.000; -248.000
381.313;  157.100; -656.000; -470.000
381.443;  156.300; -692.000; -473.000
381.573;  567.300; -402.000; -409.000
381.703;  675.300;-1249.000;-1095.000
381.833; -148.300;-1454.000;-1336.000
381.963;  303.500; -134.000;  -87.000
382.093; 2787.700; -925.000; -909.000
382.223;  846.400; -713.000; -602.000
382.353;   64.800; -801.000; -608.000
382.482;  899.000;-1091.000; -964.000
382.612; 1651.200; -872.000; -644.000
382.742;  898.000; -695.000; -622.000
382.872;  693.400; -565.000; -551.000
383.002;  225.300;  347.000; -132.000
383.131;   64.500; -226.000; -160.000
383.261;   14.600; -706.000; -768.000
383.391;  539.700; -552.000; -377.000
383.521; 4750.000;  451.000;  263.000
383.650; 1015.400; -947.000; -904.000
383.780;   18.300; -783.000; -656.000
383.910;  317.600;  880.000;  802.000
384.039;  133.700; -794.000; -656.000
384.169;  539.100;-1205.000;-1017.000
384.299;   55.700; -650.000; -662.000
384.428;  -47.200; -764.000; -680.000
384.558;   45.100; -308.000; -275.000
384.687;   49.200; -414.000; -334.000
384.817;  153.500;   75.000;   -2.000
384.947;  162.800; -234.000; -141.000
385.076;  712.000;  982.000;  912.000
385.206;  338.900;  369.000;  480.000
385.335;   30.600; -549.000; -417.000
385.465;  -20.400; -655.000; -663.000
385.594;  407.700;  -53.000;  -44.000
385.724; 1074.800; -868.000; -838.000
385.853;  324.200; -296.000; -270.000
385.982; 3044.100; -743.000; -787.000
386.112; 4515.100;-1052.000; -871.000
386.241;  394.000; -307.000; -312.000
386.371;  120.200; -174.000;  -87.000
386.500;   97.200; -825.000; -789.000
386.629;  138.900; -874.000; -817.000
386.759;  248.400;  -43.000;   68.000
386.888;  152.000; -170.000; -250.000
387.017;  -48.000; -648.000; -620.000
387.147;  -16.000; -771.000; -798.000
387.276;  116.700; -410.000; -397.000
387.405;  140.300; -398.000; -342.000
387.535;   22.100; -452.000; -361.000
387.664;  -20.200; -692.000; -620.000
387.793;  279.700; -198.000; -113.000
387.922; 1216.500;  255.000;  200.000
388.052;  199.600; -576.000; -423.000
388.181;  236.500; -342.000; -472.000
388.310;  262.400; -889.000; -710.000
388.439;   54.100; -749.000; -742.000
388.568;  498.000;  365.000;  244.000
388.697; 2340.500; -756.000; -653.000
388.826;  479.400; -768.000; -666.000
388.956;  198.400; -285.000; -307.000
389.085;   24.400; -347.000; -287.000
389.214; -142.600; -842.000; -872.000
389.343;  -46.300; -645.000; -413.000
389.472;  800.200;  126.000;  149.000
389.601;  957.400;   91.000;    0.000
389.730;   84.900; -568.000; -687.000
389.859;  261.700;  226.000;   46.000
389.988;  508.700; -423.000; -408.000
390.117;  374.500; -168.000; -146.000
390.246;  112.400; -331.000; -320.000
390.375;  320.300; -673.000; -626.000
390.504;  -60.200; -703.000; -621.000
390.633;  -95.600; -672.000; -726.000
390.761;  -75.500; -732.000; -645.000
390.890;  136.800;   -4.000; -130.000
391.019;   11.300; -421.000; -441.000
391.148; -184.500; -826.000; -855.000
391.277;  -44.600; -576.000; -493.000
391.406;  -45.300; -821.000; -805.000
391.534;  102.600;  574.000; -301.000
391.663;  -36.100; -583.000; -645.000
391.792; -105.700; -673.000; -701.000
391.921;  323.500;   -3.000;   15.000
392.050;  548.700; -287.000; -228.000
392.178;   11.100;-1206.000;-1061.000
392.307;  356.100; -758.000; -712.000
392.436;  193.600; -427.000; -641.000
392.564;  105.300;  166.000;   -6.000
392.693; -128.500; -860.000; -682.000
392.822;  553.200; -529.000; -534.000
392.950;  286.800; -880.000; -714.000
393.079;  800.000; -188.000; -328.000
393.208;  112.800; -488.000; -511.000
393.336;   80.600; -170.000; -145.000
393.465;  -16.600; -317.000; -199.000
393.593;  106.300;   62.000;   79.000
393.722; -234.600;-1121.000; -916.000
393.850;   42.000; -188.000;  -61.000
393.979; -264.000; -926.000; -805.000
394.107;  -60.100; -517.000; -537.000
394.236;   56.800; -570.000; -507.000
394.364;  618.800;  383.000;  206.000
394.493; 1005.900; -911.000; -767.000
394.621;   49.700; -955.000; -916.000
394.750; 1178.100; -873.000; -923.000
394.878; 5031.900; -247.000; -149.000
395.007; 6387.800; -721.000; -807.000
395.135;  508.300; -790.000; -721.000
395.263; -152.500;-1038.000;-1040.000
395.392;   96.300;  -25.000; -107.000
395.520; -205.800; -818.000; -679.000
395.648; -110.700; -865.000; -915.000
395.777;   72.100; -366.000; -405.000
395.905;   -2.400; -449.000; -564.000
396.033;  132.400;  217.000;  172.000
396.162; 1696.900; -399.000; -453.000
396.290; 1382.800;  -17.000;   -2.000
396.418;  339.000; -555.000; -514.000
396.546;  -56.400; -571.000; -466.000
396.674; -131.900; -850.000; -878.000
396.803;  112.100;  -72.000;  -23.000
396.931;  322.400; -179.000; -199.000
397.059;  192.600;-1026.000; -989.000
397.187; -146.500;-1026.000; -975.000
397.315; -206.600; -884.000; -649.000
397.443;  -94.000; -592.000; -443.000
397.572;  -99.300; -578.000; -424.000
397.700;   79.300; -607.000; -614.000
397.828;  140.100;  120.000;  -90.000
397.956;  -24.700; -508.000; -478.000
398.084; -106.200; -767.000; -626.000
398.212;  192.200;  137.000;  124.000
398.340;  126.700;  -56.000;  159.000
398.468;  136.900; -390.000; -169.000
398.596; -210.200; -993.000; -953.000
398.724; -166.100; -762.000; -767.000
398.852; -292.100;-1024.000; -976.000
398.980;  -56.900; -560.000; -560.000
399.108;  -19.000; -982.000; -735.000
399.236;  160.700;   13.000;    8.000
399.363;   98.100;  222.000;  196.000
399.491;  -69.400; -404.000; -398.000
399.619; -172.900; -829.000; -800.000
399.747; -151.500; -859.000; -771.000
399.875;  241.100;  220.000;  234.000
400.003;  -13.500; -359.000; -284.000
400.130; -127.600; -421.000; -341.000
400.258;   24.900;  -83.000;   38.000
400.386;  -67.800; -352.000; -168.000
400.514;  -25.000; -526.000; -587.000
400.641; -107.100; -928.000; -802.000
400.769; -224.700; -979.000; -888.000
400.897;  -50.100; -838.000; -793.000
401.025;   77.400; -166.000; -152.000
401.152;   77.000;  220.000;   38.000
401.280;  -59.800; -430.000; -429.000
401.408; -157.200; -712.000; -576.000
401.535; -131.300; -735.000; -758.000
401.663; -320.200;-1134.000;-1054.000
401.790; -113.400; -514.000; -525.000
401.918;  142.900;  436.000;  405.000
402.046;   26.700;  134.000;  122.000
402.173;   14.600;  -18.000;    7.000
402.301;  -76.100; -519.000; -397.000
402.428;  171.600;  528.000;  383.000
402.556; -251.500;-1188.000; -913.000
402.683;   23.300;  -20.000;   -1.000
402.811;   41.900;  -37.000; -206.000
402.938;   77.700;   20.000;   27.000
403.066;  497.100; -574.000; -558.000
403.193;  713.100;  299.000;  239.000
403.321;  651.100; -396.000; -574.000
403.448;  715.800;   83.000;   27.000
403.575;  350.200;  -90.000;  -46.000
403.703; -143.700; -732.000; -557.000
403.830;  -33.800; -531.000; -496.000
403.957; -215.100;-1117.000;-1023.000
404.085;  128.600;  -61.000; -172.000
404.212;  263.800;  -50.000;   63.000
404.339;  495.400; -566.000; -306.000
404.467; 9542.600; -612.000; -524.000
404.594; 6406.100; -287.000; -227.000
404.721; 1672.200; -869.000; -764.000
404.848;  189.200; -113.000; -202.000
404.976; -128.000; -856.000; -783.000
405.103;   68.300;  -14.000;  -82.000
405.230;   91.500;  190.000;  226.000
405.357;  147.600;  117.000;   44.000
405.484;  494.600;  -49.000;    5.000
405.612;  132.600; -548.000; -563.000
405.739;  -45.200; -488.000; -243.000
405.866;  255.100;  669.000;  385.000
405.993;  -18.000; -398.000; -102.000
406.120; -217.700; -801.000; -887.000
406.247;  -25.300; -323.000; -342.000
406.374; 1064.800;  540.000;  629.000
406.501;  291.400; -632.000; -702.000
406.628;  -70.100; -621.000; -589.000
406.755; -133.900; -803.000; -620.000
406.882;   33.200; -228.000; -277.000
407.009; -139.000; -719.000; -628.000
407.136;  248.800; -480.000; -401.000
407.263;  404.000; -939.000; -829.000
407.390;  -56.200; -692.000; -614.000
407.517; -226.600;-1139.000;-1187.000
407.644;  -31.500; -332.000; -256.000
407.771; -100.100; -249.000; -287.000
407.898;  118.800;  168.000;  328.000
408.025;  -42.500; -421.000; -313.000
408.151;   56.500;   82.000;  153.000
408.278;  -31.300; -267.000; -216.000
408.405; -135.200; -931.000; -899.000
408.532;  -81.200; -549.000; -542.000
408.659; -162.600; -677.000; -648.000
408.785; -339.200;-1298.000;-1170.000
408.912;  -14.400; -412.000; -296.000
409.039; -141.800; -610.000; -686.000
409.166; -139.500; -591.000; -555.000
409.292; -145.300; -571.000; -534.000
409.419; -150.900; -665.000; -649.000
409.546;  -73.100; -431.000; -192.000
409.672; -142.700; -713.000; -545.000
409.799;   57.700;  -36.000;   34.000
409.926;    2.000; -180.000; -179.000
410.052; -304.600;-1127.000;-1091.000
410.179;  -57.100; -368.000; -392.000
410.305;  -84.000; -375.000; -493.000
410.432;    3.400; -220.000; -333.000
410.558; -111.900; -305.000; -380.000
410.685; -117.900; -688.000; -431.000
410.812; -157.000; -409.000; -588.000
410.938; -161.700; -964.000; -808.000
411.065; -149.500; -671.000; -645.000
411.191;   65.400; -189.000; -174.000
411.317; -161.500; -823.000; -742.000
411.444;  -59.600; -317.000; -246.000
411.570;  -69.400; -339.000; -294.000
411.697; -188.900; -758.000; -752.000
411.823; -256.600; -989.000; -999.000
411.949;   17.400;  -56.000;   17.000
412.076; -135.700; -539.000; -519.000
412.202; -168.800; -758.000; -757.000
412.329; -180.200; -798.000; -752.000
412.455; -134.700; -821.000; -657.000
412.581;   27.400;  -15.000;  172.000
412.707;  -43.200; -540.000; -457.000
412.834;  105.500;  156.000;  219.000
412.960; -111.900; -785.000; -784.000
413.086; -118.800; -743.000; -701.000
413.212;  475.500;  604.000;  578.000
413.339;  -52.400; -685.000; -701.000
413.465;  105.600; -364.000; -310.000
413.591; -128.400; -757.000; -474.000
413.717;  -21.700; -358.000; -366.000
413.843; -225.400; -839.000; -861.000
413.969;  -28.700;  -47.000; -292.000
414.096; -127.400; -679.000; -679.000
414.222;   99.200;  -33.000;   85.000
414.348;   71.600; -652.000; -385.000
414.474;  294.300;   38.000;  -52.000
414.600;   47.800; -126.000; -144.000
414.726;   28.900;  -96.000;  -55.000
414.852;  -23.000; -365.000; -342.000
414.978;  127.500;  104.000;  -18.000
415.104;  110.400;   38.000;   80.000
415.230;  115.700; -329.000; -330.000
415.356;  129.600; -409.000; -514.000
415.482;  454.700;   13.000;  -35.000
415.608;  532.000; -247.000; -323.000
415.734; 1772.400;   67.000;   38.000
415.860;36248.400; -875.000; -767.000
415.986;23550.100; -685.000; -607.000
416.111; 1887.300; -798.000; -652.000
416.237;  429.100; -424.000; -571.000
416.363; 2027.500; -765.000; -733.000
416.489; 6734.000; -324.000; -251.000
416.615;  674.000; -707.000; -742.000
416.741;  -22.400; -677.000; -784.000
416.866; -119.500; -673.000; -736.000
416.992; -173.300; -801.000; -818.000
417.118;   26.900;  -41.000;  -80.000
417.244;  -50.800; -798.000; -531.000
417.369;  -87.200; -801.000; -612.000
417.495;   73.000; -325.000; -254.000
417.621; -128.900;-1015.000; -803.000
417.746;   50.600; -579.000; -572.000
417.872;  164.700; -254.000; -144.000
417.998;  152.600; -515.000; -530.000
418.123; 1966.900;-1073.000; -845.000
418.249; 8918.200; -512.000; -601.000
418.374; 1131.500; -916.000; -824.000
418.500;  240.700; -383.000; -482.000
418.626;  264.100;   70.000;  -59.000
418.751;  269.000; -549.000; -448.000
418.877;  345.900; -637.000; -643.000
419.002; 3348.400; -688.000; -560.000
419.128;20769.200; -930.000; -721.000
419.253; 4536.400; -967.000; -837.000
419.379;  631.300; -391.000; -338.000
419.504;  714.600;  325.000;  415.000
419.629;  899.100; -393.000; -212.000
419.755; 6068.200; -317.000; -254.000
419.880;32511.900;  -98.000;   67.000
420.006;19319.800; -280.000; -221.000
420.131;48328.900; -662.000; -775.000
420.256; 6315.200; -315.000; -316.000
420.382;  893.100; -665.000; -687.000
420.507;  134.300; -649.000; -778.000
420.632;  375.100; -337.000; -339.000
420.758;  684.400; -251.000; -425.000
420.883;  -74.900; -876.000; -672.000
421.008; -107.400; -775.000; -619.000
421.133;  -98.900; -509.000; -467.000
421.259;   17.500; -325.000; -259.000
421.384; -178.700; -834.000; -693.000
421.509;   18.400;-1052.000; -862.000
421.634; 2943.200; -936.000; -820.000
421.759; 1140.800; -359.000; -327.000
421.885;  -33.000; -717.000; -656.000
422.010;  -95.000; -673.000; -542.000
422.135; -225.100; -695.000; -727.000
422.260;  132.300;  340.000;  280.000
422.385;   -9.700;   12.000;  -98.000
422.510;  110.400;  151.000;  -26.000
422.635;  186.900;  -87.000;  -43.000
422.760;  239.200; -766.000; -791.000
422.885;  172.300;  -57.000;  -80.000
423.010;   23.600; -112.000; -169.000
423.135; -114.900; -481.000; -561.000
423.260;   68.100; -150.000; -245.000
423.385;  208.300;  476.000;  222.000
423.510;  165.400;   71.000;  -22.000
423.635;  232.200;  133.000;   45.000
423.760;  221.400;  383.000;  328.000
423.885;  187.900;  336.000;  391.000
424.010;   31.100;  -68.000;  -13.000
424.135;   29.100;    5.000;  -33.000
424.259;  -91.600; -654.000; -457.000
424.384;  -32.300; -279.000; -272.000
424.509;   57.600; -260.000; -186.000
424.634; -118.400; -761.000; -623.000
424.759;   13.700; -688.000; -544.000
424.883;   11.500; -506.000; -527.000
425.008;  379.400; -502.000; -410.000
425.133; 3450.500; -679.000; -653.000
425.258; 1427.400; -517.000; -381.000
425.382; 2215.600; -867.000; -774.000
425.507; 5134.200; -487.000; -543.000
425.632;  759.500; -802.000; -663.000
425.756;  767.200; -256.000; -146.000
425.881;10673.500; -831.000; -857.000
426.006;25361.100; -604.000; -355.000
426.130; 3756.700; -696.000; -508.000
426.255;  515.000; -611.000; -491.000
426.379;  314.500; -189.000; -577.000
426.504;  757.000;  660.000;  544.000
426.629; 7518.100; -519.000; -466.000
426.753; 4558.000;   64.000;  -46.000
426.878;  617.100; -252.000; -288.000
427.002;  416.800; -651.000; -668.000
427.127; 3004.400;  -35.000; -158.000
427.251;19007.800;  372.000;  401.000
427.375; 4785.600; -191.000; -173.000
427.500; 4605.100; -616.000; -610.000
427.624; 1428.900; -234.000; -400.000
427.749;  247.500; -216.000; -225.000
427.873;   -4.000; -499.000; -412.000
427.997;   31.800; -222.000; -230.000
428.122;  251.000;  795.000;  703.000
428.246;  275.000;  433.000;  434.000
428.371; -196.100; -869.000; -773.000
428.495; -111.900; -624.000; -646.000
428.619;   87.100; -186.000; -117.000
428.743;  151.500;   65.000;  132.000
428.868;  175.300; -732.000; -643.000
428.992; 2984.200; -219.000; -326.000
429.116; 1194.000; -329.000; -357.000
429.240;  681.600;  419.000;  426.000
429.365;   48.500; -454.000; -574.000
429.489;   40.600; -638.000; -647.000
429.613;  153.300; -236.000; -177.000
429.737;  185.400; -563.000; -432.000
429.861;  592.000; -247.000; -133.000
429.985; 9966.400; -425.000; -305.000
430.109; 9816.400; -770.000; -908.000
430.234; 1181.000;   76.000;  -50.000
430.358;  199.100; -250.000; -160.000
430.482;  -42.200; -672.000; -564.000
430.606;  -49.500; -655.000; -375.000
430.730;  133.600; -437.000; -388.000
430.854;  365.500; -909.000; -835.000
430.978;  -21.300; -795.000; -764.000
431.102;  -32.100; -499.000; -422.000
431.226;  -96.600; -874.000; -815.000
431.350;  202.100;  345.000;  422.000
431.474;  -26.500; -661.000; -373.000
431.597; -219.000;-1060.000; -848.000
431.721;  -66.600; -276.000; -267.000
431.845; -181.700; -704.000; -472.000
431.969;  -67.400; -304.000; -349.000
432.093; -105.300; -395.000; -317.000
432.217;   92.100;   32.000;   82.000
432.341;  -96.300; -523.000; -518.000
432.464;  110.400;   96.000;   40.000
432.588;  588.200; -401.000; -329.000
432.712;  312.800;  -52.000;  -52.000
432.836;  201.200;  213.000;  263.000
432.959;   17.300; -372.000; -311.000
433.083;  203.300;   11.000;    2.000
433.207;  729.700;  285.000;  930.000
433.330; 8826.900; -391.000; -200.000
433.454; 9665.800; -654.000; -638.000
433.578; 5726.300;  583.000;  278.000
433.701; 1015.700; -623.000; -675.000
433.825;  388.900; -292.000; -299.000
433.949;  569.400;   28.000;  -72.000
434.072;  240.800; -410.000; -323.000
434.196;   38.900; -309.000; -117.000
434.319; 8031.000;25482.000;25124.000
434.443; 1444.800; -656.000; -603.000
434.566; 4466.600;  281.000;   62.000
434.690;  673.900; -637.000; -383.000
434.813;  183.100; -251.000; -173.000
434.937;  -73.900; -569.000; -696.000
435.060;   35.100; -423.000; -332.000
435.184;  935.200; -492.000; -217.000
435.307;  479.500;  159.000;  102.000
435.431;   62.800;  -40.000;   24.000
435.554;  -75.000; -399.000; -240.000
435.677;  -66.200; -350.000; -258.000
435.801;   12.500;  -25.000;   49.000
435.924;  105.800;    1.000;  -67.000
436.048; -137.000;-1019.000; -732.000
436.171;  -53.800; -240.000;  -66.000
436.294;   16.000; -248.000; -229.000
436.417;  218.100; -963.000; -849.000
436.541; -123.300; -814.000; -840.000
436.664;  -48.400; -242.000; -316.000
436.787;   64.700;   13.000;  113.000
436.910; -139.100; -792.000; -422.000
437.034;  104.400;  142.000;  143.000
437.157;  286.300;  -11.000;    0.000
437.280;    9.100; -392.000; -292.000
437.403;  -64.000; -982.000; -869.000
437.526; 1791.100; -903.000; -865.000
437.649; 5493.000; -505.000; -332.000
437.772;  755.600; -692.000; -540.000
437.896;  378.400;  700.000;  544.000
438.019;  -81.600; -758.000; -503.000
438.142;  -80.600; -596.000; -506.000
438.265;   84.600; -639.000; -670.000
438.388; 1444.000; -520.000; -410.000
438.511;  313.900; -597.000; -394.000
438.634;    7.700; -247.000; -125.000
438.757; -193.400; -693.000; -619.000
438.880;   39.400;  -34.000;  -57.000
439.003; -103.200; -417.000; -437.000
439.126;  -55.600; -287.000; -167.000
439.248;  -52.100;  -98.000; -139.000
439.371;    1.300;    9.000;  -53.000
439.494;  144.400;  510.000;  439.000
439.617;    9.300;   65.000;  -88.000
439.740; -294.200; -968.000; -816.000
439.863; -234.500; -755.000; -595.000
439.986; -152.200; -476.000; -431.000
440.108;   15.300; -161.000; -112.000
440.231; -252.400; -950.000; -836.000
440.354;   17.800;  -64.000; -150.000
440.477;  211.200; -566.000; -542.000
440.599;  136.600; -200.000; -225.000
440.722; -180.200; -709.000; -586.000
440.845;  222.500;  751.000;  928.000
440.968; -151.800; -415.000; -311.000
441.090;  -34.700; -199.000;  -33.000
441.213; -254.300;-1021.000; -825.000
441.336;   -1.200; -159.000;   -5.000
441.458;  -86.600; -549.000; -396.000
441.581;  -95.200; -628.000; -629.000
441.703;  -60.300; -152.000;   13.000
441.826; -165.300; -557.000; -400.000
441.948;  -21.700;   56.000;   51.000
442.071;  141.200;  555.000;  424.000
442.193; -156.000; -531.000; -485.000
442.316;  119.900;  152.000;   97.000
442.438;  145.900; -233.000;  -10.000
442.561;  238.800;  272.000;  262.000
442.683; 1447.700; -809.000; -522.000
442.806; 2721.400;   -8.000;   74.000
442.928;   91.700; -859.000; -604.000
443.051;  -57.100; -577.000; -373.000
443.173;  -60.700; -341.000; -339.000
443.295;  -71.700; -263.000; -371.000
443.418;  -44.800; -321.000;  -29.000
443.540;   71.400; -106.000;   -4.000
443.662; -144.400; -563.000; -465.000
443.785;   65.800;  335.000;  199.000
443.907; -151.800; -362.000; -208.000
444.029; -175.700; -767.000; -494.000
444.152; -230.700; -644.000; -554.000
444.274;    2.800;  -18.000;  -24.000
444.396; -159.700; -461.000; -221.000
444.518; -207.200; -691.000; -454.000
444.640; -122.100; -268.000; -111.000
444.763;   26.800;  388.000;  249.000
444.885; -173.100; -432.000; -392.000
445.007;   25.500;   35.000;   86.000
445.129; -157.700; -610.000; -515.000
445.251; -143.100; -372.000; -439.000
445.373; -200.600; -537.000; -386.000
445.495;   82.400;  242.000;  350.000
445.617;  178.300;  853.000;  753.000
445.739;  -72.100; -215.000;  -97.000
445.861;   -9.100; -245.000; -112.000
445.984;   42.300; -267.000; -101.000
446.105;  581.100; -418.000; -251.000
446.227; 1387.600; -176.000;  -19.000
446.349;   77.100; -358.000; -249.000
446.471; -111.900; -615.000; -448.000
446.593;  -26.000; -316.000;   19.000
446.715;   94.800;  -67.000;   41.000
446.837;  228.700;  697.000;  832.000
446.959; -127.900; -457.000; -478.000
447.081; -162.200; -628.000; -518.000
447.203;  211.400;  862.000;  834.000
447.325; -116.700; -270.000;   42.000
447.446;   74.200;  286.000;  530.000
447.568; -208.700; -921.000; -803.000
447.690;  -82.700; -236.000; -245.000
447.812; -231.100; -798.000; -519.000
447.933;   59.500;  155.000;  127.000
448.055;  -65.300; -306.000; -261.000
448.177;  456.800;   31.000;   79.000
448.299;  232.400; -935.000; -727.000
448.420;  133.400;  -25.000;  159.000
448.542;   -5.500;   -3.000;   33.000
448.664;   31.100;  109.000;  322.000
448.785;   16.400;  265.000;   83.000
448.907;  -77.400; -614.000; -353.000
449.028;   -0.600; -771.000; -471.000
449.150;  220.100;  492.000;  589.000
449.272; -272.800;-1044.000; -913.000
449.393;  151.000;  612.000;  694.000
449.515; -210.800; -634.000; -581.000
449.636;  -34.400; -264.000; -155.000
449.758;  250.600;  763.000;  622.000
449.879; -100.800; -498.000; -396.000
450.001; -115.200; -149.000;  -49.000
450.122;  -24.700;  -95.000;  162.000
450.244;   42.700;   37.000;  364.000
450.365; -127.300; -495.000; -301.000
450.486;   -9.700;   80.000;  268.000
450.608;  101.500;  393.000;  326.000
450.729;  218.400;  578.000;  645.000
450.850;   27.000; -574.000; -466.000
450.972; 1279.100; -552.000; -389.000
451.093; 7920.400;  190.000;  588.000
451.214; 2986.300; -516.000; -337.000
451.336;  573.600;  773.000;  579.000
451.457;  180.400;  264.000;  393.000
451.578;  -31.800; -118.000;  -74.000
451.699; -176.900; -546.000; -540.000
451.821;  -32.600; -284.000;  -50.000
451.942;   71.000;  278.000;  285.000
452.063;  171.700;  228.000;  419.000
452.184;  999.700;  -54.000;  -49.000
452.305; 1818.300;  103.000;  170.000
452.427;  234.200; -549.000; -301.000
452.548;   -3.900;   23.000;   79.000
452.669;  -34.400; -257.000;  -89.000
452.790;   11.000;    3.000;  -18.000
452.911;   81.300;  195.000;  259.000
453.032;  -41.800; -289.000;  -60.000
453.153;    3.000;  -29.000;   81.000
453.274;  220.900;  737.000;  868.000
453.395;  -24.100;  -51.000;  175.000
453.516;  388.800; 1317.000; 1388.000
453.637;  -27.400; -205.000; -150.000
453.758;   -9.100;   15.000;   69.000
453.879; -161.900; -462.000; -250.000
454.000;  249.400; 1086.000;  948.000
454.121; -148.000; -554.000; -326.000
454.242; -152.000; -599.000; -383.000
454.362;  -42.100;  -99.000;  114.000
454.483;   38.300; -309.000; -229.000
454.604;  229.400;  512.000;  580.000
454.725; -177.300; -627.000; -555.000
454.846; -174.500; -474.000; -406.000
454.967;    6.200;  230.000;  539.000
455.087;   -9.700;  179.000;  153.000
455.208;   98.900;  554.000;  856.000
455.329;  -54.900;  -22.000;   82.000
455.450;  128.300;  473.000;  633.000
455.570;  -92.200; -234.000; -211.000
455.691;    1.100;  201.000;  407.000
455.812; -139.200; -270.000;  -92.000
455.932;  -40.700;  107.000;  -97.000
456.053;  -63.500;   36.000;   24.000
456.173; -142.100; -433.000; -355.000
456.294; -162.500; -476.000; -303.000
456.415;  -59.500;  -73.000;   70.000
456.535;   36.700;  297.000;  273.000
456.656;   17.500;  132.000;  240.000
456.776;  -69.100;    3.000;  298.000
456.897;   83.800;  308.000;  513.000
457.017;  -51.500; -153.000;   -3.000
457.138; -162.400; -402.000; -249.000
457.258;   46.000;  263.000;  224.000
457.379;   70.900;  509.000;  521.000
457.499;   15.600;  443.000;  432.000
457.620; -160.100; -407.000; -231.000
457.740; -109.200; -132.000;  -11.000
457.860;  -44.300;   87.000;   44.000
457.981;   -4.300;  132.000;  124.000
458.101;  -34.300;  -89.000;   40.000
458.221;   55.900;  336.000;  402.000
458.342;  -22.700;   -4.000;  -37.000
458.462;  119.300;  617.000;  352.000
458.582;  -52.400; -302.000; -294.000
458.703;   78.000;  303.000;  154.000
458.823;   16.800;   22.000;  163.000
458.943;  143.800;  341.000;  467.000
459.063;   48.900; 1124.000;  192.000
459.183;   50.600;  328.000;  313.000
459.304;   96.100;  315.000;  517.000
459.424;  -49.600; -246.000;  -89.000
459.544;  662.400;  388.000;  764.000
459.664; 1443.600;  499.000;  506.000
459.784;  593.400; 1004.000; 1175.000
459.904;  189.400;  867.000;  744.000
460.024;  231.700;  867.000;  684.000
460.144;  130.600;  449.000;  554.000
460.264;   98.800;  515.000;  327.000
460.385; -126.900; -145.000; -119.000
460.505;  178.000;  905.000;  858.000
460.625; -121.600;  -17.000;  -68.000
460.745;   79.000;  396.000;  541.000
460.864;   -0.200;  153.000;  469.000
460.984;  114.900;  499.000;  573.000
461.104;  422.800; 1656.000; 1775.000
461.224;  151.800;  657.000;  650.000
461.344;   30.100;  431.000;  360.000
461.464;   -4.200;  258.000;  513.000
461.584;   55.400;  283.000;  466.000
461.704;  -24.000;   58.000;  108.000
461.824;  -33.200;  238.000;  259.000
461.943;   -9.400;  191.000;  130.000
462.063;  -30.700;    2.000;  324.000
462.183;  139.100;  639.000;  717.000
462.303;  328.900; 1678.000; 1230.000
462.422;  112.300;  781.000;  840.000
462.542;   12.200;  271.000;  391.000
462.662;  155.000;  353.000;  380.000
462.782;  544.600;  833.000;  572.000
462.901;  925.500;  545.000;  717.000
463.021;  570.000; 1702.000; 1638.000
463.141;   58.100;  337.000;  770.000
463.260;   19.000;  614.000;  474.000
463.380;  140.600;  902.000;  884.000
463.499;  -27.600;  342.000;  332.000
463.619;    2.800;  581.000;  559.000
463.738;  361.200; 1644.000;  903.000
463.858;   97.100;  657.000;  811.000
463.978;   36.000;  542.000;  396.000
464.097;  191.900;  921.000; 1114.000
464.217;  259.800; 1196.000; 1143.000
464.336;  267.600; 1068.000; 1130.000
464.455;  -10.800;  328.000;  659.000
464.575;  169.500;  597.000;  602.000
464.694;  437.500; 1204.000; 1179.000
464.814;  334.000; 1190.000; 1138.000
464.933;  220.500; 1095.000; 1027.000
465.052;  310.100; 1412.000; 1054.000
465.172;  257.900;  922.000;  799.000
465.291;  420.800; 1376.000; 1320.000
465.410;  141.100;  462.000;  735.000
465.530;  275.600; 1355.000; 1310.000
465.649;  261.200; 1209.000; 1273.000
465.768;  405.200; 1673.000; 1508.000
465.888;  197.300;  941.000; 1174.000
466.007;  286.500; 1335.000; 1440.000
466.126;  110.900;  721.000;  641.000
466.245;  148.100; 1176.000; 1187.000
466.364;  140.000;  950.000; 1060.000
466.484;  186.400; 1024.000; 1213.000
466.603;  166.800; 1101.000; 1222.000
466.722;  353.200; 1490.000; 1769.000
466.841;  242.500; 1151.000; 1401.000
466.960;  113.700; 1069.000;  972.000
467.079;  378.900; 1971.000; 1786.000
467.198;  193.600; 1238.000; 1181.000
467.317;  288.300; 1768.000; 1162.000
467.436;  224.300; 1709.000; 1261.000
467.555;  377.400; 1796.000; 1746.000
467.674;  240.100; 1227.000; 1329.000
467.793;  193.100; 1376.000; 1374.000
467.912;  278.800; 1658.000; 1539.000
468.031;  383.600; 2038.000; 1930.000
468.150;  389.200; 1842.000; 1837.000
468.269;  513.600; 2313.000; 2090.000
468.388;  468.400; 2168.000; 2339.000
468.507;  602.300; 2884.000; 2903.000
468.626;  650.000; 2555.000; 2541.000
468.744;  356.700; 2018.000; 2174.000
468.863;  477.100; 2312.000; 2523.000
468.982;  301.700; 1503.000; 1555.000
469.101;  558.800; 2788.000; 2692.000
469.220;  369.100; 2333.000; 2176.000
469.338;  589.500; 2935.000; 3051.000
469.457;  484.100; 2719.000; 2545.000
469.576;  767.800; 3953.000; 3784.000
469.695;  554.100; 2877.000; 3066.000
469.813;  953.600; 4148.000; 4192.000
469.932;  877.000; 4255.000; 4485.000
470.051;  930.300; 4075.000; 4161.000
470.169; 1664.000; 4470.000; 4338.000
470.288; 2763.700; 4700.000; 4809.000
470.406; 1622.400; 5059.000; 5194.000
470.525; 1355.900; 6101.000; 5787.000
470.644; 1386.700; 6847.000; 6794.000
470.762; 1759.400; 8397.000; 7873.000
470.881; 1889.200; 8651.000; 8464.000
470.999; 2147.300; 9685.000; 9151.000
471.118; 2299.300;11174.000;10711.000

