
Integration time [ms]: 100.000
Averaging Nr. [scans]: 40
Smoothing Nr. [pixels]: 0
Data measured with spectrometer [name]: 2101012U2
Wave   ;Sample   ;Dark     ;Reference
[nm]   ;[counts] ;[counts] ;[counts] 

197.733;   52.725;  516.000;  404.000
197.879;  -75.650; -610.000; -634.000
198.025;  -50.575; -475.000; -420.000
198.171;  -72.125; -602.000; -612.000
198.317;  -35.525; -401.000; -316.000
198.463;  -54.850; -655.000; -404.000
198.609;   37.225;  181.000; -137.000
198.755;  -67.850; -644.000; -410.000
198.901;  -73.225; -505.000; -424.000
199.047;  -56.000; -615.000; -488.000
199.193;  -45.500; -230.000; -468.000
199.339;  -37.775; -222.000; -369.000
199.485;   30.275;  330.000;  271.000
199.631;   16.175;  227.000;  310.000
199.777;  -39.450; -466.000; -398.000
199.923;  -53.525; -610.000; -424.000
200.069;    0.800; -141.000;  -58.000
200.215;   55.725;  128.000;  453.000
200.361;   54.875;  243.000;  477.000
200.507;  -65.375; -600.000; -373.000
200.653;  -32.350; -371.000; -194.000
200.798;  -25.700; -215.000; -125.000
200.944;  -18.975; -146.000;  -41.000
201.090;   31.575;   61.000;  222.000
201.236;    0.850; -116.000; -158.000
201.382;  135.050;  874.000;  903.000
201.528;  -14.650;  -58.000;  -48.000
201.674;  -47.175; -386.000; -293.000
201.819;  -65.525; -540.000; -439.000
201.965;  -73.225; -699.000; -447.000
202.111;  -26.200; -273.000; -226.000
202.257;  -26.375; -250.000; -238.000
202.402;    6.775;   13.000;  -36.000
202.548;  -28.300; -169.000; -116.000
202.694;   66.900;  410.000; -183.000
202.840;  -73.125; -603.000; -531.000
202.985;  -68.950; -681.000; -639.000
203.131;  -95.550; -832.000; -666.000
203.277;  -31.050; -199.000; -262.000
203.423;  -50.725; -434.000; -520.000
203.568;  -41.375; -462.000; -237.000
203.714;  -54.875; -535.000; -542.000
203.860;  -83.150; -682.000; -641.000
204.005;   18.175;  112.000;  167.000
204.151;   82.225;  561.000;  556.000
204.296;  -35.225; -354.000; -221.000
204.442;  -83.875; -600.000; -547.000
204.588;  -71.125; -592.000; -579.000
204.733;   14.700;  178.000;  168.000
204.879; -129.475;-1018.000; -822.000
205.025;   13.950;  -99.000;  126.000
205.170;    0.875;  -17.000;   94.000
205.316;   85.500;  438.000;  661.000
205.461;  -71.750; -698.000; -554.000
205.607;   84.425;  609.000;  665.000
205.752;  -72.050; -626.000; -551.000
205.898;  -40.350; -501.000; -391.000
206.043;  -48.000; -578.000; -506.000
206.189;  -46.025; -243.000; -285.000
206.334;   94.900;  554.000;  606.000
206.480;   76.250;  409.000;  239.000
206.625;  -81.225; -529.000; -552.000
206.771;  -42.550; -451.000; -373.000
206.916;  -35.175; -210.000; -537.000
207.062;  -78.300; -545.000; -591.000
207.207;  -62.100; -546.000; -443.000
207.353;   42.525;  185.000;  460.000
207.498;   28.525;  196.000;   85.000
207.643;  -41.225; -501.000; -370.000
207.789; -129.400;-1069.000; -910.000
207.934;  -97.800; -665.000; -713.000
208.080;  -34.150; -154.000;   66.000
208.225;   -0.050;  -22.000;  -57.000
208.370;  -89.225; -727.000; -619.000
208.516;  -77.400; -741.000; -487.000
208.661;  -28.450; -127.000;  -69.000
208.806;   -6.475; -165.000; -171.000
208.952; -107.750;-1044.000; -731.000
209.097;   69.525;  378.000;  349.000
209.242;  -34.775; -307.000; -382.000
209.387;   64.600;  392.000;  350.000
209.533;  -47.150; -321.000; -350.000
209.678;   74.075;  472.000;  543.000
209.823;  -40.300; -408.000; -310.000
209.969; -107.275; -860.000; -757.000
210.114; -102.675; -907.000; -719.000
210.259; -116.550; -939.000; -889.000
210.404;   -1.200; -171.000;  103.000
210.549;   -3.675;  108.000;    3.000
210.695;   -9.825;   -3.000;  -95.000
210.840;   26.100;   94.000;   67.000
210.985;  -66.425; -484.000; -303.000
211.130;   64.850;  268.000;  406.000
211.275;   21.775;  207.000;  199.000
211.420;  -53.925; -300.000; -289.000
211.566;  -65.725; -536.000; -489.000
211.711;   38.275;  218.000;  157.000
211.856;  -58.900; -545.000; -519.000
212.001;   13.075;  151.000;   44.000
212.146;   36.450;  153.000;   49.000
212.291;  -13.250; -210.000; -186.000
212.436;  -19.300; -280.000;   -6.000
212.581;  -88.575; -685.000; -653.000
212.726;  -65.075; -487.000; -538.000
212.871;  -49.725; -552.000; -217.000
213.016; -148.550;-1172.000;-1029.000
213.161;   65.700;  406.000;  291.000
213.306;  -66.250; -435.000; -577.000
213.451;  -97.125; -778.000; -689.000
213.596;  -39.475; -455.000; -347.000
213.741;  -62.325; -448.000; -538.000
213.886;  -56.075; -498.000; -517.000
214.031;  -28.475; -294.000; -124.000
214.176;  -44.350; -408.000; -341.000
214.321;   -8.550; -296.000; -157.000
214.466;  -26.525; -163.000;  -43.000
214.611;    3.775;  -61.000;  -10.000
214.756; -116.925; -948.000; -858.000
214.901;  -28.625; -388.000; -226.000
215.046; -116.025; -797.000; -825.000
215.191;    4.075;  128.000;   35.000
215.336;   -5.425; -157.000;  -19.000
215.480;  -74.075; -684.000; -505.000
215.625;    8.825; -175.000;  -19.000
215.770;  -91.550; -757.000; -662.000
215.915;    1.275;   -5.000;  -97.000
216.060;  -17.250; -113.000;  -21.000
216.205; -110.375; -731.000; -779.000
216.349;  -70.700; -470.000; -533.000
216.494; -128.125; -939.000; -867.000
216.639; -113.300; -823.000; -888.000
216.784;  -75.025; -577.000; -525.000
216.929;   61.000;  392.000;  281.000
217.073;   -5.600; -244.000;  -31.000
217.218;    5.975;   78.000;  -47.000
217.363;  -73.875; -656.000; -618.000
217.507;  -91.150; -623.000; -588.000
217.652; -121.150; -845.000; -874.000
217.797;  -89.400; -708.000; -659.000
217.942; -105.675; -856.000; -720.000
218.086;   69.275;  608.000;  539.000
218.231;   -3.750; -174.000;  -26.000
218.376;  -40.725; -337.000; -229.000
218.520;    9.500;  -41.000;   96.000
218.665;  -27.775; -338.000; -204.000
218.810;  -35.650; -275.000; -233.000
218.954;    9.500;  201.000;   35.000
219.099; -104.950; -713.000; -963.000
219.243;  -61.550; -589.000; -554.000
219.388;  -27.975; -264.000; -136.000
219.532;   -9.450; -116.000; -116.000
219.677;  -75.125; -564.000; -521.000
219.822;   13.700;   33.000;   89.000
219.966;   13.425;   17.000;  -99.000
220.111;  -36.000; -328.000;  -40.000
220.255;  -96.300; -797.000; -750.000
220.400;  -22.375; -180.000; -146.000
220.544;  -54.475; -516.000; -450.000
220.689;  -58.675; -422.000; -451.000
220.833;  -24.075; -123.000;  -58.000
220.978;  -39.900; -393.000; -563.000
221.122;   20.225;  319.000;  307.000
221.267; -106.950; -906.000; -837.000
221.411;  -60.750; -478.000; -394.000
221.555;   -4.475; -104.000;  -23.000
221.700;  -44.125; -329.000; -222.000
221.844;   18.800;  255.000;  272.000
221.989;  -49.725; -328.000; -311.000
222.133;  -44.575; -289.000; -307.000
222.277;   15.825;    5.000;   78.000
222.422;    2.425;  227.000;  113.000
222.566;  -25.425; -381.000; -214.000
222.711;  -67.725; -414.000; -479.000
222.855;  -86.775; -643.000; -586.000
222.999;  -73.150; -642.000; -717.000
223.144;  -17.575; -195.000; -194.000
223.288;   47.950;  423.000;  251.000
223.432;   30.250;  184.000;  230.000
223.576;   10.825;  152.000;  -21.000
223.721;   38.875;  364.000;  273.000
223.865;  -50.850; -472.000; -475.000
224.009;  242.800; 1673.000; 1631.000
224.153;  -78.500; -660.000; -671.000
224.298;  -61.100; -531.000; -489.000
224.442;  -23.150;  -74.000;  -33.000
224.586;   -7.200; -169.000; -106.000
224.730;  -96.325; -858.000; -670.000
224.875; -114.525; -739.000; -688.000
225.019;   10.675;  102.000;  188.000
225.163;   56.200;  208.000;  341.000
225.307;   11.075;   97.000;  -91.000
225.451;   52.975;  360.000;  481.000
225.595;   27.575;  264.000;  176.000
225.739;  -17.850; -170.000;  -94.000
225.884;    7.975;   86.000;    5.000
226.028;  -86.050; -760.000; -626.000
226.172;  -40.500; -260.000; -273.000
226.316; -110.800; -941.000; -902.000
226.460;  -70.050; -645.000; -493.000
226.604;  -40.650; -406.000; -400.000
226.748; -100.875; -836.000; -733.000
226.892;  -36.525; -227.000; -181.000
227.036;  -53.375; -537.000; -447.000
227.180;  -54.825; -551.000; -375.000
227.324;  -73.600; -561.000; -580.000
227.468; -122.450; -819.000; -717.000
227.612;   27.225;  242.000;  -28.000
227.756; -114.550; -845.000; -698.000
227.900;   53.100;  342.000;  441.000
228.044;  -47.875; -509.000; -290.000
228.188;   54.750;  448.000;  568.000
228.332;  -76.625; -546.000; -472.000
228.476;  -36.225; -223.000; -149.000
228.620;  -21.350; -210.000; -150.000
228.764;   65.400;  431.000;  349.000
228.908;   -9.075; -155.000;   30.000
229.052;  -64.275; -615.000; -528.000
229.195;  -15.475; -172.000;   13.000
229.339;  -30.975; -235.000; -305.000
229.483;  -11.925;    5.000; -162.000
229.627;   -3.375; -156.000;  139.000
229.771;  -51.550; -218.000; -294.000
229.915;   10.300;  230.000;   79.000
230.059;  -89.625; -648.000; -663.000
230.202;  -39.400; -370.000; -317.000
230.346;  -11.500; -107.000;  107.000
230.490;  -62.700; -489.000; -521.000
230.634; -101.175; -736.000; -553.000
230.777;   65.975;  478.000;  509.000
230.921;  -53.150; -450.000; -359.000
231.065;  -50.125; -246.000; -286.000
231.209;   31.500;  261.000;  265.000
231.352;   15.725;   54.000;   40.000
231.496;   27.325;  568.000;  188.000
231.640;  -84.375; -693.000; -621.000
231.783;   61.050;  546.000;  525.000
231.927;  -63.800; -294.000; -365.000
232.071; -123.200; -962.000; -736.000
232.214; -117.700; -980.000; -764.000
232.358;  -85.825; -683.000; -599.000
232.502;   15.525;  -19.000;    7.000
232.645; -133.800;-1090.000; -927.000
232.789;  -24.525; -257.000; -218.000
232.933;  -35.925; -407.000; -224.000
233.076; -115.900;-1038.000; -897.000
233.220; -102.250; -752.000; -777.000
233.363;  -76.475; -669.000; -477.000
233.507;   68.000;  371.000;  129.000
233.650;  -95.100; -764.000; -834.000
233.794;   48.675;  438.000;  461.000
233.938;  -76.950; -530.000; -362.000
234.081;  -14.300;  -93.000;   31.000
234.225;  -73.675; -631.000; -539.000
234.368;  -99.275; -773.000; -723.000
234.512;  -37.450; -385.000; -299.000
234.655;  -85.300; -582.000; -555.000
234.798;  -75.300; -493.000; -466.000
234.942; -137.475; -884.000;-1002.000
235.085;  -65.800; -651.000; -443.000
235.229;  -66.075; -405.000; -410.000
235.372;  -42.825; -247.000; -191.000
235.516;  -61.725; -397.000; -321.000
235.659;   20.900;   92.000;  121.000
235.802;  -13.400;  -38.000;  -22.000
235.946;   18.675;  335.000;  215.000
236.089;   40.750;  126.000;  250.000
236.233;   45.975;  275.000;  298.000
236.376;  -41.825; -235.000; -378.000
236.519;  -48.775; -297.000; -319.000
236.663;  -30.850; -215.000; -117.000
236.806; -141.125;-1029.000; -999.000
236.949;   70.400;  543.000;  431.000
237.092;   59.975;  412.000;  391.000
237.236;  -81.100; -589.000; -502.000
237.379;   60.725;  352.000;  428.000
237.522; -115.475; -879.000; -768.000
237.666;  -22.575; -271.000;   18.000
237.809; -120.625; -851.000; -823.000
237.952;   27.600;  469.000;  271.000
238.095;  -70.475; -447.000; -442.000
238.238;   85.775;  688.000;  700.000
238.382;    6.125;  166.000;  103.000
238.525;  -76.275; -598.000; -511.000
238.668; -141.575;-1060.000; -985.000
238.811;  -82.150; -638.000; -643.000
238.954;  -61.325; -483.000; -334.000
239.097;   96.725;  617.000;  664.000
239.241;   29.100;  394.000;  326.000
239.384;  -36.150; -254.000; -214.000
239.527;  -49.500; -424.000; -224.000
239.670; -147.300; -994.000;-1091.000
239.813; -109.525; -696.000; -658.000
239.956;   77.925;  579.000;  473.000
240.099;  -96.475; -778.000; -725.000
240.242;   66.400;  428.000;  432.000
240.385;   40.925;  466.000;  450.000
240.528;  -72.150; -706.000; -473.000
240.671;   22.750;  189.000;  134.000
240.814;  -52.100; -441.000; -158.000
240.957; -100.150; -767.000; -578.000
241.100;  -98.150; -779.000; -755.000
241.243; -135.450;-1234.000; -893.000
241.386;  -67.825; -508.000; -379.000
241.529;  -89.875; -735.000; -547.000
241.672;  -66.675; -566.000; -495.000
241.815; -114.550; -832.000; -808.000
241.958;  -24.600; -125.000; -182.000
242.101;  -69.350; -545.000; -390.000
242.244;  -42.975; -270.000; -325.000
242.387;  -45.150; -304.000; -246.000
242.530;   59.150;  470.000;  134.000
242.673;  -33.975; -381.000; -309.000
242.815; -121.775; -925.000; -899.000
242.958;  -71.975; -482.000; -381.000
243.101;   12.650;  132.000;  187.000
243.244;  -78.675; -564.000; -521.000
243.387;  -59.650; -313.000; -316.000
243.530;  -84.800; -657.000; -674.000
243.672;   -2.800;   43.000;  -92.000
243.815;  -63.600; -355.000; -283.000
243.958;   -3.900;   98.000;  -26.000
244.101;    5.800;   59.000;  -16.000
244.243;  -20.875;  -47.000;  101.000
244.386; -114.650; -761.000; -630.000
244.529;  -17.350; -132.000; -139.000
244.672; -146.425;-1154.000; -951.000
244.814; -105.350; -621.000; -794.000
244.957;  -54.225; -380.000; -304.000
245.100;  -71.850; -489.000; -489.000
245.242;  -56.325; -387.000; -374.000
245.385;   -0.700;  -59.000;  -39.000
245.528; -122.950; -871.000; -705.000
245.670;   82.275;  612.000;  634.000
245.813;  -75.700; -599.000; -547.000
245.956;  -27.600; -324.000; -275.000
246.098;  -61.325; -508.000; -650.000
246.241;   -5.650;  194.000;   48.000
246.383;    0.350; -119.000;  -73.000
246.526;  -90.150; -454.000; -525.000
246.669; -111.300; -889.000; -780.000
246.811;   12.050;  172.000;   -1.000
246.954;  -59.100; -512.000; -426.000
247.096;  -12.475;  -84.000;   -6.000
247.239;  -70.700; -482.000; -445.000
247.381;  -74.500; -647.000; -488.000
247.524;   82.900;  645.000;  679.000
247.666;  -11.425;   58.000;   11.000
247.809; -110.600; -887.000; -691.000
247.951;   -6.625;  -75.000;  138.000
248.094;   30.625;  432.000;  308.000
248.236; -154.050;-1262.000;-1238.000
248.378;    2.675; -356.000;  -81.000
248.521;  -25.300; -334.000; -337.000
248.663;  -42.000; -236.000; -267.000
248.806;  -22.275; -300.000; -266.000
248.948;  -84.450; -886.000; -763.000
249.090;  -49.475; -428.000; -398.000
249.233;  -43.400; -344.000; -381.000
249.375;  -71.575; -474.000; -451.000
249.518;  -24.050;  -83.000; -133.000
249.660;   -9.050; -103.000;    3.000
249.802; -164.300;-1303.000;-1189.000
249.945;  -63.775; -612.000; -540.000
250.087; -109.600; -834.000; -768.000
250.229;  -56.850; -362.000; -480.000
250.371;  -81.650; -494.000; -439.000
250.514;  -57.275; -310.000; -244.000
250.656;    0.875;   69.000;  102.000
250.798; -126.750; -849.000; -800.000
250.940;  -55.350; -322.000; -322.000
251.083;  -26.350; -335.000; -111.000
251.225;   67.300;  338.000;  310.000
251.367;  -46.475; -274.000; -373.000
251.509;  -31.800; -265.000; -210.000
251.651; -100.950; -731.000; -671.000
251.794;   52.750;  538.000;  632.000
251.936; -113.775; -821.000; -747.000
252.078;  -72.850; -540.000; -461.000
252.220;  -67.100; -645.000; -477.000
252.362;   86.225;  344.000;  462.000
252.504;  -67.400; -677.000; -584.000
252.646; -110.025; -875.000; -722.000
252.788;   -2.125;   14.000; -128.000
252.931;  -50.025; -257.000; -253.000
253.073;  -45.100; -376.000; -317.000
253.215;   -3.800;  141.000;  122.000
253.357;  -18.275;   82.000; -153.000
253.499;  -52.875; -374.000; -234.000
253.641;  -89.100; -749.000; -594.000
253.783;  -78.275; -609.000; -527.000
253.925;  -97.175; -586.000; -591.000
254.067; -103.625; -744.000; -667.000
254.209;  -29.600; -391.000; -259.000
254.351; -139.600; -865.000; -883.000
254.493;  -72.450; -441.000; -417.000
254.635; -117.950; -936.000; -818.000
254.777;  -85.075; -752.000; -687.000
254.918;  -54.525; -512.000; -430.000
255.060;  -62.600; -551.000; -395.000
255.202;  -54.750; -473.000; -261.000
255.344;  -86.275; -658.000; -455.000
255.486;  -69.550; -471.000; -406.000
255.628; -101.675; -780.000; -781.000
255.770;  -91.075; -676.000; -536.000
255.912;  -67.825; -559.000; -468.000
256.053;  -87.625; -730.000; -508.000
256.195;  156.250; 1008.000;  903.000
256.337;  -96.725; -861.000; -595.000
256.479;   57.675;  532.000;  416.000
256.621;  -52.375; -394.000; -212.000
256.762; -104.825; -789.000; -742.000
256.904;   54.750;  485.000;  487.000
257.046;  -51.375; -381.000; -271.000
257.188;  -42.125; -351.000; -264.000
257.329;  -71.400; -525.000; -464.000
257.471; -123.625; -939.000; -807.000
257.613;  -77.800; -584.000; -498.000
257.755; -150.200;-1073.000; -982.000
257.896;   33.900;  286.000;  392.000
258.038;  -69.475; -403.000; -352.000
258.180;  -45.525; -354.000; -279.000
258.321;  -76.775; -581.000; -457.000
258.463;    2.975;  -71.000;  133.000
258.605;  -96.750; -562.000; -570.000
258.746; -113.050; -886.000; -772.000
258.888; -153.100;-1026.000;-1020.000
259.029;   15.550;  121.000;   -8.000
259.171;  -84.650; -614.000; -550.000
259.313;  -17.200;  -49.000;  -47.000
259.454;  -62.050; -536.000; -414.000
259.596;  -71.575; -483.000; -390.000
259.737;  -78.825; -590.000; -474.000
259.879;   36.575;  217.000;  311.000
260.020;   98.825;  901.000;  636.000
260.162;  -31.475; -146.000; -253.000
260.303; -114.800; -768.000; -687.000
260.445;  -91.825; -609.000; -613.000
260.586;   28.150;  392.000;  157.000
260.728;  -47.950; -360.000; -248.000
260.869;  -64.100; -350.000; -343.000
261.011;   88.300;  706.000;  537.000
261.152;  -61.125; -479.000; -319.000
261.293;  -77.800; -576.000; -595.000
261.435;  -37.175; -219.000; -184.000
261.576;  -43.075; -455.000; -325.000
261.718;   54.675;  420.000;  470.000
261.859; -119.150; -940.000; -949.000
262.000; -134.675; -951.000;-1016.000
262.142;  -15.825;  -52.000;  -60.000
262.283; -119.050; -808.000; -691.000
262.424;  -95.675; -666.000; -625.000
262.566; -151.050;-1161.000; -983.000
262.707; -122.250; -840.000; -830.000
262.848; -121.875; -769.000; -726.000
262.990;  -46.650; -362.000; -345.000
263.131;   78.850;  650.000;  681.000
263.272;  -10.375;  -61.000;  -41.000
263.413;  -95.975; -589.000; -561.000
263.555;  -63.325; -669.000; -143.000
263.696;  -87.175; -550.000; -641.000
263.837;  -66.625; -449.000; -551.000
263.978;    5.075;   -5.000;  -77.000
264.119;  -58.075; -283.000; -264.000
264.261; -109.975; -847.000; -630.000
264.402;  -14.125;   33.000;   40.000
264.543;  -76.025; -509.000; -524.000
264.684;  -15.975;   61.000;  -50.000
264.825;  -73.425; -816.000; -538.000
264.966;  -12.500;  -84.000;  -67.000
265.107; -124.000; -646.000; -670.000
265.248; -125.075; -825.000; -812.000
265.390;    2.900;  152.000;   -9.000
265.531;  -22.475; -238.000; -107.000
265.672;  -82.075; -557.000; -630.000
265.813;   56.475;  563.000;  439.000
265.954; -143.600; -959.000; -940.000
266.095;  -28.425; -372.000; -322.000
266.236; -104.300; -686.000; -548.000
266.377;  -45.925; -243.000; -297.000
266.518;  -54.225; -619.000; -547.000
266.659;   34.350;  170.000;  268.000
266.800;   19.550;   83.000;   85.000
266.941;  -79.525; -487.000; -478.000
267.082;   22.800;  354.000;   99.000
267.223;  -48.775; -344.000; -273.000
267.364; -119.650; -892.000; -686.000
267.504;  -23.525;    3.000;  135.000
267.645;   12.250;  160.000;   67.000
267.786;  -36.325; -147.000;  -86.000
267.927;  -72.300; -473.000; -379.000
268.068;  -31.850; -186.000;  -61.000
268.209;  -41.225; -175.000; -413.000
268.350;  -68.025; -388.000; -532.000
268.490;  -82.800; -648.000; -521.000
268.631;   29.900;  127.000;  225.000
268.772; -120.450; -874.000; -647.000
268.913;  -49.900; -328.000; -476.000
269.054;  -22.975; -117.000;   12.000
269.194;  -55.225; -418.000; -402.000
269.335; -157.075;-1137.000;-1074.000
269.476;  -18.800;   33.000;  -35.000
269.617;  -41.000; -347.000; -392.000
269.757;  -94.075; -713.000; -646.000
269.898; -108.425; -856.000; -613.000
270.039;  -68.625; -415.000; -405.000
270.180; -129.950; -952.000; -816.000
270.320;  -30.150; -190.000; -250.000
270.461;  -27.075; -277.000; -249.000
270.602;  -29.150; -186.000; -156.000
270.742; -130.775; -868.000; -943.000
270.883;  -65.600; -442.000; -390.000
271.023;  -53.675; -358.000; -357.000
271.164;  -74.225; -607.000; -528.000
271.305;  -94.600; -666.000; -654.000
271.445; -102.250; -722.000; -683.000
271.586;  -78.800; -462.000; -283.000
271.726;  -59.600; -397.000; -322.000
271.867;  -56.375; -594.000; -534.000
272.008;  164.225; -473.000; -285.000
272.148;  125.725;  462.000;  468.000
272.289;   -2.850; -113.000; -181.000
272.429;   18.025;   19.000;  185.000
272.570;  -94.850; -633.000; -737.000
272.710;  -96.925; -825.000; -775.000
272.851;  -15.725;  113.000; -130.000
272.991; -160.825;-1173.000;-1077.000
273.131;  -57.650; -419.000; -459.000
273.272; -101.675; -683.000; -723.000
273.412;   -4.000; -143.000;  -31.000
273.553;  -45.200; -488.000; -507.000
273.693;  143.275;  913.000;  858.000
273.834;  -87.775; -894.000; -692.000
273.974;  -85.150; -664.000; -615.000
274.114; -103.325; -772.000; -560.000
274.255;   56.225;  414.000;  373.000
274.395;    0.350; -180.000; -125.000
274.535;   40.750;  199.000;  350.000
274.676;   28.825;  225.000;   94.000
274.816;   16.975;  110.000;   34.000
274.956;  -76.675; -624.000; -690.000
275.097;  -74.800;-1014.000; -922.000
275.237; -107.425; -913.000; -803.000
275.377; -107.350; -778.000; -689.000
275.517; -148.450; -878.000; -937.000
275.658;  -68.150; -590.000; -555.000
275.798;  -70.025; -606.000; -413.000
275.938;   13.975;  215.000;  323.000
276.078;  -94.975; -626.000; -395.000
276.218;    7.900;   99.000;  104.000
276.359; -138.550;-1026.000;-1024.000
276.499;  -61.550; -605.000; -446.000
276.639;  -21.650; -305.000; -151.000
276.779;  -46.475; -475.000; -357.000
276.919;  -95.375; -783.000; -624.000
277.059;  -27.775; -261.000; -212.000
277.199;  -47.500; -357.000; -259.000
277.340;   66.475;  287.000;  175.000
277.480; -107.800; -840.000; -693.000
277.620;   24.000;  192.000;   16.000
277.760; -201.100;-1533.000;-1294.000
277.900;    3.900;  113.000;   33.000
278.040;   20.825;  137.000;  159.000
278.180;   24.250;  270.000;  170.000
278.320;    8.800;   21.000;   56.000
278.460;  -81.750; -443.000; -469.000
278.600;  -85.450; -708.000; -598.000
278.740;   45.700;  448.000;  224.000
278.880;  -71.175; -768.000; -791.000
279.020;  -11.900; -194.000; -144.000
279.160;  -83.825; -672.000; -595.000
279.300; -124.350; -926.000; -873.000
279.440;  -84.325; -709.000; -622.000
279.579;  -18.950;-1014.000; -929.000
279.719;  -48.050; -410.000; -394.000
279.859;   69.900;   -4.000;   41.000
279.999;   26.225; -208.000;  101.000
280.139;  -24.500; -435.000; -387.000
280.279;  -79.925; -708.000; -745.000
280.419;  -17.125; -229.000; -147.000
280.559;  -26.225; -259.000; -180.000
280.698;  -78.325; -790.000; -639.000
280.838; -105.825; -778.000; -800.000
280.978; -103.625; -846.000; -790.000
281.118; -117.975; -811.000; -704.000
281.257;    3.525;   24.000;    6.000
281.397; -114.650;-1094.000; -960.000
281.537;  -92.200; -599.000; -712.000
281.677;  -17.400; -150.000; -101.000
281.816;  -90.375; -700.000; -630.000
281.956;  -32.175; -193.000; -257.000
282.096;  -69.875; -539.000; -396.000
282.235; -100.625; -672.000; -638.000
282.375;  -30.000; -243.000;  -98.000
282.515;  -96.275; -715.000; -707.000
282.654;    6.950;   29.000;  106.000
282.794;   25.400;  388.000;  244.000
282.934;  -76.850; -530.000; -491.000
283.073; -137.975;-1030.000; -857.000
283.213;  -70.025; -460.000; -467.000
283.353;  -40.775; -408.000; -349.000
283.492;  -24.925; -264.000; -296.000
283.632;  -47.525; -254.000; -168.000
283.771; -105.725; -859.000; -730.000
283.911;  -54.450; -369.000; -260.000
284.050; -120.275; -794.000; -748.000
284.190; -158.750;-1229.000;-1096.000
284.329; -148.575;-1055.000; -964.000
284.469;  -71.025; -516.000; -591.000
284.608;  -65.350; -559.000; -598.000
284.748;  -82.825; -614.000; -570.000
284.887;  -17.350;  -87.000;  -20.000
285.027; -115.075; -844.000; -892.000
285.166;  -46.950; -192.000; -249.000
285.306;   10.500; -116.000;  -33.000
285.445;  -40.850; -229.000; -343.000
285.584;  -83.900; -630.000; -494.000
285.724;  -50.450; -282.000; -322.000
285.863; -102.500; -857.000; -507.000
286.002;  -53.450; -366.000; -276.000
286.142; -101.425; -715.000; -622.000
286.281;  -83.500; -525.000; -493.000
286.420;  -64.025; -554.000; -417.000
286.560;   85.475;  653.000;  623.000
286.699; -144.800; -958.000; -912.000
286.838;  -92.625; -590.000; -591.000
286.978;  -91.075; -533.000; -537.000
287.117; -132.225;-1085.000; -950.000
287.256;  -31.025; -228.000; -211.000
287.395;  -62.300; -197.000; -378.000
287.535;  -50.450; -370.000; -298.000
287.674;  -87.025; -509.000; -484.000
287.813;   55.200;  661.000;  533.000
287.952; -130.300;-1010.000; -871.000
288.091; -160.075;-1049.000; -915.000
288.231;    0.650;   13.000;   15.000
288.370; -180.900;-1217.000;-1200.000
288.509; -105.950; -728.000; -645.000
288.648;  -87.350; -770.000; -548.000
288.787;  -35.375; -243.000;  -87.000
288.926;  -66.700; -454.000; -475.000
289.065;  116.325;  859.000;  672.000
289.204;  -57.025; -377.000; -217.000
289.344; -111.575; -791.000; -690.000
289.483;   25.625;  416.000;  304.000
289.622;  -26.325; -291.000; -149.000
289.761;  -28.650; -309.000; -166.000
289.900; -110.175; -785.000; -626.000
290.039;  -19.650;  -12.000;  -95.000
290.178;  -46.700; -274.000; -180.000
290.317;  -86.400; -618.000; -479.000
290.456;  -73.900; -463.000; -451.000
290.595; -142.325; -961.000; -833.000
290.734; -150.625; -904.000; -891.000
290.873;  -72.850; -456.000; -420.000
291.011; -117.925; -833.000; -843.000
291.150;  -94.250; -770.000; -682.000
291.289;  -27.775; -343.000; -110.000
291.428;  -95.600; -599.000; -480.000
291.567;  -60.550; -370.000; -442.000
291.706;   -1.600;  109.000;  154.000
291.845;  -94.500; -597.000; -505.000
291.984; -162.700;-1234.000;-1061.000
292.122;   67.150;  602.000;  582.000
292.261;   49.050;  620.000;  463.000
292.400;   -2.250; -144.000;  211.000
292.539; -128.400; -959.000; -813.000
292.678;  -34.225; -325.000; -300.000
292.816; -156.275;-1136.000; -965.000
292.955;  -83.575; -844.000; -684.000
293.094;  -27.825; -173.000; -337.000
293.233;  -63.075; -556.000; -400.000
293.371;  -32.575; -225.000;  -84.000
293.510; -116.825; -866.000; -780.000
293.649; -129.775; -959.000; -924.000
293.787;  -84.000;-1083.000;-1012.000
293.926;    8.700; -113.000;  -32.000
294.065;  -53.225; -379.000; -290.000
294.203;   59.975;  298.000;  406.000
294.342;   17.250;   74.000;  156.000
294.481; 5513.525;51180.000; -836.000
294.619;  -38.775; -425.000; -582.000
294.758; -155.225;-1230.000;-1137.000
294.896;   64.175; -125.000;    5.000
295.035; -133.950;-1040.000;-1006.000
295.174; -126.225;-1082.000; -954.000
295.312;  -32.100; -323.000; -203.000
295.451;  -25.325; -307.000; -428.000
295.589;  -56.500; -389.000; -518.000
295.728;   10.250; -292.000; -165.000
295.866;   -5.125;  -36.000;  -51.000
296.005;  -75.800; -584.000; -341.000
296.143;  -69.100; -558.000; -596.000
296.282; -113.025; -957.000; -881.000
296.420;  -80.850; -657.000; -557.000
296.559;  -80.625; -892.000; -633.000
296.697;   -2.150; -847.000; -665.000
296.835;   28.050;-1141.000;-1002.000
296.974;   39.775;  -23.000;   39.000
297.112;  -27.375; -443.000; -504.000
297.251;  -76.175; -815.000; -755.000
297.389;   66.725; -576.000; -438.000
297.527;   27.700; -145.000;  -83.000
297.666;  -63.325; -486.000; -438.000
297.804;  -62.025; -404.000; -264.000
297.942;   -8.225; -136.000; -161.000
298.081;   -2.925; -183.000;   63.000
298.219;   55.075;  -17.000;  -19.000
298.357;   50.325; -144.000;  -71.000
298.495;   15.100; -810.000; -812.000
298.634;   74.775;  245.000;  219.000
298.772;   38.625; -220.000; -338.000
298.910;  -39.900; -309.000; -182.000
299.048;   -7.625; -130.000; -153.000
299.187;  -36.550; -350.000; -250.000
299.325;   14.325;   52.000;  122.000
299.463;   37.350; -389.000; -299.000
299.601;   78.750; -327.000; -271.000
299.739; -107.175; -908.000; -883.000
299.877;  -86.525; -791.000; -703.000
300.016;  -36.950;-1095.000; -935.000
300.154;  124.550;  -19.000; -161.000
300.292;   42.175; -428.000; -348.000
300.430;   11.125; -408.000; -291.000
300.568;  -98.325; -940.000; -874.000
300.706;  -67.725; -366.000; -469.000
300.844;  -71.250;-1108.000; -979.000
300.982;  105.400;  246.000;  282.000
301.120; -105.150; -965.000; -866.000
301.258;  -79.825; -812.000; -705.000
301.396;   27.500;  104.000;  -41.000
301.534;   54.550; -218.000; -293.000
301.672;  -25.250; -664.000; -521.000
301.810;    7.525; -613.000; -545.000
301.948;  100.650;   53.000;  149.000
302.086;  568.225; -250.000;  -32.000
302.224;  868.325; -610.000; -585.000
302.362;   13.300; -558.000; -622.000
302.500;  -33.225; -923.000; -893.000
302.638;   82.575;  128.000;  245.000
302.776;   -8.900; -352.000; -408.000
302.913;   50.500;  447.000;  236.000
303.051;   -7.100;  -86.000;  -23.000
303.189;   36.500;   90.000;  118.000
303.327;  -31.800; -341.000; -256.000
303.465;  -73.900; -832.000; -588.000
303.603;  -77.875; -805.000; -604.000
303.740;   83.675;  417.000;  241.000
303.878;    3.575; -800.000; -759.000
304.016;  -94.900; -915.000; -790.000
304.154; -130.125;-1123.000;-1152.000
304.291;  -42.100; -505.000; -554.000
304.429;   12.900;  102.000;   74.000
304.567; -142.175; -908.000; -893.000
304.705;  -55.025; -408.000; -515.000
304.842;   56.500; -616.000; -540.000
304.980;   41.700;  215.000;   35.000
305.118;   32.900; -367.000; -365.000
305.255;  -85.850; -945.000; -927.000
305.393;   49.875;  178.000;  239.000
305.531; -116.650;-1173.000; -956.000
305.668;  -72.875; -663.000; -582.000
305.806;   92.750; -358.000; -439.000
305.943;  104.300; -629.000; -637.000
306.081;   48.075; -378.000; -267.000
306.219; -102.525; -863.000; -748.000
306.356;    9.350;  158.000;   27.000
306.494;   91.675;  981.000;  761.000
306.631;   -9.125;  -11.000;  -55.000
306.769;    1.650; -613.000; -485.000
306.906;  -23.875; -284.000; -258.000
307.044;  -66.500; -473.000; -488.000
307.181;  -55.200; -410.000; -332.000
307.319;    7.050;  112.000;   87.000
307.456; -167.350;-1191.000;-1153.000
307.594; -108.225; -980.000; -727.000
307.731;  -18.325; -371.000; -164.000
307.868;  -10.125;  -15.000;   20.000
308.006; -130.725; -961.000; -847.000
308.143;  -76.700; -618.000; -330.000
308.281;  128.900;  -37.000; -254.000
308.418;  -32.850; -748.000; -640.000
308.555;  -71.900; -400.000; -250.000
308.693;  -87.950; -577.000; -573.000
308.830;  -97.275; -712.000; -657.000
308.967;  -16.475; -215.000;  -95.000
309.105;  -45.200; -507.000; -396.000
309.242;    7.000; -468.000; -367.000
309.379;  213.450; -577.000; -655.000
309.517;  -84.925; -936.000; -948.000
309.654; -114.500; -910.000; -734.000
309.791;  -80.775; -662.000; -580.000
309.928; -116.050; -977.000; -914.000
310.065;  159.050;  819.000;  697.000
310.203;  -17.850; -825.000; -850.000
310.340;  -17.650; -465.000; -321.000
310.477;  -87.550; -412.000; -516.000
310.614;  -70.900; -383.000; -473.000
310.751;  -69.325; -427.000; -518.000
310.889;  -31.250;    1.000;   11.000
311.026; -156.000;-1161.000; -939.000
311.163;  -54.750; -386.000; -380.000
311.300;  -79.975; -512.000; -479.000
311.437;  -80.650; -658.000; -619.000
311.574; -163.400;-1226.000; -985.000
311.711;  -56.525; -595.000; -433.000
311.848;  -50.225; -380.000; -388.000
311.985;   -5.350;  270.000;   93.000
312.122; -113.200; -932.000; -762.000
312.259; -126.200; -941.000; -994.000
312.396;  -85.425; -508.000; -551.000
312.533; -109.150; -812.000; -790.000
312.670; -125.200;-1070.000; -898.000
312.807;  -54.300; -352.000; -367.000
312.944;  -93.825; -513.000; -611.000
313.081;  -46.925; -150.000; -415.000
313.218; -109.525;-1111.000; -867.000
313.355;  -13.675; -531.000; -449.000
313.492;   -7.350; -455.000; -292.000
313.629;  117.125;  815.000;  735.000
313.766; -153.525;-1176.000;-1008.000
313.902;  -21.725; -186.000;   21.000
314.039;  -50.800; -372.000; -289.000
314.176;   18.700;  286.000;  192.000
314.313;  -64.825; -569.000; -473.000
314.450;  -73.575; -788.000; -684.000
314.587;  -55.550; -468.000; -480.000
314.723;  -14.625;  -78.000;  130.000
314.860;   29.425;  318.000;  332.000
314.997;    8.875;  223.000;  142.000
315.134;  -39.825; -385.000; -368.000
315.270;  -35.650; -480.000; -496.000
315.407; -125.325;-1094.000; -967.000
315.544;  -45.425; -657.000; -538.000
315.681;  -55.450; -681.000; -565.000
315.817;   15.850; -133.000; -176.000
315.954;    9.275; -613.000; -392.000
316.091; -121.900;-1045.000;-1023.000
316.227;  -39.075;  -71.000; -179.000
316.364;  -11.975;   23.000;    6.000
316.500;  -42.175; -113.000; -300.000
316.637;  -48.225; -181.000; -302.000
316.774;  -89.600; -625.000; -358.000
316.910;  -97.400; -598.000; -629.000
317.047;  -66.125; -487.000; -351.000
317.183;  -52.950; -435.000; -566.000
317.320;  -10.800; -367.000; -321.000
317.456;  -70.950; -733.000; -805.000
317.593;  -97.050; -598.000; -641.000
317.729;    7.025;  168.000;  -67.000
317.866; -183.250;-1434.000;-1285.000
318.002; -100.250; -708.000; -948.000
318.139;  -89.800; -883.000; -867.000
318.275; -110.350;-1003.000; -738.000
318.412;  -56.700; -517.000; -336.000
318.548;  -40.225; -751.000; -720.000
318.685; -101.050; -985.000; -888.000
318.821; -112.850; -762.000; -735.000
318.957;  -20.650;   34.000;  -23.000
319.094;   33.675;  297.000;  154.000
319.230;  -66.625; -756.000; -742.000
319.367;   95.125; -471.000; -520.000
319.503;   49.525; -538.000; -436.000
319.639; -108.925; -877.000; -793.000
319.775;  -70.475; -750.000; -685.000
319.912;  -65.750; -424.000; -519.000
320.048;  -95.900;-1184.000;-1184.000
320.184;   73.175;   59.000;   70.000
320.321;  -64.550; -497.000; -467.000
320.457;   58.300;  475.000;  662.000
320.593;  -58.050; -375.000; -382.000
320.729; -106.850; -732.000; -734.000
320.866;  -73.900; -577.000; -635.000
321.002;  -93.725; -759.000; -809.000
321.138;   -3.125; -135.000; -211.000
321.274;   62.975; -148.000; -115.000
321.410;  -33.400; -585.000; -353.000
321.546;  -50.900;-1011.000; -911.000
321.683;   52.850;  400.000;  185.000
321.819;  -11.475;  -48.000; -117.000
321.955; -106.375; -743.000; -722.000
322.091;  -60.450; -585.000; -540.000
322.227;   -9.875; -382.000; -202.000
322.363;  -26.600; -320.000; -215.000
322.499;  -45.950; -343.000; -331.000
322.635;  144.325;  636.000;  443.000
322.771;   18.850; -139.000;   12.000
322.907;   76.000;  129.000;  327.000
323.043;  -12.625; -115.000; -206.000
323.179;  -39.275; -394.000; -363.000
323.315;   -0.250; -401.000; -371.000
323.451;   69.525; -328.000; -236.000
323.587;   59.875;  -60.000;  -77.000
323.723;    5.075; -682.000; -601.000
323.859;  -10.250; -258.000;  -76.000
323.995;  -35.250; -467.000; -409.000
324.131; -131.125; -967.000; -892.000
324.267;  -51.700; -254.000; -276.000
324.402; -130.875; -960.000; -983.000
324.538;  -28.350; -279.000; -104.000
324.674;   13.275;  164.000;   77.000
324.810;   88.300;  226.000;  308.000
324.946;   -6.475; -810.000; -658.000
325.082;  -67.875; -568.000; -475.000
325.217;  -14.550;  -62.000;   16.000
325.353; -115.700; -764.000; -659.000
325.489;  -89.800; -540.000; -506.000
325.625;  -86.025; -579.000; -525.000
325.760;   63.600;  517.000;  376.000
325.896;  -23.825; -515.000; -702.000
326.032;  -36.250; -403.000; -352.000
326.168;  -66.450; -462.000; -369.000
326.303;  -55.750; -352.000; -461.000
326.439;  -21.525; -336.000; -276.000
326.575;   -8.200; -190.000;  -29.000
326.710;   -6.800; -156.000;  -30.000
326.846;   -6.325;  146.000;  103.000
326.982; -104.850; -530.000; -548.000
327.117;  -66.800; -481.000; -442.000
327.253;  -90.825; -745.000; -742.000
327.388; -166.425;-1137.000;-1153.000
327.524;  -61.650; -811.000; -578.000
327.659;  -15.425;  -58.000;  -22.000
327.795;  -22.950;   69.000;   45.000
327.931;  -86.425; -723.000; -499.000
328.066;  -32.925; -417.000; -276.000
328.202;  -21.250;   12.000; -129.000
328.337;  103.200;  957.000;  713.000
328.473;   52.875;  -12.000;  -74.000
328.608;  -28.600; -256.000; -267.000
328.743;  -79.950; -799.000; -664.000
328.879;   10.900;  214.000;  114.000
329.014;  -37.775; -102.000; -122.000
329.150;  -90.225; -358.000; -483.000
329.285;  -79.725; -465.000; -466.000
329.421;  -59.600; -548.000; -246.000
329.556;  -29.650;  -36.000;   85.000
329.691; -107.225; -633.000; -615.000
329.827;  -93.000; -626.000; -480.000
329.962;  -47.975;  131.000; -301.000
330.097;  -81.550; -673.000; -585.000
330.233;  -42.975; -410.000; -223.000
330.368; -123.125; -839.000; -628.000
330.503;  -10.325;    3.000;   98.000
330.638;    3.950;  -93.000; -125.000
330.774;  -63.700; -609.000; -530.000
330.909;  -39.125; -434.000; -244.000
331.044; -110.225; -714.000; -708.000
331.179; -174.500;-1217.000;-1109.000
331.315;   10.100;   77.000;   20.000
331.450;   24.150;  157.000;  285.000
331.585; -110.775; -805.000; -706.000
331.720;  -82.800; -510.000; -460.000
331.855;  -10.500;  -35.000; -102.000
331.990;  251.525;   62.000;  138.000
332.126;  129.850; -110.000;   71.000
332.261;  -15.575; -379.000; -265.000
332.396;    4.100; -135.000; -242.000
332.531;  -97.325;-1074.000;-1031.000
332.666;   30.175; -519.000; -363.000
332.801; -106.950; -726.000; -807.000
332.936;  -22.950; -192.000; -122.000
333.071; -144.625; -870.000; -817.000
333.206;   -1.250;  307.000;  379.000
333.341;   24.800;  344.000;  418.000
333.476;  -99.100; -627.000; -623.000
333.611;  -49.725; -251.000; -173.000
333.746;  -72.950; -381.000; -464.000
333.881; -121.050; -973.000; -935.000
334.016; -139.800; -936.000; -917.000
334.151; -114.800; -746.000; -702.000
334.286;   17.650;  152.000;  186.000
334.421;  -16.125; -125.000; -178.000
334.556;  -84.600; -611.000; -567.000
334.690;  -84.250; -631.000; -577.000
334.825;   33.575;  381.000;   83.000
334.960;  -57.250; -285.000; -413.000
335.095;  -16.575;  135.000;  -91.000
335.230;  -99.125; -722.000; -738.000
335.365; -142.550;-1084.000; -990.000
335.499; -128.325;-1108.000;-1037.000
335.634;   11.225;    9.000;  534.000
335.769;  -93.000; -755.000; -720.000
335.904;  -57.950; -603.000; -561.000
336.038;  -62.600; -735.000; -657.000
336.173; -128.825;-1206.000;-1194.000
336.308;   -7.750; -116.000; -189.000
336.443;   13.750; -544.000; -634.000
336.577;  -70.975; -936.000; -787.000
336.712;   63.225;   -4.000;  -12.000
336.847;  -32.900; -724.000; -607.000
336.981;   58.700; -272.000; -208.000
337.116;  271.950;  615.000;  501.000
337.250;  122.125; -434.000; -421.000
337.385;  275.425; -297.000; -208.000
337.520;   78.275; -632.000; -603.000
337.654;  -32.700; -215.000; -126.000
337.789; -130.925; -989.000; -933.000
337.923;  -22.650; -104.000; -205.000
338.058; -102.600; -673.000; -738.000
338.192;  -43.550; -611.000; -488.000
338.327;   -8.325;  -18.000; -155.000
338.461;  -49.400; -299.000; -469.000
338.596; -109.825; -780.000; -638.000
338.730;  -96.650; -767.000; -803.000
338.865;   83.400;  -46.000; -140.000
338.999;  -37.875; -846.000; -702.000
339.134;  -32.100; -634.000; -536.000
339.268;    9.200; -741.000; -603.000
339.403;  352.975; -740.000; -775.000
339.537;  119.250; -894.000; -820.000
339.671; -118.550; -829.000; -813.000
339.806;  -57.800; -556.000; -512.000
339.940;   13.250; -261.000; -235.000
340.074; -105.375; -685.000; -510.000
340.209;  -32.450; -351.000; -230.000
340.343;  -95.675; -517.000; -573.000
340.477;  150.500;  998.000; 1036.000
340.612;  -43.675;-1033.000; -900.000
340.746;  139.575; -199.000; -243.000
340.880;  -83.175; -924.000; -785.000
341.014;  -24.825;  -45.000; -154.000
341.149; -118.575; -756.000; -718.000
341.283; -119.450; -839.000; -754.000
341.417; -105.950;-1124.000; -938.000
341.551;   83.300; -768.000; -708.000
341.685;  -33.875; -633.000; -611.000
341.820;  -52.025; -562.000; -493.000
341.954;  -48.500; -218.000; -349.000
342.088; -160.225;-1102.000;-1019.000
342.222;   60.400;  565.000;  618.000
342.356;  -64.075; -395.000; -335.000
342.490; -101.500; -880.000; -841.000
342.624;  -60.925; -339.000; -242.000
342.758;  -17.175; -364.000; -312.000
342.892;  -80.225; -710.000; -585.000
343.026;  -37.875;  -58.000; -116.000
343.160;  -71.425; -426.000; -376.000
343.294;  -89.175; -474.000; -337.000
343.428;  -40.650; -488.000; -448.000
343.562;  -19.025; -172.000;  -23.000
343.696;  -41.175; -385.000; -314.000
343.830;   -9.175; -362.000; -356.000
343.964;   -9.625; -231.000; -168.000
344.098;  839.050;  199.000;   70.000
344.232;  673.050; -266.000; -127.000
344.366;   77.625; -567.000; -453.000
344.500;   31.950; -665.000; -744.000
344.634;   25.225; -324.000; -164.000
344.768;  -21.550; -531.000; -341.000
344.902;   29.700;  278.000;  256.000
345.035;  -74.075; -556.000; -496.000
345.169; -131.525; -933.000; -656.000
345.303;  -69.750; -308.000; -482.000
345.437;  -83.625; -826.000; -717.000
345.571;  -83.450; -675.000; -594.000
345.704;  -72.050; -309.000; -532.000
345.838;  -29.650; -331.000; -284.000
345.972;  -25.850; -543.000; -495.000
346.106;  152.425; -179.000; -190.000
346.239;  410.000; -312.000; -243.000
346.373;    1.250; -343.000; -302.000
346.507; -136.100; -950.000; -962.000
346.640;  118.875;  -30.000;   13.000
346.774;  -61.125; -650.000; -797.000
346.908;  -14.075; -138.000;  -11.000
347.041;  -79.475; -646.000; -593.000
347.175;    8.600;  259.000;   27.000
347.309;  -71.300; -698.000; -628.000
347.442; -110.575; -883.000; -732.000
347.576;  269.525;  670.000;  668.000
347.709;  156.150; -123.000;  -52.000
347.843;  -94.100; -933.000; -825.000
347.976;   24.475;  235.000;  294.000
348.110; -180.575;-1268.000;-1186.000
348.243; -108.825; -679.000; -772.000
348.377;    1.850;  -26.000;   60.000
348.510;   41.250;  403.000;  540.000
348.644;  -22.800;  -37.000; -159.000
348.777;  -12.950;  180.000;  191.000
348.911;  -61.650; -142.000; -112.000
349.044;  146.550;  471.000;  448.000
349.178;  115.900;-1069.000;-1006.000
349.311;  105.025;  141.000;  255.000
349.444;   -8.125; -927.000; -813.000
349.578;  -13.250; -347.000; -200.000
349.711;  -96.275; -959.000; -862.000
349.845;  -28.950; -661.000; -591.000
349.978; -148.400;-1224.000;-1137.000
350.111;  -85.600; -546.000; -612.000
350.244;  -79.075; -596.000; -700.000
350.378;  -11.525; -392.000; -393.000
350.511;  -67.175; -393.000; -426.000
350.644; -106.125; -808.000; -806.000
350.778;   17.925;  168.000;  104.000
350.911;   -2.675;  134.000;  140.000
351.044;  -92.875; -685.000; -615.000
351.177;  -40.750; -321.000; -281.000
351.310;  -15.375;    3.000; -131.000
351.444;  -80.400; -888.000; -788.000
351.577;  114.225;  140.000;   90.000
351.710;  101.225;  593.000;  417.000
351.843;  -29.850; -165.000;  -77.000
351.976;  -13.725;  149.000;  -79.000
352.109;  -92.900; -621.000; -612.000
352.242;  -26.050; -464.000; -419.000
352.376;  -73.575; -580.000; -636.000
352.509;  136.475; -437.000; -356.000
352.642;   -4.550; -654.000; -604.000
352.775;   44.100; -141.000;  -98.000
352.908; -105.800; -933.000; -904.000
353.041; -115.750; -814.000; -824.000
353.174;  -62.825; -551.000; -424.000
353.307;  -96.150; -753.000; -764.000
353.440;   74.175;  541.000;  453.000
353.573; -126.375; -957.000;-1008.000
353.706;  -31.000; -384.000; -558.000
353.839;  -19.325; -264.000; -220.000
353.971;  -85.900; -657.000; -512.000
354.104;  -88.600; -896.000; -835.000
354.237;  -41.500; -627.000; -662.000
354.370;  -93.400; -846.000; -879.000
354.503; -188.775;-1231.000;-1308.000
354.636;  -43.325; -529.000; -348.000
354.769; -127.250; -937.000; -860.000
354.902;   -6.475; -230.000; -139.000
355.034;  -21.125; -164.000; -220.000
355.167;  -17.425; -262.000; -162.000
355.300;  -93.050;-1061.000; -880.000
355.433;  977.000;  -71.000;  -14.000
355.565; 1549.500; -402.000; -384.000
355.698;  379.950; -356.000; -296.000
355.831;  -11.875; -882.000; -801.000
355.964;   47.525; -285.000; -170.000
356.096;  -84.875; -856.000; -843.000
356.229;  -19.425; -523.000; -530.000
356.362;  336.275; -373.000; -266.000
356.494;  588.275; -229.000; -162.000
356.627;  455.450;  269.000;  377.000
356.760;  672.725;  120.000;   53.000
356.892;  950.575; -286.000; -601.000
357.025;  582.275;  403.000;  389.000
357.157;  539.975; -167.000; -179.000
357.290;  704.725; -856.000; -713.000
357.423;  219.325; -667.000; -556.000
357.555;  120.350; -217.000; -228.000
357.688;  128.150; -483.000; -364.000
357.820;  412.275; -870.000; -877.000
357.953; 3420.600; -563.000; -589.000
358.085;  729.500; -632.000; -612.000
358.218;  955.425;-1131.000; -932.000
358.350;  172.350;  -58.000;  312.000
358.483; -127.225;-1300.000;-1187.000
358.615;  -49.075;-1182.000;-1078.000
358.747;  -75.525;-1187.000;-1058.000
358.880;   -3.700; -810.000; -744.000
359.012;  -10.425; -376.000; -202.000
359.145;  -44.775; -480.000; -511.000
359.277;   52.150; -962.000; -913.000
359.409; 2783.125;  536.000;  231.000
359.542;  722.575; -738.000; -688.000
359.674;   63.525;   46.000;   13.000
359.806;  -56.650; -565.000; -438.000
359.939;  -60.350; -617.000; -516.000
360.071;  -13.950; -583.000; -579.000
360.203;  -36.925; -411.000; -364.000
360.335;   50.950;  164.000;  -16.000
360.468;  182.100; -249.000; -307.000
360.600; 2289.125; -547.000; -454.000
360.732; 2902.225; -546.000; -423.000
360.864;  408.050;-1216.000;-1044.000
360.996;  211.925; -516.000; -554.000
361.129;   42.500; -389.000; -598.000
361.261;    5.425;  110.000; -113.000
361.393;  -23.825; -252.000; -214.000
361.525;   28.725;   94.000;  244.000
361.657;  -41.225; -821.000; -703.000
361.789;   -2.000; -139.000; -155.000
361.921;  173.600; -642.000; -593.000
362.053;  228.825;  524.000;  541.000
362.185;   41.450;  288.000;   72.000
362.318;  -99.325; -709.000; -705.000
362.450;   93.600;  294.000;  444.000
362.582;   48.550; -913.000; -870.000
362.714;  -42.875; -353.000; -332.000
362.846;  -89.650; -606.000; -490.000
362.978; -141.675; -941.000; -811.000
363.109;   25.350; -161.000; -260.000
363.241;  384.250; -739.000; -749.000
363.373;  426.425; -649.000; -564.000
363.505;  683.000; -186.000;  -91.000
363.637;  148.950; -787.000; -601.000
363.769; -123.400;-1067.000;-1080.000
363.901;  -86.325; -596.000; -654.000
364.033; -127.125;-1103.000;-1062.000
364.165;  -14.150; -283.000; -283.000
364.296;   61.050; -316.000; -177.000
364.428;   67.750;-1344.000;-1220.000
364.560;  -66.950; -679.000; -661.000
364.692;  -65.900; -738.000; -835.000
364.824;  203.075; -588.000; -456.000
364.955;  422.825; -402.000; -564.000
365.087;  982.550;-1097.000; -852.000
365.219;   29.550; -686.000; -816.000
365.351;  -60.775; -526.000; -572.000
365.482;   40.825;  300.000;  240.000
365.614;  -38.100; -402.000; -314.000
365.746;  -96.825; -729.000; -752.000
365.877; -102.325; -706.000; -672.000
366.009;  257.750;  -35.000;  -62.000
366.141;  -90.300;-1249.000;-1134.000
366.272; -113.775; -803.000; -719.000
366.404; -113.200;-1005.000; -874.000
366.535;  -15.375; -139.000;  -12.000
366.667;  -95.975; -644.000; -649.000
366.799;   19.850;  353.000;  203.000
366.930; -126.225; -862.000; -996.000
367.062;  106.725; -639.000; -613.000
367.193;  175.625; -872.000; -842.000
367.325;  -77.400; -580.000; -684.000
367.456;   28.150; -246.000;   31.000
367.588;  166.625; -371.000; -318.000
367.719;   33.575;  -44.000;  -45.000
367.851;  -24.000; -222.000; -241.000
367.982;  -58.200; -875.000; -732.000
368.113;   69.250; -475.000; -358.000
368.245; -128.550; -960.000; -841.000
368.376;  -37.250; -254.000; -302.000
368.508;  -36.800; -188.000; -263.000
368.639; -143.225;-1166.000;-1034.000
368.770;  -24.400; -670.000; -589.000
368.902;  -68.225; -836.000; -926.000
369.033; -114.325; -906.000; -855.000
369.164;  -47.875; -720.000; -653.000
369.296; -100.400; -452.000; -601.000
369.427;  -18.250; -209.000; -144.000
369.558;  -56.050; -593.000; -377.000
369.689; -103.675; -721.000; -569.000
369.821; -133.650; -951.000; -845.000
369.952;  -27.225;   42.000; -108.000
370.083;  -45.175; -229.000; -108.000
370.214;  -83.850; -735.000; -650.000
370.345;   -7.825;   65.000;   81.000
370.477; -104.725; -810.000; -790.000
370.608;  195.575; -328.000; -264.000
370.739;  -73.175;-1233.000;-1292.000
370.870;  -50.875;-1102.000; -923.000
371.001;   55.250; -378.000; -467.000
371.132;  -83.700; -754.000; -735.000
371.263;  -25.875;  -42.000; -148.000
371.394; -132.750; -841.000; -748.000
371.525;   30.600;  345.000;  225.000
371.657;  -87.500; -808.000; -670.000
371.788;   55.800;  103.000;  199.000
371.919;  144.500; -384.000; -304.000
372.050; 3274.950;  -91.000; -156.000
372.181;  947.875; -188.000; -294.000
372.311;  317.400;   42.000; -127.000
372.442;   29.375; -457.000; -451.000
372.573;  -23.150; -444.000; -340.000
372.704; -123.800;-1008.000; -980.000
372.835;   65.050; -228.000; -289.000
372.966;  -69.400; -646.000; -554.000
373.097;  -80.125; -575.000; -711.000
373.228;  -44.200; -717.000; -542.000
373.359;   89.575; -824.000; -536.000
373.490;  820.075; -881.000; -727.000
373.620; 1004.925;-1001.000; -803.000
373.751; 1561.700; -332.000; -396.000
373.882;  698.250; -663.000; -733.000
374.013;   51.275; -449.000; -262.000
374.143;  -63.625; -581.000; -659.000
374.274;  -97.050; -987.000; -908.000
374.405;  142.075; -388.000; -276.000
374.536;  398.425; -526.000; -387.000
374.666;  969.725; -759.000; -807.000
374.797;  173.950; -817.000; -868.000
374.928;  743.125; -710.000; -560.000
375.058;  765.975; -535.000; -500.000
375.189;   72.175;  -59.000;  -93.000
375.320; -101.825; -928.000;-1034.000
375.450;  -59.600; -625.000; -616.000
375.581;  -45.850; -526.000; -436.000
375.712;  -54.150; -574.000; -250.000
375.842;  241.650; -438.000; -415.000
375.973;  194.450; -554.000; -513.000
376.103;  -54.300; -665.000; -648.000
376.234;  -90.950; -531.000; -552.000
376.364;  -52.500; -944.000; -867.000
376.495;  289.950;  925.000;  529.000
376.625;  -37.625; -472.000; -485.000
376.756;   41.500; -709.000; -678.000
376.886;  -95.900;-1178.000;-1026.000
377.017;   53.700;-1048.000;-1061.000
377.147;  354.250; -786.000; -782.000
377.278;   60.375;  174.000;  228.000
377.408; -123.900; -801.000; -815.000
377.538; -105.850; -707.000; -693.000
377.669;  -85.925; -537.000; -613.000
377.799; -103.975; -645.000; -635.000
377.929;  -69.250; -610.000; -428.000
378.060; -129.450; -781.000; -847.000
378.190;  -37.250; -726.000; -531.000
378.320;  -56.350; -401.000; -406.000
378.451;    1.925; -131.000;  -22.000
378.581;  -28.500;  -67.000; -110.000
378.711;  150.900; 1035.000;  866.000
378.841;  -37.875; -533.000; -675.000
378.972;  -78.150; -871.000; -751.000
379.102;  -30.325; -652.000; -579.000
379.232;  -29.350; -126.000;  -73.000
379.362; -113.075;-1001.000; -885.000
379.492;    3.125; -373.000; -424.000
379.623;  103.625;    0.000;  111.000
379.753; -106.350;-1107.000; -974.000
379.883;  167.350;   59.000;  156.000
380.013;    2.650;-1081.000;-1017.000
380.143; -121.650;-1097.000;-1056.000
380.273; -112.850; -985.000; -861.000
380.403;  -10.225; -344.000; -257.000
380.533;  -51.750; -651.000; -664.000
380.663;   50.200;  173.000;  128.000
380.793; -122.650;-1027.000;-1074.000
380.923;  -32.650; -103.000;  -34.000
381.053;  -92.675; -613.000; -623.000
381.183;  -41.875; -106.000; -248.000
381.313;   28.275; -656.000; -470.000
381.443;   15.525; -692.000; -473.000
381.573;  152.550; -402.000; -409.000
381.703;  210.225;-1249.000;-1095.000
381.833; -133.500;-1454.000;-1336.000
381.963;   87.500; -134.000;  -87.000
382.093; 1271.675; -925.000; -909.000
382.223;  380.550; -713.000; -602.000
382.353;  -37.150; -801.000; -608.000
382.482;  303.050;-1091.000; -964.000
382.612;  688.875; -872.000; -644.000
382.742;  379.200; -695.000; -622.000
382.872;  206.425; -565.000; -551.000
383.002;   52.275;  347.000; -132.000
383.131;  -16.800; -226.000; -160.000
383.261;  -53.350; -706.000; -768.000
383.391;  287.700; -552.000; -377.000
383.521; 3318.875;  451.000;  263.000
383.650;  823.825; -947.000; -904.000
383.780;  -31.925; -783.000; -656.000
383.910;  113.625;  880.000;  802.000
384.039;  -12.000; -794.000; -656.000
384.169;  167.675;-1205.000;-1017.000
384.299;  -41.475; -650.000; -662.000
384.428;  -91.625; -764.000; -680.000
384.558;  -52.525; -308.000; -275.000
384.687;  -46.925; -414.000; -334.000
384.817;   -5.125;   75.000;   -2.000
384.947;   -0.450; -234.000; -141.000
385.076;  255.025;  982.000;  912.000
385.206;   96.550;  369.000;  480.000
385.335;  -50.650; -549.000; -417.000
385.465;  -81.075; -655.000; -663.000
385.594;   99.875;  -53.000;  -44.000
385.724;  372.825; -868.000; -838.000
385.853;   91.425; -296.000; -270.000
385.982; 1207.800; -743.000; -787.000
386.112; 1899.850;-1052.000; -871.000
386.241;  116.775; -307.000; -312.000
386.371;    8.450; -174.000;  -87.000
386.500;  -31.975; -825.000; -789.000
386.629;   10.700; -874.000; -817.000
386.759;   66.850;  -43.000;   68.000
386.888;  -35.600; -170.000; -250.000
387.017;  -94.550; -648.000; -620.000
387.147;  -85.975; -771.000; -798.000
387.276;  -18.175; -410.000; -397.000
387.405;    8.675; -398.000; -342.000
387.535;  -58.550; -452.000; -361.000
387.664;  -67.125; -692.000; -620.000
387.793;   61.525; -198.000; -113.000
387.922;  441.375;  255.000;  200.000
388.052;    6.275; -576.000; -423.000
388.181;   -8.375; -342.000; -472.000
388.310;  -28.550; -889.000; -710.000
388.439;  -60.050; -749.000; -742.000
388.568;  168.225;  365.000;  244.000
388.697;  921.225; -756.000; -653.000
388.826;  192.775; -768.000; -666.000
388.956;   23.200; -285.000; -307.000
389.085;  -26.450; -347.000; -287.000
389.214; -114.875; -842.000; -872.000
389.343;  -62.475; -645.000; -413.000
389.472;  380.400;  126.000;  149.000
389.601;  512.100;   91.000;    0.000
389.730;  -10.350; -568.000; -687.000
389.859;   56.950;  226.000;   46.000
389.988;  143.850; -423.000; -408.000
390.117;  129.675; -168.000; -146.000
390.246;  -24.750; -331.000; -320.000
390.375;   55.475; -673.000; -626.000
390.504;  -80.075; -703.000; -621.000
390.633;  -99.100; -672.000; -726.000
390.761;  -85.400; -732.000; -645.000
390.890;   14.350;   -4.000; -130.000
391.019;  -36.075; -421.000; -441.000
391.148; -134.125; -826.000; -855.000
391.277;  -76.400; -576.000; -493.000
391.406;  -93.100; -821.000; -805.000
391.534;   16.400;  574.000; -301.000
391.663;  -73.625; -583.000; -645.000
391.792;  -98.800; -673.000; -701.000
391.921;   68.675;   -3.000;   15.000
392.050;  135.325; -287.000; -228.000
392.178;  -59.425;-1206.000;-1061.000
392.307;  114.575; -758.000; -712.000
392.436;   53.025; -427.000; -641.000
392.564;   14.250;  166.000;   -6.000
392.693;  -79.350; -860.000; -682.000
392.822;  168.025; -529.000; -534.000
392.950;   78.275; -880.000; -714.000
393.079;  258.175; -188.000; -328.000
393.208;    3.725; -488.000; -511.000
393.336;   -8.025; -170.000; -145.000
393.465;  -47.800; -317.000; -199.000
393.593;    3.150;   62.000;   79.000
393.722; -156.775;-1121.000; -916.000
393.850;  -36.650; -188.000;  -61.000
393.979; -139.725; -926.000; -805.000
394.107;  -82.625; -517.000; -537.000
394.236;  -22.925; -570.000; -507.000
394.364;  173.200;  383.000;  206.000
394.493;  261.475; -911.000; -767.000
394.621;  -32.675; -955.000; -916.000
394.750;  732.525; -873.000; -923.000
394.878; 3018.825; -247.000; -149.000
395.007; 4043.375; -721.000; -807.000
395.135;  303.625; -790.000; -721.000
395.263;  -89.550;-1038.000;-1040.000
395.392;   -1.200;  -25.000; -107.000
395.520; -130.875; -818.000; -679.000
395.648;  -94.375; -865.000; -915.000
395.777;  -23.175; -366.000; -405.000
395.905;  -55.850; -449.000; -564.000
396.033;    3.350;  217.000;  172.000
396.162;  418.575; -399.000; -453.000
396.290;  375.525;  -17.000;   -2.000
396.418;   72.400; -555.000; -514.000
396.546;  -80.900; -571.000; -466.000
396.674; -103.975; -850.000; -878.000
396.803;    0.975;  -72.000;  -23.000
396.931;   47.625; -179.000; -199.000
397.059;    5.575;-1026.000; -989.000
397.187; -120.550;-1026.000; -975.000
397.315; -142.500; -884.000; -649.000
397.443; -117.275; -592.000; -443.000
397.572;  -91.625; -578.000; -424.000
397.700;  -11.925; -607.000; -614.000
397.828;   24.450;  120.000;  -90.000
397.956;  -39.175; -508.000; -478.000
398.084;  -62.875; -767.000; -626.000
398.212;   15.650;  137.000;  124.000
398.340;   -7.750;  -56.000;  159.000
398.468;    4.100; -390.000; -169.000
398.596; -132.775; -993.000; -953.000
398.724; -121.750; -762.000; -767.000
398.852; -157.425;-1024.000; -976.000
398.980;  -71.725; -560.000; -560.000
399.108;  -58.125; -982.000; -735.000
399.236;   15.675;   13.000;    8.000
399.363;    2.025;  222.000;  196.000
399.491;  -76.575; -404.000; -398.000
399.619; -130.925; -829.000; -800.000
399.747; -114.750; -859.000; -771.000
399.875;   75.600;  220.000;  234.000
400.003;  -66.200; -359.000; -284.000
400.130;  -93.325; -421.000; -341.000
400.258;  -37.425;  -83.000;   38.000
400.386;  -65.675; -352.000; -168.000
400.514;  -64.750; -526.000; -587.000
400.641;  -81.975; -928.000; -802.000
400.769; -141.175; -979.000; -888.000
400.897; -116.100; -838.000; -793.000
401.025;  -29.275; -166.000; -152.000
401.152;   -4.025;  220.000;   38.000
401.280;  -85.750; -430.000; -429.000
401.408; -120.225; -712.000; -576.000
401.535; -114.075; -735.000; -758.000
401.663; -184.025;-1134.000;-1054.000
401.790;  -90.725; -514.000; -525.000
401.918;   35.225;  436.000;  405.000
402.046;  -28.375;  134.000;  122.000
402.173;  -38.850;  -18.000;    7.000
402.301;  -77.375; -519.000; -397.000
402.428;   37.200;  528.000;  383.000
402.556; -163.100;-1188.000; -913.000
402.683;  -39.875;  -20.000;   -1.000
402.811;  -31.200;  -37.000; -206.000
402.938;  -11.375;   20.000;   27.000
403.066;  150.700; -574.000; -558.000
403.193;  313.875;  299.000;  239.000
403.321;  220.850; -396.000; -574.000
403.448;  287.350;   83.000;   27.000
403.575;  130.075;  -90.000;  -46.000
403.703; -102.600; -732.000; -557.000
403.830;  -86.225; -531.000; -496.000
403.957; -141.250;-1117.000;-1023.000
404.085;    1.225;  -61.000; -172.000
404.212;   99.900;  -50.000;   63.000
404.339;  276.825; -566.000; -306.000
404.467; 5961.975; -612.000; -524.000
404.594; 3777.025; -287.000; -227.000
404.721;  827.000; -869.000; -764.000
404.848;   76.875; -113.000; -202.000
404.976; -112.125; -856.000; -783.000
405.103;  -22.125;  -14.000;  -82.000
405.230;   -5.275;  190.000;  226.000
405.357;    7.975;  117.000;   44.000
405.484;  275.200;  -49.000;    5.000
405.612;   47.575; -548.000; -563.000
405.739;  -62.075; -488.000; -243.000
405.866;   74.700;  669.000;  385.000
405.993;  -54.625; -398.000; -102.000
406.120; -135.550; -801.000; -887.000
406.247;  -69.400; -323.000; -342.000
406.374;  363.875;  540.000;  629.000
406.501;   69.000; -632.000; -702.000
406.628; -101.200; -621.000; -589.000
406.755; -103.275; -803.000; -620.000
406.882;  -37.250; -228.000; -277.000
407.009; -104.675; -719.000; -628.000
407.136;   22.000; -480.000; -401.000
407.263;   81.050; -939.000; -829.000
407.390;  -96.050; -692.000; -614.000
407.517; -161.325;-1139.000;-1187.000
407.644;  -65.125; -332.000; -256.000
407.771;  -82.450; -249.000; -287.000
407.898;    8.100;  168.000;  328.000
408.025;  -64.350; -421.000; -313.000
408.151;  -13.875;   82.000;  153.000
408.278;  -68.075; -267.000; -216.000
408.405; -134.575; -931.000; -899.000
408.532;  -73.250; -549.000; -542.000
408.659; -126.575; -677.000; -648.000
408.785; -189.800;-1298.000;-1170.000
408.912;  -77.850; -412.000; -296.000
409.039; -103.750; -610.000; -686.000
409.166; -110.575; -591.000; -555.000
409.292; -101.000; -571.000; -534.000
409.419; -131.575; -665.000; -649.000
409.546;  -86.300; -431.000; -192.000
409.672; -117.025; -713.000; -545.000
409.799;  -15.475;  -36.000;   34.000
409.926;  -48.950; -180.000; -179.000
410.052; -170.400;-1127.000;-1091.000
410.179;  -67.400; -368.000; -392.000
410.305;  -97.025; -375.000; -493.000
410.432;  -47.000; -220.000; -333.000
410.558;  -95.850; -305.000; -380.000
410.685; -113.000; -688.000; -431.000
410.812; -104.625; -409.000; -588.000
410.938; -156.950; -964.000; -808.000
411.065; -103.125; -671.000; -645.000
411.191;  -31.500; -189.000; -174.000
411.317; -125.475; -823.000; -742.000
411.444;  -70.175; -317.000; -246.000
411.570;  -69.175; -339.000; -294.000
411.697; -133.325; -758.000; -752.000
411.823; -170.325; -989.000; -999.000
411.949;  -53.700;  -56.000;   17.000
412.076; -121.650; -539.000; -519.000
412.202; -130.300; -758.000; -757.000
412.329; -135.025; -798.000; -752.000
412.455; -119.900; -821.000; -657.000
412.581;  -25.850;  -15.000;  172.000
412.707;  -79.925; -540.000; -457.000
412.834;   18.675;  156.000;  219.000
412.960;  -80.550; -785.000; -784.000
413.086; -113.175; -743.000; -701.000
413.212;  117.375;  604.000;  578.000
413.339;  -74.550; -685.000; -701.000
413.465;  -11.850; -364.000; -310.000
413.591; -102.175; -757.000; -474.000
413.717;  -60.275; -358.000; -366.000
413.843; -146.175; -839.000; -861.000
413.969;  -69.500;  -47.000; -292.000
414.096; -107.475; -679.000; -679.000
414.222;  -12.325;  -33.000;   85.000
414.348;  -35.925; -652.000; -385.000
414.474;   68.575;   38.000;  -52.000
414.600;  -13.150; -126.000; -144.000
414.726;  -27.400;  -96.000;  -55.000
414.852;  -66.675; -365.000; -342.000
414.978;   31.150;  104.000;  -18.000
415.104;   47.725;   38.000;   80.000
415.230;   14.275; -329.000; -330.000
415.356;   26.600; -409.000; -514.000
415.482;  187.325;   13.000;  -35.000
415.608;  276.375; -247.000; -323.000
415.734;  963.625;   67.000;   38.000
415.860;20245.550; -875.000; -767.000
415.986;14549.975; -685.000; -607.000
416.111; 1259.500; -798.000; -652.000
416.237;  247.450; -424.000; -571.000
416.363; 1155.450; -765.000; -733.000
416.489; 4271.100; -324.000; -251.000
416.615;  459.975; -707.000; -742.000
416.741;  -26.700; -677.000; -784.000
416.866;  -85.800; -673.000; -736.000
416.992; -132.975; -801.000; -818.000
417.118;  -18.925;  -41.000;  -80.000
417.244;  -77.475; -798.000; -531.000
417.369;  -91.675; -801.000; -612.000
417.495;  -28.000; -325.000; -254.000
417.621;  -94.800;-1015.000; -803.000
417.746;  -13.275; -579.000; -572.000
417.872;   50.675; -254.000; -144.000
417.998;   35.825; -515.000; -530.000
418.123; 1110.750;-1073.000; -845.000
418.249; 5532.475; -512.000; -601.000
418.374;  762.850; -916.000; -824.000
418.500;  119.500; -383.000; -482.000
418.626;  119.275;   70.000;  -59.000
418.751;  105.675; -549.000; -448.000
418.877;  185.525; -637.000; -643.000
419.002; 1820.325; -688.000; -560.000
419.128;12922.875; -930.000; -721.000
419.253; 3116.825; -967.000; -837.000
419.379;  419.425; -391.000; -338.000
419.504;  399.175;  325.000;  415.000
419.629;  541.300; -393.000; -212.000
419.755; 3722.425; -317.000; -254.000
419.880;21944.575;  -98.000;   67.000
420.006;11678.600; -280.000; -221.000
420.131;30041.600; -662.000; -775.000
420.256; 4295.600; -315.000; -316.000
420.382;  565.425; -665.000; -687.000
420.507;   68.275; -649.000; -778.000
420.632;  116.675; -337.000; -339.000
420.758;  208.000; -251.000; -425.000
420.883;  -95.575; -876.000; -672.000
421.008; -109.425; -775.000; -619.000
421.133;  -75.975; -509.000; -467.000
421.259;  -41.325; -325.000; -259.000
421.384; -117.400; -834.000; -693.000
421.509;  -65.050;-1052.000; -862.000
421.634;  963.575; -936.000; -820.000
421.759;  418.875; -359.000; -327.000
421.885;  -78.650; -717.000; -656.000
422.010;  -82.525; -673.000; -542.000
422.135; -145.700; -695.000; -727.000
422.260;   19.275;  340.000;  280.000
422.385;  -51.275;   12.000;  -98.000
422.510;   -6.725;  151.000;  -26.000
422.635;    8.850;  -87.000;  -43.000
422.760;   73.075; -766.000; -791.000
422.885;   46.675;  -57.000;  -80.000
423.010;  -51.200; -112.000; -169.000
423.135;  -99.875; -481.000; -561.000
423.260;  -36.600; -150.000; -245.000
423.385;   59.775;  476.000;  222.000
423.510;   20.300;   71.000;  -22.000
423.635;   70.000;  133.000;   45.000
423.760;   40.625;  383.000;  328.000
423.885;   49.375;  336.000;  391.000
424.010;   10.075;  -68.000;  -13.000
424.135;  -30.425;    5.000;  -33.000
424.259;  -92.900; -654.000; -457.000
424.384;  -63.950; -279.000; -272.000
424.509;  -25.600; -260.000; -186.000
424.634;  -98.750; -761.000; -623.000
424.759;  -32.075; -688.000; -544.000
424.883;  -23.525; -506.000; -527.000
425.008;  154.050; -502.000; -410.000
425.133; 2014.400; -679.000; -653.000
425.258;  952.800; -517.000; -381.000
425.382;  953.725; -867.000; -774.000
425.507; 2374.975; -487.000; -543.000
425.632;  410.300; -802.000; -663.000
425.756;  468.925; -256.000; -146.000
425.881; 6892.950; -831.000; -857.000
426.006;18611.350; -604.000; -355.000
426.130; 2838.975; -696.000; -508.000
426.255;  369.600; -611.000; -491.000
426.379;  165.300; -189.000; -577.000
426.504;  393.825;  660.000;  544.000
426.629; 4097.125; -519.000; -466.000
426.753; 2778.400;   64.000;  -46.000
426.878;  316.750; -252.000; -288.000
427.002;  144.450; -651.000; -668.000
427.127; 1629.725;  -35.000; -158.000
427.251;11673.850;  372.000;  401.000
427.375; 3309.900; -191.000; -173.000
427.500; 2121.600; -616.000; -610.000
427.624;  694.575; -234.000; -400.000
427.749;   82.275; -216.000; -225.000
427.873;  -40.825; -499.000; -412.000
427.997;  -52.800; -222.000; -230.000
428.122;   78.675;  795.000;  703.000
428.246;   48.150;  433.000;  434.000
428.371; -126.700; -869.000; -773.000
428.495; -109.775; -624.000; -646.000
428.619;  -36.875; -186.000; -117.000
428.743;    8.875;   65.000;  132.000
428.868;   -6.900; -732.000; -643.000
428.992; 1245.125; -219.000; -326.000
429.116;  497.050; -329.000; -357.000
429.240;  238.525;  419.000;  426.000
429.365;  -29.825; -454.000; -574.000
429.489;  -58.025; -638.000; -647.000
429.613;   19.675; -236.000; -177.000
429.737;   24.600; -563.000; -432.000
429.861;  274.025; -247.000; -133.000
429.985; 5700.675; -425.000; -305.000
430.109; 6232.200; -770.000; -908.000
430.234;  710.950;   76.000;  -50.000
430.358;   72.275; -250.000; -160.000
430.482;  -74.700; -672.000; -564.000
430.606;  -74.575; -655.000; -375.000
430.730;   -8.300; -437.000; -388.000
430.854;   78.300; -909.000; -835.000
430.978;  -84.300; -795.000; -764.000
431.102;  -89.250; -499.000; -422.000
431.226; -128.275; -874.000; -815.000
431.350;   21.725;  345.000;  422.000
431.474;  -90.150; -661.000; -373.000
431.597; -157.325;-1060.000; -848.000
431.721;  -74.825; -276.000; -267.000
431.845; -118.375; -704.000; -472.000
431.969;  -87.200; -304.000; -349.000
432.093;  -93.300; -395.000; -317.000
432.217;  -30.600;   32.000;   82.000
432.341;  -93.600; -523.000; -518.000
432.464;   -4.450;   96.000;   40.000
432.588;  158.350; -401.000; -329.000
432.712;   72.375;  -52.000;  -52.000
432.836;   37.000;  213.000;  263.000
432.959;  -24.450; -372.000; -311.000
433.083;   99.050;   11.000;    2.000
433.207;  376.325;  285.000;  930.000
433.330; 5235.225; -391.000; -200.000
433.454; 6419.550; -654.000; -638.000
433.578; 3650.250;  583.000;  278.000
433.701;  652.400; -623.000; -675.000
433.825;  125.150; -292.000; -299.000
433.949;  114.400;   28.000;  -72.000
434.072;   29.275; -410.000; -323.000
434.196;  -27.675; -309.000; -117.000
434.319; 3770.350;25482.000;25124.000
434.443;  718.225; -656.000; -603.000
434.566; 2714.775;  281.000;   62.000
434.690;  442.450; -637.000; -383.000
434.813;   56.225; -251.000; -173.000
434.937;  -77.150; -569.000; -696.000
435.060;  -51.550; -423.000; -332.000
435.184;  207.325; -492.000; -217.000
435.307;  135.350;  159.000;  102.000
435.431;  -10.350;  -40.000;   24.000
435.554;  -74.500; -399.000; -240.000
435.677;  -86.875; -350.000; -258.000
435.801;  -52.375;  -25.000;   49.000
435.924;  -35.650;    1.000;  -67.000
436.048; -118.525;-1019.000; -732.000
436.171;  -68.925; -240.000;  -66.000
436.294;  -40.175; -248.000; -229.000
436.417;   85.600; -963.000; -849.000
436.541;  -77.350; -814.000; -840.000
436.664;  -54.075; -242.000; -316.000
436.787;  -39.775;   13.000;  113.000
436.910; -118.400; -792.000; -422.000
437.034;    2.200;  142.000;  143.000
437.157;   24.425;  -11.000;    0.000
437.280;  -65.700; -392.000; -292.000
437.403;  -92.575; -982.000; -869.000
437.526;  487.550; -903.000; -865.000
437.649; 1864.800; -505.000; -332.000
437.772;  249.250; -692.000; -540.000
437.896;  108.225;  700.000;  544.000
438.019; -101.900; -758.000; -503.000
438.142; -103.725; -596.000; -506.000
438.265;  -44.625; -639.000; -670.000
438.388;  439.700; -520.000; -410.000
438.511;   63.825; -597.000; -394.000
438.634;  -56.075; -247.000; -125.000
438.757; -131.150; -693.000; -619.000
438.880;  -35.175;  -34.000;  -57.000
439.003;  -85.675; -417.000; -437.000
439.126;  -69.250; -287.000; -167.000
439.248;  -60.525;  -98.000; -139.000
439.371;  -60.575;    9.000;  -53.000
439.494;   37.225;  510.000;  439.000
439.617;  -62.275;   65.000;  -88.000
439.740; -175.875; -968.000; -816.000
439.863; -162.075; -755.000; -595.000
439.986; -122.850; -476.000; -431.000
440.108;  -50.350; -161.000; -112.000
440.231; -175.725; -950.000; -836.000
440.354;  -62.825;  -64.000; -150.000
440.477;   -9.425; -566.000; -542.000
440.599;  -31.000; -200.000; -225.000
440.722; -119.200; -709.000; -586.000
440.845;   53.400;  751.000;  928.000
440.968;  -99.800; -415.000; -311.000
441.090;  -70.075; -199.000;  -33.000
441.213; -176.600;-1021.000; -825.000
441.336;  -59.425; -159.000;   -5.000
441.458;  -85.800; -549.000; -396.000
441.581; -105.525; -628.000; -629.000
441.703;  -76.700; -152.000;   13.000
441.826; -120.525; -557.000; -400.000
441.948;  -60.150;   56.000;   51.000
442.071;   21.425;  555.000;  424.000
442.193; -119.625; -531.000; -485.000
442.316;   12.625;  152.000;   97.000
442.438;   50.950; -233.000;  -10.000
442.561;   59.325;  272.000;  262.000
442.683;  429.675; -809.000; -522.000
442.806;  945.200;   -8.000;   74.000
442.928;   -2.150; -859.000; -604.000
443.051;  -76.450; -577.000; -373.000
443.173; -107.225; -341.000; -339.000
443.295;  -99.750; -263.000; -371.000
443.418;  -67.725; -321.000;  -29.000
443.540;  -12.250; -106.000;   -4.000
443.662; -125.450; -563.000; -465.000
443.785;  -15.550;  335.000;  199.000
443.907;  -91.050; -362.000; -208.000
444.029; -130.000; -767.000; -494.000
444.152; -151.575; -644.000; -554.000
444.274;  -30.600;  -18.000;  -24.000
444.396; -108.125; -461.000; -221.000
444.518; -142.450; -691.000; -454.000
444.640;  -98.575; -268.000; -111.000
444.763;  -28.100;  388.000;  249.000
444.885; -112.450; -432.000; -392.000
445.007;  -35.900;   35.000;   86.000
445.129; -117.675; -610.000; -515.000
445.251; -117.875; -372.000; -439.000
445.373; -139.100; -537.000; -386.000
445.495;   -4.675;  242.000;  350.000
445.617;   50.875;  853.000;  753.000
445.739;  -76.300; -215.000;  -97.000
445.861;  -38.175; -245.000; -112.000
445.984;  -41.425; -267.000; -101.000
446.105;  157.125; -418.000; -251.000
446.227;  509.250; -176.000;  -19.000
446.349;    2.250; -358.000; -249.000
446.471; -101.500; -615.000; -448.000
446.593;  -67.300; -316.000;   19.000
446.715;  -30.375;  -67.000;   41.000
446.837;   50.675;  697.000;  832.000
446.959;  -95.925; -457.000; -478.000
447.081; -131.825; -628.000; -518.000
447.203;   49.700;  862.000;  834.000
447.325;  -97.675; -270.000;   42.000
447.446;  -13.900;  286.000;  530.000
447.568; -162.700; -921.000; -803.000
447.690;  -77.350; -236.000; -245.000
447.812; -153.825; -798.000; -519.000
447.933;  -47.200;  155.000;  127.000
448.055;  -77.250; -306.000; -261.000
448.177;  117.225;   31.000;   79.000
448.299;   45.700; -935.000; -727.000
448.420;    2.525;  -25.000;  159.000
448.542;  -51.500;   -3.000;   33.000
448.664;  -17.775;  109.000;  322.000
448.785;  -27.425;  265.000;   83.000
448.907;  -96.450; -614.000; -353.000
449.028;  -39.925; -771.000; -471.000
449.150;   52.900;  492.000;  589.000
449.272; -176.250;-1044.000; -913.000
449.393;   36.350;  612.000;  694.000
449.515; -136.925; -634.000; -581.000
449.636;  -56.050; -264.000; -155.000
449.758;   57.250;  763.000;  622.000
449.879;  -94.450; -498.000; -396.000
450.001;  -80.400; -149.000;  -49.000
450.122;  -53.700;  -95.000;  162.000
450.244;   -7.900;   37.000;  364.000
450.365;  -94.850; -495.000; -301.000
450.486;  -40.475;   80.000;  268.000
450.608;   19.775;  393.000;  326.000
450.729;   84.650;  578.000;  645.000
450.850;   -0.325; -574.000; -466.000
450.972;  782.150; -552.000; -389.000
451.093; 5126.600;  190.000;  588.000
451.214; 2200.425; -516.000; -337.000
451.336;  392.750;  773.000;  579.000
451.457;   63.250;  264.000;  393.000
451.578;  -36.125; -118.000;  -74.000
451.699; -122.850; -546.000; -540.000
451.821;  -60.100; -284.000;  -50.000
451.942;  -10.600;  278.000;  285.000
452.063;   26.950;  228.000;  419.000
452.184;  578.625;  -54.000;  -49.000
452.305; 1115.625;  103.000;  170.000
452.427;  126.600; -549.000; -301.000
452.548;  -34.300;   23.000;   79.000
452.669;  -44.650; -257.000;  -89.000
452.790;  -51.625;    3.000;  -18.000
452.911;   -7.650;  195.000;  259.000
453.032;  -69.225; -289.000;  -60.000
453.153;  -45.025;  -29.000;   81.000
453.274;   54.950;  737.000;  868.000
453.395;  -51.750;  -51.000;  175.000
453.516;  112.825; 1317.000; 1388.000
453.637;  -66.625; -205.000; -150.000
453.758;  -61.775;   15.000;   69.000
453.879; -120.350; -462.000; -250.000
454.000;   70.475; 1086.000;  948.000
454.121; -112.550; -554.000; -326.000
454.242; -123.875; -599.000; -383.000
454.362;  -65.300;  -99.000;  114.000
454.483;  -55.875; -309.000; -229.000
454.604;   40.875;  512.000;  580.000
454.725; -133.925; -627.000; -555.000
454.846; -118.725; -474.000; -406.000
454.967;  -27.950;  230.000;  539.000
455.087;  -49.700;  179.000;  153.000
455.208;    6.600;  554.000;  856.000
455.329;  -63.125;  -22.000;   82.000
455.450;   46.100;  473.000;  633.000
455.570;  -84.050; -234.000; -211.000
455.691;  -61.250;  201.000;  407.000
455.812; -101.150; -270.000;  -92.000
455.932;  -62.575;  107.000;  -97.000
456.053;  -77.275;   36.000;   24.000
456.173; -107.325; -433.000; -355.000
456.294; -131.425; -476.000; -303.000
456.415;  -65.800;  -73.000;   70.000
456.535;  -33.925;  297.000;  273.000
456.656;  -47.425;  132.000;  240.000
456.776;  -51.525;    3.000;  298.000
456.897;   -3.900;  308.000;  513.000
457.017;  -75.375; -153.000;   -3.000
457.138; -113.200; -402.000; -249.000
457.258;  -26.700;  263.000;  224.000
457.379;  -22.200;  509.000;  521.000
457.499;  -29.550;  443.000;  432.000
457.620; -133.650; -407.000; -231.000
457.740;  -89.625; -132.000;  -11.000
457.860;  -71.300;   87.000;   44.000
457.981;  -49.375;  132.000;  124.000
458.101;  -90.175;  -89.000;   40.000
458.221;  -24.750;  336.000;  402.000
458.342;  -51.750;   -4.000;  -37.000
458.462;   26.150;  617.000;  352.000
458.582;  -43.500; -302.000; -294.000
458.703;   32.225;  303.000;  154.000
458.823;  -21.250;   22.000;  163.000
458.943;   29.850;  341.000;  467.000
459.063;  -30.100; 1124.000;  192.000
459.183;  -18.550;  328.000;  313.000
459.304;    0.425;  315.000;  517.000
459.424;  -65.425; -246.000;  -89.000
459.544;  322.050;  388.000;  764.000
459.664;  867.000;  499.000;  506.000
459.784;  305.850; 1004.000; 1175.000
459.904;   68.750;  867.000;  744.000
460.024;   65.500;  867.000;  684.000
460.144;   -3.100;  449.000;  554.000
460.264;   -8.325;  515.000;  327.000
460.385;  -89.625; -145.000; -119.000
460.505;   34.875;  905.000;  858.000
460.625;  -95.675;  -17.000;  -68.000
460.745;  -26.125;  396.000;  541.000
460.864;  -39.550;  153.000;  469.000
460.984;    6.500;  499.000;  573.000
461.104;  153.825; 1656.000; 1775.000
461.224;   17.375;  657.000;  650.000
461.344;  -34.775;  431.000;  360.000
461.464;  -33.525;  258.000;  513.000
461.584;  -21.700;  283.000;  466.000
461.704;  -64.400;   58.000;  108.000
461.824;  -57.050;  238.000;  259.000
461.943;  -42.200;  191.000;  130.000
462.063;  -71.475;    2.000;  324.000
462.183;   16.875;  639.000;  717.000
462.303;  112.725; 1678.000; 1230.000
462.422;   24.100;  781.000;  840.000
462.542;  -25.250;  271.000;  391.000
462.662;   29.175;  353.000;  380.000
462.782;  255.250;  833.000;  572.000
462.901;  495.100;  545.000;  717.000
463.021;  299.525; 1702.000; 1638.000
463.141;  -15.550;  337.000;  770.000
463.260;  -20.850;  614.000;  474.000
463.380;   16.175;  902.000;  884.000
463.499;  -40.275;  342.000;  332.000
463.619;  -43.150;  581.000;  559.000
463.738;   89.950; 1644.000;  903.000
463.858;   14.350;  657.000;  811.000
463.978;  -37.375;  542.000;  396.000
464.097;   38.825;  921.000; 1114.000
464.217;  113.875; 1196.000; 1143.000
464.336;  106.400; 1068.000; 1130.000
464.455;  -30.675;  328.000;  659.000
464.575;   34.425;  597.000;  602.000
464.694;  163.875; 1204.000; 1179.000
464.814;  113.200; 1190.000; 1138.000
464.933;   68.025; 1095.000; 1027.000
465.052;   89.300; 1412.000; 1054.000
465.172;   66.425;  922.000;  799.000
465.291;  134.275; 1376.000; 1320.000
465.410;   17.100;  462.000;  735.000
465.530;   74.825; 1355.000; 1310.000
465.649;   59.000; 1209.000; 1273.000
465.768;  137.625; 1673.000; 1508.000
465.888;   44.050;  941.000; 1174.000
466.007;   97.925; 1335.000; 1440.000
466.126;    2.525;  721.000;  641.000
466.245;   42.075; 1176.000; 1187.000
466.364;   25.225;  950.000; 1060.000
466.484;   53.550; 1024.000; 1213.000
466.603;   47.225; 1101.000; 1222.000
466.722;  116.050; 1490.000; 1769.000
466.841;   80.825; 1151.000; 1401.000
466.960;   27.250; 1069.000;  972.000
467.079;  119.950; 1971.000; 1786.000
467.198;   35.725; 1238.000; 1181.000
467.317;   97.875; 1768.000; 1162.000
467.436;   71.700; 1709.000; 1261.000
467.555;  119.300; 1796.000; 1746.000
467.674;   63.600; 1227.000; 1329.000
467.793;   45.525; 1376.000; 1374.000
467.912;   86.875; 1658.000; 1539.000
468.031;  131.400; 2038.000; 1930.000
468.150;  131.925; 1842.000; 1837.000
468.269;  204.875; 2313.000; 2090.000
468.388;  174.050; 2168.000; 2339.000
468.507;  240.125; 2884.000; 2903.000
468.626;  235.200; 2555.000; 2541.000
468.744;  149.650; 2018.000; 2174.000
468.863;  188.850; 2312.000; 2523.000
468.982;   80.600; 1503.000; 1555.000
469.101;  222.650; 2788.000; 2692.000
469.220;  152.200; 2333.000; 2176.000
469.338;  235.900; 2935.000; 3051.000
469.457;  204.525; 2719.000; 2545.000
469.576;  347.900; 3953.000; 3784.000
469.695;  247.950; 2877.000; 3066.000
469.813;  411.675; 4148.000; 4192.000
469.932;  429.925; 4255.000; 4485.000
470.051;  407.075; 4075.000; 4161.000
470.169;  892.975; 4470.000; 4338.000
470.288; 1472.650; 4700.000; 4809.000
470.406;  898.425; 5059.000; 5194.000
470.525;  604.100; 6101.000; 5787.000
470.644;  651.400; 6847.000; 6794.000
470.762;  807.075; 8397.000; 7873.000
470.881;  940.200; 8651.000; 8464.000
470.999; 1049.875; 9685.000; 9151.000
471.118; 1090.850;11174.000;10711.000

