
Integration time [ms]: 100.000
Averaging Nr. [scans]: 40
Smoothing Nr. [pixels]: 0
Data measured with spectrometer [name]: 2101012U2
Wave   ;Sample   ;Dark     ;Reference
[nm]   ;[counts] ;[counts] ;[counts] 

197.733;   59.825;  516.000;  404.000
197.879;  -90.400; -610.000; -634.000
198.025;  -45.225; -475.000; -420.000
198.171;  -70.950; -602.000; -612.000
198.317;  -33.000; -401.000; -316.000
198.463;  -73.025; -655.000; -404.000
198.609;   17.900;  181.000; -137.000
198.755;  -75.225; -644.000; -410.000
198.901;  -67.725; -505.000; -424.000
199.047;  -71.500; -615.000; -488.000
199.193;  -37.175; -230.000; -468.000
199.339;  -42.700; -222.000; -369.000
199.485;   42.200;  330.000;  271.000
199.631;   16.275;  227.000;  310.000
199.777;  -44.225; -466.000; -398.000
199.923;  -63.750; -610.000; -424.000
200.069;   -2.925; -141.000;  -58.000
200.215;   57.400;  128.000;  453.000
200.361;   39.975;  243.000;  477.000
200.507;  -66.150; -600.000; -373.000
200.653;  -21.900; -371.000; -194.000
200.798;  -44.150; -215.000; -125.000
200.944;  -12.825; -146.000;  -41.000
201.090;   38.725;   61.000;  222.000
201.236;  -16.725; -116.000; -158.000
201.382;  130.575;  874.000;  903.000
201.528;    1.525;  -58.000;  -48.000
201.674;  -55.900; -386.000; -293.000
201.819;  -56.925; -540.000; -439.000
201.965;  -85.325; -699.000; -447.000
202.111;  -24.925; -273.000; -226.000
202.257;  -42.100; -250.000; -238.000
202.402;    0.825;   13.000;  -36.000
202.548;  -21.525; -169.000; -116.000
202.694;   85.075;  410.000; -183.000
202.840;  -69.900; -603.000; -531.000
202.985;  -70.550; -681.000; -639.000
203.131; -106.750; -832.000; -666.000
203.277;  -14.875; -199.000; -262.000
203.423;  -55.425; -434.000; -520.000
203.568;  -33.700; -462.000; -237.000
203.714;  -59.275; -535.000; -542.000
203.860;  -90.725; -682.000; -641.000
204.005;   16.125;  112.000;  167.000
204.151;   60.100;  561.000;  556.000
204.296;  -44.475; -354.000; -221.000
204.442;  -70.150; -600.000; -547.000
204.588;  -77.800; -592.000; -579.000
204.733;   -1.275;  178.000;  168.000
204.879; -132.025;-1018.000; -822.000
205.025;    9.725;  -99.000;  126.000
205.170;   -2.150;  -17.000;   94.000
205.316;   86.100;  438.000;  661.000
205.461;  -83.325; -698.000; -554.000
205.607;   82.325;  609.000;  665.000
205.752;  -89.100; -626.000; -551.000
205.898;  -50.850; -501.000; -391.000
206.043;  -56.225; -578.000; -506.000
206.189;  -45.200; -243.000; -285.000
206.334;   90.225;  554.000;  606.000
206.480;   90.250;  409.000;  239.000
206.625;  -87.025; -529.000; -552.000
206.771;  -43.325; -451.000; -373.000
206.916;  -26.850; -210.000; -537.000
207.062;  -64.925; -545.000; -591.000
207.207;  -65.075; -546.000; -443.000
207.353;   40.750;  185.000;  460.000
207.498;   15.900;  196.000;   85.000
207.643;  -46.800; -501.000; -370.000
207.789; -134.300;-1069.000; -910.000
207.934;  -94.575; -665.000; -713.000
208.080;  -32.125; -154.000;   66.000
208.225;   -8.500;  -22.000;  -57.000
208.370;  -86.225; -727.000; -619.000
208.516;  -61.150; -741.000; -487.000
208.661;  -22.950; -127.000;  -69.000
208.806;  -23.400; -165.000; -171.000
208.952; -122.050;-1044.000; -731.000
209.097;   72.750;  378.000;  349.000
209.242;  -45.700; -307.000; -382.000
209.387;   61.625;  392.000;  350.000
209.533;  -52.975; -321.000; -350.000
209.678;   70.950;  472.000;  543.000
209.823;  -44.625; -408.000; -310.000
209.969;  -97.275; -860.000; -757.000
210.114; -105.450; -907.000; -719.000
210.259; -113.425; -939.000; -889.000
210.404;  -11.400; -171.000;  103.000
210.549;   14.725;  108.000;    3.000
210.695;  -25.025;   -3.000;  -95.000
210.840;   30.350;   94.000;   67.000
210.985;  -61.150; -484.000; -303.000
211.130;   72.950;  268.000;  406.000
211.275;   18.025;  207.000;  199.000
211.420;  -43.425; -300.000; -289.000
211.566;  -62.500; -536.000; -489.000
211.711;    8.450;  218.000;  157.000
211.856;  -54.900; -545.000; -519.000
212.001;   15.200;  151.000;   44.000
212.146;   24.450;  153.000;   49.000
212.291;  -34.525; -210.000; -186.000
212.436;  -35.650; -280.000;   -6.000
212.581;  -92.150; -685.000; -653.000
212.726;  -73.675; -487.000; -538.000
212.871;  -51.125; -552.000; -217.000
213.016; -163.650;-1172.000;-1029.000
213.161;   66.775;  406.000;  291.000
213.306;  -74.000; -435.000; -577.000
213.451; -100.575; -778.000; -689.000
213.596;  -48.825; -455.000; -347.000
213.741;  -50.900; -448.000; -538.000
213.886;  -76.200; -498.000; -517.000
214.031;  -18.125; -294.000; -124.000
214.176;  -52.225; -408.000; -341.000
214.321;  -14.700; -296.000; -157.000
214.466;  -25.075; -163.000;  -43.000
214.611;    0.150;  -61.000;  -10.000
214.756; -116.200; -948.000; -858.000
214.901;  -15.650; -388.000; -226.000
215.046; -134.825; -797.000; -825.000
215.191;   22.325;  128.000;   35.000
215.336;  -19.800; -157.000;  -19.000
215.480;  -62.550; -684.000; -505.000
215.625;   -7.050; -175.000;  -19.000
215.770;  -93.625; -757.000; -662.000
215.915;  -34.600;   -5.000;  -97.000
216.060;  -12.250; -113.000;  -21.000
216.205; -100.900; -731.000; -779.000
216.349;  -63.375; -470.000; -533.000
216.494; -144.725; -939.000; -867.000
216.639; -113.250; -823.000; -888.000
216.784;  -75.550; -577.000; -525.000
216.929;   45.675;  392.000;  281.000
217.073;  -14.475; -244.000;  -31.000
217.218;   -0.525;   78.000;  -47.000
217.363;  -88.075; -656.000; -618.000
217.507;  -90.825; -623.000; -588.000
217.652; -134.400; -845.000; -874.000
217.797;  -92.100; -708.000; -659.000
217.942; -116.450; -856.000; -720.000
218.086;   62.650;  608.000;  539.000
218.231;  -24.675; -174.000;  -26.000
218.376;  -28.650; -337.000; -229.000
218.520;    1.350;  -41.000;   96.000
218.665;  -37.450; -338.000; -204.000
218.810;  -30.075; -275.000; -233.000
218.954;    7.550;  201.000;   35.000
219.099; -112.750; -713.000; -963.000
219.243;  -76.825; -589.000; -554.000
219.388;  -35.625; -264.000; -136.000
219.532;  -13.750; -116.000; -116.000
219.677;  -73.775; -564.000; -521.000
219.822;    9.675;   33.000;   89.000
219.966;    6.525;   17.000;  -99.000
220.111;  -45.425; -328.000;  -40.000
220.255;  -95.625; -797.000; -750.000
220.400;  -23.350; -180.000; -146.000
220.544;  -65.250; -516.000; -450.000
220.689;  -56.325; -422.000; -451.000
220.833;  -27.075; -123.000;  -58.000
220.978;  -35.800; -393.000; -563.000
221.122;   15.775;  319.000;  307.000
221.267; -116.575; -906.000; -837.000
221.411;  -62.675; -478.000; -394.000
221.555;   -6.675; -104.000;  -23.000
221.700;  -32.250; -329.000; -222.000
221.844;   29.100;  255.000;  272.000
221.989;  -45.225; -328.000; -311.000
222.133;  -40.525; -289.000; -307.000
222.277;  -18.400;    5.000;   78.000
222.422;   -1.125;  227.000;  113.000
222.566;  -31.925; -381.000; -214.000
222.711;  -68.425; -414.000; -479.000
222.855;  -85.800; -643.000; -586.000
222.999;  -85.925; -642.000; -717.000
223.144;  -33.875; -195.000; -194.000
223.288;   47.625;  423.000;  251.000
223.432;   21.950;  184.000;  230.000
223.576;   23.100;  152.000;  -21.000
223.721;   39.325;  364.000;  273.000
223.865;  -61.975; -472.000; -475.000
224.009;  256.475; 1673.000; 1631.000
224.153;  -77.425; -660.000; -671.000
224.298;  -66.450; -531.000; -489.000
224.442;   -5.025;  -74.000;  -33.000
224.586;  -25.675; -169.000; -106.000
224.730;  -82.675; -858.000; -670.000
224.875; -108.925; -739.000; -688.000
225.019;   -0.600;  102.000;  188.000
225.163;   59.750;  208.000;  341.000
225.307;   18.900;   97.000;  -91.000
225.451;   51.800;  360.000;  481.000
225.595;   26.475;  264.000;  176.000
225.739;  -20.500; -170.000;  -94.000
225.884;    5.800;   86.000;    5.000
226.028;  -95.375; -760.000; -626.000
226.172;  -42.775; -260.000; -273.000
226.316; -120.650; -941.000; -902.000
226.460;  -80.250; -645.000; -493.000
226.604;  -47.775; -406.000; -400.000
226.748; -104.200; -836.000; -733.000
226.892;  -41.800; -227.000; -181.000
227.036;  -47.650; -537.000; -447.000
227.180;  -53.125; -551.000; -375.000
227.324;  -60.625; -561.000; -580.000
227.468; -105.625; -819.000; -717.000
227.612;   15.375;  242.000;  -28.000
227.756; -106.350; -845.000; -698.000
227.900;   60.150;  342.000;  441.000
228.044;  -60.300; -509.000; -290.000
228.188;   56.650;  448.000;  568.000
228.332;  -71.225; -546.000; -472.000
228.476;  -17.700; -223.000; -149.000
228.620;  -32.450; -210.000; -150.000
228.764;   59.850;  431.000;  349.000
228.908;  -21.600; -155.000;   30.000
229.052;  -49.725; -615.000; -528.000
229.195;  -19.350; -172.000;   13.000
229.339;  -23.450; -235.000; -305.000
229.483;  -29.650;    5.000; -162.000
229.627;   -3.800; -156.000;  139.000
229.771;  -47.450; -218.000; -294.000
229.915;   11.025;  230.000;   79.000
230.059;  -95.450; -648.000; -663.000
230.202;  -40.800; -370.000; -317.000
230.346;  -24.825; -107.000;  107.000
230.490;  -61.900; -489.000; -521.000
230.634; -109.925; -736.000; -553.000
230.777;   67.675;  478.000;  509.000
230.921;  -59.025; -450.000; -359.000
231.065;  -53.500; -246.000; -286.000
231.209;   31.675;  261.000;  265.000
231.352;   24.075;   54.000;   40.000
231.496;   22.275;  568.000;  188.000
231.640;  -94.875; -693.000; -621.000
231.783;   66.800;  546.000;  525.000
231.927;  -44.800; -294.000; -365.000
232.071; -127.400; -962.000; -736.000
232.214;  -98.400; -980.000; -764.000
232.358;  -98.950; -683.000; -599.000
232.502;    1.625;  -19.000;    7.000
232.645; -135.675;-1090.000; -927.000
232.789;  -36.925; -257.000; -218.000
232.933;  -45.950; -407.000; -224.000
233.076; -128.650;-1038.000; -897.000
233.220; -103.150; -752.000; -777.000
233.363;  -75.075; -669.000; -477.000
233.507;   68.100;  371.000;  129.000
233.650; -102.325; -764.000; -834.000
233.794;   41.325;  438.000;  461.000
233.938;  -60.775; -530.000; -362.000
234.081;  -15.875;  -93.000;   31.000
234.225;  -71.500; -631.000; -539.000
234.368; -107.900; -773.000; -723.000
234.512;  -48.725; -385.000; -299.000
234.655;  -84.025; -582.000; -555.000
234.798;  -52.175; -493.000; -466.000
234.942; -136.325; -884.000;-1002.000
235.085;  -72.350; -651.000; -443.000
235.229;  -73.325; -405.000; -410.000
235.372;  -49.975; -247.000; -191.000
235.516;  -64.800; -397.000; -321.000
235.659;   25.150;   92.000;  121.000
235.802;  -11.675;  -38.000;  -22.000
235.946;   21.750;  335.000;  215.000
236.089;   35.275;  126.000;  250.000
236.233;   40.050;  275.000;  298.000
236.376;  -52.625; -235.000; -378.000
236.519;  -47.350; -297.000; -319.000
236.663;  -29.550; -215.000; -117.000
236.806; -148.150;-1029.000; -999.000
236.949;   65.850;  543.000;  431.000
237.092;   61.050;  412.000;  391.000
237.236;  -95.600; -589.000; -502.000
237.379;   62.200;  352.000;  428.000
237.522; -120.375; -879.000; -768.000
237.666;  -10.125; -271.000;   18.000
237.809; -123.975; -851.000; -823.000
237.952;   33.150;  469.000;  271.000
238.095;  -75.300; -447.000; -442.000
238.238;   89.800;  688.000;  700.000
238.382;    8.200;  166.000;  103.000
238.525;  -81.675; -598.000; -511.000
238.668; -134.850;-1060.000; -985.000
238.811;  -81.750; -638.000; -643.000
238.954;  -66.050; -483.000; -334.000
239.097;   92.575;  617.000;  664.000
239.241;   25.425;  394.000;  326.000
239.384;  -30.100; -254.000; -214.000
239.527;  -68.625; -424.000; -224.000
239.670; -155.650; -994.000;-1091.000
239.813; -119.500; -696.000; -658.000
239.956;   81.400;  579.000;  473.000
240.099; -110.350; -778.000; -725.000
240.242;   60.775;  428.000;  432.000
240.385;   34.800;  466.000;  450.000
240.528;  -73.325; -706.000; -473.000
240.671;   16.775;  189.000;  134.000
240.814;  -48.500; -441.000; -158.000
240.957;  -98.225; -767.000; -578.000
241.100; -105.550; -779.000; -755.000
241.243; -148.975;-1234.000; -893.000
241.386;  -74.450; -508.000; -379.000
241.529;  -79.600; -735.000; -547.000
241.672;  -68.400; -566.000; -495.000
241.815; -129.200; -832.000; -808.000
241.958;  -24.075; -125.000; -182.000
242.101;  -93.775; -545.000; -390.000
242.244;  -26.500; -270.000; -325.000
242.387;  -44.525; -304.000; -246.000
242.530;   59.125;  470.000;  134.000
242.673;  -54.150; -381.000; -309.000
242.815; -114.350; -925.000; -899.000
242.958;  -69.650; -482.000; -381.000
243.101;    0.650;  132.000;  187.000
243.244;  -78.650; -564.000; -521.000
243.387;  -47.700; -313.000; -316.000
243.530;  -83.900; -657.000; -674.000
243.672;   -9.100;   43.000;  -92.000
243.815;  -42.800; -355.000; -283.000
243.958;  -11.025;   98.000;  -26.000
244.101;    1.800;   59.000;  -16.000
244.243;  -18.800;  -47.000;  101.000
244.386; -113.875; -761.000; -630.000
244.529;  -22.200; -132.000; -139.000
244.672; -150.250;-1154.000; -951.000
244.814; -118.450; -621.000; -794.000
244.957;  -41.900; -380.000; -304.000
245.100;  -79.450; -489.000; -489.000
245.242;  -61.775; -387.000; -374.000
245.385;   -8.275;  -59.000;  -39.000
245.528; -125.000; -871.000; -705.000
245.670;   84.475;  612.000;  634.000
245.813;  -95.350; -599.000; -547.000
245.956;  -29.300; -324.000; -275.000
246.098;  -84.625; -508.000; -650.000
246.241;    7.225;  194.000;   48.000
246.383;   -7.350; -119.000;  -73.000
246.526;  -69.125; -454.000; -525.000
246.669; -123.800; -889.000; -780.000
246.811;   17.775;  172.000;   -1.000
246.954;  -74.850; -512.000; -426.000
247.096;  -16.150;  -84.000;   -6.000
247.239;  -69.250; -482.000; -445.000
247.381;  -63.275; -647.000; -488.000
247.524;   83.750;  645.000;  679.000
247.666;   -8.625;   58.000;   11.000
247.809; -119.450; -887.000; -691.000
247.951;   -9.750;  -75.000;  138.000
248.094;   32.500;  432.000;  308.000
248.236; -163.325;-1262.000;-1238.000
248.378;   13.075; -356.000;  -81.000
248.521;  -23.900; -334.000; -337.000
248.663;  -43.300; -236.000; -267.000
248.806;  -22.275; -300.000; -266.000
248.948;  -94.025; -886.000; -763.000
249.090;  -38.325; -428.000; -398.000
249.233;  -45.300; -344.000; -381.000
249.375;  -64.700; -474.000; -451.000
249.518;  -27.300;  -83.000; -133.000
249.660;  -14.075; -103.000;    3.000
249.802; -173.875;-1303.000;-1189.000
249.945;  -78.950; -612.000; -540.000
250.087; -107.925; -834.000; -768.000
250.229;  -59.275; -362.000; -480.000
250.371;  -79.275; -494.000; -439.000
250.514;  -44.500; -310.000; -244.000
250.656;  -63.900;   69.000;  102.000
250.798; -114.450; -849.000; -800.000
250.940;  -53.225; -322.000; -322.000
251.083;  -33.425; -335.000; -111.000
251.225;   56.725;  338.000;  310.000
251.367;  -46.450; -274.000; -373.000
251.509;  -50.525; -265.000; -210.000
251.651;  -99.675; -731.000; -671.000
251.794;   51.325;  538.000;  632.000
251.936; -109.025; -821.000; -747.000
252.078;  -87.725; -540.000; -461.000
252.220;  -71.650; -645.000; -477.000
252.362;   90.975;  344.000;  462.000
252.504;  -74.000; -677.000; -584.000
252.646; -121.325; -875.000; -722.000
252.788;    5.500;   14.000; -128.000
252.931;  -40.375; -257.000; -253.000
253.073;  -49.025; -376.000; -317.000
253.215;  -14.900;  141.000;  122.000
253.357;  -23.725;   82.000; -153.000
253.499;  -50.575; -374.000; -234.000
253.641;  -90.950; -749.000; -594.000
253.783; -101.825; -609.000; -527.000
253.925;  -96.600; -586.000; -591.000
254.067; -104.225; -744.000; -667.000
254.209;  -32.800; -391.000; -259.000
254.351; -127.625; -865.000; -883.000
254.493;  -66.250; -441.000; -417.000
254.635; -133.300; -936.000; -818.000
254.777;  -90.725; -752.000; -687.000
254.918;  -63.025; -512.000; -430.000
255.060;  -60.275; -551.000; -395.000
255.202;  -65.600; -473.000; -261.000
255.344;  -72.500; -658.000; -455.000
255.486;  -75.050; -471.000; -406.000
255.628; -108.300; -780.000; -781.000
255.770;  -92.825; -676.000; -536.000
255.912;  -77.850; -559.000; -468.000
256.053;  -91.475; -730.000; -508.000
256.195;  142.125; 1008.000;  903.000
256.337;  -92.250; -861.000; -595.000
256.479;   73.225;  532.000;  416.000
256.621;  -49.350; -394.000; -212.000
256.762;  -92.575; -789.000; -742.000
256.904;   61.000;  485.000;  487.000
257.046;  -33.400; -381.000; -271.000
257.188;  -47.125; -351.000; -264.000
257.329;  -83.250; -525.000; -464.000
257.471; -126.625; -939.000; -807.000
257.613;  -62.150; -584.000; -498.000
257.755; -148.850;-1073.000; -982.000
257.896;   28.175;  286.000;  392.000
258.038;  -67.575; -403.000; -352.000
258.180;  -37.700; -354.000; -279.000
258.321; -100.425; -581.000; -457.000
258.463;    4.350;  -71.000;  133.000
258.605;  -98.075; -562.000; -570.000
258.746; -108.875; -886.000; -772.000
258.888; -152.225;-1026.000;-1020.000
259.029;    7.325;  121.000;   -8.000
259.171;  -96.075; -614.000; -550.000
259.313;   -8.925;  -49.000;  -47.000
259.454;  -87.300; -536.000; -414.000
259.596;  -58.225; -483.000; -390.000
259.737;  -70.025; -590.000; -474.000
259.879;   40.050;  217.000;  311.000
260.020;   91.175;  901.000;  636.000
260.162;  -35.325; -146.000; -253.000
260.303; -122.450; -768.000; -687.000
260.445;  -92.775; -609.000; -613.000
260.586;   28.725;  392.000;  157.000
260.728;  -39.050; -360.000; -248.000
260.869; -112.300; -350.000; -343.000
261.011;   79.275;  706.000;  537.000
261.152;  -66.725; -479.000; -319.000
261.293;  -71.675; -576.000; -595.000
261.435;  -32.300; -219.000; -184.000
261.576;  -49.100; -455.000; -325.000
261.718;   53.925;  420.000;  470.000
261.859; -130.175; -940.000; -949.000
262.000; -133.325; -951.000;-1016.000
262.142;  -22.825;  -52.000;  -60.000
262.283; -111.800; -808.000; -691.000
262.424;  -94.225; -666.000; -625.000
262.566; -158.125;-1161.000; -983.000
262.707; -128.425; -840.000; -830.000
262.848; -121.800; -769.000; -726.000
262.990;  -51.775; -362.000; -345.000
263.131;   80.950;  650.000;  681.000
263.272;   -8.625;  -61.000;  -41.000
263.413;  -84.850; -589.000; -561.000
263.555;  -63.675; -669.000; -143.000
263.696;  -91.200; -550.000; -641.000
263.837;  -61.075; -449.000; -551.000
263.978;   -6.075;   -5.000;  -77.000
264.119;  -42.525; -283.000; -264.000
264.261; -114.475; -847.000; -630.000
264.402;   -0.850;   33.000;   40.000
264.543;  -79.075; -509.000; -524.000
264.684;  -10.250;   61.000;  -50.000
264.825;  -73.850; -816.000; -538.000
264.966;   -9.650;  -84.000;  -67.000
265.107; -128.575; -646.000; -670.000
265.248; -119.825; -825.000; -812.000
265.390;  -16.425;  152.000;   -9.000
265.531;  -23.825; -238.000; -107.000
265.672;  -90.700; -557.000; -630.000
265.813;   64.050;  563.000;  439.000
265.954; -149.975; -959.000; -940.000
266.095;  -19.425; -372.000; -322.000
266.236; -108.325; -686.000; -548.000
266.377;  -44.350; -243.000; -297.000
266.518;  -87.375; -619.000; -547.000
266.659;   16.600;  170.000;  268.000
266.800;    9.275;   83.000;   85.000
266.941;  -84.600; -487.000; -478.000
267.082;    1.000;  354.000;   99.000
267.223;  -41.850; -344.000; -273.000
267.364; -116.350; -892.000; -686.000
267.504;  -22.300;    3.000;  135.000
267.645;   -0.300;  160.000;   67.000
267.786;  -25.750; -147.000;  -86.000
267.927;  -74.000; -473.000; -379.000
268.068;  -19.700; -186.000;  -61.000
268.209;  -48.825; -175.000; -413.000
268.350;  -65.000; -388.000; -532.000
268.490;  -93.275; -648.000; -521.000
268.631;   17.875;  127.000;  225.000
268.772; -119.275; -874.000; -647.000
268.913;  -42.800; -328.000; -476.000
269.054;  -11.450; -117.000;   12.000
269.194;  -49.600; -418.000; -402.000
269.335; -153.725;-1137.000;-1074.000
269.476;  -25.650;   33.000;  -35.000
269.617;  -45.750; -347.000; -392.000
269.757;  -97.300; -713.000; -646.000
269.898; -111.425; -856.000; -613.000
270.039;  -67.200; -415.000; -405.000
270.180; -137.050; -952.000; -816.000
270.320;  -20.400; -190.000; -250.000
270.461;  -34.850; -277.000; -249.000
270.602;  -29.525; -186.000; -156.000
270.742; -129.050; -868.000; -943.000
270.883;  -60.575; -442.000; -390.000
271.023;  -57.500; -358.000; -357.000
271.164;  -76.075; -607.000; -528.000
271.305;  -99.925; -666.000; -654.000
271.445;  -93.475; -722.000; -683.000
271.586;  -78.925; -462.000; -283.000
271.726;  -57.575; -397.000; -322.000
271.867;  -53.825; -594.000; -534.000
272.008;  189.450; -473.000; -285.000
272.148;  139.225;  462.000;  468.000
272.289;   19.550; -113.000; -181.000
272.429;   13.025;   19.000;  185.000
272.570;  -92.775; -633.000; -737.000
272.710;  -97.550; -825.000; -775.000
272.851;  -33.800;  113.000; -130.000
272.991; -148.425;-1173.000;-1077.000
273.131;  -67.075; -419.000; -459.000
273.272; -101.000; -683.000; -723.000
273.412;    4.800; -143.000;  -31.000
273.553;  -45.800; -488.000; -507.000
273.693;  135.850;  913.000;  858.000
273.834;  -77.800; -894.000; -692.000
273.974;  -63.400; -664.000; -615.000
274.114;  -96.275; -772.000; -560.000
274.255;   73.800;  414.000;  373.000
274.395;    0.050; -180.000; -125.000
274.535;   41.800;  199.000;  350.000
274.676;   22.700;  225.000;   94.000
274.816;    2.275;  110.000;   34.000
274.956;  -89.000; -624.000; -690.000
275.097;  -50.050;-1014.000; -922.000
275.237; -119.100; -913.000; -803.000
275.377; -101.550; -778.000; -689.000
275.517; -146.575; -878.000; -937.000
275.658;  -68.525; -590.000; -555.000
275.798;  -61.750; -606.000; -413.000
275.938;   26.800;  215.000;  323.000
276.078; -113.850; -626.000; -395.000
276.218;    8.450;   99.000;  104.000
276.359; -129.200;-1026.000;-1024.000
276.499;  -64.250; -605.000; -446.000
276.639;  -48.825; -305.000; -151.000
276.779;  -46.725; -475.000; -357.000
276.919; -109.800; -783.000; -624.000
277.059;  -21.525; -261.000; -212.000
277.199;  -34.225; -357.000; -259.000
277.340;   38.125;  287.000;  175.000
277.480; -109.500; -840.000; -693.000
277.620;   19.250;  192.000;   16.000
277.760; -197.950;-1533.000;-1294.000
277.900;   11.350;  113.000;   33.000
278.040;   14.900;  137.000;  159.000
278.180;   18.625;  270.000;  170.000
278.320;   -9.775;   21.000;   56.000
278.460;  -61.375; -443.000; -469.000
278.600;  -93.225; -708.000; -598.000
278.740;   41.650;  448.000;  224.000
278.880;  -55.000; -768.000; -791.000
279.020;  -10.550; -194.000; -144.000
279.160;  -87.475; -672.000; -595.000
279.300; -119.825; -926.000; -873.000
279.440;  -88.850; -709.000; -622.000
279.579;   -3.675;-1014.000; -929.000
279.719;  -52.875; -410.000; -394.000
279.859;   78.800;   -4.000;   41.000
279.999;   37.850; -208.000;  101.000
280.139;  -17.675; -435.000; -387.000
280.279;  -66.000; -708.000; -745.000
280.419;   -6.400; -229.000; -147.000
280.559;  -33.875; -259.000; -180.000
280.698;  -83.800; -790.000; -639.000
280.838;  -95.425; -778.000; -800.000
280.978; -113.425; -846.000; -790.000
281.118; -108.000; -811.000; -704.000
281.257;    9.500;   24.000;    6.000
281.397; -111.575;-1094.000; -960.000
281.537;  -92.450; -599.000; -712.000
281.677;  -20.050; -150.000; -101.000
281.816;  -89.700; -700.000; -630.000
281.956;  -43.525; -193.000; -257.000
282.096;  -58.850; -539.000; -396.000
282.235; -110.375; -672.000; -638.000
282.375;  -15.000; -243.000;  -98.000
282.515; -104.850; -715.000; -707.000
282.654;   19.725;   29.000;  106.000
282.794;   31.850;  388.000;  244.000
282.934;  -60.975; -530.000; -491.000
283.073; -139.575;-1030.000; -857.000
283.213;  -52.825; -460.000; -467.000
283.353;  -43.800; -408.000; -349.000
283.492;  -29.425; -264.000; -296.000
283.632;  -46.200; -254.000; -168.000
283.771;  -88.125; -859.000; -730.000
283.911;  -48.475; -369.000; -260.000
284.050; -101.675; -794.000; -748.000
284.190; -159.200;-1229.000;-1096.000
284.329; -152.450;-1055.000; -964.000
284.469;  -54.950; -516.000; -591.000
284.608;  -65.725; -559.000; -598.000
284.748;  -86.100; -614.000; -570.000
284.887;   -1.200;  -87.000;  -20.000
285.027; -131.275; -844.000; -892.000
285.166;  -31.525; -192.000; -249.000
285.306;    4.925; -116.000;  -33.000
285.445;  -34.050; -229.000; -343.000
285.584;  -98.250; -630.000; -494.000
285.724;  -44.175; -282.000; -322.000
285.863; -111.750; -857.000; -507.000
286.002;  -57.550; -366.000; -276.000
286.142; -116.300; -715.000; -622.000
286.281;  -72.200; -525.000; -493.000
286.420;  -82.525; -554.000; -417.000
286.560;  101.375;  653.000;  623.000
286.699; -144.975; -958.000; -912.000
286.838;  -87.100; -590.000; -591.000
286.978;  -87.450; -533.000; -537.000
287.117; -137.150;-1085.000; -950.000
287.256;  -39.225; -228.000; -211.000
287.395;  -47.450; -197.000; -378.000
287.535;  -46.725; -370.000; -298.000
287.674;  -78.650; -509.000; -484.000
287.813;   55.200;  661.000;  533.000
287.952; -125.125;-1010.000; -871.000
288.091; -142.250;-1049.000; -915.000
288.231;   11.900;   13.000;   15.000
288.370; -170.025;-1217.000;-1200.000
288.509;  -94.450; -728.000; -645.000
288.648;  -95.425; -770.000; -548.000
288.787;  -39.725; -243.000;  -87.000
288.926;  -67.650; -454.000; -475.000
289.065;  125.925;  859.000;  672.000
289.204;  -43.825; -377.000; -217.000
289.344;  -91.625; -791.000; -690.000
289.483;   25.225;  416.000;  304.000
289.622;  -36.550; -291.000; -149.000
289.761;  -15.425; -309.000; -166.000
289.900; -112.300; -785.000; -626.000
290.039;  -24.425;  -12.000;  -95.000
290.178;  -33.250; -274.000; -180.000
290.317;  -80.575; -618.000; -479.000
290.456;  -73.875; -463.000; -451.000
290.595; -132.025; -961.000; -833.000
290.734; -131.900; -904.000; -891.000
290.873;  -68.800; -456.000; -420.000
291.011; -111.775; -833.000; -843.000
291.150; -107.750; -770.000; -682.000
291.289;  -23.275; -343.000; -110.000
291.428;  -89.850; -599.000; -480.000
291.567;  -63.725; -370.000; -442.000
291.706;   -3.125;  109.000;  154.000
291.845;  -88.725; -597.000; -505.000
291.984; -162.250;-1234.000;-1061.000
292.122;   65.675;  602.000;  582.000
292.261;   48.050;  620.000;  463.000
292.400;   11.000; -144.000;  211.000
292.539; -121.600; -959.000; -813.000
292.678;  -44.450; -325.000; -300.000
292.816; -144.200;-1136.000; -965.000
292.955;  -83.100; -844.000; -684.000
293.094;  -35.225; -173.000; -337.000
293.233;  -58.200; -556.000; -400.000
293.371;  -29.425; -225.000;  -84.000
293.510;  -94.825; -866.000; -780.000
293.649; -135.725; -959.000; -924.000
293.787;  -51.000;-1083.000;-1012.000
293.926;    2.175; -113.000;  -32.000
294.065;  -46.075; -379.000; -290.000
294.203;   45.900;  298.000;  406.000
294.342;   15.050;   74.000;  156.000
294.481; 5404.125;51180.000; -836.000
294.619;  -45.350; -425.000; -582.000
294.758; -146.200;-1230.000;-1137.000
294.896;   73.400; -125.000;    5.000
295.035; -113.475;-1040.000;-1006.000
295.174; -111.125;-1082.000; -954.000
295.312;  -44.175; -323.000; -203.000
295.451;  -12.875; -307.000; -428.000
295.589;  -51.675; -389.000; -518.000
295.728;   10.775; -292.000; -165.000
295.866;   -2.000;  -36.000;  -51.000
296.005;  -62.275; -584.000; -341.000
296.143;  -76.225; -558.000; -596.000
296.282; -111.975; -957.000; -881.000
296.420;  -93.675; -657.000; -557.000
296.559;  -88.675; -892.000; -633.000
296.697;   46.125; -847.000; -665.000
296.835;   85.150;-1141.000;-1002.000
296.974;   42.650;  -23.000;   39.000
297.112;   26.125; -443.000; -504.000
297.251;  -72.200; -815.000; -755.000
297.389;  110.300; -576.000; -438.000
297.527;   40.100; -145.000;  -83.000
297.666;  -45.275; -486.000; -438.000
297.804;  -40.750; -404.000; -264.000
297.942;  -11.700; -136.000; -161.000
298.081;  -10.425; -183.000;   63.000
298.219;   84.350;  -17.000;  -19.000
298.357;   54.625; -144.000;  -71.000
298.495;   51.275; -810.000; -812.000
298.634;   80.800;  245.000;  219.000
298.772;   64.325; -220.000; -338.000
298.910;  -27.825; -309.000; -182.000
299.048;   -7.825; -130.000; -153.000
299.187;  -32.600; -350.000; -250.000
299.325;   16.800;   52.000;  122.000
299.463;   61.700; -389.000; -299.000
299.601;  114.025; -327.000; -271.000
299.739; -102.550; -908.000; -883.000
299.877;  -93.900; -791.000; -703.000
300.016;  -40.025;-1095.000; -935.000
300.154;  155.825;  -19.000; -161.000
300.292;   63.600; -428.000; -348.000
300.430;   30.175; -408.000; -291.000
300.568;  -98.425; -940.000; -874.000
300.706;  -50.100; -366.000; -469.000
300.844;  -63.100;-1108.000; -979.000
300.982;  119.925;  246.000;  282.000
301.120; -125.100; -965.000; -866.000
301.258;  -81.825; -812.000; -705.000
301.396;   26.375;  104.000;  -41.000
301.534;   94.075; -218.000; -293.000
301.672;    4.500; -664.000; -521.000
301.810;   42.775; -613.000; -545.000
301.948;  125.000;   53.000;  149.000
302.086;  694.650; -250.000;  -32.000
302.224; 1068.925; -610.000; -585.000
302.362;   62.450; -558.000; -622.000
302.500;  -18.775; -923.000; -893.000
302.638;  122.350;  128.000;  245.000
302.776;   -6.850; -352.000; -408.000
302.913;   46.125;  447.000;  236.000
303.051;    7.350;  -86.000;  -23.000
303.189;   49.200;   90.000;  118.000
303.327;  -37.950; -341.000; -256.000
303.465;  -78.925; -832.000; -588.000
303.603;  -72.600; -805.000; -604.000
303.740;  102.225;  417.000;  241.000
303.878;   42.325; -800.000; -759.000
304.016;  -88.425; -915.000; -790.000
304.154; -126.950;-1123.000;-1152.000
304.291;  -35.250; -505.000; -554.000
304.429;    9.150;  102.000;   74.000
304.567; -122.900; -908.000; -893.000
304.705;  -49.725; -408.000; -515.000
304.842;  120.525; -616.000; -540.000
304.980;   71.225;  215.000;   35.000
305.118;   46.425; -367.000; -365.000
305.255;  -70.750; -945.000; -927.000
305.393;   64.825;  178.000;  239.000
305.531; -104.275;-1173.000; -956.000
305.668;  -55.400; -663.000; -582.000
305.806;  122.300; -358.000; -439.000
305.943;  114.175; -629.000; -637.000
306.081;   59.900; -378.000; -267.000
306.219; -104.575; -863.000; -748.000
306.356;    6.725;  158.000;   27.000
306.494;  112.300;  981.000;  761.000
306.631;  -24.850;  -11.000;  -55.000
306.769;    6.800; -613.000; -485.000
306.906;  -12.900; -284.000; -258.000
307.044;  -58.450; -473.000; -488.000
307.181;  -56.925; -410.000; -332.000
307.319;   12.050;  112.000;   87.000
307.456; -170.675;-1191.000;-1153.000
307.594;  -85.875; -980.000; -727.000
307.731;  -14.225; -371.000; -164.000
307.868;   -7.200;  -15.000;   20.000
308.006; -136.775; -961.000; -847.000
308.143;  -53.625; -618.000; -330.000
308.281;  184.575;  -37.000; -254.000
308.418;    3.375; -748.000; -640.000
308.555;  -66.800; -400.000; -250.000
308.693;  -78.825; -577.000; -573.000
308.830; -114.025; -712.000; -657.000
308.967;  -21.475; -215.000;  -95.000
309.105;  -56.700; -507.000; -396.000
309.242;   47.600; -468.000; -367.000
309.379;  331.100; -577.000; -655.000
309.517;  -63.125; -936.000; -948.000
309.654; -111.375; -910.000; -734.000
309.791;  -73.450; -662.000; -580.000
309.928; -119.800; -977.000; -914.000
310.065;  180.375;  819.000;  697.000
310.203;   -0.675; -825.000; -850.000
310.340;  -11.375; -465.000; -321.000
310.477;  -83.575; -412.000; -516.000
310.614;  -66.175; -383.000; -473.000
310.751;  -74.875; -427.000; -518.000
310.889;  -19.600;    1.000;   11.000
311.026; -151.850;-1161.000; -939.000
311.163;  -56.725; -386.000; -380.000
311.300;  -64.625; -512.000; -479.000
311.437;  -81.725; -658.000; -619.000
311.574; -159.525;-1226.000; -985.000
311.711;  -72.575; -595.000; -433.000
311.848;  -50.250; -380.000; -388.000
311.985;    5.350;  270.000;   93.000
312.122; -117.525; -932.000; -762.000
312.259; -124.400; -941.000; -994.000
312.396;  -98.775; -508.000; -551.000
312.533;  -96.050; -812.000; -790.000
312.670; -134.875;-1070.000; -898.000
312.807;  -39.925; -352.000; -367.000
312.944;  -91.875; -513.000; -611.000
313.081;  -30.425; -150.000; -415.000
313.218;  -98.375;-1111.000; -867.000
313.355;    8.550; -531.000; -449.000
313.492;    5.000; -455.000; -292.000
313.629;  138.725;  815.000;  735.000
313.766; -153.300;-1176.000;-1008.000
313.902;  -25.350; -186.000;   21.000
314.039;  -56.975; -372.000; -289.000
314.176;   23.825;  286.000;  192.000
314.313;  -81.375; -569.000; -473.000
314.450;  -87.900; -788.000; -684.000
314.587;  -57.450; -468.000; -480.000
314.723;   -4.475;  -78.000;  130.000
314.860;   21.425;  318.000;  332.000
314.997;   40.600;  223.000;  142.000
315.134;  -45.150; -385.000; -368.000
315.270;  -38.075; -480.000; -496.000
315.407; -113.075;-1094.000; -967.000
315.544;  -43.200; -657.000; -538.000
315.681;  -66.875; -681.000; -565.000
315.817;   25.975; -133.000; -176.000
315.954;   36.775; -613.000; -392.000
316.091; -121.125;-1045.000;-1023.000
316.227;  -22.200;  -71.000; -179.000
316.364;  -10.450;   23.000;    6.000
316.500;  -48.025; -113.000; -300.000
316.637;  -37.325; -181.000; -302.000
316.774;  -85.900; -625.000; -358.000
316.910;  -94.475; -598.000; -629.000
317.047;  -58.950; -487.000; -351.000
317.183;  -51.200; -435.000; -566.000
317.320;  -12.225; -367.000; -321.000
317.456;  -84.250; -733.000; -805.000
317.593;  -85.575; -598.000; -641.000
317.729;    2.675;  168.000;  -67.000
317.866; -196.725;-1434.000;-1285.000
318.002;  -86.625; -708.000; -948.000
318.139;  -91.375; -883.000; -867.000
318.275; -102.625;-1003.000; -738.000
318.412;  -60.575; -517.000; -336.000
318.548;  -22.825; -751.000; -720.000
318.685;  -92.550; -985.000; -888.000
318.821;  -86.725; -762.000; -735.000
318.957;  -21.025;   34.000;  -23.000
319.094;   31.875;  297.000;  154.000
319.230;  -58.475; -756.000; -742.000
319.367;  167.800; -471.000; -520.000
319.503;   71.900; -538.000; -436.000
319.639;  -99.200; -877.000; -793.000
319.775;  -48.200; -750.000; -685.000
319.912;  -50.075; -424.000; -519.000
320.048;  -76.975;-1184.000;-1184.000
320.184;   79.725;   59.000;   70.000
320.321;  -57.900; -497.000; -467.000
320.457;   62.675;  475.000;  662.000
320.593;  -74.475; -375.000; -382.000
320.729; -108.475; -732.000; -734.000
320.866;  -81.175; -577.000; -635.000
321.002;  -76.375; -759.000; -809.000
321.138;  -12.900; -135.000; -211.000
321.274;   77.575; -148.000; -115.000
321.410;  -28.400; -585.000; -353.000
321.546;  -17.725;-1011.000; -911.000
321.683;   54.475;  400.000;  185.000
321.819;    6.875;  -48.000; -117.000
321.955; -105.600; -743.000; -722.000
322.091;  -37.950; -585.000; -540.000
322.227;  -21.650; -382.000; -202.000
322.363;   -7.150; -320.000; -215.000
322.499;  -32.925; -343.000; -331.000
322.635;  157.450;  636.000;  443.000
322.771;   30.200; -139.000;   12.000
322.907;   93.500;  129.000;  327.000
323.043;  -14.725; -115.000; -206.000
323.179;  -35.550; -394.000; -363.000
323.315;   20.925; -401.000; -371.000
323.451;  105.725; -328.000; -236.000
323.587;   70.900;  -60.000;  -77.000
323.723;   37.450; -682.000; -601.000
323.859;   -5.550; -258.000;  -76.000
323.995;  -23.375; -467.000; -409.000
324.131; -117.325; -967.000; -892.000
324.267;  -32.725; -254.000; -276.000
324.402; -116.425; -960.000; -983.000
324.538;  -14.500; -279.000; -104.000
324.674;   18.000;  164.000;   77.000
324.810;  139.450;  226.000;  308.000
324.946;   -1.775; -810.000; -658.000
325.082;  -66.150; -568.000; -475.000
325.217;  -18.725;  -62.000;   16.000
325.353; -104.325; -764.000; -659.000
325.489;  -89.625; -540.000; -506.000
325.625;  -72.275; -579.000; -525.000
325.760;   66.200;  517.000;  376.000
325.896;  -26.700; -515.000; -702.000
326.032;  -55.675; -403.000; -352.000
326.168;  -64.125; -462.000; -369.000
326.303;  -69.525; -352.000; -461.000
326.439;  -27.225; -336.000; -276.000
326.575;  -13.050; -190.000;  -29.000
326.710;   -9.050; -156.000;  -30.000
326.846;  -11.425;  146.000;  103.000
326.982;  -81.250; -530.000; -548.000
327.117;  -67.975; -481.000; -442.000
327.253;  -88.450; -745.000; -742.000
327.388; -151.900;-1137.000;-1153.000
327.524;  -53.450; -811.000; -578.000
327.659;  -13.675;  -58.000;  -22.000
327.795;   -9.250;   69.000;   45.000
327.931;  -84.725; -723.000; -499.000
328.066;  -10.775; -417.000; -276.000
328.202;  -13.975;   12.000; -129.000
328.337;  101.575;  957.000;  713.000
328.473;   45.575;  -12.000;  -74.000
328.608;  -31.825; -256.000; -267.000
328.743;  -84.225; -799.000; -664.000
328.879;   29.000;  214.000;  114.000
329.014;  -37.400; -102.000; -122.000
329.150;  -86.700; -358.000; -483.000
329.285;  -75.075; -465.000; -466.000
329.421;  -46.725; -548.000; -246.000
329.556;  -28.675;  -36.000;   85.000
329.691;  -90.700; -633.000; -615.000
329.827;  -89.000; -626.000; -480.000
329.962;  -47.975;  131.000; -301.000
330.097;  -97.575; -673.000; -585.000
330.233;  -60.300; -410.000; -223.000
330.368; -135.750; -839.000; -628.000
330.503;  -15.000;    3.000;   98.000
330.638;    7.025;  -93.000; -125.000
330.774;  -58.375; -609.000; -530.000
330.909;  -58.525; -434.000; -244.000
331.044;  -85.425; -714.000; -708.000
331.179; -175.625;-1217.000;-1109.000
331.315;    9.275;   77.000;   20.000
331.450;   18.950;  157.000;  285.000
331.585;  -87.875; -805.000; -706.000
331.720;  -78.050; -510.000; -460.000
331.855;   -3.700;  -35.000; -102.000
331.990;  234.575;   62.000;  138.000
332.126;  124.750; -110.000;   71.000
332.261;  -13.275; -379.000; -265.000
332.396;   -5.500; -135.000; -242.000
332.531;  -98.275;-1074.000;-1031.000
332.666;   28.050; -519.000; -363.000
332.801;  -99.475; -726.000; -807.000
332.936;  -38.625; -192.000; -122.000
333.071; -146.425; -870.000; -817.000
333.206;    7.975;  307.000;  379.000
333.341;   19.575;  344.000;  418.000
333.476;  -90.000; -627.000; -623.000
333.611;  -48.075; -251.000; -173.000
333.746;  -40.900; -381.000; -464.000
333.881; -122.325; -973.000; -935.000
334.016; -124.575; -936.000; -917.000
334.151; -112.550; -746.000; -702.000
334.286;   21.725;  152.000;  186.000
334.421;  -16.725; -125.000; -178.000
334.556;  -76.025; -611.000; -567.000
334.690;  -88.775; -631.000; -577.000
334.825;   57.225;  381.000;   83.000
334.960;  -57.200; -285.000; -413.000
335.095;   24.425;  135.000;  -91.000
335.230; -109.875; -722.000; -738.000
335.365; -123.600;-1084.000; -990.000
335.499; -127.325;-1108.000;-1037.000
335.634;   20.350;    9.000;  534.000
335.769;  -97.375; -755.000; -720.000
335.904;  -61.925; -603.000; -561.000
336.038;  -53.875; -735.000; -657.000
336.173; -105.875;-1206.000;-1194.000
336.308;   -0.400; -116.000; -189.000
336.443;   31.550; -544.000; -634.000
336.577;  -62.650; -936.000; -787.000
336.712;   61.400;   -4.000;  -12.000
336.847;  -37.175; -724.000; -607.000
336.981;   84.575; -272.000; -208.000
337.116;  297.750;  615.000;  501.000
337.250;  169.175; -434.000; -421.000
337.385;  238.050; -297.000; -208.000
337.520;   66.150; -632.000; -603.000
337.654;  -33.000; -215.000; -126.000
337.789; -123.775; -989.000; -933.000
337.923;  -26.425; -104.000; -205.000
338.058;  -87.225; -673.000; -738.000
338.192;  -31.100; -611.000; -488.000
338.327;  -12.075;  -18.000; -155.000
338.461;  -56.550; -299.000; -469.000
338.596;  -89.750; -780.000; -638.000
338.730;  -96.125; -767.000; -803.000
338.865;   89.925;  -46.000; -140.000
338.999;  -58.725; -846.000; -702.000
339.134;  -18.425; -634.000; -536.000
339.268;   10.075; -741.000; -603.000
339.403;  358.150; -740.000; -775.000
339.537;  103.575; -894.000; -820.000
339.671; -116.825; -829.000; -813.000
339.806;  -54.225; -556.000; -512.000
339.940;    0.850; -261.000; -235.000
340.074;  -81.900; -685.000; -510.000
340.209;  -34.525; -351.000; -230.000
340.343;  -91.875; -517.000; -573.000
340.477;  143.975;  998.000; 1036.000
340.612;  -62.875;-1033.000; -900.000
340.746;  136.150; -199.000; -243.000
340.880;  -57.025; -924.000; -785.000
341.014;  -20.800;  -45.000; -154.000
341.149; -112.575; -756.000; -718.000
341.283; -111.675; -839.000; -754.000
341.417;  -91.375;-1124.000; -938.000
341.551;  158.425; -768.000; -708.000
341.685;  -22.750; -633.000; -611.000
341.820;  -39.300; -562.000; -493.000
341.954;  -42.375; -218.000; -349.000
342.088; -147.075;-1102.000;-1019.000
342.222;   59.850;  565.000;  618.000
342.356;  -53.200; -395.000; -335.000
342.490;  -77.250; -880.000; -841.000
342.624;  -53.775; -339.000; -242.000
342.758;   16.925; -364.000; -312.000
342.892;  -55.350; -710.000; -585.000
343.026;  -48.625;  -58.000; -116.000
343.160;  -57.375; -426.000; -376.000
343.294;  -77.375; -474.000; -337.000
343.428;  -15.800; -488.000; -448.000
343.562;    1.850; -172.000;  -23.000
343.696;  -23.850; -385.000; -314.000
343.830;  -18.250; -362.000; -356.000
343.964;   24.500; -231.000; -168.000
344.098; 1025.525;  199.000;   70.000
344.232;  848.325; -266.000; -127.000
344.366;   95.025; -567.000; -453.000
344.500;   79.525; -665.000; -744.000
344.634;   40.625; -324.000; -164.000
344.768;    3.150; -531.000; -341.000
344.902;    6.850;  278.000;  256.000
345.035;  -76.800; -556.000; -496.000
345.169; -137.750; -933.000; -656.000
345.303;  -15.200; -308.000; -482.000
345.437;  -69.325; -826.000; -717.000
345.571;  -61.600; -675.000; -594.000
345.704;  -66.425; -309.000; -532.000
345.838;  -16.325; -331.000; -284.000
345.972;  -38.500; -543.000; -495.000
346.106;  154.875; -179.000; -190.000
346.239;  415.125; -312.000; -243.000
346.373;    8.000; -343.000; -302.000
346.507; -136.525; -950.000; -962.000
346.640;  165.700;  -30.000;   13.000
346.774;  -43.100; -650.000; -797.000
346.908;   -0.875; -138.000;  -11.000
347.041;  -87.975; -646.000; -593.000
347.175;   -3.100;  259.000;   27.000
347.309;  -70.475; -698.000; -628.000
347.442; -102.725; -883.000; -732.000
347.576;  297.700;  670.000;  668.000
347.709;  241.650; -123.000;  -52.000
347.843;  -72.825; -933.000; -825.000
347.976;   40.750;  235.000;  294.000
348.110; -183.200;-1268.000;-1186.000
348.243; -104.175; -679.000; -772.000
348.377;   -9.725;  -26.000;   60.000
348.510;   41.175;  403.000;  540.000
348.644;  -28.675;  -37.000; -159.000
348.777;  -10.025;  180.000;  191.000
348.911;  -55.200; -142.000; -112.000
349.044;  191.975;  471.000;  448.000
349.178;  200.300;-1069.000;-1006.000
349.311;  127.925;  141.000;  255.000
349.444;  -12.700; -927.000; -813.000
349.578;  -23.750; -347.000; -200.000
349.711;  -99.200; -959.000; -862.000
349.845;   10.425; -661.000; -591.000
349.978; -126.075;-1224.000;-1137.000
350.111;  -88.825; -546.000; -612.000
350.244;  -78.450; -596.000; -700.000
350.378;   15.625; -392.000; -393.000
350.511;  -66.300; -393.000; -426.000
350.644;  -99.700; -808.000; -806.000
350.778;    9.500;  168.000;  104.000
350.911;    5.525;  134.000;  140.000
351.044;  -93.600; -685.000; -615.000
351.177;  -23.675; -321.000; -281.000
351.310;  -25.625;    3.000; -131.000
351.444;  -75.300; -888.000; -788.000
351.577;  116.250;  140.000;   90.000
351.710;  100.325;  593.000;  417.000
351.843;  -35.875; -165.000;  -77.000
351.976;  -12.075;  149.000;  -79.000
352.109;  -87.725; -621.000; -612.000
352.242;  -12.900; -464.000; -419.000
352.376;  -66.075; -580.000; -636.000
352.509;  202.675; -437.000; -356.000
352.642;   36.375; -654.000; -604.000
352.775;   72.500; -141.000;  -98.000
352.908; -113.675; -933.000; -904.000
353.041; -104.250; -814.000; -824.000
353.174;  -57.625; -551.000; -424.000
353.307;  -80.825; -753.000; -764.000
353.440;   65.075;  541.000;  453.000
353.573; -103.025; -957.000;-1008.000
353.706;  -53.175; -384.000; -558.000
353.839;   -9.800; -264.000; -220.000
353.971;  -73.050; -657.000; -512.000
354.104;  -75.100; -896.000; -835.000
354.237;  -19.950; -627.000; -662.000
354.370;  -77.275; -846.000; -879.000
354.503; -170.225;-1231.000;-1308.000
354.636;  -38.025; -529.000; -348.000
354.769; -126.475; -937.000; -860.000
354.902;   -6.850; -230.000; -139.000
355.034;  -19.650; -164.000; -220.000
355.167;  -18.050; -262.000; -162.000
355.300;  -92.800;-1061.000; -880.000
355.433;  954.925;  -71.000;  -14.000
355.565; 1490.625; -402.000; -384.000
355.698;  383.200; -356.000; -296.000
355.831;   11.800; -882.000; -801.000
355.964;  102.900; -285.000; -170.000
356.096;  -72.525; -856.000; -843.000
356.229;    8.375; -523.000; -530.000
356.362;  315.425; -373.000; -266.000
356.494;  576.975; -229.000; -162.000
356.627;  504.700;  269.000;  377.000
356.760;  668.650;  120.000;   53.000
356.892;  921.775; -286.000; -601.000
357.025;  708.400;  403.000;  389.000
357.157;  676.650; -167.000; -179.000
357.290;  656.900; -856.000; -713.000
357.423;  206.475; -667.000; -556.000
357.555;  120.200; -217.000; -228.000
357.688;  147.600; -483.000; -364.000
357.820;  519.350; -870.000; -877.000
357.953; 4151.825; -563.000; -589.000
358.085;  948.150; -632.000; -612.000
358.218; 1327.600;-1131.000; -932.000
358.350;  241.650;  -58.000;  312.000
358.483; -122.025;-1300.000;-1187.000
358.615;    2.375;-1182.000;-1078.000
358.747;  -52.825;-1187.000;-1058.000
358.880;   34.400; -810.000; -744.000
359.012;   -6.975; -376.000; -202.000
359.145;  -36.550; -480.000; -511.000
359.277;   95.425; -962.000; -913.000
359.409; 3391.225;  536.000;  231.000
359.542;  917.175; -738.000; -688.000
359.674;   79.000;   46.000;   13.000
359.806;  -71.600; -565.000; -438.000
359.939;  -41.775; -617.000; -516.000
360.071;   -9.100; -583.000; -579.000
360.203;  -24.900; -411.000; -364.000
360.335;   61.325;  164.000;  -16.000
360.468;  217.675; -249.000; -307.000
360.600; 2704.800; -547.000; -454.000
360.732; 2784.950; -546.000; -423.000
360.864;  391.025;-1216.000;-1044.000
360.996;  311.675; -516.000; -554.000
361.129;   59.350; -389.000; -598.000
361.261;   19.000;  110.000; -113.000
361.393;  -28.025; -252.000; -214.000
361.525;   24.200;   94.000;  244.000
361.657;  -30.325; -821.000; -703.000
361.789;   23.550; -139.000; -155.000
361.921;  269.650; -642.000; -593.000
362.053;  305.050;  524.000;  541.000
362.185;   53.975;  288.000;   72.000
362.318;  -77.825; -709.000; -705.000
362.450;  135.225;  294.000;  444.000
362.582;  128.900; -913.000; -870.000
362.714;  -29.475; -353.000; -332.000
362.846;  -86.875; -606.000; -490.000
362.978; -139.050; -941.000; -811.000
363.109;   46.125; -161.000; -260.000
363.241;  521.400; -739.000; -749.000
363.373;  433.850; -649.000; -564.000
363.505;  638.000; -186.000;  -91.000
363.637;  165.800; -787.000; -601.000
363.769; -111.750;-1067.000;-1080.000
363.901;  -68.000; -596.000; -654.000
364.033; -108.500;-1103.000;-1062.000
364.165;   -1.050; -283.000; -283.000
364.296;   57.750; -316.000; -177.000
364.428;   48.825;-1344.000;-1220.000
364.560;  -75.075; -679.000; -661.000
364.692;  -62.150; -738.000; -835.000
364.824;  314.750; -588.000; -456.000
364.955;  448.700; -402.000; -564.000
365.087;  889.775;-1097.000; -852.000
365.219;   24.300; -686.000; -816.000
365.351;  -70.625; -526.000; -572.000
365.482;   40.150;  300.000;  240.000
365.614;  -31.400; -402.000; -314.000
365.746; -101.825; -729.000; -752.000
365.877;  -99.300; -706.000; -672.000
366.009;  250.625;  -35.000;  -62.000
366.141;  -89.875;-1249.000;-1134.000
366.272; -111.125; -803.000; -719.000
366.404; -119.725;-1005.000; -874.000
366.535;  -11.525; -139.000;  -12.000
366.667; -109.800; -644.000; -649.000
366.799;   27.975;  353.000;  203.000
366.930; -122.950; -862.000; -996.000
367.062;  136.175; -639.000; -613.000
367.193;  139.600; -872.000; -842.000
367.325;  -58.450; -580.000; -684.000
367.456;   62.175; -246.000;   31.000
367.588;  161.425; -371.000; -318.000
367.719;   31.075;  -44.000;  -45.000
367.851;  -12.350; -222.000; -241.000
367.982;  -42.175; -875.000; -732.000
368.113;  120.275; -475.000; -358.000
368.245; -122.875; -960.000; -841.000
368.376;  -22.850; -254.000; -302.000
368.508;  -34.900; -188.000; -263.000
368.639; -141.675;-1166.000;-1034.000
368.770;   -1.650; -670.000; -589.000
368.902;  -41.800; -836.000; -926.000
369.033; -109.900; -906.000; -855.000
369.164;  -55.350; -720.000; -653.000
369.296;  -95.400; -452.000; -601.000
369.427;   17.875; -209.000; -144.000
369.558;  -56.675; -593.000; -377.000
369.689;  -77.775; -721.000; -569.000
369.821; -129.375; -951.000; -845.000
369.952;  -15.450;   42.000; -108.000
370.083;  -48.375; -229.000; -108.000
370.214;  -86.175; -735.000; -650.000
370.345;   -3.650;   65.000;   81.000
370.477;  -78.000; -810.000; -790.000
370.608;  261.875; -328.000; -264.000
370.739;  -29.800;-1233.000;-1292.000
370.870;  -38.700;-1102.000; -923.000
371.001;  112.575; -378.000; -467.000
371.132;  -66.975; -754.000; -735.000
371.263;  -17.700;  -42.000; -148.000
371.394; -134.175; -841.000; -748.000
371.525;   39.325;  345.000;  225.000
371.657;  -92.750; -808.000; -670.000
371.788;   78.175;  103.000;  199.000
371.919;  199.375; -384.000; -304.000
372.050; 4075.375;  -91.000; -156.000
372.181; 1231.950; -188.000; -294.000
372.311;  421.350;   42.000; -127.000
372.442;   51.575; -457.000; -451.000
372.573;  -18.550; -444.000; -340.000
372.704; -121.650;-1008.000; -980.000
372.835;   84.850; -228.000; -289.000
372.966;  -54.700; -646.000; -554.000
373.097;  -64.925; -575.000; -711.000
373.228;  -34.050; -717.000; -542.000
373.359;  171.750; -824.000; -536.000
373.490; 1065.050; -881.000; -727.000
373.620; 1341.875;-1001.000; -803.000
373.751; 2005.800; -332.000; -396.000
373.882;  909.075; -663.000; -733.000
374.013;   90.525; -449.000; -262.000
374.143;  -33.625; -581.000; -659.000
374.274;  -87.550; -987.000; -908.000
374.405;  205.475; -388.000; -276.000
374.536;  513.100; -526.000; -387.000
374.666; 1288.625; -759.000; -807.000
374.797;  294.600; -817.000; -868.000
374.928;  994.050; -710.000; -560.000
375.058; 1020.675; -535.000; -500.000
375.189;   84.000;  -59.000;  -93.000
375.320;  -96.550; -928.000;-1034.000
375.450;  -39.975; -625.000; -616.000
375.581;  -52.800; -526.000; -436.000
375.712;  -29.950; -574.000; -250.000
375.842;  357.000; -438.000; -415.000
375.973;  258.350; -554.000; -513.000
376.103;  -28.800; -665.000; -648.000
376.234;  -79.175; -531.000; -552.000
376.364;   -4.525; -944.000; -867.000
376.495;  368.800;  925.000;  529.000
376.625;    3.900; -472.000; -485.000
376.756;   92.750; -709.000; -678.000
376.886;  -68.700;-1178.000;-1026.000
377.017;   42.300;-1048.000;-1061.000
377.147;  346.975; -786.000; -782.000
377.278;   46.975;  174.000;  228.000
377.408; -125.275; -801.000; -815.000
377.538;  -97.750; -707.000; -693.000
377.669;  -86.875; -537.000; -613.000
377.799;  -78.875; -645.000; -635.000
377.929;  -53.450; -610.000; -428.000
378.060; -129.925; -781.000; -847.000
378.190;  -55.650; -726.000; -531.000
378.320;  -47.975; -401.000; -406.000
378.451;   -6.900; -131.000;  -22.000
378.581;   -9.925;  -67.000; -110.000
378.711;  159.225; 1035.000;  866.000
378.841;  -13.575; -533.000; -675.000
378.972;  -68.300; -871.000; -751.000
379.102;    1.500; -652.000; -579.000
379.232;  -16.875; -126.000;  -73.000
379.362;  -94.425;-1001.000; -885.000
379.492;   21.825; -373.000; -424.000
379.623;  119.150;    0.000;  111.000
379.753;  -98.300;-1107.000; -974.000
379.883;  214.775;   59.000;  156.000
380.013;   20.775;-1081.000;-1017.000
380.143;  -89.350;-1097.000;-1056.000
380.273; -108.775; -985.000; -861.000
380.403;   -0.450; -344.000; -257.000
380.533;  -19.300; -651.000; -664.000
380.663;   75.425;  173.000;  128.000
380.793;  -86.650;-1027.000;-1074.000
380.923;  -23.675; -103.000;  -34.000
381.053; -100.525; -613.000; -623.000
381.183;  -24.200; -106.000; -248.000
381.313;   41.875; -656.000; -470.000
381.443;   78.000; -692.000; -473.000
381.573;  228.100; -402.000; -409.000
381.703;  344.200;-1249.000;-1095.000
381.833; -125.725;-1454.000;-1336.000
381.963;  121.550; -134.000;  -87.000
382.093; 1581.800; -925.000; -909.000
382.223;  500.000; -713.000; -602.000
382.353;   -4.025; -801.000; -608.000
382.482;  433.250;-1091.000; -964.000
382.612;  857.925; -872.000; -644.000
382.742;  498.175; -695.000; -622.000
382.872;  313.475; -565.000; -551.000
383.002;   64.625;  347.000; -132.000
383.131;  -16.600; -226.000; -160.000
383.261;  -27.200; -706.000; -768.000
383.391;  309.500; -552.000; -377.000
383.521; 3145.675;  451.000;  263.000
383.650;  718.950; -947.000; -904.000
383.780;  -16.000; -783.000; -656.000
383.910;  107.750;  880.000;  802.000
384.039;   44.825; -794.000; -656.000
384.169;  260.050;-1205.000;-1017.000
384.299;   -6.350; -650.000; -662.000
384.428; -103.500; -764.000; -680.000
384.558;  -38.350; -308.000; -275.000
384.687;  -46.125; -414.000; -334.000
384.817;   11.125;   75.000;   -2.000
384.947;   20.500; -234.000; -141.000
385.076;  312.650;  982.000;  912.000
385.206;   97.025;  369.000;  480.000
385.335;  -38.625; -549.000; -417.000
385.465;  -76.375; -655.000; -663.000
385.594;  154.975;  -53.000;  -44.000
385.724;  508.075; -868.000; -838.000
385.853;  132.475; -296.000; -270.000
385.982; 1553.725; -743.000; -787.000
386.112; 2433.350;-1052.000; -871.000
386.241;  166.275; -307.000; -312.000
386.371;   34.850; -174.000;  -87.000
386.500;    8.250; -825.000; -789.000
386.629;   26.575; -874.000; -817.000
386.759;   61.675;  -43.000;   68.000
386.888;   -3.950; -170.000; -250.000
387.017;  -82.400; -648.000; -620.000
387.147;  -93.125; -771.000; -798.000
387.276;   13.525; -410.000; -397.000
387.405;   21.375; -398.000; -342.000
387.535;  -48.775; -452.000; -361.000
387.664;  -78.100; -692.000; -620.000
387.793;   62.250; -198.000; -113.000
387.922;  578.300;  255.000;  200.000
388.052;   40.550; -576.000; -423.000
388.181;   21.900; -342.000; -472.000
388.310;   11.425; -889.000; -710.000
388.439;  -26.925; -749.000; -742.000
388.568;  213.300;  365.000;  244.000
388.697; 1203.675; -756.000; -653.000
388.826;  239.750; -768.000; -666.000
388.956;   68.400; -285.000; -307.000
389.085;  -42.950; -347.000; -287.000
389.214; -109.550; -842.000; -872.000
389.343;  -72.250; -645.000; -413.000
389.472;  394.525;  126.000;  149.000
389.601;  537.425;   91.000;    0.000
389.730;   19.675; -568.000; -687.000
389.859;   79.875;  226.000;   46.000
389.988;  229.175; -423.000; -408.000
390.117;  161.525; -168.000; -146.000
390.246;    2.550; -331.000; -320.000
390.375;  124.850; -673.000; -626.000
390.504;  -44.600; -703.000; -621.000
390.633;  -87.975; -672.000; -726.000
390.761;  -60.250; -732.000; -645.000
390.890;   19.350;   -4.000; -130.000
391.019;  -30.075; -421.000; -441.000
391.148; -128.275; -826.000; -855.000
391.277;  -70.950; -576.000; -493.000
391.406;  -86.300; -821.000; -805.000
391.534;   18.575;  574.000; -301.000
391.663;  -70.775; -583.000; -645.000
391.792;  -79.625; -673.000; -701.000
391.921;  120.525;   -3.000;   15.000
392.050;  227.375; -287.000; -228.000
392.178;  -33.400;-1206.000;-1061.000
392.307;  177.000; -758.000; -712.000
392.436;   87.775; -427.000; -641.000
392.564;   26.200;  166.000;   -6.000
392.693;  -84.500; -860.000; -682.000
392.822;  241.325; -529.000; -534.000
392.950;  117.750; -880.000; -714.000
393.079;  378.400; -188.000; -328.000
393.208;   41.725; -488.000; -511.000
393.336;  -16.450; -170.000; -145.000
393.465;  -49.425; -317.000; -199.000
393.593;    6.675;   62.000;   79.000
393.722; -147.100;-1121.000; -916.000
393.850;  -33.925; -188.000;  -61.000
393.979; -157.925; -926.000; -805.000
394.107;  -56.175; -517.000; -537.000
394.236;  -32.925; -570.000; -507.000
394.364;  233.125;  383.000;  206.000
394.493;  375.975; -911.000; -767.000
394.621;  -12.250; -955.000; -916.000
394.750;  686.750; -873.000; -923.000
394.878; 2864.375; -247.000; -149.000
395.007; 3865.525; -721.000; -807.000
395.135;  281.350; -790.000; -721.000
395.263;  -74.850;-1038.000;-1040.000
395.392;    5.775;  -25.000; -107.000
395.520; -159.350; -818.000; -679.000
395.648;  -77.375; -865.000; -915.000
395.777;  -10.500; -366.000; -405.000
395.905;  -44.375; -449.000; -564.000
396.033;   25.850;  217.000;  172.000
396.162;  617.175; -399.000; -453.000
396.290;  549.125;  -17.000;   -2.000
396.418;  128.125; -555.000; -514.000
396.546;  -73.300; -571.000; -466.000
396.674;  -82.675; -850.000; -878.000
396.803;    2.300;  -72.000;  -23.000
396.931;  108.350; -179.000; -199.000
397.059;   67.350;-1026.000; -989.000
397.187; -106.275;-1026.000; -975.000
397.315; -141.950; -884.000; -649.000
397.443;  -98.850; -592.000; -443.000
397.572;  -87.225; -578.000; -424.000
397.700;    1.775; -607.000; -614.000
397.828;   20.075;  120.000;  -90.000
397.956;  -47.875; -508.000; -478.000
398.084;  -70.825; -767.000; -626.000
398.212;   31.525;  137.000;  124.000
398.340;    2.800;  -56.000;  159.000
398.468;   44.700; -390.000; -169.000
398.596; -123.125; -993.000; -953.000
398.724; -124.350; -762.000; -767.000
398.852; -170.425;-1024.000; -976.000
398.980;  -59.700; -560.000; -560.000
399.108;  -53.850; -982.000; -735.000
399.236;   41.550;   13.000;    8.000
399.363;   14.475;  222.000;  196.000
399.491;  -64.175; -404.000; -398.000
399.619; -132.775; -829.000; -800.000
399.747; -106.825; -859.000; -771.000
399.875;   83.475;  220.000;  234.000
400.003;  -46.700; -359.000; -284.000
400.130;  -77.000; -421.000; -341.000
400.258;  -30.075;  -83.000;   38.000
400.386;  -64.950; -352.000; -168.000
400.514;  -31.550; -526.000; -587.000
400.641;  -77.425; -928.000; -802.000
400.769; -136.875; -979.000; -888.000
400.897; -116.250; -838.000; -793.000
401.025;   -9.475; -166.000; -152.000
401.152;   -5.275;  220.000;   38.000
401.280;  -83.650; -430.000; -429.000
401.408; -129.500; -712.000; -576.000
401.535; -108.325; -735.000; -758.000
401.663; -198.875;-1134.000;-1054.000
401.790;  -86.850; -514.000; -525.000
401.918;   27.600;  436.000;  405.000
402.046;  -13.900;  134.000;  122.000
402.173;  -42.375;  -18.000;    7.000
402.301;  -77.050; -519.000; -397.000
402.428;   33.525;  528.000;  383.000
402.556; -143.775;-1188.000; -913.000
402.683;  -33.500;  -20.000;   -1.000
402.811;  -26.600;  -37.000; -206.000
402.938;  -17.925;   20.000;   27.000
403.066;  235.625; -574.000; -558.000
403.193;  382.050;  299.000;  239.000
403.321;  290.725; -396.000; -574.000
403.448;  349.600;   83.000;   27.000
403.575;  162.400;  -90.000;  -46.000
403.703;  -96.050; -732.000; -557.000
403.830;  -68.575; -531.000; -496.000
403.957; -140.500;-1117.000;-1023.000
404.085;   -0.575;  -61.000; -172.000
404.212;   98.225;  -50.000;   63.000
404.339;  259.025; -566.000; -306.000
404.467; 5603.125; -612.000; -524.000
404.594; 3853.375; -287.000; -227.000
404.721;  959.975; -869.000; -764.000
404.848;   79.350; -113.000; -202.000
404.976; -105.125; -856.000; -783.000
405.103;  -20.825;  -14.000;  -82.000
405.230;   -6.325;  190.000;  226.000
405.357;   26.325;  117.000;   44.000
405.484;  258.400;  -49.000;    5.000
405.612;   39.250; -548.000; -563.000
405.739;  -66.650; -488.000; -243.000
405.866;   90.000;  669.000;  385.000
405.993;  -46.350; -398.000; -102.000
406.120; -142.275; -801.000; -887.000
406.247;  -65.275; -323.000; -342.000
406.374;  493.025;  540.000;  629.000
406.501;  134.075; -632.000; -702.000
406.628;  -79.050; -621.000; -589.000
406.755; -103.850; -803.000; -620.000
406.882;  -48.500; -228.000; -277.000
407.009; -115.300; -719.000; -628.000
407.136;   52.000; -480.000; -401.000
407.263;  174.000; -939.000; -829.000
407.390;  -83.575; -692.000; -614.000
407.517; -166.300;-1139.000;-1187.000
407.644;  -59.450; -332.000; -256.000
407.771; -142.300; -249.000; -287.000
407.898;   -6.825;  168.000;  328.000
408.025;  -70.325; -421.000; -313.000
408.151;   -7.525;   82.000;  153.000
408.278;  -50.175; -267.000; -216.000
408.405; -113.200; -931.000; -899.000
408.532;  -73.325; -549.000; -542.000
408.659; -115.675; -677.000; -648.000
408.785; -202.500;-1298.000;-1170.000
408.912;  -67.400; -412.000; -296.000
409.039; -114.475; -610.000; -686.000
409.166; -110.950; -591.000; -555.000
409.292; -113.100; -571.000; -534.000
409.419; -124.200; -665.000; -649.000
409.546;  -95.125; -431.000; -192.000
409.672; -121.350; -713.000; -545.000
409.799;  -23.700;  -36.000;   34.000
409.926;  -45.925; -180.000; -179.000
410.052; -174.900;-1127.000;-1091.000
410.179;  -58.300; -368.000; -392.000
410.305;  -97.450; -375.000; -493.000
410.432;  -41.725; -220.000; -333.000
410.558;  -96.775; -305.000; -380.000
410.685; -107.250; -688.000; -431.000
410.812; -109.525; -409.000; -588.000
410.938; -142.250; -964.000; -808.000
411.065;  -93.400; -671.000; -645.000
411.191;  -25.450; -189.000; -174.000
411.317; -114.050; -823.000; -742.000
411.444;  -57.675; -317.000; -246.000
411.570;  -68.250; -339.000; -294.000
411.697; -129.100; -758.000; -752.000
411.823; -166.300; -989.000; -999.000
411.949;  -21.675;  -56.000;   17.000
412.076; -117.350; -539.000; -519.000
412.202; -112.600; -758.000; -757.000
412.329; -132.225; -798.000; -752.000
412.455; -120.325; -821.000; -657.000
412.581;  -23.350;  -15.000;  172.000
412.707;  -64.625; -540.000; -457.000
412.834;   26.350;  156.000;  219.000
412.960;  -71.525; -785.000; -784.000
413.086; -109.175; -743.000; -701.000
413.212;  156.150;  604.000;  578.000
413.339;  -62.575; -685.000; -701.000
413.465;    9.975; -364.000; -310.000
413.591;  -96.700; -757.000; -474.000
413.717;  -48.600; -358.000; -366.000
413.843; -146.500; -839.000; -861.000
413.969;  -67.600;  -47.000; -292.000
414.096; -100.350; -679.000; -679.000
414.222;  -12.050;  -33.000;   85.000
414.348;  -24.050; -652.000; -385.000
414.474;  108.225;   38.000;  -52.000
414.600;   -8.475; -126.000; -144.000
414.726;  -13.000;  -96.000;  -55.000
414.852;  -64.700; -365.000; -342.000
414.978;   38.275;  104.000;  -18.000
415.104;   50.450;   38.000;   80.000
415.230;   23.800; -329.000; -330.000
415.356;   51.600; -409.000; -514.000
415.482;  202.825;   13.000;  -35.000
415.608;  260.225; -247.000; -323.000
415.734;  947.100;   67.000;   38.000
415.860;19508.150; -875.000; -767.000
415.986;14468.025; -685.000; -607.000
416.111; 1241.550; -798.000; -652.000
416.237;  255.175; -424.000; -571.000
416.363; 1099.100; -765.000; -733.000
416.489; 4065.500; -324.000; -251.000
416.615;  442.225; -707.000; -742.000
416.741;  -27.575; -677.000; -784.000
416.866;  -96.600; -673.000; -736.000
416.992; -122.375; -801.000; -818.000
417.118;  -20.100;  -41.000;  -80.000
417.244;  -62.700; -798.000; -531.000
417.369;  -89.225; -801.000; -612.000
417.495;   -1.175; -325.000; -254.000
417.621;  -89.675;-1015.000; -803.000
417.746;   23.675; -579.000; -572.000
417.872;   51.400; -254.000; -144.000
417.998;   46.075; -515.000; -530.000
418.123;  997.175;-1073.000; -845.000
418.249; 5288.150; -512.000; -601.000
418.374;  735.625; -916.000; -824.000
418.500;  123.875; -383.000; -482.000
418.626;  113.875;   70.000;  -59.000
418.751;  117.125; -549.000; -448.000
418.877;  194.700; -637.000; -643.000
419.002; 1730.500; -688.000; -560.000
419.128;12275.325; -930.000; -721.000
419.253; 3059.825; -967.000; -837.000
419.379;  384.900; -391.000; -338.000
419.504;  391.050;  325.000;  415.000
419.629;  502.200; -393.000; -212.000
419.755; 3399.875; -317.000; -254.000
419.880;20522.775;  -98.000;   67.000
420.006;11219.825; -280.000; -221.000
420.131;28976.650; -662.000; -775.000
420.256; 4249.950; -315.000; -316.000
420.382;  556.325; -665.000; -687.000
420.507;   63.225; -649.000; -778.000
420.632;  146.825; -337.000; -339.000
420.758;  289.775; -251.000; -425.000
420.883;  -79.550; -876.000; -672.000
421.008; -102.775; -775.000; -619.000
421.133;  -87.800; -509.000; -467.000
421.259;  -48.125; -325.000; -259.000
421.384; -103.375; -834.000; -693.000
421.509;  -42.925;-1052.000; -862.000
421.634; 1340.725; -936.000; -820.000
421.759;  583.550; -359.000; -327.000
421.885;  -58.950; -717.000; -656.000
422.010;  -76.400; -673.000; -542.000
422.135; -157.450; -695.000; -727.000
422.260;   44.550;  340.000;  280.000
422.385;  -42.975;   12.000;  -98.000
422.510;    6.350;  151.000;  -26.000
422.635;   16.075;  -87.000;  -43.000
422.760;  118.600; -766.000; -791.000
422.885;   67.725;  -57.000;  -80.000
423.010;  -45.100; -112.000; -169.000
423.135;  -91.450; -481.000; -561.000
423.260;  -15.900; -150.000; -245.000
423.385;   61.875;  476.000;  222.000
423.510;   20.425;   71.000;  -22.000
423.635;   99.025;  133.000;   45.000
423.760;   57.925;  383.000;  328.000
423.885;   51.225;  336.000;  391.000
424.010;   17.950;  -68.000;  -13.000
424.135;  -20.900;    5.000;  -33.000
424.259;  -99.150; -654.000; -457.000
424.384;  -65.650; -279.000; -272.000
424.509;  -32.250; -260.000; -186.000
424.634; -110.725; -761.000; -623.000
424.759;  -21.300; -688.000; -544.000
424.883;  -12.150; -506.000; -527.000
425.008;  156.025; -502.000; -410.000
425.133; 1951.575; -679.000; -653.000
425.258;  951.975; -517.000; -381.000
425.382; 1138.375; -867.000; -774.000
425.507; 2958.000; -487.000; -543.000
425.632;  467.125; -802.000; -663.000
425.756;  460.100; -256.000; -146.000
425.881; 6243.450; -831.000; -857.000
426.006;17100.450; -604.000; -355.000
426.130; 2764.825; -696.000; -508.000
426.255;  343.000; -611.000; -491.000
426.379;  140.325; -189.000; -577.000
426.504;  353.375;  660.000;  544.000
426.629; 3949.050; -519.000; -466.000
426.753; 2781.350;   64.000;  -46.000
426.878;  329.175; -252.000; -288.000
427.002;  145.600; -651.000; -668.000
427.127; 1589.600;  -35.000; -158.000
427.251;11187.575;  372.000;  401.000
427.375; 3266.625; -191.000; -173.000
427.500; 2532.075; -616.000; -610.000
427.624;  881.750; -234.000; -400.000
427.749;   98.225; -216.000; -225.000
427.873;  -40.625; -499.000; -412.000
427.997;  -35.600; -222.000; -230.000
428.122;   71.000;  795.000;  703.000
428.246;   75.350;  433.000;  434.000
428.371; -123.050; -869.000; -773.000
428.495; -108.600; -624.000; -646.000
428.619;  -31.400; -186.000; -117.000
428.743;   20.750;   65.000;  132.000
428.868;   34.175; -732.000; -643.000
428.992; 1588.125; -219.000; -326.000
429.116;  645.275; -329.000; -357.000
429.240;  281.575;  419.000;  426.000
429.365;  -11.150; -454.000; -574.000
429.489;  -30.700; -638.000; -647.000
429.613;   16.850; -236.000; -177.000
429.737;   35.625; -563.000; -432.000
429.861;  273.450; -247.000; -133.000
429.985; 5434.025; -425.000; -305.000
430.109; 6095.575; -770.000; -908.000
430.234;  707.300;   76.000;  -50.000
430.358;   66.675; -250.000; -160.000
430.482;  -88.575; -672.000; -564.000
430.606;  -56.250; -655.000; -375.000
430.730;   12.975; -437.000; -388.000
430.854;  151.675; -909.000; -835.000
430.978;  -81.700; -795.000; -764.000
431.102;  -88.650; -499.000; -422.000
431.226; -115.825; -874.000; -815.000
431.350;   25.100;  345.000;  422.000
431.474;  -79.025; -661.000; -373.000
431.597; -141.225;-1060.000; -848.000
431.721;  -87.650; -276.000; -267.000
431.845; -140.725; -704.000; -472.000
431.969;  -84.775; -304.000; -349.000
432.093; -102.125; -395.000; -317.000
432.217;   -7.600;   32.000;   82.000
432.341;  -94.575; -523.000; -518.000
432.464;   11.450;   96.000;   40.000
432.588;  237.950; -401.000; -329.000
432.712;  112.000;  -52.000;  -52.000
432.836;   43.100;  213.000;  263.000
432.959;  -20.125; -372.000; -311.000
433.083;   73.650;   11.000;    2.000
433.207;  376.475;  285.000;  930.000
433.330; 4913.850; -391.000; -200.000
433.454; 6184.025; -654.000; -638.000
433.578; 3545.300;  583.000;  278.000
433.701;  667.825; -623.000; -675.000
433.825;  150.525; -292.000; -299.000
433.949;  200.325;   28.000;  -72.000
434.072;   78.950; -410.000; -323.000
434.196;  -15.900; -309.000; -117.000
434.319; 3685.500;25482.000;25124.000
434.443;  730.425; -656.000; -603.000
434.566; 2624.950;  281.000;   62.000
434.690;  452.525; -637.000; -383.000
434.813;   49.775; -251.000; -173.000
434.937;  -84.100; -569.000; -696.000
435.060;  -38.450; -423.000; -332.000
435.184;  342.100; -492.000; -217.000
435.307;  202.150;  159.000;  102.000
435.431;   -6.650;  -40.000;   24.000
435.554;  -84.700; -399.000; -240.000
435.677;  -79.550; -350.000; -258.000
435.801;  -34.600;  -25.000;   49.000
435.924;  -16.250;    1.000;  -67.000
436.048; -108.075;-1019.000; -732.000
436.171;  -71.300; -240.000;  -66.000
436.294;  -36.375; -248.000; -229.000
436.417;   86.550; -963.000; -849.000
436.541;  -83.300; -814.000; -840.000
436.664;  -58.500; -242.000; -316.000
436.787;  -23.575;   13.000;  113.000
436.910; -111.700; -792.000; -422.000
437.034;    9.525;  142.000;  143.000
437.157;   52.750;  -11.000;    0.000
437.280;  -41.400; -392.000; -292.000
437.403;  -89.800; -982.000; -869.000
437.526;  707.750; -903.000; -865.000
437.649; 2604.825; -505.000; -332.000
437.772;  420.525; -692.000; -540.000
437.896;  136.000;  700.000;  544.000
438.019;  -90.600; -758.000; -503.000
438.142;  -85.475; -596.000; -506.000
438.265;   -8.250; -639.000; -670.000
438.388;  633.575; -520.000; -410.000
438.511;  107.400; -597.000; -394.000
438.634;  -37.575; -247.000; -125.000
438.757; -127.975; -693.000; -619.000
438.880;  -26.975;  -34.000;  -57.000
439.003;  -88.525; -417.000; -437.000
439.126;  -67.950; -287.000; -167.000
439.248;  -66.150;  -98.000; -139.000
439.371;  -58.750;    9.000;  -53.000
439.494;   32.325;  510.000;  439.000
439.617;  -46.125;   65.000;  -88.000
439.740; -176.375; -968.000; -816.000
439.863; -141.500; -755.000; -595.000
439.986; -134.200; -476.000; -431.000
440.108;  -35.550; -161.000; -112.000
440.231; -160.100; -950.000; -836.000
440.354;  -38.350;  -64.000; -150.000
440.477;   45.425; -566.000; -542.000
440.599;   25.025; -200.000; -225.000
440.722; -122.925; -709.000; -586.000
440.845;   63.475;  751.000;  928.000
440.968; -107.100; -415.000; -311.000
441.090;  -57.700; -199.000;  -33.000
441.213; -161.225;-1021.000; -825.000
441.336;  -54.500; -159.000;   -5.000
441.458;  -78.050; -549.000; -396.000
441.581;  -88.200; -628.000; -629.000
441.703;  -92.900; -152.000;   13.000
441.826; -125.900; -557.000; -400.000
441.948;  -48.575;   56.000;   51.000
442.071;   21.400;  555.000;  424.000
442.193; -118.075; -531.000; -485.000
442.316;   12.100;  152.000;   97.000
442.438;   38.125; -233.000;  -10.000
442.561;   77.400;  272.000;  262.000
442.683;  601.375; -809.000; -522.000
442.806; 1345.350;   -8.000;   74.000
442.928;   72.100; -859.000; -604.000
443.051;  -62.575; -577.000; -373.000
443.173;  -95.925; -341.000; -339.000
443.295;  -93.600; -263.000; -371.000
443.418;  -76.375; -321.000;  -29.000
443.540;  -11.075; -106.000;   -4.000
443.662; -124.925; -563.000; -465.000
443.785;    0.950;  335.000;  199.000
443.907;  -92.950; -362.000; -208.000
444.029; -116.025; -767.000; -494.000
444.152; -153.200; -644.000; -554.000
444.274;  -37.750;  -18.000;  -24.000
444.396; -113.200; -461.000; -221.000
444.518; -136.775; -691.000; -454.000
444.640; -104.025; -268.000; -111.000
444.763;  -33.825;  388.000;  249.000
444.885; -115.325; -432.000; -392.000
445.007;  -42.400;   35.000;   86.000
445.129; -119.375; -610.000; -515.000
445.251; -108.400; -372.000; -439.000
445.373; -134.625; -537.000; -386.000
445.495;  -12.650;  242.000;  350.000
445.617;   44.550;  853.000;  753.000
445.739;  -64.925; -215.000;  -97.000
445.861;  -34.975; -245.000; -112.000
445.984;  -29.125; -267.000; -101.000
446.105;  220.300; -418.000; -251.000
446.227;  691.275; -176.000;  -19.000
446.349;   27.075; -358.000; -249.000
446.471; -109.300; -615.000; -448.000
446.593;  -67.125; -316.000;   19.000
446.715;   -6.625;  -67.000;   41.000
446.837;   43.900;  697.000;  832.000
446.959;  -95.525; -457.000; -478.000
447.081; -130.475; -628.000; -518.000
447.203;   51.000;  862.000;  834.000
447.325;  -81.025; -270.000;   42.000
447.446;  -15.100;  286.000;  530.000
447.568; -159.250; -921.000; -803.000
447.690;  -67.250; -236.000; -245.000
447.812; -168.100; -798.000; -519.000
447.933;  -27.250;  155.000;  127.000
448.055;  -86.375; -306.000; -261.000
448.177;  162.500;   31.000;   79.000
448.299;  114.450; -935.000; -727.000
448.420;   34.025;  -25.000;  159.000
448.542;  -51.625;   -3.000;   33.000
448.664;  -31.900;  109.000;  322.000
448.785;  -29.925;  265.000;   83.000
448.907;  -91.925; -614.000; -353.000
449.028;  -19.050; -771.000; -471.000
449.150;   60.175;  492.000;  589.000
449.272; -178.850;-1044.000; -913.000
449.393;   22.475;  612.000;  694.000
449.515; -128.850; -634.000; -581.000
449.636;  -56.725; -264.000; -155.000
449.758;   81.250;  763.000;  622.000
449.879;  -90.425; -498.000; -396.000
450.001;  -85.100; -149.000;  -49.000
450.122;  -41.650;  -95.000;  162.000
450.244;  -28.200;   37.000;  364.000
450.365; -103.700; -495.000; -301.000
450.486;  -42.100;   80.000;  268.000
450.608;   16.875;  393.000;  326.000
450.729;   66.175;  578.000;  645.000
450.850;   -4.075; -574.000; -466.000
450.972;  719.550; -552.000; -389.000
451.093; 4750.225;  190.000;  588.000
451.214; 2097.425; -516.000; -337.000
451.336;  391.775;  773.000;  579.000
451.457;   67.650;  264.000;  393.000
451.578;  -52.625; -118.000;  -74.000
451.699; -118.250; -546.000; -540.000
451.821;  -67.575; -284.000;  -50.000
451.942;   -3.725;  278.000;  285.000
452.063;   29.850;  228.000;  419.000
452.184;  520.475;  -54.000;  -49.000
452.305; 1063.150;  103.000;  170.000
452.427;  119.925; -549.000; -301.000
452.548;  -26.850;   23.000;   79.000
452.669;  -58.925; -257.000;  -89.000
452.790;  -38.025;    3.000;  -18.000
452.911;   -9.575;  195.000;  259.000
453.032;  -70.325; -289.000;  -60.000
453.153;  -39.900;  -29.000;   81.000
453.274;   53.250;  737.000;  868.000
453.395;  -59.175;  -51.000;  175.000
453.516;  137.600; 1317.000; 1388.000
453.637;  -62.875; -205.000; -150.000
453.758;  -53.925;   15.000;   69.000
453.879; -120.700; -462.000; -250.000
454.000;   73.750; 1086.000;  948.000
454.121; -122.775; -554.000; -326.000
454.242; -119.375; -599.000; -383.000
454.362;  -62.025;  -99.000;  114.000
454.483;  -34.300; -309.000; -229.000
454.604;   55.600;  512.000;  580.000
454.725; -123.475; -627.000; -555.000
454.846; -146.050; -474.000; -406.000
454.967;  -17.600;  230.000;  539.000
455.087;  -52.475;  179.000;  153.000
455.208;   18.250;  554.000;  856.000
455.329;  -56.225;  -22.000;   82.000
455.450;   22.975;  473.000;  633.000
455.570;  -83.675; -234.000; -211.000
455.691;  -50.475;  201.000;  407.000
455.812; -104.575; -270.000;  -92.000
455.932;  -61.550;  107.000;  -97.000
456.053;  -79.350;   36.000;   24.000
456.173; -102.225; -433.000; -355.000
456.294; -137.275; -476.000; -303.000
456.415;  -66.575;  -73.000;   70.000
456.535;  -51.250;  297.000;  273.000
456.656;  -51.050;  132.000;  240.000
456.776;  -64.300;    3.000;  298.000
456.897;   -8.900;  308.000;  513.000
457.017;  -74.175; -153.000;   -3.000
457.138; -109.850; -402.000; -249.000
457.258;  -23.375;  263.000;  224.000
457.379;  -29.325;  509.000;  521.000
457.499;  -36.300;  443.000;  432.000
457.620; -126.475; -407.000; -231.000
457.740; -109.400; -132.000;  -11.000
457.860;  -48.975;   87.000;   44.000
457.981;  -50.875;  132.000;  124.000
458.101;  -73.375;  -89.000;   40.000
458.221;  -29.275;  336.000;  402.000
458.342;  -72.125;   -4.000;  -37.000
458.462;   22.600;  617.000;  352.000
458.582;  -49.900; -302.000; -294.000
458.703;   16.625;  303.000;  154.000
458.823;  -37.525;   22.000;  163.000
458.943;   20.175;  341.000;  467.000
459.063;  -16.100; 1124.000;  192.000
459.183;  -40.675;  328.000;  313.000
459.304;  -11.700;  315.000;  517.000
459.424;  -71.075; -246.000;  -89.000
459.544;  314.075;  388.000;  764.000
459.664;  815.975;  499.000;  506.000
459.784;  316.725; 1004.000; 1175.000
459.904;   69.175;  867.000;  744.000
460.024;   64.625;  867.000;  684.000
460.144;   -0.250;  449.000;  554.000
460.264;   -7.025;  515.000;  327.000
460.385; -100.475; -145.000; -119.000
460.505;   21.300;  905.000;  858.000
460.625;  -85.450;  -17.000;  -68.000
460.745;  -17.750;  396.000;  541.000
460.864;  -38.900;  153.000;  469.000
460.984;    2.525;  499.000;  573.000
461.104;  125.025; 1656.000; 1775.000
461.224;   21.000;  657.000;  650.000
461.344;  -30.900;  431.000;  360.000
461.464;  -40.900;  258.000;  513.000
461.584;  -21.375;  283.000;  466.000
461.704;  -41.550;   58.000;  108.000
461.824;  -56.500;  238.000;  259.000
461.943;  -48.950;  191.000;  130.000
462.063;  -97.775;    2.000;  324.000
462.183;   22.825;  639.000;  717.000
462.303;   96.475; 1678.000; 1230.000
462.422;    5.175;  781.000;  840.000
462.542;  -34.800;  271.000;  391.000
462.662;   25.825;  353.000;  380.000
462.782;  233.075;  833.000;  572.000
462.901;  469.525;  545.000;  717.000
463.021;  276.150; 1702.000; 1638.000
463.141;   -7.625;  337.000;  770.000
463.260;  -15.975;  614.000;  474.000
463.380;   12.100;  902.000;  884.000
463.499;  -43.350;  342.000;  332.000
463.619;  -39.850;  581.000;  559.000
463.738;  106.925; 1644.000;  903.000
463.858;   11.675;  657.000;  811.000
463.978;  -50.275;  542.000;  396.000
464.097;   48.800;  921.000; 1114.000
464.217;  111.575; 1196.000; 1143.000
464.336;  119.375; 1068.000; 1130.000
464.455;  -25.150;  328.000;  659.000
464.575;   41.800;  597.000;  602.000
464.694;  179.825; 1204.000; 1179.000
464.814;  122.700; 1190.000; 1138.000
464.933;   76.725; 1095.000; 1027.000
465.052;  109.025; 1412.000; 1054.000
465.172;   79.875;  922.000;  799.000
465.291;  145.375; 1376.000; 1320.000
465.410;    5.050;  462.000;  735.000
465.530;   78.550; 1355.000; 1310.000
465.649;   74.625; 1209.000; 1273.000
465.768;  132.025; 1673.000; 1508.000
465.888;   28.200;  941.000; 1174.000
466.007;   91.725; 1335.000; 1440.000
466.126;  -10.725;  721.000;  641.000
466.245;   35.250; 1176.000; 1187.000
466.364;    8.575;  950.000; 1060.000
466.484;   53.500; 1024.000; 1213.000
466.603;   34.825; 1101.000; 1222.000
466.722;  125.300; 1490.000; 1769.000
466.841;   95.400; 1151.000; 1401.000
466.960;   39.325; 1069.000;  972.000
467.079;  106.100; 1971.000; 1786.000
467.198;   47.500; 1238.000; 1181.000
467.317;   89.650; 1768.000; 1162.000
467.436;   71.275; 1709.000; 1261.000
467.555;  128.525; 1796.000; 1746.000
467.674;   57.025; 1227.000; 1329.000
467.793;   36.925; 1376.000; 1374.000
467.912;   86.175; 1658.000; 1539.000
468.031;  128.675; 2038.000; 1930.000
468.150;  143.700; 1842.000; 1837.000
468.269;  197.150; 2313.000; 2090.000
468.388;  176.850; 2168.000; 2339.000
468.507;  253.750; 2884.000; 2903.000
468.626;  230.375; 2555.000; 2541.000
468.744;  134.400; 2018.000; 2174.000
468.863;  187.725; 2312.000; 2523.000
468.982;   96.350; 1503.000; 1555.000
469.101;  229.550; 2788.000; 2692.000
469.220;  159.075; 2333.000; 2176.000
469.338;  253.800; 2935.000; 3051.000
469.457;  195.050; 2719.000; 2545.000
469.576;  348.975; 3953.000; 3784.000
469.695;  237.650; 2877.000; 3066.000
469.813;  422.775; 4148.000; 4192.000
469.932;  415.525; 4255.000; 4485.000
470.051;  416.350; 4075.000; 4161.000
470.169;  845.225; 4470.000; 4338.000
470.288; 1446.500; 4700.000; 4809.000
470.406;  864.500; 5059.000; 5194.000
470.525;  641.725; 6101.000; 5787.000
470.644;  637.550; 6847.000; 6794.000
470.762;  808.450; 8397.000; 7873.000
470.881;  891.275; 8651.000; 8464.000
470.999; 1039.100; 9685.000; 9151.000
471.118; 1115.200;11174.000;10711.000

