
Integration time [ms]: 200.000
Averaging Nr. [scans]: 10
Smoothing Nr. [pixels]: 0
Data measured with spectrometer [name]: 2101012U2
Wave   ;Sample   ;Dark     ;Reference
[nm]   ;[counts] ;[counts] ;[counts] 

197.733;  113.600;  516.000;  404.000
197.879; -182.900; -610.000; -634.000
198.025;  -89.700; -475.000; -420.000
198.171; -164.600; -602.000; -612.000
198.317;  -48.800; -401.000; -316.000
198.463; -147.900; -655.000; -404.000
198.609;   71.000;  181.000; -137.000
198.755; -155.300; -644.000; -410.000
198.901; -150.200; -505.000; -424.000
199.047; -115.700; -615.000; -488.000
199.193;  -70.900; -230.000; -468.000
199.339;  -83.600; -222.000; -369.000
199.485;   98.100;  330.000;  271.000
199.631;   52.900;  227.000;  310.000
199.777;  -95.400; -466.000; -398.000
199.923; -142.800; -610.000; -424.000
200.069;   -0.800; -141.000;  -58.000
200.215;  124.900;  128.000;  453.000
200.361;   80.300;  243.000;  477.000
200.507; -141.700; -600.000; -373.000
200.653;  -42.700; -371.000; -194.000
200.798;  -86.800; -215.000; -125.000
200.944;  -10.500; -146.000;  -41.000
201.090;   73.600;   61.000;  222.000
201.236;   -7.000; -116.000; -158.000
201.382;  267.400;  874.000;  903.000
201.528;  -21.800;  -58.000;  -48.000
201.674; -124.800; -386.000; -293.000
201.819; -137.100; -540.000; -439.000
201.965; -201.900; -699.000; -447.000
202.111;  -59.000; -273.000; -226.000
202.257;  -86.500; -250.000; -238.000
202.402;   37.700;   13.000;  -36.000
202.548;  -49.400; -169.000; -116.000
202.694;  165.500;  410.000; -183.000
202.840; -151.400; -603.000; -531.000
202.985; -174.700; -681.000; -639.000
203.131; -234.700; -832.000; -666.000
203.277;  -81.400; -199.000; -262.000
203.423;  -91.300; -434.000; -520.000
203.568;  -99.800; -462.000; -237.000
203.714; -131.700; -535.000; -542.000
203.860; -182.100; -682.000; -641.000
204.005;   19.100;  112.000;  167.000
204.151;  174.500;  561.000;  556.000
204.296;  -92.500; -354.000; -221.000
204.442; -159.500; -600.000; -547.000
204.588; -155.900; -592.000; -579.000
204.733;   43.900;  178.000;  168.000
204.879; -284.400;-1018.000; -822.000
205.025;   15.600;  -99.000;  126.000
205.170;   -9.300;  -17.000;   94.000
205.316;  186.100;  438.000;  661.000
205.461; -170.000; -698.000; -554.000
205.607;  160.500;  609.000;  665.000
205.752; -166.800; -626.000; -551.000
205.898; -105.300; -501.000; -391.000
206.043;  -82.900; -578.000; -506.000
206.189;  -97.000; -243.000; -285.000
206.334;  172.400;  554.000;  606.000
206.480;  130.100;  409.000;  239.000
206.625; -188.400; -529.000; -552.000
206.771; -114.400; -451.000; -373.000
206.916;  -60.700; -210.000; -537.000
207.062; -155.300; -545.000; -591.000
207.207; -138.900; -546.000; -443.000
207.353;  117.500;  185.000;  460.000
207.498;   37.200;  196.000;   85.000
207.643;  -98.100; -501.000; -370.000
207.789; -280.600;-1069.000; -910.000
207.934; -223.700; -665.000; -713.000
208.080;  -21.700; -154.000;   66.000
208.225;   20.000;  -22.000;  -57.000
208.370; -175.000; -727.000; -619.000
208.516; -156.000; -741.000; -487.000
208.661;  -55.400; -127.000;  -69.000
208.806;  -53.300; -165.000; -171.000
208.952; -250.300;-1044.000; -731.000
209.097;  134.000;  378.000;  349.000
209.242;  -75.600; -307.000; -382.000
209.387;  122.500;  392.000;  350.000
209.533; -101.900; -321.000; -350.000
209.678;  219.900;  472.000;  543.000
209.823; -132.400; -408.000; -310.000
209.969; -223.500; -860.000; -757.000
210.114; -252.400; -907.000; -719.000
210.259; -231.800; -939.000; -889.000
210.404;  -13.500; -171.000;  103.000
210.549;   20.300;  108.000;    3.000
210.695;   -3.100;   -3.000;  -95.000
210.840;   67.100;   94.000;   67.000
210.985; -125.100; -484.000; -303.000
211.130;  180.600;  268.000;  406.000
211.275;   56.400;  207.000;  199.000
211.420;  -72.700; -300.000; -289.000
211.566; -139.500; -536.000; -489.000
211.711;   45.600;  218.000;  157.000
211.856; -123.000; -545.000; -519.000
212.001;   24.400;  151.000;   44.000
212.146;   28.100;  153.000;   49.000
212.291;  -38.700; -210.000; -186.000
212.436;   -5.900; -280.000;   -6.000
212.581; -167.900; -685.000; -653.000
212.726; -145.500; -487.000; -538.000
212.871;  -87.400; -552.000; -217.000
213.016; -332.500;-1172.000;-1029.000
213.161;  123.900;  406.000;  291.000
213.306; -144.900; -435.000; -577.000
213.451; -206.100; -778.000; -689.000
213.596;  -89.400; -455.000; -347.000
213.741; -118.600; -448.000; -538.000
213.886; -160.900; -498.000; -517.000
214.031;  -43.300; -294.000; -124.000
214.176; -112.400; -408.000; -341.000
214.321;  -59.600; -296.000; -157.000
214.466;  -37.300; -163.000;  -43.000
214.611;    6.100;  -61.000;  -10.000
214.756; -227.500; -948.000; -858.000
214.901;  -44.500; -388.000; -226.000
215.046; -206.500; -797.000; -825.000
215.191;   75.400;  128.000;   35.000
215.336;   -6.500; -157.000;  -19.000
215.480; -143.000; -684.000; -505.000
215.625;   -7.100; -175.000;  -19.000
215.770; -172.500; -757.000; -662.000
215.915;  -40.800;   -5.000;  -97.000
216.060;   34.800; -113.000;  -21.000
216.205; -262.600; -731.000; -779.000
216.349; -144.700; -470.000; -533.000
216.494; -263.700; -939.000; -867.000
216.639; -247.500; -823.000; -888.000
216.784; -173.300; -577.000; -525.000
216.929;   87.000;  392.000;  281.000
217.073;  -23.200; -244.000;  -31.000
217.218;   39.400;   78.000;  -47.000
217.363; -191.400; -656.000; -618.000
217.507; -165.600; -623.000; -588.000
217.652; -265.200; -845.000; -874.000
217.797; -207.000; -708.000; -659.000
217.942; -231.300; -856.000; -720.000
218.086;  187.100;  608.000;  539.000
218.231;  -27.600; -174.000;  -26.000
218.376;  -68.400; -337.000; -229.000
218.520;   20.800;  -41.000;   96.000
218.665;  -82.800; -338.000; -204.000
218.810;  -93.500; -275.000; -233.000
218.954;   52.900;  201.000;   35.000
219.099; -218.000; -713.000; -963.000
219.243; -123.000; -589.000; -554.000
219.388;  -39.500; -264.000; -136.000
219.532;    3.400; -116.000; -116.000
219.677; -153.500; -564.000; -521.000
219.822;   -3.000;   33.000;   89.000
219.966;   11.400;   17.000;  -99.000
220.111;  -67.200; -328.000;  -40.000
220.255; -187.300; -797.000; -750.000
220.400;  -24.200; -180.000; -146.000
220.544; -121.200; -516.000; -450.000
220.689; -137.900; -422.000; -451.000
220.833;  -29.200; -123.000;  -58.000
220.978; -100.100; -393.000; -563.000
221.122;   60.700;  319.000;  307.000
221.267; -250.400; -906.000; -837.000
221.411; -130.000; -478.000; -394.000
221.555;  -18.800; -104.000;  -23.000
221.700;  -94.100; -329.000; -222.000
221.844;   86.900;  255.000;  272.000
221.989;  -58.300; -328.000; -311.000
222.133;  -97.400; -289.000; -307.000
222.277;   11.200;    5.000;   78.000
222.422;   58.800;  227.000;  113.000
222.566;  -76.200; -381.000; -214.000
222.711; -114.500; -414.000; -479.000
222.855; -159.300; -643.000; -586.000
222.999; -163.600; -642.000; -717.000
223.144;  -71.000; -195.000; -194.000
223.288;  123.000;  423.000;  251.000
223.432;   30.100;  184.000;  230.000
223.576;   37.900;  152.000;  -21.000
223.721;   95.600;  364.000;  273.000
223.865; -134.900; -472.000; -475.000
224.009;  513.000; 1673.000; 1631.000
224.153; -190.600; -660.000; -671.000
224.298; -151.400; -531.000; -489.000
224.442;    2.700;  -74.000;  -33.000
224.586;  -16.300; -169.000; -106.000
224.730; -208.200; -858.000; -670.000
224.875; -209.300; -739.000; -688.000
225.019;   35.400;  102.000;  188.000
225.163;  122.700;  208.000;  341.000
225.307;   48.800;   97.000;  -91.000
225.451;   91.500;  360.000;  481.000
225.595;   84.400;  264.000;  176.000
225.739;   -5.400; -170.000;  -94.000
225.884;   28.000;   86.000;    5.000
226.028; -198.900; -760.000; -626.000
226.172;  -72.700; -260.000; -273.000
226.316; -228.500; -941.000; -902.000
226.460; -145.400; -645.000; -493.000
226.604;  -88.700; -406.000; -400.000
226.748; -219.800; -836.000; -733.000
226.892;  -58.600; -227.000; -181.000
227.036; -120.300; -537.000; -447.000
227.180; -117.100; -551.000; -375.000
227.324; -131.700; -561.000; -580.000
227.468; -221.700; -819.000; -717.000
227.612;   37.000;  242.000;  -28.000
227.756; -196.100; -845.000; -698.000
227.900;  104.500;  342.000;  441.000
228.044; -154.800; -509.000; -290.000
228.188;  133.200;  448.000;  568.000
228.332; -176.300; -546.000; -472.000
228.476;  -44.400; -223.000; -149.000
228.620;  -71.300; -210.000; -150.000
228.764;  148.400;  431.000;  349.000
228.908;  -51.600; -155.000;   30.000
229.052; -116.400; -615.000; -528.000
229.195;  -33.900; -172.000;   13.000
229.339;  -25.200; -235.000; -305.000
229.483;  -46.500;    5.000; -162.000
229.627;   -7.600; -156.000;  139.000
229.771; -107.000; -218.000; -294.000
229.915;    8.000;  230.000;   79.000
230.059; -184.000; -648.000; -663.000
230.202;  -98.300; -370.000; -317.000
230.346;  -44.300; -107.000;  107.000
230.490; -132.200; -489.000; -521.000
230.634; -207.800; -736.000; -553.000
230.777;  164.400;  478.000;  509.000
230.921; -107.200; -450.000; -359.000
231.065;  -89.900; -246.000; -286.000
231.209;   72.200;  261.000;  265.000
231.352;   39.600;   54.000;   40.000
231.496;   58.600;  568.000;  188.000
231.640; -154.900; -693.000; -621.000
231.783;  142.500;  546.000;  525.000
231.927; -106.400; -294.000; -365.000
232.071; -237.200; -962.000; -736.000
232.214; -249.600; -980.000; -764.000
232.358; -217.100; -683.000; -599.000
232.502;   11.300;  -19.000;    7.000
232.645; -288.900;-1090.000; -927.000
232.789;  -58.200; -257.000; -218.000
232.933;  -87.800; -407.000; -224.000
233.076; -294.200;-1038.000; -897.000
233.220; -238.200; -752.000; -777.000
233.363; -160.600; -669.000; -477.000
233.507;  154.700;  371.000;  129.000
233.650; -194.100; -764.000; -834.000
233.794;   93.700;  438.000;  461.000
233.938; -115.000; -530.000; -362.000
234.081;  -23.600;  -93.000;   31.000
234.225; -145.400; -631.000; -539.000
234.368; -234.600; -773.000; -723.000
234.512;  -85.500; -385.000; -299.000
234.655; -195.500; -582.000; -555.000
234.798; -146.400; -493.000; -466.000
234.942; -248.700; -884.000;-1002.000
235.085; -118.700; -651.000; -443.000
235.229; -131.500; -405.000; -410.000
235.372; -106.600; -247.000; -191.000
235.516; -123.100; -397.000; -321.000
235.659;   74.400;   92.000;  121.000
235.802;  -16.500;  -38.000;  -22.000
235.946;   51.800;  335.000;  215.000
236.089;   48.300;  126.000;  250.000
236.233;  124.200;  275.000;  298.000
236.376; -112.800; -235.000; -378.000
236.519;  -83.500; -297.000; -319.000
236.663;  -19.100; -215.000; -117.000
236.806; -268.600;-1029.000; -999.000
236.949;  130.300;  543.000;  431.000
237.092;  141.400;  412.000;  391.000
237.236; -176.100; -589.000; -502.000
237.379;  175.000;  352.000;  428.000
237.522; -232.400; -879.000; -768.000
237.666;  -30.400; -271.000;   18.000
237.809; -246.100; -851.000; -823.000
237.952;  101.500;  469.000;  271.000
238.095; -140.600; -447.000; -442.000
238.238;  183.900;  688.000;  700.000
238.382;    8.100;  166.000;  103.000
238.525; -140.200; -598.000; -511.000
238.668; -306.800;-1060.000; -985.000
238.811; -183.400; -638.000; -643.000
238.954; -120.100; -483.000; -334.000
239.097;  203.400;  617.000;  664.000
239.241;   94.900;  394.000;  326.000
239.384;  -69.000; -254.000; -214.000
239.527; -105.400; -424.000; -224.000
239.670; -292.100; -994.000;-1091.000
239.813; -236.300; -696.000; -658.000
239.956;  161.100;  579.000;  473.000
240.099; -254.600; -778.000; -725.000
240.242;  141.800;  428.000;  432.000
240.385;  123.500;  466.000;  450.000
240.528; -140.800; -706.000; -473.000
240.671;   41.200;  189.000;  134.000
240.814;  -69.400; -441.000; -158.000
240.957; -177.900; -767.000; -578.000
241.100; -187.600; -779.000; -755.000
241.243; -270.600;-1234.000; -893.000
241.386; -127.500; -508.000; -379.000
241.529; -168.600; -735.000; -547.000
241.672; -135.900; -566.000; -495.000
241.815; -226.300; -832.000; -808.000
241.958;  -26.400; -125.000; -182.000
242.101; -133.100; -545.000; -390.000
242.244;  -70.900; -270.000; -325.000
242.387;  -76.500; -304.000; -246.000
242.530;  127.600;  470.000;  134.000
242.673;  -63.800; -381.000; -309.000
242.815; -225.100; -925.000; -899.000
242.958; -116.100; -482.000; -381.000
243.101;   29.600;  132.000;  187.000
243.244; -167.900; -564.000; -521.000
243.387; -100.600; -313.000; -316.000
243.530; -172.200; -657.000; -674.000
243.672;    6.300;   43.000;  -92.000
243.815;  -85.800; -355.000; -283.000
243.958;   -3.000;   98.000;  -26.000
244.101;   13.500;   59.000;  -16.000
244.243;  -10.500;  -47.000;  101.000
244.386; -218.000; -761.000; -630.000
244.529;  -55.700; -132.000; -139.000
244.672; -311.600;-1154.000; -951.000
244.814; -216.800; -621.000; -794.000
244.957;  -77.600; -380.000; -304.000
245.100; -141.300; -489.000; -489.000
245.242;  -95.600; -387.000; -374.000
245.385;    0.100;  -59.000;  -39.000
245.528; -263.500; -871.000; -705.000
245.670;  213.600;  612.000;  634.000
245.813; -169.300; -599.000; -547.000
245.956;  -70.300; -324.000; -275.000
246.098; -115.300; -508.000; -650.000
246.241;   19.100;  194.000;   48.000
246.383;  -27.800; -119.000;  -73.000
246.526; -141.000; -454.000; -525.000
246.669; -234.400; -889.000; -780.000
246.811;   32.900;  172.000;   -1.000
246.954; -123.400; -512.000; -426.000
247.096;  -47.700;  -84.000;   -6.000
247.239; -137.400; -482.000; -445.000
247.381; -138.800; -647.000; -488.000
247.524;  205.400;  645.000;  679.000
247.666;   -1.500;   58.000;   11.000
247.809; -228.300; -887.000; -691.000
247.951;  -20.500;  -75.000;  138.000
248.094;   68.100;  432.000;  308.000
248.236; -319.600;-1262.000;-1238.000
248.378;   11.000; -356.000;  -81.000
248.521;  -46.000; -334.000; -337.000
248.663;  -62.800; -236.000; -267.000
248.806;  -24.900; -300.000; -266.000
248.948; -180.600; -886.000; -763.000
249.090; -109.500; -428.000; -398.000
249.233; -100.100; -344.000; -381.000
249.375; -141.300; -474.000; -451.000
249.518;  -42.300;  -83.000; -133.000
249.660;  -14.800; -103.000;    3.000
249.802; -349.100;-1303.000;-1189.000
249.945; -167.600; -612.000; -540.000
250.087; -229.200; -834.000; -768.000
250.229; -121.400; -362.000; -480.000
250.371; -153.500; -494.000; -439.000
250.514;  -92.100; -310.000; -244.000
250.656; -108.100;   69.000;  102.000
250.798; -243.000; -849.000; -800.000
250.940; -127.500; -322.000; -322.000
251.083;  -57.800; -335.000; -111.000
251.225;  135.000;  338.000;  310.000
251.367;  -80.800; -274.000; -373.000
251.509;  -52.100; -265.000; -210.000
251.651; -212.800; -731.000; -671.000
251.794;  160.000;  538.000;  632.000
251.936; -238.600; -821.000; -747.000
252.078; -123.200; -540.000; -461.000
252.220; -150.200; -645.000; -477.000
252.362;  151.200;  344.000;  462.000
252.504; -142.000; -677.000; -584.000
252.646; -231.600; -875.000; -722.000
252.788;  -11.400;   14.000; -128.000
252.931;  -45.200; -257.000; -253.000
253.073;  -77.200; -376.000; -317.000
253.215;    7.000;  141.000;  122.000
253.357;    2.200;   82.000; -153.000
253.499;  -94.300; -374.000; -234.000
253.641; -136.400; -749.000; -594.000
253.783; -178.100; -609.000; -527.000
253.925; -178.800; -586.000; -591.000
254.067; -230.400; -744.000; -667.000
254.209;  -62.800; -391.000; -259.000
254.351; -275.200; -865.000; -883.000
254.493; -111.400; -441.000; -417.000
254.635; -216.100; -936.000; -818.000
254.777; -186.700; -752.000; -687.000
254.918; -164.600; -512.000; -430.000
255.060;  -94.800; -551.000; -395.000
255.202;  -93.400; -473.000; -261.000
255.344; -154.100; -658.000; -455.000
255.486; -119.600; -471.000; -406.000
255.628; -224.900; -780.000; -781.000
255.770; -181.000; -676.000; -536.000
255.912; -119.900; -559.000; -468.000
256.053; -168.200; -730.000; -508.000
256.195;  346.300; 1008.000;  903.000
256.337; -192.600; -861.000; -595.000
256.479;  134.300;  532.000;  416.000
256.621;  -84.900; -394.000; -212.000
256.762; -191.300; -789.000; -742.000
256.904;  162.500;  485.000;  487.000
257.046;  -91.400; -381.000; -271.000
257.188;  -80.200; -351.000; -264.000
257.329; -141.400; -525.000; -464.000
257.471; -230.400; -939.000; -807.000
257.613; -110.700; -584.000; -498.000
257.755; -309.100;-1073.000; -982.000
257.896;   76.000;  286.000;  392.000
258.038; -126.600; -403.000; -352.000
258.180;  -87.000; -354.000; -279.000
258.321; -165.700; -581.000; -457.000
258.463;   -6.800;  -71.000;  133.000
258.605; -179.400; -562.000; -570.000
258.746; -215.200; -886.000; -772.000
258.888; -314.900;-1026.000;-1020.000
259.029;   69.600;  121.000;   -8.000
259.171; -168.100; -614.000; -550.000
259.313;   -3.800;  -49.000;  -47.000
259.454; -134.700; -536.000; -414.000
259.596;  -98.800; -483.000; -390.000
259.737; -140.200; -590.000; -474.000
259.879;   99.000;  217.000;  311.000
260.020;  203.200;  901.000;  636.000
260.162;  -41.400; -146.000; -253.000
260.303; -215.300; -768.000; -687.000
260.445; -161.200; -609.000; -613.000
260.586;   71.200;  392.000;  157.000
260.728;  -63.800; -360.000; -248.000
260.869; -117.100; -350.000; -343.000
261.011;  171.700;  706.000;  537.000
261.152;  -88.500; -479.000; -319.000
261.293; -169.600; -576.000; -595.000
261.435;  -37.700; -219.000; -184.000
261.576;  -99.100; -455.000; -325.000
261.718;  164.400;  420.000;  470.000
261.859; -270.800; -940.000; -949.000
262.000; -277.900; -951.000;-1016.000
262.142;  -45.300;  -52.000;  -60.000
262.283; -235.100; -808.000; -691.000
262.424; -155.800; -666.000; -625.000
262.566; -317.100;-1161.000; -983.000
262.707; -227.800; -840.000; -830.000
262.848; -234.200; -769.000; -726.000
262.990; -118.200; -362.000; -345.000
263.131;  208.600;  650.000;  681.000
263.272;   -6.900;  -61.000;  -41.000
263.413; -169.100; -589.000; -561.000
263.555; -119.700; -669.000; -143.000
263.696; -160.000; -550.000; -641.000
263.837; -105.400; -449.000; -551.000
263.978;   45.300;   -5.000;  -77.000
264.119;  -87.000; -283.000; -264.000
264.261; -191.700; -847.000; -630.000
264.402;   27.200;   33.000;   40.000
264.543; -124.800; -509.000; -524.000
264.684;   -3.700;   61.000;  -50.000
264.825; -146.000; -816.000; -538.000
264.966;    6.200;  -84.000;  -67.000
265.107; -248.600; -646.000; -670.000
265.248; -258.200; -825.000; -812.000
265.390;   13.900;  152.000;   -9.000
265.531;  -46.200; -238.000; -107.000
265.672; -171.000; -557.000; -630.000
265.813;  125.600;  563.000;  439.000
265.954; -290.600; -959.000; -940.000
266.095;  -21.600; -372.000; -322.000
266.236; -172.400; -686.000; -548.000
266.377;  -65.400; -243.000; -297.000
266.518;  -90.100; -619.000; -547.000
266.659;   71.200;  170.000;  268.000
266.800;   60.300;   83.000;   85.000
266.941; -146.800; -487.000; -478.000
267.082;   68.200;  354.000;   99.000
267.223; -113.100; -344.000; -273.000
267.364; -230.100; -892.000; -686.000
267.504;   -2.600;    3.000;  135.000
267.645;    8.200;  160.000;   67.000
267.786;  -66.900; -147.000;  -86.000
267.927; -127.600; -473.000; -379.000
268.068;  -64.100; -186.000;  -61.000
268.209;  -87.500; -175.000; -413.000
268.350; -152.900; -388.000; -532.000
268.490; -180.300; -648.000; -521.000
268.631;   79.500;  127.000;  225.000
268.772; -210.000; -874.000; -647.000
268.913;  -76.400; -328.000; -476.000
269.054;    4.000; -117.000;   12.000
269.194;  -49.500; -418.000; -402.000
269.335; -296.000;-1137.000;-1074.000
269.476;  -16.500;   33.000;  -35.000
269.617;  -63.700; -347.000; -392.000
269.757; -176.500; -713.000; -646.000
269.898; -199.100; -856.000; -613.000
270.039; -111.600; -415.000; -405.000
270.180; -276.400; -952.000; -816.000
270.320;  -62.700; -190.000; -250.000
270.461;  -77.100; -277.000; -249.000
270.602;   -6.500; -186.000; -156.000
270.742; -251.700; -868.000; -943.000
270.883;  -81.500; -442.000; -390.000
271.023; -145.000; -358.000; -357.000
271.164; -131.400; -607.000; -528.000
271.305; -162.400; -666.000; -654.000
271.445; -188.200; -722.000; -683.000
271.586; -106.600; -462.000; -283.000
271.726;  -94.700; -397.000; -322.000
271.867; -129.900; -594.000; -534.000
272.008;  277.200; -473.000; -285.000
272.148;  265.300;  462.000;  468.000
272.289;   62.800; -113.000; -181.000
272.429;   26.400;   19.000;  185.000
272.570; -205.600; -633.000; -737.000
272.710; -205.200; -825.000; -775.000
272.851;  -33.200;  113.000; -130.000
272.991; -323.400;-1173.000;-1077.000
273.131; -147.200; -419.000; -459.000
273.272; -184.700; -683.000; -723.000
273.412;    4.900; -143.000;  -31.000
273.553; -109.700; -488.000; -507.000
273.693;  289.600;  913.000;  858.000
273.834; -205.600; -894.000; -692.000
273.974; -157.300; -664.000; -615.000
274.114; -198.500; -772.000; -560.000
274.255;  164.600;  414.000;  373.000
274.395;   35.700; -180.000; -125.000
274.535;  119.900;  199.000;  350.000
274.676;   67.600;  225.000;   94.000
274.816;    3.400;  110.000;   34.000
274.956; -134.500; -624.000; -690.000
275.097; -158.100;-1014.000; -922.000
275.237; -217.200; -913.000; -803.000
275.377; -212.400; -778.000; -689.000
275.517; -302.800; -878.000; -937.000
275.658;  -94.400; -590.000; -555.000
275.798; -123.600; -606.000; -413.000
275.938;   64.500;  215.000;  323.000
276.078; -141.200; -626.000; -395.000
276.218;   19.300;   99.000;  104.000
276.359; -261.100;-1026.000;-1024.000
276.499; -130.600; -605.000; -446.000
276.639;  -32.100; -305.000; -151.000
276.779; -108.800; -475.000; -357.000
276.919; -190.700; -783.000; -624.000
277.059;  -54.700; -261.000; -212.000
277.199;  -76.500; -357.000; -259.000
277.340;  141.500;  287.000;  175.000
277.480; -204.200; -840.000; -693.000
277.620;   70.900;  192.000;   16.000
277.760; -401.000;-1533.000;-1294.000
277.900;   57.800;  113.000;   33.000
278.040;   41.400;  137.000;  159.000
278.180;   57.600;  270.000;  170.000
278.320;   18.800;   21.000;   56.000
278.460; -141.800; -443.000; -469.000
278.600; -153.700; -708.000; -598.000
278.740;  151.300;  448.000;  224.000
278.880; -149.400; -768.000; -791.000
279.020;   45.000; -194.000; -144.000
279.160; -155.400; -672.000; -595.000
279.300; -241.400; -926.000; -873.000
279.440; -155.400; -709.000; -622.000
279.579; -123.500;-1014.000; -929.000
279.719;  -72.600; -410.000; -394.000
279.859;  151.200;   -4.000;   41.000
279.999;   54.900; -208.000;  101.000
280.139;  -21.700; -435.000; -387.000
280.279; -144.500; -708.000; -745.000
280.419;  -28.700; -229.000; -147.000
280.559;  -61.700; -259.000; -180.000
280.698; -141.500; -790.000; -639.000
280.838; -189.100; -778.000; -800.000
280.978; -176.900; -846.000; -790.000
281.118; -217.900; -811.000; -704.000
281.257;   72.300;   24.000;    6.000
281.397; -224.400;-1094.000; -960.000
281.537; -137.500; -599.000; -712.000
281.677;  -19.300; -150.000; -101.000
281.816; -170.600; -700.000; -630.000
281.956;  -24.400; -193.000; -257.000
282.096; -107.800; -539.000; -396.000
282.235; -216.100; -672.000; -638.000
282.375;  -26.300; -243.000;  -98.000
282.515; -188.000; -715.000; -707.000
282.654;   61.400;   29.000;  106.000
282.794;  114.200;  388.000;  244.000
282.934; -100.300; -530.000; -491.000
283.073; -234.600;-1030.000; -857.000
283.213; -108.800; -460.000; -467.000
283.353;  -78.100; -408.000; -349.000
283.492;  -22.300; -264.000; -296.000
283.632;  -62.800; -254.000; -168.000
283.771; -192.300; -859.000; -730.000
283.911; -104.200; -369.000; -260.000
284.050; -197.100; -794.000; -748.000
284.190; -315.200;-1229.000;-1096.000
284.329; -280.100;-1055.000; -964.000
284.469; -130.500; -516.000; -591.000
284.608; -114.700; -559.000; -598.000
284.748; -140.400; -614.000; -570.000
284.887;   17.900;  -87.000;  -20.000
285.027; -234.300; -844.000; -892.000
285.166;  -66.000; -192.000; -249.000
285.306;   37.300; -116.000;  -33.000
285.445;  -61.600; -229.000; -343.000
285.584; -179.800; -630.000; -494.000
285.724;  -75.000; -282.000; -322.000
285.863; -224.100; -857.000; -507.000
286.002;  -67.800; -366.000; -276.000
286.142; -183.400; -715.000; -622.000
286.281; -105.900; -525.000; -493.000
286.420; -149.600; -554.000; -417.000
286.560;  223.800;  653.000;  623.000
286.699; -244.800; -958.000; -912.000
286.838; -162.100; -590.000; -591.000
286.978; -151.700; -533.000; -537.000
287.117; -274.800;-1085.000; -950.000
287.256;  -42.500; -228.000; -211.000
287.395;  -63.200; -197.000; -378.000
287.535;  -83.400; -370.000; -298.000
287.674; -141.600; -509.000; -484.000
287.813;  172.100;  661.000;  533.000
287.952; -259.300;-1010.000; -871.000
288.091; -297.400;-1049.000; -915.000
288.231;   68.700;   13.000;   15.000
288.370; -322.000;-1217.000;-1200.000
288.509; -152.600; -728.000; -645.000
288.648; -177.000; -770.000; -548.000
288.787;  -37.600; -243.000;  -87.000
288.926; -102.700; -454.000; -475.000
289.065;  260.100;  859.000;  672.000
289.204;  -90.200; -377.000; -217.000
289.344; -170.700; -791.000; -690.000
289.483;   64.200;  416.000;  304.000
289.622;  -33.300; -291.000; -149.000
289.761;    1.900; -309.000; -166.000
289.900; -219.000; -785.000; -626.000
290.039;  -20.900;  -12.000;  -95.000
290.178;  -89.100; -274.000; -180.000
290.317; -146.200; -618.000; -479.000
290.456; -139.000; -463.000; -451.000
290.595; -264.600; -961.000; -833.000
290.734; -282.000; -904.000; -891.000
290.873; -127.100; -456.000; -420.000
291.011; -217.200; -833.000; -843.000
291.150; -194.400; -770.000; -682.000
291.289;  -26.900; -343.000; -110.000
291.428; -169.500; -599.000; -480.000
291.567; -123.300; -370.000; -442.000
291.706;   11.700;  109.000;  154.000
291.845; -157.500; -597.000; -505.000
291.984; -335.300;-1234.000;-1061.000
292.122;  175.200;  602.000;  582.000
292.261;  139.200;  620.000;  463.000
292.400;   50.300; -144.000;  211.000
292.539; -237.100; -959.000; -813.000
292.678;  -43.600; -325.000; -300.000
292.816; -312.800;-1136.000; -965.000
292.955; -185.100; -844.000; -684.000
293.094;  -24.600; -173.000; -337.000
293.233;  -96.100; -556.000; -400.000
293.371;  -42.800; -225.000;  -84.000
293.510; -214.800; -866.000; -780.000
293.649; -265.900; -959.000; -924.000
293.787; -198.100;-1083.000;-1012.000
293.926;   -0.700; -113.000;  -32.000
294.065;  -43.700; -379.000; -290.000
294.203;  131.000;  298.000;  406.000
294.342;   66.100;   74.000;  156.000
294.481;12465.300;51180.000; -836.000
294.619;  -43.200; -425.000; -582.000
294.758; -291.000;-1230.000;-1137.000
294.896;  124.700; -125.000;    5.000
295.035; -242.800;-1040.000;-1006.000
295.174; -261.800;-1082.000; -954.000
295.312;  -49.300; -323.000; -203.000
295.451;  -30.700; -307.000; -428.000
295.589; -118.900; -389.000; -518.000
295.728;   47.100; -292.000; -165.000
295.866;   35.500;  -36.000;  -51.000
296.005; -115.100; -584.000; -341.000
296.143; -124.600; -558.000; -596.000
296.282; -180.200; -957.000; -881.000
296.420; -184.700; -657.000; -557.000
296.559; -177.300; -892.000; -633.000
296.697;  -10.800; -847.000; -665.000
296.835;   42.600;-1141.000;-1002.000
296.974;  101.100;  -23.000;   39.000
297.112;   -2.500; -443.000; -504.000
297.251; -135.300; -815.000; -755.000
297.389;  114.500; -576.000; -438.000
297.527;   72.600; -145.000;  -83.000
297.666; -116.100; -486.000; -438.000
297.804;  -66.700; -404.000; -264.000
297.942;   21.100; -136.000; -161.000
298.081;    7.400; -183.000;   63.000
298.219;  129.900;  -17.000;  -19.000
298.357;   75.200; -144.000;  -71.000
298.495;   11.000; -810.000; -812.000
298.634;  101.700;  245.000;  219.000
298.772;   77.500; -220.000; -338.000
298.910;  -61.200; -309.000; -182.000
299.048;   26.500; -130.000; -153.000
299.187;  -51.100; -350.000; -250.000
299.325;   53.000;   52.000;  122.000
299.463;   65.200; -389.000; -299.000
299.601;  153.800; -327.000; -271.000
299.739; -217.200; -908.000; -883.000
299.877; -168.600; -791.000; -703.000
300.016; -132.600;-1095.000; -935.000
300.154;  248.800;  -19.000; -161.000
300.292;   88.700; -428.000; -348.000
300.430;   40.500; -408.000; -291.000
300.568; -184.100; -940.000; -874.000
300.706; -107.700; -366.000; -469.000
300.844; -201.400;-1108.000; -979.000
300.982;  234.800;  246.000;  282.000
301.120; -219.300; -965.000; -866.000
301.258; -143.100; -812.000; -705.000
301.396;   77.100;  104.000;  -41.000
301.534;  124.500; -218.000; -293.000
301.672;  -29.600; -664.000; -521.000
301.810;  -19.000; -613.000; -545.000
301.948;  213.800;   53.000;  149.000
302.086;  887.700; -250.000;  -32.000
302.224; 1408.800; -610.000; -585.000
302.362;   19.500; -558.000; -622.000
302.500;  -98.700; -923.000; -893.000
302.638;  181.800;  128.000;  245.000
302.776;   20.800; -352.000; -408.000
302.913;  131.700;  447.000;  236.000
303.051;   27.200;  -86.000;  -23.000
303.189;  140.500;   90.000;  118.000
303.327;  -38.300; -341.000; -256.000
303.465; -149.600; -832.000; -588.000
303.603; -178.900; -805.000; -604.000
303.740;  209.300;  417.000;  241.000
303.878;   -1.900; -800.000; -759.000
304.016; -173.000; -915.000; -790.000
304.154; -251.800;-1123.000;-1152.000
304.291;  -66.600; -505.000; -554.000
304.429;   40.500;  102.000;   74.000
304.567; -254.300; -908.000; -893.000
304.705;  -71.700; -408.000; -515.000
304.842;  101.800; -616.000; -540.000
304.980;  112.100;  215.000;   35.000
305.118;   72.000; -367.000; -365.000
305.255; -156.400; -945.000; -927.000
305.393;  127.400;  178.000;  239.000
305.531; -203.400;-1173.000; -956.000
305.668; -134.700; -663.000; -582.000
305.806;  157.700; -358.000; -439.000
305.943;  126.500; -629.000; -637.000
306.081;  109.000; -378.000; -267.000
306.219; -219.400; -863.000; -748.000
306.356;   51.400;  158.000;   27.000
306.494;  253.700;  981.000;  761.000
306.631;   83.200;  -11.000;  -55.000
306.769;   -3.700; -613.000; -485.000
306.906;   -6.500; -284.000; -258.000
307.044;  -78.400; -473.000; -488.000
307.181;  -70.900; -410.000; -332.000
307.319;   73.400;  112.000;   87.000
307.456; -345.500;-1191.000;-1153.000
307.594; -173.200; -980.000; -727.000
307.731;   19.300; -371.000; -164.000
307.868;   59.400;  -15.000;   20.000
308.006; -229.600; -961.000; -847.000
308.143; -100.200; -618.000; -330.000
308.281;  367.600;  -37.000; -254.000
308.418;   22.400; -748.000; -640.000
308.555; -114.400; -400.000; -250.000
308.693; -113.600; -577.000; -573.000
308.830; -158.900; -712.000; -657.000
308.967;   -1.000; -215.000;  -95.000
309.105;  -42.900; -507.000; -396.000
309.242;  116.600; -468.000; -367.000
309.379;  661.300; -577.000; -655.000
309.517; -115.400; -936.000; -948.000
309.654; -179.000; -910.000; -734.000
309.791;  -87.800; -662.000; -580.000
309.928; -209.200; -977.000; -914.000
310.065;  339.300;  819.000;  697.000
310.203;  -44.400; -825.000; -850.000
310.340;   -4.600; -465.000; -321.000
310.477; -130.100; -412.000; -516.000
310.614;  -76.000; -383.000; -473.000
310.751; -108.100; -427.000; -518.000
310.889;   -6.800;    1.000;   11.000
311.026; -288.400;-1161.000; -939.000
311.163;  -58.600; -386.000; -380.000
311.300; -101.800; -512.000; -479.000
311.437;  -99.300; -658.000; -619.000
311.574; -276.000;-1226.000; -985.000
311.711; -114.900; -595.000; -433.000
311.848;  -32.100; -380.000; -388.000
311.985;   57.500;  270.000;   93.000
312.122; -237.300; -932.000; -762.000
312.259; -224.400; -941.000; -994.000
312.396; -136.500; -508.000; -551.000
312.533; -135.400; -812.000; -790.000
312.670; -250.000;-1070.000; -898.000
312.807;  -32.000; -352.000; -367.000
312.944;  -94.400; -513.000; -611.000
313.081;  -12.600; -150.000; -415.000
313.218; -181.600;-1111.000; -867.000
313.355;   35.700; -531.000; -449.000
313.492;   12.400; -455.000; -292.000
313.629;  320.500;  815.000;  735.000
313.766; -284.100;-1176.000;-1008.000
313.902;   18.000; -186.000;   21.000
314.039;  -71.200; -372.000; -289.000
314.176;  102.000;  286.000;  192.000
314.313; -126.400; -569.000; -473.000
314.450; -116.200; -788.000; -684.000
314.587; -112.400; -468.000; -480.000
314.723;   17.000;  -78.000;  130.000
314.860;  134.800;  318.000;  332.000
314.997;   95.800;  223.000;  142.000
315.134;  -29.000; -385.000; -368.000
315.270;  -21.600; -480.000; -496.000
315.407; -269.600;-1094.000; -967.000
315.544;  -70.800; -657.000; -538.000
315.681;  -96.600; -681.000; -565.000
315.817;   53.200; -133.000; -176.000
315.954;   32.000; -613.000; -392.000
316.091; -227.300;-1045.000;-1023.000
316.227;   -4.600;  -71.000; -179.000
316.364;   40.800;   23.000;    6.000
316.500;  -58.400; -113.000; -300.000
316.637;  -58.000; -181.000; -302.000
316.774; -157.200; -625.000; -358.000
316.910; -151.900; -598.000; -629.000
317.047; -139.100; -487.000; -351.000
317.183; -108.600; -435.000; -566.000
317.320;   24.800; -367.000; -321.000
317.456; -108.900; -733.000; -805.000
317.593; -132.000; -598.000; -641.000
317.729;   39.100;  168.000;  -67.000
317.866; -363.600;-1434.000;-1285.000
318.002; -150.500; -708.000; -948.000
318.139; -170.000; -883.000; -867.000
318.275; -191.900;-1003.000; -738.000
318.412; -125.600; -517.000; -336.000
318.548;  -79.300; -751.000; -720.000
318.685; -199.200; -985.000; -888.000
318.821; -160.300; -762.000; -735.000
318.957;   -6.800;   34.000;  -23.000
319.094;  115.800;  297.000;  154.000
319.230; -106.600; -756.000; -742.000
319.367;  167.900; -471.000; -520.000
319.503;  105.700; -538.000; -436.000
319.639; -177.900; -877.000; -793.000
319.775; -139.400; -750.000; -685.000
319.912;  -76.800; -424.000; -519.000
320.048; -217.700;-1184.000;-1184.000
320.184;  182.900;   59.000;   70.000
320.321;  -99.900; -497.000; -467.000
320.457;  184.900;  475.000;  662.000
320.593; -109.600; -375.000; -382.000
320.729; -198.000; -732.000; -734.000
320.866; -115.100; -577.000; -635.000
321.002; -165.800; -759.000; -809.000
321.138;   -0.700; -135.000; -211.000
321.274;  148.800; -148.000; -115.000
321.410;  -42.700; -585.000; -353.000
321.546; -103.200;-1011.000; -911.000
321.683;  156.700;  400.000;  185.000
321.819;   46.000;  -48.000; -117.000
321.955; -173.300; -743.000; -722.000
322.091; -102.300; -585.000; -540.000
322.227;    1.500; -382.000; -202.000
322.363;  -28.200; -320.000; -215.000
322.499;  -57.100; -343.000; -331.000
322.635;  341.200;  636.000;  443.000
322.771;   70.300; -139.000;   12.000
322.907;  195.600;  129.000;  327.000
323.043;  -45.800; -115.000; -206.000
323.179;  -79.200; -394.000; -363.000
323.315;    3.900; -401.000; -371.000
323.451;  147.300; -328.000; -236.000
323.587;  154.300;  -60.000;  -77.000
323.723;    3.200; -682.000; -601.000
323.859;    5.600; -258.000;  -76.000
323.995;  -37.900; -467.000; -409.000
324.131; -217.500; -967.000; -892.000
324.267;  -39.600; -254.000; -276.000
324.402; -238.700; -960.000; -983.000
324.538;    3.200; -279.000; -104.000
324.674;   54.900;  164.000;   77.000
324.810;  221.800;  226.000;  308.000
324.946;   22.700; -810.000; -658.000
325.082; -125.900; -568.000; -475.000
325.217;   -3.100;  -62.000;   16.000
325.353; -172.400; -764.000; -659.000
325.489; -129.600; -540.000; -506.000
325.625; -137.600; -579.000; -525.000
325.760;  164.300;  517.000;  376.000
325.896;  -36.600; -515.000; -702.000
326.032;  -55.000; -403.000; -352.000
326.168;  -92.800; -462.000; -369.000
326.303; -102.500; -352.000; -461.000
326.439;    0.800; -336.000; -276.000
326.575;    5.100; -190.000;  -29.000
326.710;  -14.200; -156.000;  -30.000
326.846;   25.900;  146.000;  103.000
326.982; -155.300; -530.000; -548.000
327.117; -120.500; -481.000; -442.000
327.253; -136.700; -745.000; -742.000
327.388; -317.000;-1137.000;-1153.000
327.524; -124.400; -811.000; -578.000
327.659;  -24.100;  -58.000;  -22.000
327.795;   41.200;   69.000;   45.000
327.931; -135.700; -723.000; -499.000
328.066;  -22.700; -417.000; -276.000
328.202;    7.700;   12.000; -129.000
328.337;  256.000;  957.000;  713.000
328.473;    9.300;  -12.000;  -74.000
328.608;   -5.400; -256.000; -267.000
328.743; -169.700; -799.000; -664.000
328.879;   70.300;  214.000;  114.000
329.014; -100.600; -102.000; -122.000
329.150; -132.200; -358.000; -483.000
329.285; -140.500; -465.000; -466.000
329.421;  -78.700; -548.000; -246.000
329.556;   26.500;  -36.000;   85.000
329.691; -166.000; -633.000; -615.000
329.827; -152.700; -626.000; -480.000
329.962;  -65.300;  131.000; -301.000
330.097; -138.900; -673.000; -585.000
330.233;  -51.300; -410.000; -223.000
330.368; -232.900; -839.000; -628.000
330.503;    6.000;    3.000;   98.000
330.638;   63.600;  -93.000; -125.000
330.774; -118.300; -609.000; -530.000
330.909;  -63.100; -434.000; -244.000
331.044; -142.500; -714.000; -708.000
331.179; -336.700;-1217.000;-1109.000
331.315;   53.600;   77.000;   20.000
331.450;   69.800;  157.000;  285.000
331.585; -159.800; -805.000; -706.000
331.720; -121.700; -510.000; -460.000
331.855;   19.900;  -35.000; -102.000
331.990;  577.000;   62.000;  138.000
332.126;  325.800; -110.000;   71.000
332.261;   20.000; -379.000; -265.000
332.396;    0.400; -135.000; -242.000
332.531; -166.300;-1074.000;-1031.000
332.666;  125.200; -519.000; -363.000
332.801; -202.400; -726.000; -807.000
332.936;  -11.300; -192.000; -122.000
333.071; -294.700; -870.000; -817.000
333.206;   79.900;  307.000;  379.000
333.341;   98.400;  344.000;  418.000
333.476; -190.600; -627.000; -623.000
333.611;  -52.700; -251.000; -173.000
333.746;  -60.900; -381.000; -464.000
333.881; -210.300; -973.000; -935.000
334.016; -219.200; -936.000; -917.000
334.151; -221.400; -746.000; -702.000
334.286;   83.000;  152.000;  186.000
334.421;  -13.500; -125.000; -178.000
334.556; -141.600; -611.000; -567.000
334.690; -182.300; -631.000; -577.000
334.825;  122.000;  381.000;   83.000
334.960; -101.000; -285.000; -413.000
335.095;   40.200;  135.000;  -91.000
335.230; -188.300; -722.000; -738.000
335.365; -258.500;-1084.000; -990.000
335.499; -252.300;-1108.000;-1037.000
335.634;   84.500;    9.000;  534.000
335.769; -187.800; -755.000; -720.000
335.904;  -93.500; -603.000; -561.000
336.038;  -80.700; -735.000; -657.000
336.173; -253.600;-1206.000;-1194.000
336.308;   19.500; -116.000; -189.000
336.443;  -16.400; -544.000; -634.000
336.577; -146.000; -936.000; -787.000
336.712;  105.200;   -4.000;  -12.000
336.847; -110.700; -724.000; -607.000
336.981;   71.400; -272.000; -208.000
337.116;  515.900;  615.000;  501.000
337.250;  224.400; -434.000; -421.000
337.385;  570.100; -297.000; -208.000
337.520;  232.900; -632.000; -603.000
337.654;  -63.700; -215.000; -126.000
337.789; -217.800; -989.000; -933.000
337.923;  -26.400; -104.000; -205.000
338.058; -135.800; -673.000; -738.000
338.192;  -50.500; -611.000; -488.000
338.327;    7.800;  -18.000; -155.000
338.461; -114.700; -299.000; -469.000
338.596; -156.700; -780.000; -638.000
338.730; -158.500; -767.000; -803.000
338.865;  264.300;  -46.000; -140.000
338.999;  -72.400; -846.000; -702.000
339.134;  -12.500; -634.000; -536.000
339.268;   53.800; -741.000; -603.000
339.403;  761.400; -740.000; -775.000
339.537;  294.000; -894.000; -820.000
339.671; -199.800; -829.000; -813.000
339.806;  -79.700; -556.000; -512.000
339.940;   84.700; -261.000; -235.000
340.074; -162.300; -685.000; -510.000
340.209;  -50.200; -351.000; -230.000
340.343; -130.700; -517.000; -573.000
340.477;  342.500;  998.000; 1036.000
340.612;  -69.100;-1033.000; -900.000
340.746;  299.200; -199.000; -243.000
340.880; -131.300; -924.000; -785.000
341.014;    6.600;  -45.000; -154.000
341.149; -223.100; -756.000; -718.000
341.283; -201.900; -839.000; -754.000
341.417; -221.100;-1124.000; -938.000
341.551;  167.100; -768.000; -708.000
341.685;  -60.500; -633.000; -611.000
341.820;  -98.300; -562.000; -493.000
341.954;  -77.500; -218.000; -349.000
342.088; -296.900;-1102.000;-1019.000
342.222;  122.300;  565.000;  618.000
342.356; -100.100; -395.000; -335.000
342.490; -177.700; -880.000; -841.000
342.624;  -55.300; -339.000; -242.000
342.758;    1.700; -364.000; -312.000
342.892; -121.800; -710.000; -585.000
343.026;  -36.500;  -58.000; -116.000
343.160;  -98.800; -426.000; -376.000
343.294; -143.000; -474.000; -337.000
343.428;  -69.700; -488.000; -448.000
343.562;   23.300; -172.000;  -23.000
343.696;  -25.600; -385.000; -314.000
343.830;   -7.000; -362.000; -356.000
343.964;   15.000; -231.000; -168.000
344.098; 1328.900;  199.000;   70.000
344.232; 1187.900; -266.000; -127.000
344.366;  153.700; -567.000; -453.000
344.500;   68.500; -665.000; -744.000
344.634;   78.200; -324.000; -164.000
344.768;  -39.500; -531.000; -341.000
344.902;  114.800;  278.000;  256.000
345.035; -120.100; -556.000; -496.000
345.169; -226.400; -933.000; -656.000
345.303;  -38.300; -308.000; -482.000
345.437; -144.400; -826.000; -717.000
345.571; -115.500; -675.000; -594.000
345.704;  -63.000; -309.000; -532.000
345.838;   -2.800; -331.000; -284.000
345.972;  -73.400; -543.000; -495.000
346.106;  374.800; -179.000; -190.000
346.239;  870.400; -312.000; -243.000
346.373;   40.300; -343.000; -302.000
346.507; -261.500; -950.000; -962.000
346.640;  212.100;  -30.000;   13.000
346.774;  -89.700; -650.000; -797.000
346.908;  -24.800; -138.000;  -11.000
347.041; -163.300; -646.000; -593.000
347.175;   41.400;  259.000;   27.000
347.309; -136.700; -698.000; -628.000
347.442; -166.700; -883.000; -732.000
347.576;  534.500;  670.000;  668.000
347.709;  331.700; -123.000;  -52.000
347.843; -167.700; -933.000; -825.000
347.976;  109.000;  235.000;  294.000
348.110; -343.100;-1268.000;-1186.000
348.243; -191.000; -679.000; -772.000
348.377;   57.100;  -26.000;   60.000
348.510;  127.000;  403.000;  540.000
348.644;  -19.700;  -37.000; -159.000
348.777;   63.300;  180.000;  191.000
348.911;  -72.100; -142.000; -112.000
349.044;  313.900;  471.000;  448.000
349.178;  164.600;-1069.000;-1006.000
349.311;  237.800;  141.000;  255.000
349.444;   11.900; -927.000; -813.000
349.578;  -34.200; -347.000; -200.000
349.711; -214.600; -959.000; -862.000
349.845;  -13.800; -661.000; -591.000
349.978; -277.600;-1224.000;-1137.000
350.111; -138.600; -546.000; -612.000
350.244; -140.500; -596.000; -700.000
350.378;    5.900; -392.000; -393.000
350.511; -103.700; -393.000; -426.000
350.644; -172.900; -808.000; -806.000
350.778;   46.000;  168.000;  104.000
350.911;   64.400;  134.000;  140.000
351.044; -154.400; -685.000; -615.000
351.177;   -7.800; -321.000; -281.000
351.310;   18.500;    3.000; -131.000
351.444; -177.000; -888.000; -788.000
351.577;  195.900;  140.000;   90.000
351.710;  213.500;  593.000;  417.000
351.843;  -37.100; -165.000;  -77.000
351.976;   37.100;  149.000;  -79.000
352.109; -136.300; -621.000; -612.000
352.242;  -43.400; -464.000; -419.000
352.376; -118.800; -580.000; -636.000
352.509;  275.900; -437.000; -356.000
352.642;  -21.000; -654.000; -604.000
352.775;  109.000; -141.000;  -98.000
352.908; -202.200; -933.000; -904.000
353.041; -185.900; -814.000; -824.000
353.174;  -83.100; -551.000; -424.000
353.307; -180.600; -753.000; -764.000
353.440;  177.100;  541.000;  453.000
353.573; -216.500; -957.000;-1008.000
353.706;  -96.900; -384.000; -558.000
353.839;   -0.800; -264.000; -220.000
353.971; -145.300; -657.000; -512.000
354.104; -167.900; -896.000; -835.000
354.237;  -68.900; -627.000; -662.000
354.370; -149.500; -846.000; -879.000
354.503; -340.900;-1231.000;-1308.000
354.636;  -45.300; -529.000; -348.000
354.769; -220.300; -937.000; -860.000
354.902;   10.100; -230.000; -139.000
355.034;   -9.400; -164.000; -220.000
355.167;    7.800; -262.000; -162.000
355.300; -153.500;-1061.000; -880.000
355.433; 2116.500;  -71.000;  -14.000
355.565; 3223.200; -402.000; -384.000
355.698;  857.100; -356.000; -296.000
355.831;   13.500; -882.000; -801.000
355.964;  144.200; -285.000; -170.000
356.096; -139.900; -856.000; -843.000
356.229;    0.700; -523.000; -530.000
356.362;  756.200; -373.000; -266.000
356.494; 1280.700; -229.000; -162.000
356.627;  868.700;  269.000;  377.000
356.760; 1405.800;  120.000;   53.000
356.892; 2091.800; -286.000; -601.000
357.025; 1061.300;  403.000;  389.000
357.157;  933.900; -167.000; -179.000
357.290; 1536.700; -856.000; -713.000
357.423;  449.000; -667.000; -556.000
357.555;  171.700; -217.000; -228.000
357.688;  215.200; -483.000; -364.000
357.820;  642.900; -870.000; -877.000
357.953; 5514.900; -563.000; -589.000
358.085; 1161.800; -632.000; -612.000
358.218; 1572.000;-1131.000; -932.000
358.350;  359.400;  -58.000;  312.000
358.483; -279.000;-1300.000;-1187.000
358.615;  -58.500;-1182.000;-1078.000
358.747; -158.200;-1187.000;-1058.000
358.880;   23.900; -810.000; -744.000
359.012;   30.000; -376.000; -202.000
359.145;  -71.900; -480.000; -511.000
359.277;   39.200; -962.000; -913.000
359.409; 4676.100;  536.000;  231.000
359.542; 1133.000; -738.000; -688.000
359.674;  168.700;   46.000;   13.000
359.806;  -96.900; -565.000; -438.000
359.939;  -43.900; -617.000; -516.000
360.071;   22.900; -583.000; -579.000
360.203;  -30.800; -411.000; -364.000
360.335;  113.500;  164.000;  -16.000
360.468;  308.500; -249.000; -307.000
360.600; 3900.700; -547.000; -454.000
360.732; 5993.800; -546.000; -423.000
360.864;  783.400;-1216.000;-1044.000
360.996;  410.300; -516.000; -554.000
361.129;   63.500; -389.000; -598.000
361.261;   79.400;  110.000; -113.000
361.393;  -32.800; -252.000; -214.000
361.525;   68.600;   94.000;  244.000
361.657;  -93.800; -821.000; -703.000
361.789;   53.200; -139.000; -155.000
361.921;  294.300; -642.000; -593.000
362.053;  432.800;  524.000;  541.000
362.185;   97.900;  288.000;   72.000
362.318; -154.600; -709.000; -705.000
362.450;  239.100;  294.000;  444.000
362.582;   68.600; -913.000; -870.000
362.714;  -12.400; -353.000; -332.000
362.846; -148.400; -606.000; -490.000
362.978; -236.400; -941.000; -811.000
363.109;  101.600; -161.000; -260.000
363.241;  727.200; -739.000; -749.000
363.373;  910.300; -649.000; -564.000
363.505; 1484.700; -186.000;  -91.000
363.637;  312.800; -787.000; -601.000
363.769; -244.900;-1067.000;-1080.000
363.901;  -98.900; -596.000; -654.000
364.033; -218.500;-1103.000;-1062.000
364.165;   25.300; -283.000; -283.000
364.296;  208.700; -316.000; -177.000
364.428;  196.800;-1344.000;-1220.000
364.560; -117.400; -679.000; -661.000
364.692; -115.300; -738.000; -835.000
364.824;  370.300; -588.000; -456.000
364.955;  861.900; -402.000; -564.000
365.087; 2138.100;-1097.000; -852.000
365.219;   74.000; -686.000; -816.000
365.351; -129.900; -526.000; -572.000
365.482;  123.200;  300.000;  240.000
365.614;  -48.400; -402.000; -314.000
365.746; -177.600; -729.000; -752.000
365.877; -128.800; -706.000; -672.000
366.009;  607.700;  -35.000;  -62.000
366.141; -132.200;-1249.000;-1134.000
366.272; -184.200; -803.000; -719.000
366.404; -182.100;-1005.000; -874.000
366.535;   18.700; -139.000;  -12.000
366.667; -153.200; -644.000; -649.000
366.799;  132.900;  353.000;  203.000
366.930; -195.900; -862.000; -996.000
367.062;  289.300; -639.000; -613.000
367.193;  351.200; -872.000; -842.000
367.325;  -98.600; -580.000; -684.000
367.456;  100.700; -246.000;   31.000
367.588;  349.700; -371.000; -318.000
367.719;  107.100;  -44.000;  -45.000
367.851;  -26.600; -222.000; -241.000
367.982; -120.800; -875.000; -732.000
368.113;  181.400; -475.000; -358.000
368.245; -235.600; -960.000; -841.000
368.376;  -10.600; -254.000; -302.000
368.508;  -33.000; -188.000; -263.000
368.639; -260.600;-1166.000;-1034.000
368.770;  -42.800; -670.000; -589.000
368.902; -102.000; -836.000; -926.000
369.033; -176.800; -906.000; -855.000
369.164;  -58.700; -720.000; -653.000
369.296; -171.600; -452.000; -601.000
369.427;   21.200; -209.000; -144.000
369.558;  -92.800; -593.000; -377.000
369.689; -112.700; -721.000; -569.000
369.821; -236.200; -951.000; -845.000
369.952;   -8.800;   42.000; -108.000
370.083;  -49.300; -229.000; -108.000
370.214; -133.400; -735.000; -650.000
370.345;   41.000;   65.000;   81.000
370.477; -150.200; -810.000; -790.000
370.608;  352.100; -328.000; -264.000
370.739; -136.000;-1233.000;-1292.000
370.870;  -97.500;-1102.000; -923.000
371.001;  110.000; -378.000; -467.000
371.132; -132.600; -754.000; -735.000
371.263;   12.100;  -42.000; -148.000
371.394; -214.000; -841.000; -748.000
371.525;  100.300;  345.000;  225.000
371.657; -167.000; -808.000; -670.000
371.788;  149.500;  103.000;  199.000
371.919;  235.400; -384.000; -304.000
372.050; 5518.600;  -91.000; -156.000
372.181; 1575.200; -188.000; -294.000
372.311;  554.500;   42.000; -127.000
372.442;   34.500; -457.000; -451.000
372.573;   -4.800; -444.000; -340.000
372.704; -217.200;-1008.000; -980.000
372.835;  143.900; -228.000; -289.000
372.966; -113.600; -646.000; -554.000
373.097; -124.500; -575.000; -711.000
373.228;  -60.800; -717.000; -542.000
373.359;  163.400; -824.000; -536.000
373.490; 1336.700; -881.000; -727.000
373.620; 1670.300;-1001.000; -803.000
373.751; 2580.900; -332.000; -396.000
373.882; 1077.000; -663.000; -733.000
374.013;  108.400; -449.000; -262.000
374.143;  -88.300; -581.000; -659.000
374.274; -217.800; -987.000; -908.000
374.405;  279.400; -388.000; -276.000
374.536;  680.500; -526.000; -387.000
374.666; 1481.600; -759.000; -807.000
374.797;  269.500; -817.000; -868.000
374.928; 1184.100; -710.000; -560.000
375.058; 1199.100; -535.000; -500.000
375.189;  120.200;  -59.000;  -93.000
375.320; -199.100; -928.000;-1034.000
375.450;  -88.900; -625.000; -616.000
375.581;  -53.100; -526.000; -436.000
375.712;  -45.900; -574.000; -250.000
375.842;  452.400; -438.000; -415.000
375.973;  301.200; -554.000; -513.000
376.103;  -96.100; -665.000; -648.000
376.234; -124.300; -531.000; -552.000
376.364;  -91.000; -944.000; -867.000
376.495;  559.200;  925.000;  529.000
376.625;  -25.100; -472.000; -485.000
376.756;   77.000; -709.000; -678.000
376.886; -166.500;-1178.000;-1026.000
377.017;  205.100;-1048.000;-1061.000
377.147;  791.800; -786.000; -782.000
377.278;  136.900;  174.000;  228.000
377.408; -206.400; -801.000; -815.000
377.538; -152.700; -707.000; -693.000
377.669; -128.500; -537.000; -613.000
377.799; -142.900; -645.000; -635.000
377.929;  -97.500; -610.000; -428.000
378.060; -202.000; -781.000; -847.000
378.190;  -28.600; -726.000; -531.000
378.320;  -49.700; -401.000; -406.000
378.451;   10.100; -131.000;  -22.000
378.581;    2.100;  -67.000; -110.000
378.711;  357.700; 1035.000;  866.000
378.841;  -30.800; -533.000; -675.000
378.972; -153.000; -871.000; -751.000
379.102;  -33.800; -652.000; -579.000
379.232;   14.200; -126.000;  -73.000
379.362; -195.000;-1001.000; -885.000
379.492;   11.800; -373.000; -424.000
379.623;  174.500;    0.000;  111.000
379.753; -198.500;-1107.000; -974.000
379.883;  367.100;   59.000;  156.000
380.013;  -52.000;-1081.000;-1017.000
380.143; -199.500;-1097.000;-1056.000
380.273; -183.700; -985.000; -861.000
380.403;    9.000; -344.000; -257.000
380.533;  -40.800; -651.000; -664.000
380.663;  155.000;  173.000;  128.000
380.793; -217.200;-1027.000;-1074.000
380.923;    3.000; -103.000;  -34.000
381.053; -136.300; -613.000; -623.000
381.183;  -26.900; -106.000; -248.000
381.313;   37.500; -656.000; -470.000
381.443;   46.800; -692.000; -473.000
381.573;  288.800; -402.000; -409.000
381.703;  317.800;-1249.000;-1095.000
381.833; -251.700;-1454.000;-1336.000
381.963;  232.400; -134.000;  -87.000
382.093; 2125.600; -925.000; -909.000
382.223;  556.900; -713.000; -602.000
382.353;  -72.200; -801.000; -608.000
382.482;  463.600;-1091.000; -964.000
382.612; 1115.300; -872.000; -644.000
382.742;  610.000; -695.000; -622.000
382.872;  373.100; -565.000; -551.000
383.002;  145.900;  347.000; -132.000
383.131;  -10.200; -226.000; -160.000
383.261;  -23.700; -706.000; -768.000
383.391;  627.900; -552.000; -377.000
383.521; 7093.000;  451.000;  263.000
383.650; 1676.400; -947.000; -904.000
383.780;  -10.100; -783.000; -656.000
383.910;  280.100;  880.000;  802.000
384.039;   -5.800; -794.000; -656.000
384.169;  183.100;-1205.000;-1017.000
384.299;  -53.400; -650.000; -662.000
384.428; -150.100; -764.000; -680.000
384.558;  -32.600; -308.000; -275.000
384.687;  -22.300; -414.000; -334.000
384.817;   54.900;   75.000;   -2.000
384.947;   75.800; -234.000; -141.000
385.076;  526.100;  982.000;  912.000
385.206;  261.200;  369.000;  480.000
385.335;  -51.700; -549.000; -417.000
385.465; -104.800; -655.000; -663.000
385.594;  245.300;  -53.000;  -44.000
385.724;  513.100; -868.000; -838.000
385.853;  151.300; -296.000; -270.000
385.982; 2026.000; -743.000; -787.000
386.112; 2962.900;-1052.000; -871.000
386.241;  202.200; -307.000; -312.000
386.371;   81.500; -174.000;  -87.000
386.500;  -16.500; -825.000; -789.000
386.629;   67.100; -874.000; -817.000
386.759;  165.900;  -43.000;   68.000
386.888;   37.900; -170.000; -250.000
387.017;  -94.800; -648.000; -620.000
387.147; -140.200; -771.000; -798.000
387.276;   29.500; -410.000; -397.000
387.405;   30.400; -398.000; -342.000
387.535;  -79.500; -452.000; -361.000
387.664;  -71.500; -692.000; -620.000
387.793;  117.000; -198.000; -113.000
387.922;  806.300;  255.000;  200.000
388.052;   23.300; -576.000; -423.000
388.181;   14.600; -342.000; -472.000
388.310;  -58.500; -889.000; -710.000
388.439; -111.200; -749.000; -742.000
388.568;  342.800;  365.000;  244.000
388.697; 1514.200; -756.000; -653.000
388.826;  283.100; -768.000; -666.000
388.956;   80.500; -285.000; -307.000
389.085;   -9.900; -347.000; -287.000
389.214; -169.400; -842.000; -872.000
389.343;  -99.800; -645.000; -413.000
389.472;  922.200;  126.000;  149.000
389.601; 1046.200;   91.000;    0.000
389.730;   40.300; -568.000; -687.000
389.859;  150.900;  226.000;   46.000
389.988;  281.600; -423.000; -408.000
390.117;  237.200; -168.000; -146.000
390.246;   -3.700; -331.000; -320.000
390.375;  121.900; -673.000; -626.000
390.504;  -96.700; -703.000; -621.000
390.633; -180.000; -672.000; -726.000
390.761; -132.900; -732.000; -645.000
390.890;   60.000;   -4.000; -130.000
391.019;  -46.300; -421.000; -441.000
391.148; -238.400; -826.000; -855.000
391.277; -116.400; -576.000; -493.000
391.406; -170.800; -821.000; -805.000
391.534;   88.200;  574.000; -301.000
391.663;  -53.300; -583.000; -645.000
391.792; -140.800; -673.000; -701.000
391.921;  207.100;   -3.000;   15.000
392.050;  273.200; -287.000; -228.000
392.178; -134.100;-1206.000;-1061.000
392.307;  160.400; -758.000; -712.000
392.436;   89.200; -427.000; -641.000
392.564;   70.200;  166.000;   -6.000
392.693; -166.700; -860.000; -682.000
392.822;  324.500; -529.000; -534.000
392.950;  111.100; -880.000; -714.000
393.079;  477.700; -188.000; -328.000
393.208;   82.300; -488.000; -511.000
393.336;    5.400; -170.000; -145.000
393.465;  -20.300; -317.000; -199.000
393.593;   76.500;   62.000;   79.000
393.722; -245.500;-1121.000; -916.000
393.850;  -10.600; -188.000;  -61.000
393.979; -252.700; -926.000; -805.000
394.107;  -76.500; -517.000; -537.000
394.236;  -34.100; -570.000; -507.000
394.364;  503.900;  383.000;  206.000
394.493;  693.300; -911.000; -767.000
394.621;   14.700; -955.000; -916.000
394.750; 1654.700; -873.000; -923.000
394.878; 6780.200; -247.000; -149.000
395.007; 8655.300; -721.000; -807.000
395.135;  650.800; -790.000; -721.000
395.263; -141.600;-1038.000;-1040.000
395.392;   76.200;  -25.000; -107.000
395.520; -231.700; -818.000; -679.000
395.648; -174.400; -865.000; -915.000
395.777;  -20.300; -366.000; -405.000
395.905;  -62.500; -449.000; -564.000
396.033;   97.600;  217.000;  172.000
396.162; 1177.400; -399.000; -453.000
396.290; 1035.800;  -17.000;   -2.000
396.418;  147.900; -555.000; -514.000
396.546; -130.500; -571.000; -466.000
396.674; -168.400; -850.000; -878.000
396.803;   58.600;  -72.000;  -23.000
396.931;  138.700; -179.000; -199.000
397.059;  -18.300;-1026.000; -989.000
397.187; -227.500;-1026.000; -975.000
397.315; -223.000; -884.000; -649.000
397.443; -174.700; -592.000; -443.000
397.572; -142.200; -578.000; -424.000
397.700;   -4.200; -607.000; -614.000
397.828;   63.200;  120.000;  -90.000
397.956;  -31.000; -508.000; -478.000
398.084;  -82.600; -767.000; -626.000
398.212;   91.600;  137.000;  124.000
398.340;   94.100;  -56.000;  159.000
398.468;   52.700; -390.000; -169.000
398.596; -231.300; -993.000; -953.000
398.724; -204.300; -762.000; -767.000
398.852; -271.400;-1024.000; -976.000
398.980; -108.600; -560.000; -560.000
399.108; -126.300; -982.000; -735.000
399.236;  129.000;   13.000;    8.000
399.363;   70.500;  222.000;  196.000
399.491; -103.500; -404.000; -398.000
399.619; -192.100; -829.000; -800.000
399.747; -202.300; -859.000; -771.000
399.875;  198.700;  220.000;  234.000
400.003;  -67.600; -359.000; -284.000
400.130;  -87.700; -421.000; -341.000
400.258;   13.700;  -83.000;   38.000
400.386;  -96.500; -352.000; -168.000
400.514;  -35.100; -526.000; -587.000
400.641; -168.100; -928.000; -802.000
400.769; -250.100; -979.000; -888.000
400.897; -198.000; -838.000; -793.000
401.025;   -7.900; -166.000; -152.000
401.152;   28.300;  220.000;   38.000
401.280; -121.000; -430.000; -429.000
401.408; -170.900; -712.000; -576.000
401.535; -149.900; -735.000; -758.000
401.663; -367.300;-1134.000;-1054.000
401.790;  -96.200; -514.000; -525.000
401.918;  120.800;  436.000;  405.000
402.046;   21.700;  134.000;  122.000
402.173;   10.100;  -18.000;    7.000
402.301;  -77.500; -519.000; -397.000
402.428;  152.100;  528.000;  383.000
402.556; -262.500;-1188.000; -913.000
402.683;  -28.000;  -20.000;   -1.000
402.811;   16.400;  -37.000; -206.000
402.938;   55.600;   20.000;   27.000
403.066;  288.500; -574.000; -558.000
403.193;  518.300;  299.000;  239.000
403.321;  399.100; -396.000; -574.000
403.448;  516.600;   83.000;   27.000
403.575;  238.300;  -90.000;  -46.000
403.703; -144.700; -732.000; -557.000
403.830;  -67.500; -531.000; -496.000
403.957; -247.800;-1117.000;-1023.000
404.085;   88.300;  -61.000; -172.000
404.212;  251.000;  -50.000;   63.000
404.339;  706.900; -566.000; -306.000
404.467;13139.700; -612.000; -524.000
404.594; 7495.800; -287.000; -227.000
404.721; 1608.700; -869.000; -764.000
404.848;  241.700; -113.000; -202.000
404.976; -133.100; -856.000; -783.000
405.103;   54.600;  -14.000;  -82.000
405.230;   62.800;  190.000;  226.000
405.357;  120.700;  117.000;   44.000
405.484;  704.900;  -49.000;    5.000
405.612;  110.000; -548.000; -563.000
405.739;  -65.500; -488.000; -243.000
405.866;  219.400;  669.000;  385.000
405.993;  -71.700; -398.000; -102.000
406.120; -230.800; -801.000; -887.000
406.247;  -91.100; -323.000; -342.000
406.374;  762.900;  540.000;  629.000
406.501;   90.600; -632.000; -702.000
406.628; -129.000; -621.000; -589.000
406.755; -146.900; -803.000; -620.000
406.882;  -30.700; -228.000; -277.000
407.009; -126.700; -719.000; -628.000
407.136;  103.200; -480.000; -401.000
407.263;  125.400; -939.000; -829.000
407.390; -142.900; -692.000; -614.000
407.517; -297.600;-1139.000;-1187.000
407.644;  -59.700; -332.000; -256.000
407.771;  -67.500; -249.000; -287.000
407.898;   37.400;  168.000;  328.000
408.025;  -85.100; -421.000; -313.000
408.151;   38.300;   82.000;  153.000
408.278;  -65.100; -267.000; -216.000
408.405; -218.900; -931.000; -899.000
408.532;  -73.800; -549.000; -542.000
408.659; -207.200; -677.000; -648.000
408.785; -357.900;-1298.000;-1170.000
408.912;  -52.000; -412.000; -296.000
409.039; -163.100; -610.000; -686.000
409.166; -164.700; -591.000; -555.000
409.292; -154.400; -571.000; -534.000
409.419; -195.000; -665.000; -649.000
409.546;  -99.600; -431.000; -192.000
409.672; -168.400; -713.000; -545.000
409.799;   -8.700;  -36.000;   34.000
409.926;  -34.000; -180.000; -179.000
410.052; -318.300;-1127.000;-1091.000
410.179;  -67.300; -368.000; -392.000
410.305; -108.200; -375.000; -493.000
410.432;  -53.000; -220.000; -333.000
410.558; -111.200; -305.000; -380.000
410.685; -180.300; -688.000; -431.000
410.812; -134.400; -409.000; -588.000
410.938; -227.300; -964.000; -808.000
411.065; -155.500; -671.000; -645.000
411.191;   15.300; -189.000; -174.000
411.317; -201.500; -823.000; -742.000
411.444; -102.000; -317.000; -246.000
411.570;  -68.600; -339.000; -294.000
411.697; -211.100; -758.000; -752.000
411.823; -297.700; -989.000; -999.000
411.949;  -18.300;  -56.000;   17.000
412.076; -163.400; -539.000; -519.000
412.202; -202.600; -758.000; -757.000
412.329; -193.500; -798.000; -752.000
412.455; -190.300; -821.000; -657.000
412.581;   30.900;  -15.000;  172.000
412.707; -101.500; -540.000; -457.000
412.834;   87.500;  156.000;  219.000
412.960; -150.300; -785.000; -784.000
413.086; -139.800; -743.000; -701.000
413.212;  290.600;  604.000;  578.000
413.339; -131.900; -685.000; -701.000
413.465;    7.600; -364.000; -310.000
413.591; -155.400; -757.000; -474.000
413.717;  -76.000; -358.000; -366.000
413.843; -218.000; -839.000; -861.000
413.969;  -50.600;  -47.000; -292.000
414.096; -158.600; -679.000; -679.000
414.222;   40.200;  -33.000;   85.000
414.348;  -40.300; -652.000; -385.000
414.474;  176.700;   38.000;  -52.000
414.600;   54.300; -126.000; -144.000
414.726;   49.200;  -96.000;  -55.000
414.852;  -53.700; -365.000; -342.000
414.978;  133.400;  104.000;  -18.000
415.104;  108.200;   38.000;   80.000
415.230;   98.800; -329.000; -330.000
415.356;  140.100; -409.000; -514.000
415.482;  465.300;   13.000;  -35.000
415.608;  685.600; -247.000; -323.000
415.734; 2183.700;   67.000;   38.000
415.860;44809.700; -875.000; -767.000
415.986;29196.200; -685.000; -607.000
416.111; 2427.000; -798.000; -652.000
416.237;  587.900; -424.000; -571.000
416.363; 2808.000; -765.000; -733.000
416.489; 9179.000; -324.000; -251.000
416.615;  948.600; -707.000; -742.000
416.741;   37.700; -677.000; -784.000
416.866; -137.200; -673.000; -736.000
416.992; -190.100; -801.000; -818.000
417.118;   -0.100;  -41.000;  -80.000
417.244; -102.200; -798.000; -531.000
417.369; -129.100; -801.000; -612.000
417.495;   15.400; -325.000; -254.000
417.621; -142.400;-1015.000; -803.000
417.746;   68.800; -579.000; -572.000
417.872;  147.600; -254.000; -144.000
417.998;  195.200; -515.000; -530.000
418.123; 2672.900;-1073.000; -845.000
418.249;11847.000; -512.000; -601.000
418.374; 1522.200; -916.000; -824.000
418.500;  291.500; -383.000; -482.000
418.626;  298.600;   70.000;  -59.000
418.751;  282.300; -549.000; -448.000
418.877;  481.700; -637.000; -643.000
419.002; 4372.300; -688.000; -560.000
419.128;28013.000; -930.000; -721.000
419.253; 6174.500; -967.000; -837.000
419.379;  955.500; -391.000; -338.000
419.504;  885.400;  325.000;  415.000
419.629; 1185.400; -393.000; -212.000
419.755; 8938.400; -317.000; -254.000
419.880;46758.400;  -98.000;   67.000
420.006;25684.500; -280.000; -221.000
420.131;60841.200; -662.000; -775.000
420.256; 7911.200; -315.000; -316.000
420.382; 1143.000; -665.000; -687.000
420.507;  185.200; -649.000; -778.000
420.632;  242.600; -337.000; -339.000
420.758;  338.900; -251.000; -425.000
420.883; -119.300; -876.000; -672.000
421.008; -144.300; -775.000; -619.000
421.133;  -99.400; -509.000; -467.000
421.259;  -45.900; -325.000; -259.000
421.384; -193.800; -834.000; -693.000
421.509;  -98.600;-1052.000; -862.000
421.634; 1510.600; -936.000; -820.000
421.759;  576.400; -359.000; -327.000
421.885;  -69.500; -717.000; -656.000
422.010; -111.500; -673.000; -542.000
422.135; -234.400; -695.000; -727.000
422.260;  146.500;  340.000;  280.000
422.385;   29.300;   12.000;  -98.000
422.510;   61.000;  151.000;  -26.000
422.635;   99.800;  -87.000;  -43.000
422.760;  186.200; -766.000; -791.000
422.885;  136.200;  -57.000;  -80.000
423.010;  -14.500; -112.000; -169.000
423.135; -142.100; -481.000; -561.000
423.260;   26.500; -150.000; -245.000
423.385;  157.000;  476.000;  222.000
423.510;  131.000;   71.000;  -22.000
423.635;  181.900;  133.000;   45.000
423.760;  157.800;  383.000;  328.000
423.885;  176.900;  336.000;  391.000
424.010;   63.900;  -68.000;  -13.000
424.135;    7.700;    5.000;  -33.000
424.259; -122.100; -654.000; -457.000
424.384;  -59.500; -279.000; -272.000
424.509;   18.500; -260.000; -186.000
424.634; -130.300; -761.000; -623.000
424.759;    1.000; -688.000; -544.000
424.883;   23.000; -506.000; -527.000
425.008;  411.900; -502.000; -410.000
425.133; 4532.800; -679.000; -653.000
425.258; 1878.300; -517.000; -381.000
425.382; 1730.500; -867.000; -774.000
425.507; 3826.600; -487.000; -543.000
425.632;  746.400; -802.000; -663.000
425.756; 1070.000; -256.000; -146.000
425.881;16493.100; -831.000; -857.000
426.006;39382.200; -604.000; -355.000
426.130; 5399.700; -696.000; -508.000
426.255;  743.400; -611.000; -491.000
426.379;  429.600; -189.000; -577.000
426.504;  900.500;  660.000;  544.000
426.629; 9263.500; -519.000; -466.000
426.753; 5578.100;   64.000;  -46.000
426.878;  695.100; -252.000; -288.000
427.002;  456.500; -651.000; -668.000
427.127; 3876.800;  -35.000; -158.000
427.251;25391.100;  372.000;  401.000
427.375; 6219.200; -191.000; -173.000
427.500; 3558.600; -616.000; -610.000
427.624; 1032.900; -234.000; -400.000
427.749;  162.300; -216.000; -225.000
427.873;  -13.600; -499.000; -412.000
427.997;  -49.000; -222.000; -230.000
428.122;  243.800;  795.000;  703.000
428.246;  173.500;  433.000;  434.000
428.371; -233.900; -869.000; -773.000
428.495; -159.200; -624.000; -646.000
428.619;    7.300; -186.000; -117.000
428.743;  120.300;   65.000;  132.000
428.868;   14.700; -732.000; -643.000
428.992; 2136.000; -219.000; -326.000
429.116;  764.400; -329.000; -357.000
429.240;  455.300;  419.000;  426.000
429.365;   16.100; -454.000; -574.000
429.489;  -47.800; -638.000; -647.000
429.613;  126.600; -236.000; -177.000
429.737;  146.500; -563.000; -432.000
429.861;  652.100; -247.000; -133.000
429.985;13083.100; -425.000; -305.000
430.109;12644.100; -770.000; -908.000
430.234; 1429.500;   76.000;  -50.000
430.358;  184.800; -250.000; -160.000
430.482;  -77.400; -672.000; -564.000
430.606;  -40.800; -655.000; -375.000
430.730;   48.000; -437.000; -388.000
430.854;  154.300; -909.000; -835.000
430.978; -106.600; -795.000; -764.000
431.102; -101.700; -499.000; -422.000
431.226; -169.500; -874.000; -815.000
431.350;  148.600;  345.000;  422.000
431.474; -107.100; -661.000; -373.000
431.597; -235.900;-1060.000; -848.000
431.721;  -96.000; -276.000; -267.000
431.845; -200.300; -704.000; -472.000
431.969; -115.100; -304.000; -349.000
432.093; -135.500; -395.000; -317.000
432.217;   22.100;   32.000;   82.000
432.341; -124.900; -523.000; -518.000
432.464;   66.100;   96.000;   40.000
432.588;  312.900; -401.000; -329.000
432.712;  208.800;  -52.000;  -52.000
432.836;  186.200;  213.000;  263.000
432.959;   68.100; -372.000; -311.000
433.083;  282.100;   11.000;    2.000
433.207;  905.200;  285.000;  930.000
433.330;12193.700; -391.000; -200.000
433.454;13423.500; -654.000; -638.000
433.578; 7857.900;  583.000;  278.000
433.701; 1313.300; -623.000; -675.000
433.825;  277.300; -292.000; -299.000
433.949;  294.100;   28.000;  -72.000
434.072;   88.200; -410.000; -323.000
434.196;   25.700; -309.000; -117.000
434.319; 8083.800;25482.000;25124.000
434.443; 1671.500; -656.000; -603.000
434.566; 5871.000;  281.000;   62.000
434.690;  870.100; -637.000; -383.000
434.813;  180.900; -251.000; -173.000
434.937;  -73.500; -569.000; -696.000
435.060;  -66.800; -423.000; -332.000
435.184;  410.700; -492.000; -217.000
435.307;  215.600;  159.000;  102.000
435.431;   27.800;  -40.000;   24.000
435.554; -104.900; -399.000; -240.000
435.677;  -97.300; -350.000; -258.000
435.801;  -29.700;  -25.000;   49.000
435.924;   -4.300;    1.000;  -67.000
436.048; -197.000;-1019.000; -732.000
436.171;  -75.500; -240.000;  -66.000
436.294;   36.700; -248.000; -229.000
436.417;  311.500; -963.000; -849.000
436.541; -131.400; -814.000; -840.000
436.664;  -33.700; -242.000; -316.000
436.787;   35.500;   13.000;  113.000
436.910; -171.500; -792.000; -422.000
437.034;   84.300;  142.000;  143.000
437.157;  127.200;  -11.000;    0.000
437.280; -120.900; -392.000; -292.000
437.403; -177.400; -982.000; -869.000
437.526;  802.200; -903.000; -865.000
437.649; 2815.200; -505.000; -332.000
437.772;  321.900; -692.000; -540.000
437.896;  277.300;  700.000;  544.000
438.019; -146.100; -758.000; -503.000
438.142; -110.900; -596.000; -506.000
438.265;  -24.400; -639.000; -670.000
438.388;  807.600; -520.000; -410.000
438.511;   92.100; -597.000; -394.000
438.634;  -76.300; -247.000; -125.000
438.757; -218.700; -693.000; -619.000
438.880;   17.300;  -34.000;  -57.000
439.003; -114.000; -417.000; -437.000
439.126;  -72.200; -287.000; -167.000
439.248;  -90.700;  -98.000; -139.000
439.371;    9.700;    9.000;  -53.000
439.494;  131.600;  510.000;  439.000
439.617;  -44.400;   65.000;  -88.000
439.740; -307.000; -968.000; -816.000
439.863; -234.800; -755.000; -595.000
439.986; -213.800; -476.000; -431.000
440.108;   -1.600; -161.000; -112.000
440.231; -269.000; -950.000; -836.000
440.354;  -44.000;  -64.000; -150.000
440.477;   33.100; -566.000; -542.000
440.599;   27.200; -200.000; -225.000
440.722; -190.300; -709.000; -586.000
440.845;  185.900;  751.000;  928.000
440.968; -146.300; -415.000; -311.000
441.090;  -59.600; -199.000;  -33.000
441.213; -266.600;-1021.000; -825.000
441.336;  -63.000; -159.000;   -5.000
441.458; -106.100; -549.000; -396.000
441.581; -154.500; -628.000; -629.000
441.703;  -82.700; -152.000;   13.000
441.826; -189.400; -557.000; -400.000
441.948;   -8.000;   56.000;   51.000
442.071;  135.000;  555.000;  424.000
442.193; -170.800; -531.000; -485.000
442.316;  101.800;  152.000;   97.000
442.438;  165.500; -233.000;  -10.000
442.561;  188.900;  272.000;  262.000
442.683;  735.000; -809.000; -522.000
442.806; 1476.300;   -8.000;   74.000
442.928;  -32.600; -859.000; -604.000
443.051; -134.100; -577.000; -373.000
443.173; -145.500; -341.000; -339.000
443.295; -117.900; -263.000; -371.000
443.418;  -72.100; -321.000;  -29.000
443.540;   29.300; -106.000;   -4.000
443.662; -202.500; -563.000; -465.000
443.785;   34.800;  335.000;  199.000
443.907; -148.500; -362.000; -208.000
444.029; -184.400; -767.000; -494.000
444.152; -191.500; -644.000; -554.000
444.274;  -29.000;  -18.000;  -24.000
444.396; -163.300; -461.000; -221.000
444.518; -223.800; -691.000; -454.000
444.640; -105.900; -268.000; -111.000
444.763;   41.200;  388.000;  249.000
444.885; -186.000; -432.000; -392.000
445.007;   -1.700;   35.000;   86.000
445.129; -218.100; -610.000; -515.000
445.251; -155.800; -372.000; -439.000
445.373; -202.800; -537.000; -386.000
445.495;   80.100;  242.000;  350.000
445.617;  145.900;  853.000;  753.000
445.739;  -85.000; -215.000;  -97.000
445.861;  -16.400; -245.000; -112.000
445.984;  -32.600; -267.000; -101.000
446.105;  286.800; -418.000; -251.000
446.227;  838.500; -176.000;  -19.000
446.349;  -70.800; -358.000; -249.000
446.471; -157.400; -615.000; -448.000
446.593; -134.000; -316.000;   19.000
446.715;   38.800;  -67.000;   41.000
446.837;  194.900;  697.000;  832.000
446.959; -142.800; -457.000; -478.000
447.081; -214.700; -628.000; -518.000
447.203;  182.000;  862.000;  834.000
447.325; -162.700; -270.000;   42.000
447.446;   43.400;  286.000;  530.000
447.568; -267.000; -921.000; -803.000
447.690; -117.700; -236.000; -245.000
447.812; -213.700; -798.000; -519.000
447.933;   41.700;  155.000;  127.000
448.055;  -73.500; -306.000; -261.000
448.177;  288.900;   31.000;   79.000
448.299;   49.300; -935.000; -727.000
448.420;   51.900;  -25.000;  159.000
448.542;  -59.100;   -3.000;   33.000
448.664;   33.200;  109.000;  322.000
448.785;    3.600;  265.000;   83.000
448.907; -130.200; -614.000; -353.000
449.028;  -34.200; -771.000; -471.000
449.150;  184.700;  492.000;  589.000
449.272; -293.900;-1044.000; -913.000
449.393;  126.900;  612.000;  694.000
449.515; -208.900; -634.000; -581.000
449.636;  -55.300; -264.000; -155.000
449.758;  193.500;  763.000;  622.000
449.879; -136.800; -498.000; -396.000
450.001;  -88.500; -149.000;  -49.000
450.122;   17.200;  -95.000;  162.000
450.244;    9.200;   37.000;  364.000
450.365; -138.500; -495.000; -301.000
450.486;   20.500;   80.000;  268.000
450.608;  111.600;  393.000;  326.000
450.729;  263.800;  578.000;  645.000
450.850;  125.100; -574.000; -466.000
450.972; 1982.400; -552.000; -389.000
451.093;11649.700;  190.000;  588.000
451.214; 4422.200; -516.000; -337.000
451.336;  843.400;  773.000;  579.000
451.457;  225.500;  264.000;  393.000
451.578;   -0.600; -118.000;  -74.000
451.699; -179.400; -546.000; -540.000
451.821;  -41.000; -284.000;  -50.000
451.942;   65.100;  278.000;  285.000
452.063;  147.400;  228.000;  419.000
452.184; 1463.400;  -54.000;  -49.000
452.305; 2472.100;  103.000;  170.000
452.427;  303.200; -549.000; -301.000
452.548;   23.400;   23.000;   79.000
452.669;  -55.200; -257.000;  -89.000
452.790;  -34.800;    3.000;  -18.000
452.911;   60.200;  195.000;  259.000
453.032;  -75.300; -289.000;  -60.000
453.153;  -26.300;  -29.000;   81.000
453.274;  209.900;  737.000;  868.000
453.395;  -55.900;  -51.000;  175.000
453.516;  322.100; 1317.000; 1388.000
453.637;  -77.200; -205.000; -150.000
453.758;  -66.600;   15.000;   69.000
453.879; -175.100; -462.000; -250.000
454.000;  214.500; 1086.000;  948.000
454.121; -185.600; -554.000; -326.000
454.242; -168.300; -599.000; -383.000
454.362;  -34.200;  -99.000;  114.000
454.483;   -6.800; -309.000; -229.000
454.604;  183.100;  512.000;  580.000
454.725; -196.900; -627.000; -555.000
454.846; -217.400; -474.000; -406.000
454.967;   28.300;  230.000;  539.000
455.087;  -17.000;  179.000;  153.000
455.208;  125.700;  554.000;  856.000
455.329;  -41.500;  -22.000;   82.000
455.450;  207.500;  473.000;  633.000
455.570; -112.000; -234.000; -211.000
455.691;  -19.600;  201.000;  407.000
455.812; -146.100; -270.000;  -92.000
455.932;  -69.800;  107.000;  -97.000
456.053;  -77.600;   36.000;   24.000
456.173; -148.900; -433.000; -355.000
456.294; -222.100; -476.000; -303.000
456.415;  -56.400;  -73.000;   70.000
456.535;   18.200;  297.000;  273.000
456.656;  -30.200;  132.000;  240.000
456.776;  -83.800;    3.000;  298.000
456.897;   53.100;  308.000;  513.000
457.017;  -73.500; -153.000;   -3.000
457.138; -133.500; -402.000; -249.000
457.258;   16.400;  263.000;  224.000
457.379;   16.800;  509.000;  521.000
457.499;   -7.800;  443.000;  432.000
457.620; -164.900; -407.000; -231.000
457.740; -139.900; -132.000;  -11.000
457.860;  -52.200;   87.000;   44.000
457.981;  -24.400;  132.000;  124.000
458.101; -122.000;  -89.000;   40.000
458.221;   50.100;  336.000;  402.000
458.342;  -51.800;   -4.000;  -37.000
458.462;  126.200;  617.000;  352.000
458.582;   -9.900; -302.000; -294.000
458.703;  125.800;  303.000;  154.000
458.823;   61.900;   22.000;  163.000
458.943;  122.300;  341.000;  467.000
459.063;   -6.100; 1124.000;  192.000
459.183;   41.100;  328.000;  313.000
459.304;   85.400;  315.000;  517.000
459.424;  -50.400; -246.000;  -89.000
459.544;  868.000;  388.000;  764.000
459.664; 1955.700;  499.000;  506.000
459.784;  670.400; 1004.000; 1175.000
459.904;  185.100;  867.000;  744.000
460.024;  179.600;  867.000;  684.000
460.144;   84.700;  449.000;  554.000
460.264;   19.400;  515.000;  327.000
460.385; -145.300; -145.000; -119.000
460.505;  149.700;  905.000;  858.000
460.625; -124.300;  -17.000;  -68.000
460.745;   66.000;  396.000;  541.000
460.864;  -15.500;  153.000;  469.000
460.984;  107.700;  499.000;  573.000
461.104;  365.600; 1656.000; 1775.000
461.224;  120.700;  657.000;  650.000
461.344;   -2.200;  431.000;  360.000
461.464;  -13.800;  258.000;  513.000
461.584;   27.400;  283.000;  466.000
461.704;  -38.800;   58.000;  108.000
461.824;  -67.200;  238.000;  259.000
461.943;  -57.800;  191.000;  130.000
462.063;  -56.300;    2.000;  324.000
462.183;  133.600;  639.000;  717.000
462.303;  256.700; 1678.000; 1230.000
462.422;  115.900;  781.000;  840.000
462.542;   -0.300;  271.000;  391.000
462.662;  136.000;  353.000;  380.000
462.782;  661.700;  833.000;  572.000
462.901; 1111.200;  545.000;  717.000
463.021;  629.900; 1702.000; 1638.000
463.141;   50.900;  337.000;  770.000
463.260;   46.900;  614.000;  474.000
463.380;  121.800;  902.000;  884.000
463.499;   -8.000;  342.000;  332.000
463.619;   -6.500;  581.000;  559.000
463.738;  314.000; 1644.000;  903.000
463.858;   84.700;  657.000;  811.000
463.978;  -17.300;  542.000;  396.000
464.097;  168.900;  921.000; 1114.000
464.217;  325.100; 1196.000; 1143.000
464.336;  314.700; 1068.000; 1130.000
464.455;   13.000;  328.000;  659.000
464.575;  145.900;  597.000;  602.000
464.694;  378.300; 1204.000; 1179.000
464.814;  345.700; 1190.000; 1138.000
464.933;  228.900; 1095.000; 1027.000
465.052;  300.700; 1412.000; 1054.000
465.172;  247.900;  922.000;  799.000
465.291;  319.600; 1376.000; 1320.000
465.410;   73.800;  462.000;  735.000
465.530;  225.000; 1355.000; 1310.000
465.649;  206.500; 1209.000; 1273.000
465.768;  355.500; 1673.000; 1508.000
465.888;  178.500;  941.000; 1174.000
466.007;  279.400; 1335.000; 1440.000
466.126;   89.100;  721.000;  641.000
466.245;  165.900; 1176.000; 1187.000
466.364;  131.800;  950.000; 1060.000
466.484;  182.800; 1024.000; 1213.000
466.603;  165.400; 1101.000; 1222.000
466.722;  333.000; 1490.000; 1769.000
466.841;  232.000; 1151.000; 1401.000
466.960;  115.500; 1069.000;  972.000
467.079;  358.700; 1971.000; 1786.000
467.198;  183.300; 1238.000; 1181.000
467.317;  268.400; 1768.000; 1162.000
467.436;  211.600; 1709.000; 1261.000
467.555;  357.800; 1796.000; 1746.000
467.674;  186.500; 1227.000; 1329.000
467.793;  180.800; 1376.000; 1374.000
467.912;  231.800; 1658.000; 1539.000
468.031;  347.700; 2038.000; 1930.000
468.150;  353.000; 1842.000; 1837.000
468.269;  496.500; 2313.000; 2090.000
468.388;  445.800; 2168.000; 2339.000
468.507;  612.100; 2884.000; 2903.000
468.626;  646.800; 2555.000; 2541.000
468.744;  351.800; 2018.000; 2174.000
468.863;  480.100; 2312.000; 2523.000
468.982;  260.000; 1503.000; 1555.000
469.101;  511.600; 2788.000; 2692.000
469.220;  385.900; 2333.000; 2176.000
469.338;  576.500; 2935.000; 3051.000
469.457;  458.600; 2719.000; 2545.000
469.576;  786.800; 3953.000; 3784.000
469.695;  580.700; 2877.000; 3066.000
469.813;  930.400; 4148.000; 4192.000
469.932;  935.900; 4255.000; 4485.000
470.051;  975.200; 4075.000; 4161.000
470.169; 2009.700; 4470.000; 4338.000
470.288; 3320.400; 4700.000; 4809.000
470.406; 1800.600; 5059.000; 5194.000
470.525; 1366.100; 6101.000; 5787.000
470.644; 1403.200; 6847.000; 6794.000
470.762; 1798.700; 8397.000; 7873.000
470.881; 1908.900; 8651.000; 8464.000
470.999; 2163.200; 9685.000; 9151.000
471.118; 2319.300;11174.000;10711.000

