
Integration time [ms]: 200.000
Averaging Nr. [scans]: 10
Smoothing Nr. [pixels]: 0
Data measured with spectrometer [name]: 2101012U2
Wave   ;Sample   ;Dark     ;Reference
[nm]   ;[counts] ;[counts] ;[counts] 

197.733;  128.300;  516.000;  404.000
197.879; -132.000; -610.000; -634.000
198.025; -122.100; -475.000; -420.000
198.171; -147.900; -602.000; -612.000
198.317;  -54.000; -401.000; -316.000
198.463; -130.100; -655.000; -404.000
198.609;   53.800;  181.000; -137.000
198.755; -193.800; -644.000; -410.000
198.901; -138.400; -505.000; -424.000
199.047; -133.000; -615.000; -488.000
199.193;  -66.000; -230.000; -468.000
199.339;  -99.800; -222.000; -369.000
199.485;   74.900;  330.000;  271.000
199.631;   47.700;  227.000;  310.000
199.777; -114.800; -466.000; -398.000
199.923; -131.600; -610.000; -424.000
200.069;  -17.300; -141.000;  -58.000
200.215;  119.600;  128.000;  453.000
200.361;   64.800;  243.000;  477.000
200.507; -117.100; -600.000; -373.000
200.653;  -89.000; -371.000; -194.000
200.798;  -48.300; -215.000; -125.000
200.944;  -16.000; -146.000;  -41.000
201.090;   80.000;   61.000;  222.000
201.236;   -1.000; -116.000; -158.000
201.382;  250.800;  874.000;  903.000
201.528;   -3.000;  -58.000;  -48.000
201.674; -105.400; -386.000; -293.000
201.819; -121.700; -540.000; -439.000
201.965; -175.000; -699.000; -447.000
202.111;  -72.300; -273.000; -226.000
202.257;  -72.800; -250.000; -238.000
202.402;   19.200;   13.000;  -36.000
202.548;  -40.600; -169.000; -116.000
202.694;  168.900;  410.000; -183.000
202.840; -152.900; -603.000; -531.000
202.985; -193.200; -681.000; -639.000
203.131; -201.100; -832.000; -666.000
203.277;  -61.000; -199.000; -262.000
203.423; -112.600; -434.000; -520.000
203.568;  -78.400; -462.000; -237.000
203.714; -121.800; -535.000; -542.000
203.860; -170.400; -682.000; -641.000
204.005;   77.100;  112.000;  167.000
204.151;  131.100;  561.000;  556.000
204.296;  -72.000; -354.000; -221.000
204.442; -149.300; -600.000; -547.000
204.588; -179.000; -592.000; -579.000
204.733;   50.200;  178.000;  168.000
204.879; -266.400;-1018.000; -822.000
205.025;    2.700;  -99.000;  126.000
205.170;   19.000;  -17.000;   94.000
205.316;  178.700;  438.000;  661.000
205.461; -150.700; -698.000; -554.000
205.607;  161.200;  609.000;  665.000
205.752; -166.700; -626.000; -551.000
205.898; -116.500; -501.000; -391.000
206.043; -119.300; -578.000; -506.000
206.189;  -89.400; -243.000; -285.000
206.334;  179.200;  554.000;  606.000
206.480;  167.500;  409.000;  239.000
206.625; -150.200; -529.000; -552.000
206.771;  -80.900; -451.000; -373.000
206.916;  -63.800; -210.000; -537.000
207.062; -133.200; -545.000; -591.000
207.207; -115.300; -546.000; -443.000
207.353;  130.500;  185.000;  460.000
207.498;   47.200;  196.000;   85.000
207.643; -149.000; -501.000; -370.000
207.789; -259.900;-1069.000; -910.000
207.934; -174.800; -665.000; -713.000
208.080;  -54.700; -154.000;   66.000
208.225;  -23.300;  -22.000;  -57.000
208.370; -168.600; -727.000; -619.000
208.516; -163.500; -741.000; -487.000
208.661;  -50.600; -127.000;  -69.000
208.806;  -54.000; -165.000; -171.000
208.952; -258.800;-1044.000; -731.000
209.097;  149.400;  378.000;  349.000
209.242;  -93.700; -307.000; -382.000
209.387;  118.500;  392.000;  350.000
209.533;  -76.100; -321.000; -350.000
209.678;  116.400;  472.000;  543.000
209.823;  -71.000; -408.000; -310.000
209.969; -214.300; -860.000; -757.000
210.114; -170.500; -907.000; -719.000
210.259; -268.600; -939.000; -889.000
210.404;  -22.600; -171.000;  103.000
210.549;   16.500;  108.000;    3.000
210.695;  -13.200;   -3.000;  -95.000
210.840;   55.900;   94.000;   67.000
210.985; -103.200; -484.000; -303.000
211.130;  139.200;  268.000;  406.000
211.275;   52.100;  207.000;  199.000
211.420; -116.600; -300.000; -289.000
211.566; -121.800; -536.000; -489.000
211.711;   59.000;  218.000;  157.000
211.856; -117.500; -545.000; -519.000
212.001;   21.000;  151.000;   44.000
212.146;   39.900;  153.000;   49.000
212.291;  -32.800; -210.000; -186.000
212.436;  -37.500; -280.000;   -6.000
212.581; -177.100; -685.000; -653.000
212.726; -155.500; -487.000; -538.000
212.871; -117.500; -552.000; -217.000
213.016; -319.700;-1172.000;-1029.000
213.161;  139.400;  406.000;  291.000
213.306; -116.900; -435.000; -577.000
213.451; -211.600; -778.000; -689.000
213.596;  -81.500; -455.000; -347.000
213.741; -107.600; -448.000; -538.000
213.886; -146.400; -498.000; -517.000
214.031;  -49.100; -294.000; -124.000
214.176;  -78.300; -408.000; -341.000
214.321;  -62.200; -296.000; -157.000
214.466;  -31.200; -163.000;  -43.000
214.611;   -3.200;  -61.000;  -10.000
214.756; -260.800; -948.000; -858.000
214.901;  -24.500; -388.000; -226.000
215.046; -230.700; -797.000; -825.000
215.191;   40.800;  128.000;   35.000
215.336;   -6.300; -157.000;  -19.000
215.480; -114.900; -684.000; -505.000
215.625;  -21.900; -175.000;  -19.000
215.770; -167.800; -757.000; -662.000
215.915;  -28.900;   -5.000;  -97.000
216.060;  -36.000; -113.000;  -21.000
216.205; -227.000; -731.000; -779.000
216.349; -148.700; -470.000; -533.000
216.494; -270.000; -939.000; -867.000
216.639; -234.100; -823.000; -888.000
216.784; -165.100; -577.000; -525.000
216.929;   88.500;  392.000;  281.000
217.073;  -14.400; -244.000;  -31.000
217.218;   22.000;   78.000;  -47.000
217.363; -120.500; -656.000; -618.000
217.507; -167.200; -623.000; -588.000
217.652; -214.300; -845.000; -874.000
217.797; -201.900; -708.000; -659.000
217.942; -202.000; -856.000; -720.000
218.086;  166.900;  608.000;  539.000
218.231;  -42.700; -174.000;  -26.000
218.376;  -69.200; -337.000; -229.000
218.520;   35.200;  -41.000;   96.000
218.665;  -72.400; -338.000; -204.000
218.810;  -75.700; -275.000; -233.000
218.954;   45.900;  201.000;   35.000
219.099; -208.800; -713.000; -963.000
219.243; -171.700; -589.000; -554.000
219.388;  -59.600; -264.000; -136.000
219.532;  -12.200; -116.000; -116.000
219.677; -134.600; -564.000; -521.000
219.822;   14.700;   33.000;   89.000
219.966;   55.200;   17.000;  -99.000
220.111;  -32.900; -328.000;  -40.000
220.255; -168.100; -797.000; -750.000
220.400;  -26.300; -180.000; -146.000
220.544; -128.200; -516.000; -450.000
220.689; -100.000; -422.000; -451.000
220.833;  -47.900; -123.000;  -58.000
220.978;  -89.000; -393.000; -563.000
221.122;   33.600;  319.000;  307.000
221.267; -243.000; -906.000; -837.000
221.411; -123.800; -478.000; -394.000
221.555;  -30.800; -104.000;  -23.000
221.700;  -76.700; -329.000; -222.000
221.844;   55.300;  255.000;  272.000
221.989;  -93.300; -328.000; -311.000
222.133;  -67.700; -289.000; -307.000
222.277;  -10.400;    5.000;   78.000
222.422;   66.400;  227.000;  113.000
222.566;  -82.300; -381.000; -214.000
222.711; -101.000; -414.000; -479.000
222.855; -163.300; -643.000; -586.000
222.999; -135.700; -642.000; -717.000
223.144;  -66.600; -195.000; -194.000
223.288;  114.700;  423.000;  251.000
223.432;   49.200;  184.000;  230.000
223.576;   45.500;  152.000;  -21.000
223.721;  122.700;  364.000;  273.000
223.865;  -99.700; -472.000; -475.000
224.009;  590.400; 1673.000; 1631.000
224.153; -140.600; -660.000; -671.000
224.298; -120.400; -531.000; -489.000
224.442;   -0.300;  -74.000;  -33.000
224.586;   -4.800; -169.000; -106.000
224.730; -190.000; -858.000; -670.000
224.875; -201.700; -739.000; -688.000
225.019;   64.100;  102.000;  188.000
225.163;  132.100;  208.000;  341.000
225.307;   57.200;   97.000;  -91.000
225.451;  122.700;  360.000;  481.000
225.595;   58.700;  264.000;  176.000
225.739;  -12.800; -170.000;  -94.000
225.884;   39.000;   86.000;    5.000
226.028; -191.300; -760.000; -626.000
226.172;  -69.600; -260.000; -273.000
226.316; -236.400; -941.000; -902.000
226.460; -142.200; -645.000; -493.000
226.604;  -93.300; -406.000; -400.000
226.748; -217.500; -836.000; -733.000
226.892;  -40.800; -227.000; -181.000
227.036; -117.700; -537.000; -447.000
227.180;  -82.300; -551.000; -375.000
227.324; -126.500; -561.000; -580.000
227.468; -215.100; -819.000; -717.000
227.612;   18.700;  242.000;  -28.000
227.756; -205.800; -845.000; -698.000
227.900;   97.400;  342.000;  441.000
228.044; -109.400; -509.000; -290.000
228.188;  116.100;  448.000;  568.000
228.332; -164.900; -546.000; -472.000
228.476;  -74.300; -223.000; -149.000
228.620;  -31.200; -210.000; -150.000
228.764;  146.600;  431.000;  349.000
228.908;  -44.800; -155.000;   30.000
229.052; -130.100; -615.000; -528.000
229.195;  -38.800; -172.000;   13.000
229.339;  -42.800; -235.000; -305.000
229.483;  -35.600;    5.000; -162.000
229.627;   13.100; -156.000;  139.000
229.771;  -42.500; -218.000; -294.000
229.915;   21.900;  230.000;   79.000
230.059; -171.200; -648.000; -663.000
230.202; -109.000; -370.000; -317.000
230.346;  -13.800; -107.000;  107.000
230.490; -129.500; -489.000; -521.000
230.634; -206.400; -736.000; -553.000
230.777;  165.800;  478.000;  509.000
230.921;  -92.100; -450.000; -359.000
231.065;  -86.700; -246.000; -286.000
231.209;   96.100;  261.000;  265.000
231.352;   54.100;   54.000;   40.000
231.496;   46.700;  568.000;  188.000
231.640; -157.500; -693.000; -621.000
231.783;  148.700;  546.000;  525.000
231.927;  -99.100; -294.000; -365.000
232.071; -241.300; -962.000; -736.000
232.214; -258.100; -980.000; -764.000
232.358; -178.800; -683.000; -599.000
232.502;   17.800;  -19.000;    7.000
232.645; -275.700;-1090.000; -927.000
232.789;  -38.300; -257.000; -218.000
232.933; -102.900; -407.000; -224.000
233.076; -250.500;-1038.000; -897.000
233.220; -198.100; -752.000; -777.000
233.363; -150.700; -669.000; -477.000
233.507;  174.300;  371.000;  129.000
233.650; -208.500; -764.000; -834.000
233.794;  120.600;  438.000;  461.000
233.938; -138.600; -530.000; -362.000
234.081;  -22.200;  -93.000;   31.000
234.225; -158.900; -631.000; -539.000
234.368; -235.100; -773.000; -723.000
234.512;  -97.800; -385.000; -299.000
234.655; -145.200; -582.000; -555.000
234.798; -119.000; -493.000; -466.000
234.942; -233.400; -884.000;-1002.000
235.085; -152.000; -651.000; -443.000
235.229; -131.800; -405.000; -410.000
235.372;  -71.600; -247.000; -191.000
235.516; -103.100; -397.000; -321.000
235.659;   15.900;   92.000;  121.000
235.802;  -29.800;  -38.000;  -22.000
235.946;   77.700;  335.000;  215.000
236.089;   79.300;  126.000;  250.000
236.233;  120.400;  275.000;  298.000
236.376;  -74.800; -235.000; -378.000
236.519;  -87.800; -297.000; -319.000
236.663;  -41.200; -215.000; -117.000
236.806; -282.800;-1029.000; -999.000
236.949;  159.700;  543.000;  431.000
237.092;  115.900;  412.000;  391.000
237.236; -153.300; -589.000; -502.000
237.379;  140.100;  352.000;  428.000
237.522; -207.100; -879.000; -768.000
237.666;  -13.000; -271.000;   18.000
237.809; -257.300; -851.000; -823.000
237.952;  114.900;  469.000;  271.000
238.095; -127.600; -447.000; -442.000
238.238;  167.600;  688.000;  700.000
238.382;   19.800;  166.000;  103.000
238.525; -145.400; -598.000; -511.000
238.668; -267.500;-1060.000; -985.000
238.811; -161.700; -638.000; -643.000
238.954; -118.600; -483.000; -334.000
239.097;  170.800;  617.000;  664.000
239.241;  100.400;  394.000;  326.000
239.384;  -53.800; -254.000; -214.000
239.527;  -97.500; -424.000; -224.000
239.670; -282.700; -994.000;-1091.000
239.813; -206.600; -696.000; -658.000
239.956;  164.400;  579.000;  473.000
240.099; -200.500; -778.000; -725.000
240.242;  151.100;  428.000;  432.000
240.385;  112.100;  466.000;  450.000
240.528; -136.000; -706.000; -473.000
240.671;   60.400;  189.000;  134.000
240.814;  -90.700; -441.000; -158.000
240.957; -182.800; -767.000; -578.000
241.100; -199.800; -779.000; -755.000
241.243; -246.800;-1234.000; -893.000
241.386; -122.900; -508.000; -379.000
241.529; -137.700; -735.000; -547.000
241.672; -123.400; -566.000; -495.000
241.815; -194.100; -832.000; -808.000
241.958;  -33.700; -125.000; -182.000
242.101; -151.000; -545.000; -390.000
242.244;  -55.300; -270.000; -325.000
242.387;  -60.300; -304.000; -246.000
242.530;  134.400;  470.000;  134.000
242.673;  -83.900; -381.000; -309.000
242.815; -232.900; -925.000; -899.000
242.958; -120.400; -482.000; -381.000
243.101;   30.500;  132.000;  187.000
243.244; -133.000; -564.000; -521.000
243.387;  -87.700; -313.000; -316.000
243.530; -169.500; -657.000; -674.000
243.672;    9.700;   43.000;  -92.000
243.815;  -81.900; -355.000; -283.000
243.958;   18.400;   98.000;  -26.000
244.101;   21.000;   59.000;  -16.000
244.243;  -16.600;  -47.000;  101.000
244.386; -194.300; -761.000; -630.000
244.529;  -61.300; -132.000; -139.000
244.672; -283.100;-1154.000; -951.000
244.814; -215.400; -621.000; -794.000
244.957;  -54.400; -380.000; -304.000
245.100; -169.000; -489.000; -489.000
245.242; -107.800; -387.000; -374.000
245.385;    9.600;  -59.000;  -39.000
245.528; -232.200; -871.000; -705.000
245.670;  196.600;  612.000;  634.000
245.813; -172.400; -599.000; -547.000
245.956;  -49.000; -324.000; -275.000
246.098; -131.200; -508.000; -650.000
246.241;   35.000;  194.000;   48.000
246.383;  -36.900; -119.000;  -73.000
246.526; -158.900; -454.000; -525.000
246.669; -206.800; -889.000; -780.000
246.811;   28.700;  172.000;   -1.000
246.954; -132.400; -512.000; -426.000
247.096;  -63.500;  -84.000;   -6.000
247.239; -137.300; -482.000; -445.000
247.381; -139.300; -647.000; -488.000
247.524;  205.300;  645.000;  679.000
247.666;   25.500;   58.000;   11.000
247.809; -223.300; -887.000; -691.000
247.951;    5.700;  -75.000;  138.000
248.094;   65.100;  432.000;  308.000
248.236; -341.300;-1262.000;-1238.000
248.378;    4.000; -356.000;  -81.000
248.521;  -41.600; -334.000; -337.000
248.663;  -70.600; -236.000; -267.000
248.806;  -62.200; -300.000; -266.000
248.948; -182.800; -886.000; -763.000
249.090;  -99.400; -428.000; -398.000
249.233; -103.800; -344.000; -381.000
249.375; -140.800; -474.000; -451.000
249.518;  -33.100;  -83.000; -133.000
249.660;   -1.700; -103.000;    3.000
249.802; -363.600;-1303.000;-1189.000
249.945; -164.200; -612.000; -540.000
250.087; -216.900; -834.000; -768.000
250.229;  -93.500; -362.000; -480.000
250.371; -121.000; -494.000; -439.000
250.514;  -96.300; -310.000; -244.000
250.656; -129.800;   69.000;  102.000
250.798; -223.800; -849.000; -800.000
250.940; -116.600; -322.000; -322.000
251.083;  -71.000; -335.000; -111.000
251.225;  107.600;  338.000;  310.000
251.367;  -70.400; -274.000; -373.000
251.509;  -74.500; -265.000; -210.000
251.651; -193.100; -731.000; -671.000
251.794;  117.300;  538.000;  632.000
251.936; -201.800; -821.000; -747.000
252.078; -138.600; -540.000; -461.000
252.220; -146.200; -645.000; -477.000
252.362;  150.200;  344.000;  462.000
252.504; -170.600; -677.000; -584.000
252.646; -185.900; -875.000; -722.000
252.788;  -12.500;   14.000; -128.000
252.931;  -89.600; -257.000; -253.000
253.073;  -88.300; -376.000; -317.000
253.215;  -10.400;  141.000;  122.000
253.357;    0.500;   82.000; -153.000
253.499; -101.600; -374.000; -234.000
253.641; -190.400; -749.000; -594.000
253.783; -166.100; -609.000; -527.000
253.925; -159.800; -586.000; -591.000
254.067; -207.300; -744.000; -667.000
254.209;  -95.800; -391.000; -259.000
254.351; -252.400; -865.000; -883.000
254.493; -117.000; -441.000; -417.000
254.635; -220.700; -936.000; -818.000
254.777; -177.100; -752.000; -687.000
254.918; -135.300; -512.000; -430.000
255.060; -123.300; -551.000; -395.000
255.202; -110.100; -473.000; -261.000
255.344; -148.900; -658.000; -455.000
255.486; -119.600; -471.000; -406.000
255.628; -231.200; -780.000; -781.000
255.770; -170.700; -676.000; -536.000
255.912; -127.700; -559.000; -468.000
256.053; -155.600; -730.000; -508.000
256.195;  303.800; 1008.000;  903.000
256.337; -205.900; -861.000; -595.000
256.479;  131.700;  532.000;  416.000
256.621;  -74.700; -394.000; -212.000
256.762; -190.200; -789.000; -742.000
256.904;  115.200;  485.000;  487.000
257.046; -100.800; -381.000; -271.000
257.188;  -62.900; -351.000; -264.000
257.329; -132.100; -525.000; -464.000
257.471; -208.200; -939.000; -807.000
257.613; -117.700; -584.000; -498.000
257.755; -286.300;-1073.000; -982.000
257.896;   73.700;  286.000;  392.000
258.038;  -88.300; -403.000; -352.000
258.180;  -60.400; -354.000; -279.000
258.321; -179.200; -581.000; -457.000
258.463;   -2.000;  -71.000;  133.000
258.605; -186.900; -562.000; -570.000
258.746; -241.500; -886.000; -772.000
258.888; -287.200;-1026.000;-1020.000
259.029;   23.500;  121.000;   -8.000
259.171; -168.200; -614.000; -550.000
259.313;  -16.700;  -49.000;  -47.000
259.454; -120.800; -536.000; -414.000
259.596; -100.100; -483.000; -390.000
259.737; -156.700; -590.000; -474.000
259.879;   87.100;  217.000;  311.000
260.020;  208.700;  901.000;  636.000
260.162;  -36.700; -146.000; -253.000
260.303; -201.900; -768.000; -687.000
260.445; -153.500; -609.000; -613.000
260.586;   78.400;  392.000;  157.000
260.728;  -89.000; -360.000; -248.000
260.869; -105.400; -350.000; -343.000
261.011;  175.100;  706.000;  537.000
261.152; -105.000; -479.000; -319.000
261.293; -167.500; -576.000; -595.000
261.435;  -27.900; -219.000; -184.000
261.576;  -69.500; -455.000; -325.000
261.718;   93.300;  420.000;  470.000
261.859; -233.500; -940.000; -949.000
262.000; -272.200; -951.000;-1016.000
262.142;  -19.600;  -52.000;  -60.000
262.283; -212.700; -808.000; -691.000
262.424; -176.700; -666.000; -625.000
262.566; -288.900;-1161.000; -983.000
262.707; -238.900; -840.000; -830.000
262.848; -239.200; -769.000; -726.000
262.990; -102.100; -362.000; -345.000
263.131;  221.800;  650.000;  681.000
263.272;  -35.400;  -61.000;  -41.000
263.413; -173.600; -589.000; -561.000
263.555; -125.000; -669.000; -143.000
263.696; -146.500; -550.000; -641.000
263.837; -137.300; -449.000; -551.000
263.978;   35.100;   -5.000;  -77.000
264.119;  -54.700; -283.000; -264.000
264.261; -215.000; -847.000; -630.000
264.402;   28.500;   33.000;   40.000
264.543; -160.200; -509.000; -524.000
264.684;  -24.700;   61.000;  -50.000
264.825; -154.400; -816.000; -538.000
264.966;   -7.200;  -84.000;  -67.000
265.107; -196.300; -646.000; -670.000
265.248; -222.100; -825.000; -812.000
265.390;    8.000;  152.000;   -9.000
265.531;    1.700; -238.000; -107.000
265.672; -145.900; -557.000; -630.000
265.813;  165.400;  563.000;  439.000
265.954; -295.900; -959.000; -940.000
266.095;  -24.200; -372.000; -322.000
266.236; -177.700; -686.000; -548.000
266.377; -102.400; -243.000; -297.000
266.518; -121.900; -619.000; -547.000
266.659;   81.600;  170.000;  268.000
266.800;   35.700;   83.000;   85.000
266.941; -183.900; -487.000; -478.000
267.082;   45.900;  354.000;   99.000
267.223;  -93.400; -344.000; -273.000
267.364; -209.300; -892.000; -686.000
267.504;    1.800;    3.000;  135.000
267.645;   17.700;  160.000;   67.000
267.786;  -51.700; -147.000;  -86.000
267.927; -119.100; -473.000; -379.000
268.068;  -31.800; -186.000;  -61.000
268.209;  -81.600; -175.000; -413.000
268.350; -104.700; -388.000; -532.000
268.490; -142.600; -648.000; -521.000
268.631;   74.200;  127.000;  225.000
268.772; -203.800; -874.000; -647.000
268.913; -101.600; -328.000; -476.000
269.054;  -10.000; -117.000;   12.000
269.194; -112.100; -418.000; -402.000
269.335; -282.100;-1137.000;-1074.000
269.476;   -1.300;   33.000;  -35.000
269.617;  -79.300; -347.000; -392.000
269.757; -177.500; -713.000; -646.000
269.898; -175.700; -856.000; -613.000
270.039; -102.600; -415.000; -405.000
270.180; -246.700; -952.000; -816.000
270.320;  -65.100; -190.000; -250.000
270.461;  -69.000; -277.000; -249.000
270.602;  -26.300; -186.000; -156.000
270.742; -209.300; -868.000; -943.000
270.883; -104.200; -442.000; -390.000
271.023; -107.100; -358.000; -357.000
271.164; -142.300; -607.000; -528.000
271.305; -198.500; -666.000; -654.000
271.445; -195.200; -722.000; -683.000
271.586; -111.600; -462.000; -283.000
271.726;  -87.400; -397.000; -322.000
271.867; -147.100; -594.000; -534.000
272.008;  237.000; -473.000; -285.000
272.148;  233.200;  462.000;  468.000
272.289;   -3.900; -113.000; -181.000
272.429;   31.500;   19.000;  185.000
272.570; -189.100; -633.000; -737.000
272.710; -210.000; -825.000; -775.000
272.851;  -36.400;  113.000; -130.000
272.991; -302.400;-1173.000;-1077.000
273.131; -149.100; -419.000; -459.000
273.272; -181.600; -683.000; -723.000
273.412;    9.200; -143.000;  -31.000
273.553; -124.000; -488.000; -507.000
273.693;  269.400;  913.000;  858.000
273.834; -197.600; -894.000; -692.000
273.974; -172.200; -664.000; -615.000
274.114; -195.600; -772.000; -560.000
274.255;  109.400;  414.000;  373.000
274.395;   27.900; -180.000; -125.000
274.535;   89.500;  199.000;  350.000
274.676;   43.500;  225.000;   94.000
274.816;   -6.900;  110.000;   34.000
274.956; -140.900; -624.000; -690.000
275.097; -206.400;-1014.000; -922.000
275.237; -238.200; -913.000; -803.000
275.377; -196.400; -778.000; -689.000
275.517; -283.300; -878.000; -937.000
275.658; -126.500; -590.000; -555.000
275.798; -119.100; -606.000; -413.000
275.938;   49.700;  215.000;  323.000
276.078; -170.300; -626.000; -395.000
276.218;   23.300;   99.000;  104.000
276.359; -266.600;-1026.000;-1024.000
276.499; -126.000; -605.000; -446.000
276.639;  -69.900; -305.000; -151.000
276.779; -113.400; -475.000; -357.000
276.919; -200.000; -783.000; -624.000
277.059;  -26.000; -261.000; -212.000
277.199;  -42.800; -357.000; -259.000
277.340;  104.200;  287.000;  175.000
277.480; -211.300; -840.000; -693.000
277.620;   93.100;  192.000;   16.000
277.760; -373.100;-1533.000;-1294.000
277.900;   32.200;  113.000;   33.000
278.040;   84.800;  137.000;  159.000
278.180;   83.300;  270.000;  170.000
278.320;   37.300;   21.000;   56.000
278.460; -122.700; -443.000; -469.000
278.600; -121.300; -708.000; -598.000
278.740;  101.100;  448.000;  224.000
278.880; -163.700; -768.000; -791.000
279.020;   10.800; -194.000; -144.000
279.160; -191.000; -672.000; -595.000
279.300; -234.000; -926.000; -873.000
279.440; -186.300; -709.000; -622.000
279.579;  -85.500;-1014.000; -929.000
279.719; -101.000; -410.000; -394.000
279.859;  114.400;   -4.000;   41.000
279.999;   33.000; -208.000;  101.000
280.139;  -72.300; -435.000; -387.000
280.279; -153.000; -708.000; -745.000
280.419;   -8.600; -229.000; -147.000
280.559;  -34.100; -259.000; -180.000
280.698; -152.500; -790.000; -639.000
280.838; -167.100; -778.000; -800.000
280.978; -221.500; -846.000; -790.000
281.118; -188.500; -811.000; -704.000
281.257;  -10.000;   24.000;    6.000
281.397; -273.300;-1094.000; -960.000
281.537; -190.300; -599.000; -712.000
281.677;   -1.000; -150.000; -101.000
281.816; -159.000; -700.000; -630.000
281.956;  -29.800; -193.000; -257.000
282.096;  -90.300; -539.000; -396.000
282.235; -211.700; -672.000; -638.000
282.375;  -29.700; -243.000;  -98.000
282.515; -175.500; -715.000; -707.000
282.654;   43.900;   29.000;  106.000
282.794;   72.200;  388.000;  244.000
282.934;  -76.700; -530.000; -491.000
283.073; -274.100;-1030.000; -857.000
283.213;  -78.100; -460.000; -467.000
283.353;  -68.600; -408.000; -349.000
283.492;  -46.000; -264.000; -296.000
283.632;  -55.200; -254.000; -168.000
283.771; -193.300; -859.000; -730.000
283.911;  -72.500; -369.000; -260.000
284.050; -200.000; -794.000; -748.000
284.190; -319.600;-1229.000;-1096.000
284.329; -280.500;-1055.000; -964.000
284.469; -121.200; -516.000; -591.000
284.608; -120.800; -559.000; -598.000
284.748; -149.200; -614.000; -570.000
284.887;    0.100;  -87.000;  -20.000
285.027; -246.700; -844.000; -892.000
285.166;  -53.300; -192.000; -249.000
285.306;   -5.700; -116.000;  -33.000
285.445;  -77.900; -229.000; -343.000
285.584; -183.000; -630.000; -494.000
285.724;  -74.600; -282.000; -322.000
285.863; -211.900; -857.000; -507.000
286.002; -126.200; -366.000; -276.000
286.142; -203.600; -715.000; -622.000
286.281; -108.100; -525.000; -493.000
286.420; -145.500; -554.000; -417.000
286.560;  208.700;  653.000;  623.000
286.699; -279.700; -958.000; -912.000
286.838; -192.500; -590.000; -591.000
286.978; -132.500; -533.000; -537.000
287.117; -272.200;-1085.000; -950.000
287.256;  -22.500; -228.000; -211.000
287.395;  -86.600; -197.000; -378.000
287.535; -105.600; -370.000; -298.000
287.674; -142.600; -509.000; -484.000
287.813;  160.100;  661.000;  533.000
287.952; -242.300;-1010.000; -871.000
288.091; -270.700;-1049.000; -915.000
288.231;   23.100;   13.000;   15.000
288.370; -324.200;-1217.000;-1200.000
288.509; -168.800; -728.000; -645.000
288.648; -153.900; -770.000; -548.000
288.787;  -75.700; -243.000;  -87.000
288.926; -105.200; -454.000; -475.000
289.065;  255.000;  859.000;  672.000
289.204;  -47.400; -377.000; -217.000
289.344; -184.800; -791.000; -690.000
289.483;   68.700;  416.000;  304.000
289.622;  -36.500; -291.000; -149.000
289.761;   -0.600; -309.000; -166.000
289.900; -222.400; -785.000; -626.000
290.039;   15.000;  -12.000;  -95.000
290.178;  -59.900; -274.000; -180.000
290.317; -151.800; -618.000; -479.000
290.456; -117.900; -463.000; -451.000
290.595; -245.400; -961.000; -833.000
290.734; -277.900; -904.000; -891.000
290.873; -119.700; -456.000; -420.000
291.011; -195.100; -833.000; -843.000
291.150; -183.700; -770.000; -682.000
291.289;  -19.200; -343.000; -110.000
291.428; -183.300; -599.000; -480.000
291.567;  -80.900; -370.000; -442.000
291.706;   24.400;  109.000;  154.000
291.845; -167.100; -597.000; -505.000
291.984; -314.400;-1234.000;-1061.000
292.122;  140.100;  602.000;  582.000
292.261;  140.300;  620.000;  463.000
292.400;   11.400; -144.000;  211.000
292.539; -232.100; -959.000; -813.000
292.678;  -60.300; -325.000; -300.000
292.816; -306.200;-1136.000; -965.000
292.955; -176.700; -844.000; -684.000
293.094;  -30.900; -173.000; -337.000
293.233; -113.500; -556.000; -400.000
293.371;  -60.600; -225.000;  -84.000
293.510; -224.700; -866.000; -780.000
293.649; -243.500; -959.000; -924.000
293.787; -181.100;-1083.000;-1012.000
293.926;    6.600; -113.000;  -32.000
294.065;  -84.700; -379.000; -290.000
294.203;  104.400;  298.000;  406.000
294.342;   38.500;   74.000;  156.000
294.481;11449.600;51180.000; -836.000
294.619;  -71.400; -425.000; -582.000
294.758; -288.400;-1230.000;-1137.000
294.896;   94.200; -125.000;    5.000
295.035; -235.700;-1040.000;-1006.000
295.174; -266.500;-1082.000; -954.000
295.312;  -60.800; -323.000; -203.000
295.451;  -56.200; -307.000; -428.000
295.589;  -89.400; -389.000; -518.000
295.728;   26.000; -292.000; -165.000
295.866;   10.200;  -36.000;  -51.000
296.005; -118.000; -584.000; -341.000
296.143; -109.600; -558.000; -596.000
296.282; -225.300; -957.000; -881.000
296.420; -144.700; -657.000; -557.000
296.559; -149.200; -892.000; -633.000
296.697;  -52.600; -847.000; -665.000
296.835;  -20.300;-1141.000;-1002.000
296.974;   70.900;  -23.000;   39.000
297.112;   19.200; -443.000; -504.000
297.251; -159.700; -815.000; -755.000
297.389;  102.300; -576.000; -438.000
297.527;  100.500; -145.000;  -83.000
297.666; -125.600; -486.000; -438.000
297.804;  -87.700; -404.000; -264.000
297.942;   -7.800; -136.000; -161.000
298.081;   21.700; -183.000;   63.000
298.219;  111.900;  -17.000;  -19.000
298.357;   66.200; -144.000;  -71.000
298.495;    0.700; -810.000; -812.000
298.634;  119.100;  245.000;  219.000
298.772;   61.200; -220.000; -338.000
298.910;  -73.600; -309.000; -182.000
299.048;    1.000; -130.000; -153.000
299.187;  -41.000; -350.000; -250.000
299.325;   46.500;   52.000;  122.000
299.463;   51.500; -389.000; -299.000
299.601;  157.000; -327.000; -271.000
299.739; -225.100; -908.000; -883.000
299.877; -161.200; -791.000; -703.000
300.016; -144.300;-1095.000; -935.000
300.154;  212.800;  -19.000; -161.000
300.292;   49.400; -428.000; -348.000
300.430;   41.400; -408.000; -291.000
300.568; -210.500; -940.000; -874.000
300.706; -105.500; -366.000; -469.000
300.844; -181.200;-1108.000; -979.000
300.982;  182.700;  246.000;  282.000
301.120; -227.500; -965.000; -866.000
301.258; -141.400; -812.000; -705.000
301.396;   78.600;  104.000;  -41.000
301.534;   88.600; -218.000; -293.000
301.672;  -72.800; -664.000; -521.000
301.810;   -4.200; -613.000; -545.000
301.948;  212.100;   53.000;  149.000
302.086;  770.900; -250.000;  -32.000
302.224; 1204.400; -610.000; -585.000
302.362;   15.300; -558.000; -622.000
302.500;  -85.300; -923.000; -893.000
302.638;  160.200;  128.000;  245.000
302.776;    0.000; -352.000; -408.000
302.913;  110.900;  447.000;  236.000
303.051;  -45.100;  -86.000;  -23.000
303.189;   65.300;   90.000;  118.000
303.327;  -47.000; -341.000; -256.000
303.465; -171.900; -832.000; -588.000
303.603; -188.700; -805.000; -604.000
303.740;  192.500;  417.000;  241.000
303.878;  -31.800; -800.000; -759.000
304.016; -206.200; -915.000; -790.000
304.154; -245.000;-1123.000;-1152.000
304.291;  -81.200; -505.000; -554.000
304.429;   36.700;  102.000;   74.000
304.567; -263.100; -908.000; -893.000
304.705;  -75.800; -408.000; -515.000
304.842;   81.200; -616.000; -540.000
304.980;  100.500;  215.000;   35.000
305.118;   29.700; -367.000; -365.000
305.255; -178.600; -945.000; -927.000
305.393;  132.600;  178.000;  239.000
305.531; -234.200;-1173.000; -956.000
305.668; -149.200; -663.000; -582.000
305.806;  113.300; -358.000; -439.000
305.943;   63.400; -629.000; -637.000
306.081;   77.700; -378.000; -267.000
306.219; -183.500; -863.000; -748.000
306.356;   33.900;  158.000;   27.000
306.494;  297.400;  981.000;  761.000
306.631;   46.600;  -11.000;  -55.000
306.769;   -4.100; -613.000; -485.000
306.906;  -14.100; -284.000; -258.000
307.044;  -93.500; -473.000; -488.000
307.181;  -98.500; -410.000; -332.000
307.319;   47.200;  112.000;   87.000
307.456; -306.900;-1191.000;-1153.000
307.594; -223.500; -980.000; -727.000
307.731;  -39.600; -371.000; -164.000
307.868;   18.900;  -15.000;   20.000
308.006; -253.000; -961.000; -847.000
308.143; -121.900; -618.000; -330.000
308.281;  335.000;  -37.000; -254.000
308.418;   -9.100; -748.000; -640.000
308.555; -142.500; -400.000; -250.000
308.693; -142.600; -577.000; -573.000
308.830; -214.300; -712.000; -657.000
308.967;  -23.600; -215.000;  -95.000
309.105;  -45.700; -507.000; -396.000
309.242;   31.400; -468.000; -367.000
309.379;  548.500; -577.000; -655.000
309.517; -124.700; -936.000; -948.000
309.654; -176.300; -910.000; -734.000
309.791; -131.000; -662.000; -580.000
309.928; -211.300; -977.000; -914.000
310.065;  341.500;  819.000;  697.000
310.203;  -72.200; -825.000; -850.000
310.340;  -30.100; -465.000; -321.000
310.477; -113.000; -412.000; -516.000
310.614; -102.000; -383.000; -473.000
310.751; -136.200; -427.000; -518.000
310.889;  -24.800;    1.000;   11.000
311.026; -284.100;-1161.000; -939.000
311.163; -107.500; -386.000; -380.000
311.300; -141.900; -512.000; -479.000
311.437; -134.300; -658.000; -619.000
311.574; -286.800;-1226.000; -985.000
311.711; -105.200; -595.000; -433.000
311.848;  -59.600; -380.000; -388.000
311.985;   37.500;  270.000;   93.000
312.122; -195.100; -932.000; -762.000
312.259; -240.700; -941.000; -994.000
312.396; -101.500; -508.000; -551.000
312.533; -180.000; -812.000; -790.000
312.670; -238.900;-1070.000; -898.000
312.807;  -56.500; -352.000; -367.000
312.944; -125.200; -513.000; -611.000
313.081;  -74.000; -150.000; -415.000
313.218; -204.600;-1111.000; -867.000
313.355;   39.800; -531.000; -449.000
313.492;    9.100; -455.000; -292.000
313.629;  261.800;  815.000;  735.000
313.766; -284.100;-1176.000;-1008.000
313.902;    4.000; -186.000;   21.000
314.039;  -87.500; -372.000; -289.000
314.176;   84.700;  286.000;  192.000
314.313; -129.300; -569.000; -473.000
314.450; -144.000; -788.000; -684.000
314.587;  -96.300; -468.000; -480.000
314.723;   49.300;  -78.000;  130.000
314.860;  119.500;  318.000;  332.000
314.997;   64.700;  223.000;  142.000
315.134;  -90.100; -385.000; -368.000
315.270;  -59.700; -480.000; -496.000
315.407; -244.600;-1094.000; -967.000
315.544;  -93.100; -657.000; -538.000
315.681; -141.800; -681.000; -565.000
315.817;   -0.800; -133.000; -176.000
315.954;  -33.200; -613.000; -392.000
316.091; -278.100;-1045.000;-1023.000
316.227;  -22.300;  -71.000; -179.000
316.364;    9.800;   23.000;    6.000
316.500;  -34.300; -113.000; -300.000
316.637;  -77.400; -181.000; -302.000
316.774; -153.700; -625.000; -358.000
316.910; -184.300; -598.000; -629.000
317.047; -128.500; -487.000; -351.000
317.183;  -97.400; -435.000; -566.000
317.320;  -26.500; -367.000; -321.000
317.456; -163.700; -733.000; -805.000
317.593; -141.800; -598.000; -641.000
317.729;   27.400;  168.000;  -67.000
317.866; -385.700;-1434.000;-1285.000
318.002; -157.200; -708.000; -948.000
318.139; -206.200; -883.000; -867.000
318.275; -192.000;-1003.000; -738.000
318.412;  -96.100; -517.000; -336.000
318.548;  -78.200; -751.000; -720.000
318.685; -168.300; -985.000; -888.000
318.821; -185.400; -762.000; -735.000
318.957;  -19.500;   34.000;  -23.000
319.094;   91.500;  297.000;  154.000
319.230; -122.100; -756.000; -742.000
319.367;  149.400; -471.000; -520.000
319.503;   95.400; -538.000; -436.000
319.639; -196.900; -877.000; -793.000
319.775; -146.500; -750.000; -685.000
319.912;  -68.000; -424.000; -519.000
320.048; -199.900;-1184.000;-1184.000
320.184;  117.700;   59.000;   70.000
320.321;  -96.800; -497.000; -467.000
320.457;  165.800;  475.000;  662.000
320.593; -107.800; -375.000; -382.000
320.729; -179.500; -732.000; -734.000
320.866; -157.600; -577.000; -635.000
321.002; -172.400; -759.000; -809.000
321.138;   -2.000; -135.000; -211.000
321.274;  130.100; -148.000; -115.000
321.410;  -62.100; -585.000; -353.000
321.546; -117.000;-1011.000; -911.000
321.683;  113.700;  400.000;  185.000
321.819;   28.300;  -48.000; -117.000
321.955; -228.500; -743.000; -722.000
322.091;  -88.600; -585.000; -540.000
322.227;  -10.900; -382.000; -202.000
322.363;  -30.700; -320.000; -215.000
322.499;  -67.100; -343.000; -331.000
322.635;  271.800;  636.000;  443.000
322.771;   46.100; -139.000;   12.000
322.907;  184.200;  129.000;  327.000
323.043;   -8.400; -115.000; -206.000
323.179;  -63.800; -394.000; -363.000
323.315;   -8.400; -401.000; -371.000
323.451;   97.300; -328.000; -236.000
323.587;   71.300;  -60.000;  -77.000
323.723;   -3.100; -682.000; -601.000
323.859;  -21.000; -258.000;  -76.000
323.995;  -79.400; -467.000; -409.000
324.131; -215.100; -967.000; -892.000
324.267;  -81.700; -254.000; -276.000
324.402; -237.500; -960.000; -983.000
324.538;   -7.400; -279.000; -104.000
324.674;   46.800;  164.000;   77.000
324.810;  205.800;  226.000;  308.000
324.946;    3.700; -810.000; -658.000
325.082; -131.700; -568.000; -475.000
325.217;   14.400;  -62.000;   16.000
325.353; -212.000; -764.000; -659.000
325.489; -171.500; -540.000; -506.000
325.625; -100.700; -579.000; -525.000
325.760;  117.400;  517.000;  376.000
325.896;  -92.500; -515.000; -702.000
326.032;  -71.600; -403.000; -352.000
326.168; -113.300; -462.000; -369.000
326.303;  -83.400; -352.000; -461.000
326.439;  -19.900; -336.000; -276.000
326.575;   19.900; -190.000;  -29.000
326.710;    1.300; -156.000;  -30.000
326.846;  -14.900;  146.000;  103.000
326.982; -168.900; -530.000; -548.000
327.117;  -96.000; -481.000; -442.000
327.253; -193.900; -745.000; -742.000
327.388; -293.100;-1137.000;-1153.000
327.524;  -78.900; -811.000; -578.000
327.659;   -3.100;  -58.000;  -22.000
327.795;   -3.900;   69.000;   45.000
327.931; -154.900; -723.000; -499.000
328.066;  -54.500; -417.000; -276.000
328.202;  -41.400;   12.000; -129.000
328.337;  239.700;  957.000;  713.000
328.473;    2.800;  -12.000;  -74.000
328.608;  -24.900; -256.000; -267.000
328.743; -186.200; -799.000; -664.000
328.879;   79.200;  214.000;  114.000
329.014; -101.500; -102.000; -122.000
329.150; -133.300; -358.000; -483.000
329.285; -128.100; -465.000; -466.000
329.421;  -86.500; -548.000; -246.000
329.556;   -1.400;  -36.000;   85.000
329.691; -168.900; -633.000; -615.000
329.827; -169.800; -626.000; -480.000
329.962;  -58.400;  131.000; -301.000
330.097; -150.300; -673.000; -585.000
330.233; -114.800; -410.000; -223.000
330.368; -230.000; -839.000; -628.000
330.503;   20.900;    3.000;   98.000
330.638;   11.800;  -93.000; -125.000
330.774; -127.400; -609.000; -530.000
330.909;  -72.800; -434.000; -244.000
331.044; -201.400; -714.000; -708.000
331.179; -328.700;-1217.000;-1109.000
331.315;   45.200;   77.000;   20.000
331.450;   33.500;  157.000;  285.000
331.585; -180.700; -805.000; -706.000
331.720; -129.900; -510.000; -460.000
331.855;  -30.400;  -35.000; -102.000
331.990;  334.400;   62.000;  138.000
332.126;  184.300; -110.000;   71.000
332.261;  -57.500; -379.000; -265.000
332.396;  -24.200; -135.000; -242.000
332.531; -215.500;-1074.000;-1031.000
332.666;   19.800; -519.000; -363.000
332.801; -167.700; -726.000; -807.000
332.936;  -53.000; -192.000; -122.000
333.071; -266.400; -870.000; -817.000
333.206;   41.400;  307.000;  379.000
333.341;   94.400;  344.000;  418.000
333.476; -178.600; -627.000; -623.000
333.611;  -40.400; -251.000; -173.000
333.746; -112.600; -381.000; -464.000
333.881; -228.300; -973.000; -935.000
334.016; -234.000; -936.000; -917.000
334.151; -221.900; -746.000; -702.000
334.286;   63.600;  152.000;  186.000
334.421;  -16.100; -125.000; -178.000
334.556; -163.600; -611.000; -567.000
334.690; -181.700; -631.000; -577.000
334.825;  123.300;  381.000;   83.000
334.960;  -85.100; -285.000; -413.000
335.095;   18.200;  135.000;  -91.000
335.230; -183.500; -722.000; -738.000
335.365; -263.000;-1084.000; -990.000
335.499; -232.400;-1108.000;-1037.000
335.634;   51.700;    9.000;  534.000
335.769; -200.500; -755.000; -720.000
335.904; -140.900; -603.000; -561.000
336.038; -138.200; -735.000; -657.000
336.173; -290.300;-1206.000;-1194.000
336.308;    7.800; -116.000; -189.000
336.443;    0.000; -544.000; -634.000
336.577; -182.600; -936.000; -787.000
336.712;   87.600;   -4.000;  -12.000
336.847;  -97.900; -724.000; -607.000
336.981;   63.800; -272.000; -208.000
337.116;  426.500;  615.000;  501.000
337.250;  141.900; -434.000; -421.000
337.385;  323.900; -297.000; -208.000
337.520;   91.500; -632.000; -603.000
337.654;  -94.700; -215.000; -126.000
337.789; -237.600; -989.000; -933.000
337.923;  -38.300; -104.000; -205.000
338.058; -156.900; -673.000; -738.000
338.192;  -99.400; -611.000; -488.000
338.327;   11.700;  -18.000; -155.000
338.461; -103.800; -299.000; -469.000
338.596; -169.000; -780.000; -638.000
338.730; -193.900; -767.000; -803.000
338.865;  132.300;  -46.000; -140.000
338.999; -130.300; -846.000; -702.000
339.134;  -79.600; -634.000; -536.000
339.268;  -24.700; -741.000; -603.000
339.403;  406.200; -740.000; -775.000
339.537;  103.900; -894.000; -820.000
339.671; -234.200; -829.000; -813.000
339.806; -119.100; -556.000; -512.000
339.940;   22.000; -261.000; -235.000
340.074; -162.700; -685.000; -510.000
340.209;  -73.000; -351.000; -230.000
340.343; -132.900; -517.000; -573.000
340.477;  331.200;  998.000; 1036.000
340.612; -123.400;-1033.000; -900.000
340.746;  185.300; -199.000; -243.000
340.880; -144.800; -924.000; -785.000
341.014;  -23.800;  -45.000; -154.000
341.149; -206.600; -756.000; -718.000
341.283; -194.800; -839.000; -754.000
341.417; -219.700;-1124.000; -938.000
341.551;  124.400; -768.000; -708.000
341.685;  -64.000; -633.000; -611.000
341.820; -110.900; -562.000; -493.000
341.954;  -90.700; -218.000; -349.000
342.088; -296.300;-1102.000;-1019.000
342.222;   89.600;  565.000;  618.000
342.356; -104.700; -395.000; -335.000
342.490; -189.500; -880.000; -841.000
342.624;  -73.900; -339.000; -242.000
342.758;  -11.300; -364.000; -312.000
342.892; -174.100; -710.000; -585.000
343.026;  -40.900;  -58.000; -116.000
343.160; -111.300; -426.000; -376.000
343.294; -114.700; -474.000; -337.000
343.428;  -75.500; -488.000; -448.000
343.562;    0.000; -172.000;  -23.000
343.696;  -44.800; -385.000; -314.000
343.830;  -25.600; -362.000; -356.000
343.964;   32.800; -231.000; -168.000
344.098; 1236.900;  199.000;   70.000
344.232; 1072.600; -266.000; -127.000
344.366;   94.300; -567.000; -453.000
344.500;   35.200; -665.000; -744.000
344.634;    3.600; -324.000; -164.000
344.768;  -69.200; -531.000; -341.000
344.902;   49.900;  278.000;  256.000
345.035;  -91.500; -556.000; -496.000
345.169; -215.100; -933.000; -656.000
345.303;  -61.800; -308.000; -482.000
345.437; -152.200; -826.000; -717.000
345.571; -156.500; -675.000; -594.000
345.704;  -87.800; -309.000; -532.000
345.838;  -19.600; -331.000; -284.000
345.972;  -72.000; -543.000; -495.000
346.106;  219.000; -179.000; -190.000
346.239;  516.200; -312.000; -243.000
346.373;  -25.400; -343.000; -302.000
346.507; -266.900; -950.000; -962.000
346.640;  190.500;  -30.000;   13.000
346.774;  -84.300; -650.000; -797.000
346.908;   11.600; -138.000;  -11.000
347.041; -137.700; -646.000; -593.000
347.175;    9.400;  259.000;   27.000
347.309; -143.100; -698.000; -628.000
347.442; -188.500; -883.000; -732.000
347.576;  455.800;  670.000;  668.000
347.709;  267.700; -123.000;  -52.000
347.843; -171.300; -933.000; -825.000
347.976;  103.700;  235.000;  294.000
348.110; -339.300;-1268.000;-1186.000
348.243; -180.100; -679.000; -772.000
348.377;   12.300;  -26.000;   60.000
348.510;  168.400;  403.000;  540.000
348.644;  -54.400;  -37.000; -159.000
348.777;   22.200;  180.000;  191.000
348.911;  -58.700; -142.000; -112.000
349.044;  262.400;  471.000;  448.000
349.178;  129.600;-1069.000;-1006.000
349.311;  235.800;  141.000;  255.000
349.444;  -51.100; -927.000; -813.000
349.578;  -29.100; -347.000; -200.000
349.711; -204.300; -959.000; -862.000
349.845;  -41.300; -661.000; -591.000
349.978; -279.800;-1224.000;-1137.000
350.111; -169.700; -546.000; -612.000
350.244; -173.300; -596.000; -700.000
350.378;   -0.600; -392.000; -393.000
350.511; -106.600; -393.000; -426.000
350.644; -209.200; -808.000; -806.000
350.778;   73.200;  168.000;  104.000
350.911;   36.500;  134.000;  140.000
351.044; -127.800; -685.000; -615.000
351.177;  -55.800; -321.000; -281.000
351.310;   -1.400;    3.000; -131.000
351.444; -161.100; -888.000; -788.000
351.577;  182.900;  140.000;   90.000
351.710;  197.300;  593.000;  417.000
351.843;  -33.900; -165.000;  -77.000
351.976;   15.400;  149.000;  -79.000
352.109; -159.000; -621.000; -612.000
352.242;  -64.100; -464.000; -419.000
352.376; -121.300; -580.000; -636.000
352.509;  185.900; -437.000; -356.000
352.642;  -76.300; -654.000; -604.000
352.775;   83.200; -141.000;  -98.000
352.908; -198.300; -933.000; -904.000
353.041; -205.600; -814.000; -824.000
353.174; -105.800; -551.000; -424.000
353.307; -165.000; -753.000; -764.000
353.440;  150.700;  541.000;  453.000
353.573; -210.500; -957.000;-1008.000
353.706;  -85.800; -384.000; -558.000
353.839;  -33.900; -264.000; -220.000
353.971; -166.400; -657.000; -512.000
354.104; -188.800; -896.000; -835.000
354.237;  -98.700; -627.000; -662.000
354.370; -176.100; -846.000; -879.000
354.503; -356.300;-1231.000;-1308.000
354.636;  -78.500; -529.000; -348.000
354.769; -246.400; -937.000; -860.000
354.902;   -6.700; -230.000; -139.000
355.034;   -1.500; -164.000; -220.000
355.167;  -32.400; -262.000; -162.000
355.300; -190.700;-1061.000; -880.000
355.433; 1150.300;  -71.000;  -14.000
355.565; 1819.000; -402.000; -384.000
355.698;  425.500; -356.000; -296.000
355.831;  -45.800; -882.000; -801.000
355.964;  132.700; -285.000; -170.000
356.096; -159.600; -856.000; -843.000
356.229;  -36.300; -523.000; -530.000
356.362;  357.900; -373.000; -266.000
356.494;  728.700; -229.000; -162.000
356.627;  630.400;  269.000;  377.000
356.760;  852.400;  120.000;   53.000
356.892; 1161.300; -286.000; -601.000
357.025;  865.600;  403.000;  389.000
357.157;  785.200; -167.000; -179.000
357.290;  844.300; -856.000; -713.000
357.423;  204.300; -667.000; -556.000
357.555;  114.200; -217.000; -228.000
357.688;  130.500; -483.000; -364.000
357.820;  481.800; -870.000; -877.000
357.953; 4874.200; -563.000; -589.000
358.085;  955.400; -632.000; -612.000
358.218; 1342.200;-1131.000; -932.000
358.350;  290.800;  -58.000;  312.000
358.483; -275.800;-1300.000;-1187.000
358.615; -118.200;-1182.000;-1078.000
358.747; -198.500;-1187.000;-1058.000
358.880;  -33.700; -810.000; -744.000
359.012;  -30.700; -376.000; -202.000
359.145;  -92.100; -480.000; -511.000
359.277;   -9.400; -962.000; -913.000
359.409; 4113.500;  536.000;  231.000
359.542;  978.700; -738.000; -688.000
359.674;   96.700;   46.000;   13.000
359.806; -103.800; -565.000; -438.000
359.939;  -84.800; -617.000; -516.000
360.071;  -30.600; -583.000; -579.000
360.203;  -16.600; -411.000; -364.000
360.335;  116.300;  164.000;  -16.000
360.468;  257.600; -249.000; -307.000
360.600; 3150.400; -547.000; -454.000
360.732; 3428.100; -546.000; -423.000
360.864;  365.000;-1216.000;-1044.000
360.996;  290.300; -516.000; -554.000
361.129;   21.600; -389.000; -598.000
361.261;   19.600;  110.000; -113.000
361.393;  -16.800; -252.000; -214.000
361.525;   63.000;   94.000;  244.000
361.657;  -89.300; -821.000; -703.000
361.789;    9.700; -139.000; -155.000
361.921;  255.300; -642.000; -593.000
362.053;  389.200;  524.000;  541.000
362.185;  106.500;  288.000;   72.000
362.318; -177.800; -709.000; -705.000
362.450;  189.600;  294.000;  444.000
362.582;   47.700; -913.000; -870.000
362.714;  -37.300; -353.000; -332.000
362.846; -143.700; -606.000; -490.000
362.978; -243.500; -941.000; -811.000
363.109;   37.400; -161.000; -260.000
363.241;  507.100; -739.000; -749.000
363.373;  488.400; -649.000; -564.000
363.505;  855.200; -186.000;  -91.000
363.637;  179.800; -787.000; -601.000
363.769; -224.000;-1067.000;-1080.000
363.901; -137.700; -596.000; -654.000
364.033; -251.100;-1103.000;-1062.000
364.165;  -12.000; -283.000; -283.000
364.296;  110.900; -316.000; -177.000
364.428;  -40.000;-1344.000;-1220.000
364.560; -125.500; -679.000; -661.000
364.692; -134.900; -738.000; -835.000
364.824;  313.100; -588.000; -456.000
364.955;  516.300; -402.000; -564.000
365.087; 1094.800;-1097.000; -852.000
365.219;  -64.300; -686.000; -816.000
365.351; -121.400; -526.000; -572.000
365.482;  101.600;  300.000;  240.000
365.614;  -63.100; -402.000; -314.000
365.746; -180.900; -729.000; -752.000
365.877; -169.400; -706.000; -672.000
366.009;  341.300;  -35.000;  -62.000
366.141; -228.600;-1249.000;-1134.000
366.272; -222.300; -803.000; -719.000
366.404; -210.400;-1005.000; -874.000
366.535;  -16.100; -139.000;  -12.000
366.667; -193.000; -644.000; -649.000
366.799;   95.100;  353.000;  203.000
366.930; -223.900; -862.000; -996.000
367.062;  116.600; -639.000; -613.000
367.193;  135.400; -872.000; -842.000
367.325; -124.300; -580.000; -684.000
367.456;   62.900; -246.000;   31.000
367.588;  189.800; -371.000; -318.000
367.719;   61.900;  -44.000;  -45.000
367.851;  -29.400; -222.000; -241.000
367.982; -100.100; -875.000; -732.000
368.113;  143.400; -475.000; -358.000
368.245; -208.700; -960.000; -841.000
368.376;  -34.000; -254.000; -302.000
368.508;  -33.000; -188.000; -263.000
368.639; -270.700;-1166.000;-1034.000
368.770;  -82.000; -670.000; -589.000
368.902; -136.800; -836.000; -926.000
369.033; -207.700; -906.000; -855.000
369.164; -117.100; -720.000; -653.000
369.296; -180.500; -452.000; -601.000
369.427;  -17.700; -209.000; -144.000
369.558;  -49.300; -593.000; -377.000
369.689; -165.300; -721.000; -569.000
369.821; -261.800; -951.000; -845.000
369.952;   -7.200;   42.000; -108.000
370.083;  -32.300; -229.000; -108.000
370.214; -180.400; -735.000; -650.000
370.345;   20.700;   65.000;   81.000
370.477; -151.200; -810.000; -790.000
370.608;  307.800; -328.000; -264.000
370.739; -161.300;-1233.000;-1292.000
370.870; -125.100;-1102.000; -923.000
371.001;   69.300; -378.000; -467.000
371.132; -142.500; -754.000; -735.000
371.263;    1.500;  -42.000; -148.000
371.394; -249.400; -841.000; -748.000
371.525;   87.200;  345.000;  225.000
371.657; -162.600; -808.000; -670.000
371.788;  132.200;  103.000;  199.000
371.919;  243.200; -384.000; -304.000
372.050; 5026.900;  -91.000; -156.000
372.181; 1380.100; -188.000; -294.000
372.311;  496.800;   42.000; -127.000
372.442;   17.400; -457.000; -451.000
372.573;  -24.800; -444.000; -340.000
372.704; -206.300;-1008.000; -980.000
372.835;   92.300; -228.000; -289.000
372.966; -109.400; -646.000; -554.000
373.097; -149.400; -575.000; -711.000
373.228; -100.500; -717.000; -542.000
373.359;  128.500; -824.000; -536.000
373.490; 1153.800; -881.000; -727.000
373.620; 1396.600;-1001.000; -803.000
373.751; 2359.900; -332.000; -396.000
373.882;  980.500; -663.000; -733.000
374.013;   82.000; -449.000; -262.000
374.143; -115.800; -581.000; -659.000
374.274; -229.900; -987.000; -908.000
374.405;  207.500; -388.000; -276.000
374.536;  523.300; -526.000; -387.000
374.666; 1425.200; -759.000; -807.000
374.797;  218.600; -817.000; -868.000
374.928; 1121.100; -710.000; -560.000
375.058; 1029.900; -535.000; -500.000
375.189;  100.400;  -59.000;  -93.000
375.320; -187.500; -928.000;-1034.000
375.450;  -91.300; -625.000; -616.000
375.581;  -93.500; -526.000; -436.000
375.712;  -50.700; -574.000; -250.000
375.842;  327.000; -438.000; -415.000
375.973;  246.300; -554.000; -513.000
376.103;  -88.400; -665.000; -648.000
376.234; -153.100; -531.000; -552.000
376.364; -153.000; -944.000; -867.000
376.495;  479.500;  925.000;  529.000
376.625;  -61.000; -472.000; -485.000
376.756;   13.100; -709.000; -678.000
376.886; -196.600;-1178.000;-1026.000
377.017;  -48.300;-1048.000;-1061.000
377.147;  368.200; -786.000; -782.000
377.278;  119.500;  174.000;  228.000
377.408; -231.500; -801.000; -815.000
377.538; -165.700; -707.000; -693.000
377.669; -160.700; -537.000; -613.000
377.799; -186.000; -645.000; -635.000
377.929; -112.300; -610.000; -428.000
378.060; -249.600; -781.000; -847.000
378.190;  -97.600; -726.000; -531.000
378.320; -111.800; -401.000; -406.000
378.451;    1.700; -131.000;  -22.000
378.581;  -21.400;  -67.000; -110.000
378.711;  304.100; 1035.000;  866.000
378.841;  -83.600; -533.000; -675.000
378.972; -162.700; -871.000; -751.000
379.102;  -53.300; -652.000; -579.000
379.232;   -6.700; -126.000;  -73.000
379.362; -236.100;-1001.000; -885.000
379.492;    4.100; -373.000; -424.000
379.623;  205.100;    0.000;  111.000
379.753; -209.500;-1107.000; -974.000
379.883;  322.100;   59.000;  156.000
380.013;  -75.100;-1081.000;-1017.000
380.143; -228.900;-1097.000;-1056.000
380.273; -223.600; -985.000; -861.000
380.403;  -17.100; -344.000; -257.000
380.533;  -88.000; -651.000; -664.000
380.663;  131.700;  173.000;  128.000
380.793; -221.800;-1027.000;-1074.000
380.923;  -18.900; -103.000;  -34.000
381.053; -138.800; -613.000; -623.000
381.183;  -46.300; -106.000; -248.000
381.313;   22.100; -656.000; -470.000
381.443;   36.400; -692.000; -473.000
381.573;  225.900; -402.000; -409.000
381.703;  209.300;-1249.000;-1095.000
381.833; -296.500;-1454.000;-1336.000
381.963;  175.800; -134.000;  -87.000
382.093; 1759.500; -925.000; -909.000
382.223;  476.600; -713.000; -602.000
382.353;  -67.000; -801.000; -608.000
382.482;  398.000;-1091.000; -964.000
382.612;  970.200; -872.000; -644.000
382.742;  460.200; -695.000; -622.000
382.872;  317.200; -565.000; -551.000
383.002;   99.600;  347.000; -132.000
383.131;  -51.700; -226.000; -160.000
383.261; -113.400; -706.000; -768.000
383.391;  356.700; -552.000; -377.000
383.521; 4131.100;  451.000;  263.000
383.650;  769.100; -947.000; -904.000
383.780;  -60.900; -783.000; -656.000
383.910;  196.300;  880.000;  802.000
384.039;  -41.900; -794.000; -656.000
384.169;  154.400;-1205.000;-1017.000
384.299;  -84.800; -650.000; -662.000
384.428; -183.000; -764.000; -680.000
384.558;  -73.600; -308.000; -275.000
384.687;  -59.700; -414.000; -334.000
384.817;   14.900;   75.000;   -2.000
384.947;   38.200; -234.000; -141.000
385.076;  486.500;  982.000;  912.000
385.206;  210.600;  369.000;  480.000
385.335;  -82.100; -549.000; -417.000
385.465; -191.000; -655.000; -663.000
385.594;  185.400;  -53.000;  -44.000
385.724;  508.800; -868.000; -838.000
385.853;  116.600; -296.000; -270.000
385.982; 1804.900; -743.000; -787.000
386.112; 2745.200;-1052.000; -871.000
386.241;  156.900; -307.000; -312.000
386.371;   32.400; -174.000;  -87.000
386.500;  -23.500; -825.000; -789.000
386.629;  -21.000; -874.000; -817.000
386.759;  112.400;  -43.000;   68.000
386.888;    5.400; -170.000; -250.000
387.017; -132.300; -648.000; -620.000
387.147; -208.900; -771.000; -798.000
387.276;  -23.700; -410.000; -397.000
387.405;   13.400; -398.000; -342.000
387.535;  -66.700; -452.000; -361.000
387.664; -118.700; -692.000; -620.000
387.793;  115.400; -198.000; -113.000
387.922;  705.000;  255.000;  200.000
388.052;    4.100; -576.000; -423.000
388.181;  -17.100; -342.000; -472.000
388.310;  -70.900; -889.000; -710.000
388.439; -126.800; -749.000; -742.000
388.568;  288.500;  365.000;  244.000
388.697; 1362.400; -756.000; -653.000
388.826;  224.700; -768.000; -666.000
388.956;   55.800; -285.000; -307.000
389.085;  -56.700; -347.000; -287.000
389.214; -195.500; -842.000; -872.000
389.343; -128.900; -645.000; -413.000
389.472;  570.100;  126.000;  149.000
389.601;  716.000;   91.000;    0.000
389.730;  -17.100; -568.000; -687.000
389.859;  161.300;  226.000;   46.000
389.988;  241.300; -423.000; -408.000
390.117;  148.500; -168.000; -146.000
390.246;  -38.500; -331.000; -320.000
390.375;  129.000; -673.000; -626.000
390.504; -101.000; -703.000; -621.000
390.633; -147.200; -672.000; -726.000
390.761; -125.700; -732.000; -645.000
390.890;   67.000;   -4.000; -130.000
391.019;  -45.500; -421.000; -441.000
391.148; -241.100; -826.000; -855.000
391.277; -137.300; -576.000; -493.000
391.406; -152.800; -821.000; -805.000
391.534;   56.500;  574.000; -301.000
391.663; -129.500; -583.000; -645.000
391.792; -192.300; -673.000; -701.000
391.921;  153.900;   -3.000;   15.000
392.050;  210.200; -287.000; -228.000
392.178; -146.700;-1206.000;-1061.000
392.307;  177.400; -758.000; -712.000
392.436;   70.300; -427.000; -641.000
392.564;   83.800;  166.000;   -6.000
392.693; -166.600; -860.000; -682.000
392.822;  255.100; -529.000; -534.000
392.950;   50.800; -880.000; -714.000
393.079;  387.400; -188.000; -328.000
393.208;   -0.100; -488.000; -511.000
393.336;  -11.100; -170.000; -145.000
393.465;  -49.500; -317.000; -199.000
393.593;   57.100;   62.000;   79.000
393.722; -255.000;-1121.000; -916.000
393.850;  -12.500; -188.000;  -61.000
393.979; -287.400; -926.000; -805.000
394.107; -129.900; -517.000; -537.000
394.236;  -49.900; -570.000; -507.000
394.364;  433.400;  383.000;  206.000
394.493;  612.000; -911.000; -767.000
394.621;  -85.700; -955.000; -916.000
394.750;  812.000; -873.000; -923.000
394.878; 3649.700; -247.000; -149.000
395.007; 4590.800; -721.000; -807.000
395.135;  252.100; -790.000; -721.000
395.263; -161.900;-1038.000;-1040.000
395.392;    6.900;  -25.000; -107.000
395.520; -187.400; -818.000; -679.000
395.648; -187.600; -865.000; -915.000
395.777;  -56.600; -366.000; -405.000
395.905;  -95.400; -449.000; -564.000
396.033;   82.000;  217.000;  172.000
396.162; 1146.300; -399.000; -453.000
396.290;  964.700;  -17.000;   -2.000
396.418;  113.200; -555.000; -514.000
396.546; -138.900; -571.000; -466.000
396.674; -208.200; -850.000; -878.000
396.803;   32.100;  -72.000;  -23.000
396.931;  117.700; -179.000; -199.000
397.059;  -29.200;-1026.000; -989.000
397.187; -223.400;-1026.000; -975.000
397.315; -225.300; -884.000; -649.000
397.443; -148.200; -592.000; -443.000
397.572; -167.400; -578.000; -424.000
397.700;  -72.700; -607.000; -614.000
397.828;   -2.500;  120.000;  -90.000
397.956;  -72.700; -508.000; -478.000
398.084; -114.600; -767.000; -626.000
398.212;   81.500;  137.000;  124.000
398.340;   40.900;  -56.000;  159.000
398.468;   26.300; -390.000; -169.000
398.596; -265.500; -993.000; -953.000
398.724; -205.000; -762.000; -767.000
398.852; -300.400;-1024.000; -976.000
398.980; -124.100; -560.000; -560.000
399.108; -120.500; -982.000; -735.000
399.236;   23.400;   13.000;    8.000
399.363;   24.200;  222.000;  196.000
399.491; -117.900; -404.000; -398.000
399.619; -227.500; -829.000; -800.000
399.747; -188.200; -859.000; -771.000
399.875;  158.800;  220.000;  234.000
400.003;  -59.300; -359.000; -284.000
400.130; -146.000; -421.000; -341.000
400.258;  -36.800;  -83.000;   38.000
400.386;  -63.200; -352.000; -168.000
400.514;  -74.600; -526.000; -587.000
400.641; -171.500; -928.000; -802.000
400.769; -272.700; -979.000; -888.000
400.897; -184.300; -838.000; -793.000
401.025;  -17.800; -166.000; -152.000
401.152;   20.600;  220.000;   38.000
401.280; -151.700; -430.000; -429.000
401.408; -208.400; -712.000; -576.000
401.535; -156.100; -735.000; -758.000
401.663; -352.300;-1134.000;-1054.000
401.790; -141.800; -514.000; -525.000
401.918;  122.900;  436.000;  405.000
402.046;  -26.600;  134.000;  122.000
402.173;   -7.900;  -18.000;    7.000
402.301; -113.200; -519.000; -397.000
402.428;  124.300;  528.000;  383.000
402.556; -299.600;-1188.000; -913.000
402.683;  -12.100;  -20.000;   -1.000
402.811;  -25.200;  -37.000; -206.000
402.938;   64.800;   20.000;   27.000
403.066;  231.800; -574.000; -558.000
403.193;  458.900;  299.000;  239.000
403.321;  296.400; -396.000; -574.000
403.448;  444.900;   83.000;   27.000
403.575;  189.700;  -90.000;  -46.000
403.703; -155.500; -732.000; -557.000
403.830; -105.700; -531.000; -496.000
403.957; -268.500;-1117.000;-1023.000
404.085;   -2.600;  -61.000; -172.000
404.212;  162.400;  -50.000;   63.000
404.339;  353.300; -566.000; -306.000
404.467; 7126.600; -612.000; -524.000
404.594; 4421.600; -287.000; -227.000
404.721; 1002.400; -869.000; -764.000
404.848;  117.700; -113.000; -202.000
404.976; -213.100; -856.000; -783.000
405.103;    8.100;  -14.000;  -82.000
405.230;   -2.300;  190.000;  226.000
405.357;   90.900;  117.000;   44.000
405.484;  336.100;  -49.000;    5.000
405.612;  -17.100; -548.000; -563.000
405.739;  -96.200; -488.000; -243.000
405.866;  184.500;  669.000;  385.000
405.993;  -40.300; -398.000; -102.000
406.120; -252.600; -801.000; -887.000
406.247; -109.700; -323.000; -342.000
406.374;  665.600;  540.000;  629.000
406.501;   78.100; -632.000; -702.000
406.628; -163.000; -621.000; -589.000
406.755; -203.200; -803.000; -620.000
406.882;  -45.900; -228.000; -277.000
407.009; -163.700; -719.000; -628.000
407.136;   52.600; -480.000; -401.000
407.263;   91.600; -939.000; -829.000
407.390; -131.200; -692.000; -614.000
407.517; -305.900;-1139.000;-1187.000
407.644;  -98.500; -332.000; -256.000
407.771; -102.300; -249.000; -287.000
407.898;   72.300;  168.000;  328.000
408.025; -101.600; -421.000; -313.000
408.151;   14.800;   82.000;  153.000
408.278;  -79.400; -267.000; -216.000
408.405; -262.600; -931.000; -899.000
408.532; -123.300; -549.000; -542.000
408.659; -189.200; -677.000; -648.000
408.785; -358.200;-1298.000;-1170.000
408.912; -101.200; -412.000; -296.000
409.039; -204.800; -610.000; -686.000
409.166; -158.300; -591.000; -555.000
409.292; -143.100; -571.000; -534.000
409.419; -190.100; -665.000; -649.000
409.546; -105.800; -431.000; -192.000
409.672; -191.800; -713.000; -545.000
409.799;  -19.300;  -36.000;   34.000
409.926;  -45.000; -180.000; -179.000
410.052; -312.700;-1127.000;-1091.000
410.179; -114.700; -368.000; -392.000
410.305; -109.900; -375.000; -493.000
410.432;  -85.300; -220.000; -333.000
410.558; -151.300; -305.000; -380.000
410.685; -174.400; -688.000; -431.000
410.812; -157.900; -409.000; -588.000
410.938; -239.900; -964.000; -808.000
411.065; -138.100; -671.000; -645.000
411.191;  -15.000; -189.000; -174.000
411.317; -224.300; -823.000; -742.000
411.444;  -99.000; -317.000; -246.000
411.570; -116.800; -339.000; -294.000
411.697; -208.100; -758.000; -752.000
411.823; -311.400; -989.000; -999.000
411.949;  -40.900;  -56.000;   17.000
412.076; -163.700; -539.000; -519.000
412.202; -169.100; -758.000; -757.000
412.329; -221.100; -798.000; -752.000
412.455; -200.100; -821.000; -657.000
412.581;   34.400;  -15.000;  172.000
412.707; -133.600; -540.000; -457.000
412.834;   50.900;  156.000;  219.000
412.960; -136.200; -785.000; -784.000
413.086; -161.300; -743.000; -701.000
413.212;  245.400;  604.000;  578.000
413.339; -140.200; -685.000; -701.000
413.465;    3.100; -364.000; -310.000
413.591; -183.200; -757.000; -474.000
413.717;  -57.400; -358.000; -366.000
413.843; -223.900; -839.000; -861.000
413.969; -106.100;  -47.000; -292.000
414.096; -179.800; -679.000; -679.000
414.222;   30.300;  -33.000;   85.000
414.348;  -51.600; -652.000; -385.000
414.474;  136.600;   38.000;  -52.000
414.600;  -31.000; -126.000; -144.000
414.726;  -19.700;  -96.000;  -55.000
414.852;  -91.200; -365.000; -342.000
414.978;   50.900;  104.000;  -18.000
415.104;   85.200;   38.000;   80.000
415.230;   30.200; -329.000; -330.000
415.356;   48.300; -409.000; -514.000
415.482;  285.100;   13.000;  -35.000
415.608;  304.200; -247.000; -323.000
415.734; 1197.600;   67.000;   38.000
415.860;25776.500; -875.000; -767.000
415.986;16891.700; -685.000; -607.000
416.111; 1384.000; -798.000; -652.000
416.237;  292.200; -424.000; -571.000
416.363; 1409.000; -765.000; -733.000
416.489; 5150.000; -324.000; -251.000
416.615;  425.600; -707.000; -742.000
416.741; -100.500; -677.000; -784.000
416.866; -145.600; -673.000; -736.000
416.992; -219.800; -801.000; -818.000
417.118;    0.300;  -41.000;  -80.000
417.244; -118.400; -798.000; -531.000
417.369; -168.100; -801.000; -612.000
417.495;  -18.100; -325.000; -254.000
417.621; -175.200;-1015.000; -803.000
417.746;   13.300; -579.000; -572.000
417.872;   87.900; -254.000; -144.000
417.998;   10.400; -515.000; -530.000
418.123; 1315.400;-1073.000; -845.000
418.249; 6475.900; -512.000; -601.000
418.374;  754.000; -916.000; -824.000
418.500;  109.700; -383.000; -482.000
418.626;  205.800;   70.000;  -59.000
418.751;  110.100; -549.000; -448.000
418.877;  216.800; -637.000; -643.000
419.002; 2405.100; -688.000; -560.000
419.128;15457.500; -930.000; -721.000
419.253; 3384.200; -967.000; -837.000
419.379;  389.600; -391.000; -338.000
419.504;  545.500;  325.000;  415.000
419.629;  646.800; -393.000; -212.000
419.755; 4753.600; -317.000; -254.000
419.880;25716.600;  -98.000;   67.000
420.006;14400.200; -280.000; -221.000
420.131;35870.700; -662.000; -775.000
420.256; 4749.200; -315.000; -316.000
420.382;  571.400; -665.000; -687.000
420.507;   16.600; -649.000; -778.000
420.632;  162.800; -337.000; -339.000
420.758;  346.200; -251.000; -425.000
420.883; -166.300; -876.000; -672.000
421.008; -179.400; -775.000; -619.000
421.133; -112.400; -509.000; -467.000
421.259;  -83.100; -325.000; -259.000
421.384; -197.100; -834.000; -693.000
421.509; -109.700;-1052.000; -862.000
421.634; 1654.300; -936.000; -820.000
421.759;  627.500; -359.000; -327.000
421.885; -111.600; -717.000; -656.000
422.010; -124.000; -673.000; -542.000
422.135; -247.500; -695.000; -727.000
422.260;   83.800;  340.000;  280.000
422.385;  -45.000;   12.000;  -98.000
422.510;   31.800;  151.000;  -26.000
422.635;   72.100;  -87.000;  -43.000
422.760;  114.000; -766.000; -791.000
422.885;  102.700;  -57.000;  -80.000
423.010;  -36.800; -112.000; -169.000
423.135; -152.800; -481.000; -561.000
423.260;    2.700; -150.000; -245.000
423.385;  149.600;  476.000;  222.000
423.510;   61.200;   71.000;  -22.000
423.635;  127.900;  133.000;   45.000
423.760;  107.600;  383.000;  328.000
423.885;  135.800;  336.000;  391.000
424.010;    6.600;  -68.000;  -13.000
424.135;   15.700;    5.000;  -33.000
424.259; -148.700; -654.000; -457.000
424.384;  -82.200; -279.000; -272.000
424.509;  -11.400; -260.000; -186.000
424.634; -175.300; -761.000; -623.000
424.759;  -57.500; -688.000; -544.000
424.883;   25.400; -506.000; -527.000
425.008;  213.800; -502.000; -410.000
425.133; 2506.000; -679.000; -653.000
425.258; 1047.500; -517.000; -381.000
425.382; 1394.500; -867.000; -774.000
425.507; 3311.800; -487.000; -543.000
425.632;  473.700; -802.000; -663.000
425.756;  550.100; -256.000; -146.000
425.881; 8660.000; -831.000; -857.000
426.006;21052.400; -604.000; -355.000
426.130; 3073.400; -696.000; -508.000
426.255;  357.400; -611.000; -491.000
426.379;  190.800; -189.000; -577.000
426.504;  571.000;  660.000;  544.000
426.629; 5234.400; -519.000; -466.000
426.753; 3195.100;   64.000;  -46.000
426.878;  386.300; -252.000; -288.000
427.002;  121.500; -651.000; -668.000
427.127; 2179.200;  -35.000; -158.000
427.251;14554.700;  372.000;  401.000
427.375; 3742.600; -191.000; -173.000
427.500; 3073.500; -616.000; -610.000
427.624;  913.000; -234.000; -400.000
427.749;  104.900; -216.000; -225.000
427.873;  -83.500; -499.000; -412.000
427.997;  -30.300; -222.000; -230.000
428.122;  170.700;  795.000;  703.000
428.246;  168.000;  433.000;  434.000
428.371; -233.400; -869.000; -773.000
428.495; -184.200; -624.000; -646.000
428.619;  -36.800; -186.000; -117.000
428.743;   64.500;   65.000;  132.000
428.868;    5.300; -732.000; -643.000
428.992; 1867.200; -219.000; -326.000
429.116;  683.400; -329.000; -357.000
429.240;  391.000;  419.000;  426.000
429.365;  -50.000; -454.000; -574.000
429.489; -103.500; -638.000; -647.000
429.613;   47.700; -236.000; -177.000
429.737;   11.700; -563.000; -432.000
429.861;  333.100; -247.000; -133.000
429.985; 7303.000; -425.000; -305.000
430.109; 7170.300; -770.000; -908.000
430.234;  807.100;   76.000;  -50.000
430.358;   67.300; -250.000; -160.000
430.482; -114.500; -672.000; -564.000
430.606;  -91.000; -655.000; -375.000
430.730;   34.500; -437.000; -388.000
430.854;   49.200; -909.000; -835.000
430.978; -153.700; -795.000; -764.000
431.102; -145.100; -499.000; -422.000
431.226; -194.500; -874.000; -815.000
431.350;   88.200;  345.000;  422.000
431.474; -112.500; -661.000; -373.000
431.597; -250.100;-1060.000; -848.000
431.721; -124.000; -276.000; -267.000
431.845; -228.100; -704.000; -472.000
431.969; -108.500; -304.000; -349.000
432.093; -123.000; -395.000; -317.000
432.217;   10.700;   32.000;   82.000
432.341; -120.500; -523.000; -518.000
432.464;   16.900;   96.000;   40.000
432.588;  246.600; -401.000; -329.000
432.712;  102.900;  -52.000;  -52.000
432.836;   99.000;  213.000;  263.000
432.959;  -36.800; -372.000; -311.000
433.083;  112.300;   11.000;    2.000
433.207;  528.400;  285.000;  930.000
433.330; 6594.700; -391.000; -200.000
433.454; 7319.200; -654.000; -638.000
433.578; 4418.300;  583.000;  278.000
433.701;  684.500; -623.000; -675.000
433.825;  164.400; -292.000; -299.000
433.949;  221.700;   28.000;  -72.000
434.072;   50.100; -410.000; -323.000
434.196;  -29.800; -309.000; -117.000
434.319; 7886.000;25482.000;25124.000
434.443;  953.200; -656.000; -603.000
434.566; 3299.800;  281.000;   62.000
434.690;  413.000; -637.000; -383.000
434.813;   48.800; -251.000; -173.000
434.937; -152.800; -569.000; -696.000
435.060;  -61.400; -423.000; -332.000
435.184;  351.500; -492.000; -217.000
435.307;  214.100;  159.000;  102.000
435.431;   34.800;  -40.000;   24.000
435.554;  -90.700; -399.000; -240.000
435.677; -136.000; -350.000; -258.000
435.801;  -45.800;  -25.000;   49.000
435.924;   18.400;    1.000;  -67.000
436.048; -212.900;-1019.000; -732.000
436.171;  -92.700; -240.000;  -66.000
436.294;  -20.100; -248.000; -229.000
436.417;   38.800; -963.000; -849.000
436.541; -212.000; -814.000; -840.000
436.664;  -21.600; -242.000; -316.000
436.787;   13.800;   13.000;  113.000
436.910; -192.000; -792.000; -422.000
437.034;   42.300;  142.000;  143.000
437.157;  111.100;  -11.000;    0.000
437.280;  -77.800; -392.000; -292.000
437.403; -220.400; -982.000; -869.000
437.526;  827.600; -903.000; -865.000
437.649; 2916.600; -505.000; -332.000
437.772;  339.800; -692.000; -540.000
437.896;  213.500;  700.000;  544.000
438.019; -148.500; -758.000; -503.000
438.142; -155.600; -596.000; -506.000
438.265;  -41.800; -639.000; -670.000
438.388;  705.100; -520.000; -410.000
438.511;   16.000; -597.000; -394.000
438.634;  -96.900; -247.000; -125.000
438.757; -201.900; -693.000; -619.000
438.880;  -28.500;  -34.000;  -57.000
439.003; -105.700; -417.000; -437.000
439.126;  -82.900; -287.000; -167.000
439.248;  -50.700;  -98.000; -139.000
439.371;  -29.900;    9.000;  -53.000
439.494;  108.000;  510.000;  439.000
439.617;  -66.400;   65.000;  -88.000
439.740; -290.500; -968.000; -816.000
439.863; -235.500; -755.000; -595.000
439.986; -187.400; -476.000; -431.000
440.108;  -57.900; -161.000; -112.000
440.231; -313.700; -950.000; -836.000
440.354;  -61.400;  -64.000; -150.000
440.477;   16.800; -566.000; -542.000
440.599;  -27.900; -200.000; -225.000
440.722; -191.700; -709.000; -586.000
440.845;  181.400;  751.000;  928.000
440.968; -159.100; -415.000; -311.000
441.090; -141.400; -199.000;  -33.000
441.213; -290.800;-1021.000; -825.000
441.336;  -71.700; -159.000;   -5.000
441.458; -128.600; -549.000; -396.000
441.581; -168.100; -628.000; -629.000
441.703;  -76.000; -152.000;   13.000
441.826; -194.000; -557.000; -400.000
441.948;  -13.400;   56.000;   51.000
442.071;  101.000;  555.000;  424.000
442.193; -163.500; -531.000; -485.000
442.316;   62.100;  152.000;   97.000
442.438;   76.400; -233.000;  -10.000
442.561;  137.100;  272.000;  262.000
442.683;  746.600; -809.000; -522.000
442.806; 1501.000;   -8.000;   74.000
442.928;  -36.000; -859.000; -604.000
443.051; -116.000; -577.000; -373.000
443.173; -121.100; -341.000; -339.000
443.295; -134.000; -263.000; -371.000
443.418;  -88.700; -321.000;  -29.000
443.540;    1.600; -106.000;   -4.000
443.662; -183.200; -563.000; -465.000
443.785;   39.300;  335.000;  199.000
443.907; -168.000; -362.000; -208.000
444.029; -218.600; -767.000; -494.000
444.152; -224.000; -644.000; -554.000
444.274;   -4.700;  -18.000;  -24.000
444.396; -169.300; -461.000; -221.000
444.518; -210.400; -691.000; -454.000
444.640; -136.300; -268.000; -111.000
444.763;    6.200;  388.000;  249.000
444.885; -207.100; -432.000; -392.000
445.007;  -52.500;   35.000;   86.000
445.129; -169.800; -610.000; -515.000
445.251; -146.200; -372.000; -439.000
445.373; -250.100; -537.000; -386.000
445.495;   50.600;  242.000;  350.000
445.617;  168.300;  853.000;  753.000
445.739;  -91.600; -215.000;  -97.000
445.861;  -49.700; -245.000; -112.000
445.984;  -43.800; -267.000; -101.000
446.105;  277.500; -418.000; -251.000
446.227;  824.300; -176.000;  -19.000
446.349;  -25.200; -358.000; -249.000
446.471; -183.600; -615.000; -448.000
446.593;  -82.800; -316.000;   19.000
446.715;   -2.600;  -67.000;   41.000
446.837;  174.100;  697.000;  832.000
446.959; -169.300; -457.000; -478.000
447.081; -223.700; -628.000; -518.000
447.203;  166.400;  862.000;  834.000
447.325; -135.000; -270.000;   42.000
447.446;   31.500;  286.000;  530.000
447.568; -267.700; -921.000; -803.000
447.690; -117.000; -236.000; -245.000
447.812; -234.000; -798.000; -519.000
447.933;    4.100;  155.000;  127.000
448.055;  -79.800; -306.000; -261.000
448.177;  257.400;   31.000;   79.000
448.299;   44.300; -935.000; -727.000
448.420;   65.900;  -25.000;  159.000
448.542;  -39.900;   -3.000;   33.000
448.664;    2.500;  109.000;  322.000
448.785;    9.100;  265.000;   83.000
448.907; -129.200; -614.000; -353.000
449.028; -104.200; -771.000; -471.000
449.150;  157.500;  492.000;  589.000
449.272; -306.900;-1044.000; -913.000
449.393;   71.600;  612.000;  694.000
449.515; -233.500; -634.000; -581.000
449.636;  -75.700; -264.000; -155.000
449.758;  197.100;  763.000;  622.000
449.879; -170.700; -498.000; -396.000
450.001;  -97.300; -149.000;  -49.000
450.122;  -29.800;  -95.000;  162.000
450.244;    7.900;   37.000;  364.000
450.365; -150.800; -495.000; -301.000
450.486;   -0.500;   80.000;  268.000
450.608;   66.400;  393.000;  326.000
450.729;  177.000;  578.000;  645.000
450.850;  -52.000; -574.000; -466.000
450.972;  934.200; -552.000; -389.000
451.093; 6314.300;  190.000;  588.000
451.214; 2318.300; -516.000; -337.000
451.336;  555.400;  773.000;  579.000
451.457;  177.400;  264.000;  393.000
451.578;  -35.100; -118.000;  -74.000
451.699; -182.700; -546.000; -540.000
451.821;  -89.800; -284.000;  -50.000
451.942;   39.300;  278.000;  285.000
452.063;   87.200;  228.000;  419.000
452.184;  795.800;  -54.000;  -49.000
452.305; 1340.800;  103.000;  170.000
452.427;  109.900; -549.000; -301.000
452.548;  -26.400;   23.000;   79.000
452.669;  -24.400; -257.000;  -89.000
452.790;  -77.100;    3.000;  -18.000
452.911;   68.800;  195.000;  259.000
453.032;  -78.300; -289.000;  -60.000
453.153;  -40.300;  -29.000;   81.000
453.274;  203.500;  737.000;  868.000
453.395;  -43.400;  -51.000;  175.000
453.516;  294.900; 1317.000; 1388.000
453.637;  -81.200; -205.000; -150.000
453.758;  -70.500;   15.000;   69.000
453.879; -176.100; -462.000; -250.000
454.000;  199.800; 1086.000;  948.000
454.121; -180.300; -554.000; -326.000
454.242; -207.800; -599.000; -383.000
454.362;  -36.300;  -99.000;  114.000
454.483;  -33.600; -309.000; -229.000
454.604;  125.000;  512.000;  580.000
454.725; -226.900; -627.000; -555.000
454.846; -218.000; -474.000; -406.000
454.967;   -3.300;  230.000;  539.000
455.087;  -29.100;  179.000;  153.000
455.208;  119.600;  554.000;  856.000
455.329;  -43.800;  -22.000;   82.000
455.450;  137.200;  473.000;  633.000
455.570;  -93.400; -234.000; -211.000
455.691;  -51.100;  201.000;  407.000
455.812; -168.800; -270.000;  -92.000
455.932;  -56.500;  107.000;  -97.000
456.053; -106.300;   36.000;   24.000
456.173; -173.400; -433.000; -355.000
456.294; -203.300; -476.000; -303.000
456.415;  -62.100;  -73.000;   70.000
456.535;  -28.600;  297.000;  273.000
456.656;  -55.600;  132.000;  240.000
456.776;  -65.600;    3.000;  298.000
456.897;   43.500;  308.000;  513.000
457.017;  -84.700; -153.000;   -3.000
457.138; -169.900; -402.000; -249.000
457.258;   19.200;  263.000;  224.000
457.379;   32.000;  509.000;  521.000
457.499;   37.600;  443.000;  432.000
457.620; -190.500; -407.000; -231.000
457.740; -108.400; -132.000;  -11.000
457.860;  -64.200;   87.000;   44.000
457.981;  -55.500;  132.000;  124.000
458.101; -117.100;  -89.000;   40.000
458.221;   21.800;  336.000;  402.000
458.342;  -66.700;   -4.000;  -37.000
458.462;   98.600;  617.000;  352.000
458.582;  -72.500; -302.000; -294.000
458.703;   78.600;  303.000;  154.000
458.823;  -43.600;   22.000;  163.000
458.943;   55.200;  341.000;  467.000
459.063;   -1.000; 1124.000;  192.000
459.183;   33.400;  328.000;  313.000
459.304;   46.700;  315.000;  517.000
459.424;  -91.300; -246.000;  -89.000
459.544;  551.100;  388.000;  764.000
459.664; 1114.900;  499.000;  506.000
459.784;  468.100; 1004.000; 1175.000
459.904;  177.500;  867.000;  744.000
460.024;  201.300;  867.000;  684.000
460.144;   50.900;  449.000;  554.000
460.264;   40.500;  515.000;  327.000
460.385; -132.800; -145.000; -119.000
460.505;  154.200;  905.000;  858.000
460.625; -112.400;  -17.000;  -68.000
460.745;   18.700;  396.000;  541.000
460.864;  -26.000;  153.000;  469.000
460.984;   57.400;  499.000;  573.000
461.104;  320.100; 1656.000; 1775.000
461.224;  115.300;  657.000;  650.000
461.344;  -17.900;  431.000;  360.000
461.464;  -14.200;  258.000;  513.000
461.584;   30.300;  283.000;  466.000
461.704;  -58.400;   58.000;  108.000
461.824;  -56.600;  238.000;  259.000
461.943;  -46.900;  191.000;  130.000
462.063;  -74.300;    2.000;  324.000
462.183;  112.700;  639.000;  717.000
462.303;  282.600; 1678.000; 1230.000
462.422;  101.200;  781.000;  840.000
462.542;   -1.200;  271.000;  391.000
462.662;   85.800;  353.000;  380.000
462.782;  368.200;  833.000;  572.000
462.901;  638.200;  545.000;  717.000
463.021;  497.500; 1702.000; 1638.000
463.141;   34.700;  337.000;  770.000
463.260;   44.100;  614.000;  474.000
463.380;   87.300;  902.000;  884.000
463.499;   11.200;  342.000;  332.000
463.619;   -0.800;  581.000;  559.000
463.738;  299.600; 1644.000;  903.000
463.858;   49.700;  657.000;  811.000
463.978;    7.700;  542.000;  396.000
464.097;  133.300;  921.000; 1114.000
464.217;  278.600; 1196.000; 1143.000
464.336;  253.300; 1068.000; 1130.000
464.455;   34.600;  328.000;  659.000
464.575;  108.600;  597.000;  602.000
464.694;  349.100; 1204.000; 1179.000
464.814;  286.900; 1190.000; 1138.000
464.933;  198.900; 1095.000; 1027.000
465.052;  257.500; 1412.000; 1054.000
465.172;  149.100;  922.000;  799.000
465.291;  312.200; 1376.000; 1320.000
465.410;   72.000;  462.000;  735.000
465.530;  202.400; 1355.000; 1310.000
465.649;  228.300; 1209.000; 1273.000
465.768;  340.900; 1673.000; 1508.000
465.888;  156.100;  941.000; 1174.000
466.007;  251.000; 1335.000; 1440.000
466.126;   91.900;  721.000;  641.000
466.245;  135.300; 1176.000; 1187.000
466.364;  107.300;  950.000; 1060.000
466.484;  183.700; 1024.000; 1213.000
466.603;  135.900; 1101.000; 1222.000
466.722;  281.300; 1490.000; 1769.000
466.841;  223.100; 1151.000; 1401.000
466.960;  138.200; 1069.000;  972.000
467.079;  339.100; 1971.000; 1786.000
467.198;  176.800; 1238.000; 1181.000
467.317;  249.400; 1768.000; 1162.000
467.436;  223.300; 1709.000; 1261.000
467.555;  361.100; 1796.000; 1746.000
467.674;  199.600; 1227.000; 1329.000
467.793;  190.800; 1376.000; 1374.000
467.912;  222.500; 1658.000; 1539.000
468.031;  380.900; 2038.000; 1930.000
468.150;  327.900; 1842.000; 1837.000
468.269;  493.100; 2313.000; 2090.000
468.388;  463.100; 2168.000; 2339.000
468.507;  588.700; 2884.000; 2903.000
468.626;  646.700; 2555.000; 2541.000
468.744;  371.600; 2018.000; 2174.000
468.863;  455.200; 2312.000; 2523.000
468.982;  288.700; 1503.000; 1555.000
469.101;  523.800; 2788.000; 2692.000
469.220;  367.400; 2333.000; 2176.000
469.338;  531.200; 2935.000; 3051.000
469.457;  435.600; 2719.000; 2545.000
469.576;  762.300; 3953.000; 3784.000
469.695;  554.400; 2877.000; 3066.000
469.813;  940.900; 4148.000; 4192.000
469.932;  880.200; 4255.000; 4485.000
470.051;  896.000; 4075.000; 4161.000
470.169; 1494.900; 4470.000; 4338.000
470.288; 2209.600; 4700.000; 4809.000
470.406; 1496.100; 5059.000; 5194.000
470.525; 1243.600; 6101.000; 5787.000
470.644; 1362.500; 6847.000; 6794.000
470.762; 1705.100; 8397.000; 7873.000
470.881; 1922.600; 8651.000; 8464.000
470.999; 2071.600; 9685.000; 9151.000
471.118; 2317.600;11174.000;10711.000

