
Integration time [ms]: 100.000
Averaging Nr. [scans]: 40
Smoothing Nr. [pixels]: 0
Data measured with spectrometer [name]: 2101012U2
Wave   ;Sample   ;Dark     ;Reference
[nm]   ;[counts] ;[counts] ;[counts] 

197.733;   71.025;  516.000;  404.000
197.879;  -85.850; -610.000; -634.000
198.025;  -58.175; -475.000; -420.000
198.171;  -76.000; -602.000; -612.000
198.317;  -20.050; -401.000; -316.000
198.463;  -73.775; -655.000; -404.000
198.609;   22.925;  181.000; -137.000
198.755;  -89.525; -644.000; -410.000
198.901;  -61.075; -505.000; -424.000
199.047;  -61.200; -615.000; -488.000
199.193;  -26.575; -230.000; -468.000
199.339;  -55.100; -222.000; -369.000
199.485;   44.400;  330.000;  271.000
199.631;   12.875;  227.000;  310.000
199.777;  -60.425; -466.000; -398.000
199.923;  -63.450; -610.000; -424.000
200.069;    2.425; -141.000;  -58.000
200.215;   57.425;  128.000;  453.000
200.361;   56.425;  243.000;  477.000
200.507;  -66.075; -600.000; -373.000
200.653;  -16.025; -371.000; -194.000
200.798;  -24.900; -215.000; -125.000
200.944;    3.975; -146.000;  -41.000
201.090;   38.100;   61.000;  222.000
201.236;    1.500; -116.000; -158.000
201.382;  125.125;  874.000;  903.000
201.528;    4.425;  -58.000;  -48.000
201.674;  -61.150; -386.000; -293.000
201.819;  -81.850; -540.000; -439.000
201.965;  -59.025; -699.000; -447.000
202.111;  -22.875; -273.000; -226.000
202.257;  -32.475; -250.000; -238.000
202.402;    9.075;   13.000;  -36.000
202.548;  -32.475; -169.000; -116.000
202.694;   94.775;  410.000; -183.000
202.840;  -80.850; -603.000; -531.000
202.985;  -77.600; -681.000; -639.000
203.131; -105.450; -832.000; -666.000
203.277;  -17.025; -199.000; -262.000
203.423;  -54.200; -434.000; -520.000
203.568;  -38.550; -462.000; -237.000
203.714;  -57.450; -535.000; -542.000
203.860;  -80.825; -682.000; -641.000
204.005;    3.375;  112.000;  167.000
204.151;   75.325;  561.000;  556.000
204.296;  -40.075; -354.000; -221.000
204.442;  -74.175; -600.000; -547.000
204.588;  -82.000; -592.000; -579.000
204.733;   23.400;  178.000;  168.000
204.879; -131.750;-1018.000; -822.000
205.025;   -1.300;  -99.000;  126.000
205.170;   -6.550;  -17.000;   94.000
205.316;   72.400;  438.000;  661.000
205.461;  -85.425; -698.000; -554.000
205.607;   88.675;  609.000;  665.000
205.752;  -72.100; -626.000; -551.000
205.898;  -54.875; -501.000; -391.000
206.043;  -67.325; -578.000; -506.000
206.189;  -30.650; -243.000; -285.000
206.334;   93.675;  554.000;  606.000
206.480;   86.350;  409.000;  239.000
206.625;  -78.650; -529.000; -552.000
206.771;  -30.175; -451.000; -373.000
206.916;  -43.275; -210.000; -537.000
207.062;  -70.300; -545.000; -591.000
207.207;  -51.325; -546.000; -443.000
207.353;   47.000;  185.000;  460.000
207.498;   19.300;  196.000;   85.000
207.643;  -58.175; -501.000; -370.000
207.789; -128.575;-1069.000; -910.000
207.934;  -87.650; -665.000; -713.000
208.080;  -35.725; -154.000;   66.000
208.225;    3.075;  -22.000;  -57.000
208.370;  -89.450; -727.000; -619.000
208.516;  -81.975; -741.000; -487.000
208.661;  -43.175; -127.000;  -69.000
208.806;  -15.450; -165.000; -171.000
208.952; -127.500;-1044.000; -731.000
209.097;   73.775;  378.000;  349.000
209.242;  -41.900; -307.000; -382.000
209.387;   58.025;  392.000;  350.000
209.533;  -55.150; -321.000; -350.000
209.678;   88.200;  472.000;  543.000
209.823;  -56.000; -408.000; -310.000
209.969;  -95.025; -860.000; -757.000
210.114; -108.625; -907.000; -719.000
210.259; -108.375; -939.000; -889.000
210.404;   -3.600; -171.000;  103.000
210.549;   11.450;  108.000;    3.000
210.695;  -27.250;   -3.000;  -95.000
210.840;   43.525;   94.000;   67.000
210.985;  -64.925; -484.000; -303.000
211.130;   64.425;  268.000;  406.000
211.275;   15.150;  207.000;  199.000
211.420;  -35.525; -300.000; -289.000
211.566;  -71.000; -536.000; -489.000
211.711;    8.225;  218.000;  157.000
211.856;  -68.900; -545.000; -519.000
212.001;   16.225;  151.000;   44.000
212.146;   33.875;  153.000;   49.000
212.291;  -14.725; -210.000; -186.000
212.436;  -24.250; -280.000;   -6.000
212.581;  -84.200; -685.000; -653.000
212.726;  -76.825; -487.000; -538.000
212.871;  -54.075; -552.000; -217.000
213.016; -153.075;-1172.000;-1029.000
213.161;   55.000;  406.000;  291.000
213.306;  -78.625; -435.000; -577.000
213.451;  -98.600; -778.000; -689.000
213.596;  -58.125; -455.000; -347.000
213.741;  -52.250; -448.000; -538.000
213.886;  -78.625; -498.000; -517.000
214.031;  -21.600; -294.000; -124.000
214.176;  -51.025; -408.000; -341.000
214.321;   -8.350; -296.000; -157.000
214.466;  -21.775; -163.000;  -43.000
214.611;   -8.575;  -61.000;  -10.000
214.756; -118.175; -948.000; -858.000
214.901;  -10.450; -388.000; -226.000
215.046; -122.975; -797.000; -825.000
215.191;   15.100;  128.000;   35.000
215.336;  -13.150; -157.000;  -19.000
215.480;  -50.150; -684.000; -505.000
215.625;  -15.825; -175.000;  -19.000
215.770;  -90.850; -757.000; -662.000
215.915;  -30.850;   -5.000;  -97.000
216.060;   -2.900; -113.000;  -21.000
216.205; -106.675; -731.000; -779.000
216.349;  -76.550; -470.000; -533.000
216.494; -138.900; -939.000; -867.000
216.639; -109.150; -823.000; -888.000
216.784;  -85.375; -577.000; -525.000
216.929;   41.350;  392.000;  281.000
217.073;  -14.425; -244.000;  -31.000
217.218;   14.400;   78.000;  -47.000
217.363;  -84.125; -656.000; -618.000
217.507;  -88.900; -623.000; -588.000
217.652; -133.075; -845.000; -874.000
217.797;  -90.025; -708.000; -659.000
217.942; -117.075; -856.000; -720.000
218.086;   73.000;  608.000;  539.000
218.231;   -9.300; -174.000;  -26.000
218.376;  -26.000; -337.000; -229.000
218.520;   12.400;  -41.000;   96.000
218.665;  -14.900; -338.000; -204.000
218.810;  -46.525; -275.000; -233.000
218.954;    8.725;  201.000;   35.000
219.099; -107.000; -713.000; -963.000
219.243;  -64.000; -589.000; -554.000
219.388;  -39.375; -264.000; -136.000
219.532;   -0.525; -116.000; -116.000
219.677;  -87.450; -564.000; -521.000
219.822;    6.150;   33.000;   89.000
219.966;    3.625;   17.000;  -99.000
220.111;  -41.225; -328.000;  -40.000
220.255;  -96.125; -797.000; -750.000
220.400;  -22.300; -180.000; -146.000
220.544;  -65.725; -516.000; -450.000
220.689;  -52.900; -422.000; -451.000
220.833;  -22.325; -123.000;  -58.000
220.978;  -50.425; -393.000; -563.000
221.122;   14.475;  319.000;  307.000
221.267; -106.000; -906.000; -837.000
221.411;  -85.825; -478.000; -394.000
221.555;   -6.950; -104.000;  -23.000
221.700;  -43.700; -329.000; -222.000
221.844;   45.425;  255.000;  272.000
221.989;  -30.425; -328.000; -311.000
222.133;  -26.300; -289.000; -307.000
222.277;  -17.200;    5.000;   78.000
222.422;   27.500;  227.000;  113.000
222.566;  -37.000; -381.000; -214.000
222.711;  -71.800; -414.000; -479.000
222.855;  -81.050; -643.000; -586.000
222.999;  -88.700; -642.000; -717.000
223.144;  -19.700; -195.000; -194.000
223.288;   54.850;  423.000;  251.000
223.432;   31.825;  184.000;  230.000
223.576;   15.400;  152.000;  -21.000
223.721;   37.700;  364.000;  273.000
223.865;  -51.900; -472.000; -475.000
224.009;  260.675; 1673.000; 1631.000
224.153;  -80.775; -660.000; -671.000
224.298;  -70.725; -531.000; -489.000
224.442;  -27.850;  -74.000;  -33.000
224.586;  -16.400; -169.000; -106.000
224.730; -113.000; -858.000; -670.000
224.875; -115.900; -739.000; -688.000
225.019;   10.575;  102.000;  188.000
225.163;   63.775;  208.000;  341.000
225.307;   24.175;   97.000;  -91.000
225.451;   54.475;  360.000;  481.000
225.595;   28.100;  264.000;  176.000
225.739;   -9.800; -170.000;  -94.000
225.884;   14.175;   86.000;    5.000
226.028; -106.550; -760.000; -626.000
226.172;  -25.575; -260.000; -273.000
226.316; -120.700; -941.000; -902.000
226.460;  -69.725; -645.000; -493.000
226.604;  -53.475; -406.000; -400.000
226.748;  -99.525; -836.000; -733.000
226.892;  -30.700; -227.000; -181.000
227.036;  -51.450; -537.000; -447.000
227.180;  -62.275; -551.000; -375.000
227.324;  -63.350; -561.000; -580.000
227.468; -118.775; -819.000; -717.000
227.612;    9.850;  242.000;  -28.000
227.756; -119.375; -845.000; -698.000
227.900;   46.150;  342.000;  441.000
228.044;  -55.900; -509.000; -290.000
228.188;   54.150;  448.000;  568.000
228.332;  -75.275; -546.000; -472.000
228.476;  -21.600; -223.000; -149.000
228.620;  -33.050; -210.000; -150.000
228.764;   56.600;  431.000;  349.000
228.908;    0.375; -155.000;   30.000
229.052;  -62.775; -615.000; -528.000
229.195;   -9.850; -172.000;   13.000
229.339;  -20.200; -235.000; -305.000
229.483;  -26.925;    5.000; -162.000
229.627;   -6.700; -156.000;  139.000
229.771;  -44.050; -218.000; -294.000
229.915;   16.850;  230.000;   79.000
230.059; -101.325; -648.000; -663.000
230.202;  -50.850; -370.000; -317.000
230.346;  -32.300; -107.000;  107.000
230.490;  -55.625; -489.000; -521.000
230.634; -117.725; -736.000; -553.000
230.777;   75.200;  478.000;  509.000
230.921;  -51.275; -450.000; -359.000
231.065;  -37.250; -246.000; -286.000
231.209;   32.200;  261.000;  265.000
231.352;   28.200;   54.000;   40.000
231.496;   24.925;  568.000;  188.000
231.640;  -80.225; -693.000; -621.000
231.783;   61.000;  546.000;  525.000
231.927;  -42.900; -294.000; -365.000
232.071; -118.625; -962.000; -736.000
232.214; -108.000; -980.000; -764.000
232.358; -116.450; -683.000; -599.000
232.502;    8.450;  -19.000;    7.000
232.645; -134.250;-1090.000; -927.000
232.789;  -10.025; -257.000; -218.000
232.933;  -52.000; -407.000; -224.000
233.076; -131.200;-1038.000; -897.000
233.220; -114.525; -752.000; -777.000
233.363;  -77.275; -669.000; -477.000
233.507;   50.550;  371.000;  129.000
233.650;  -99.275; -764.000; -834.000
233.794;   39.025;  438.000;  461.000
233.938;  -57.275; -530.000; -362.000
234.081;  -21.550;  -93.000;   31.000
234.225;  -74.400; -631.000; -539.000
234.368; -115.000; -773.000; -723.000
234.512;  -48.300; -385.000; -299.000
234.655;  -95.825; -582.000; -555.000
234.798;  -56.250; -493.000; -466.000
234.942; -133.900; -884.000;-1002.000
235.085;  -75.750; -651.000; -443.000
235.229;  -72.450; -405.000; -410.000
235.372;  -50.025; -247.000; -191.000
235.516;  -63.450; -397.000; -321.000
235.659;   14.500;   92.000;  121.000
235.802;  -17.750;  -38.000;  -22.000
235.946;   31.550;  335.000;  215.000
236.089;   24.300;  126.000;  250.000
236.233;   63.975;  275.000;  298.000
236.376;  -48.450; -235.000; -378.000
236.519;  -39.450; -297.000; -319.000
236.663;  -26.450; -215.000; -117.000
236.806; -138.275;-1029.000; -999.000
236.949;   59.950;  543.000;  431.000
237.092;   62.500;  412.000;  391.000
237.236;  -95.625; -589.000; -502.000
237.379;   73.500;  352.000;  428.000
237.522; -113.975; -879.000; -768.000
237.666;  -17.925; -271.000;   18.000
237.809; -133.675; -851.000; -823.000
237.952;   26.175;  469.000;  271.000
238.095;  -79.550; -447.000; -442.000
238.238;   80.100;  688.000;  700.000
238.382;  -10.700;  166.000;  103.000
238.525;  -89.100; -598.000; -511.000
238.668; -149.750;-1060.000; -985.000
238.811;  -78.825; -638.000; -643.000
238.954;  -63.375; -483.000; -334.000
239.097;  102.375;  617.000;  664.000
239.241;   15.750;  394.000;  326.000
239.384;  -38.100; -254.000; -214.000
239.527;  -66.350; -424.000; -224.000
239.670; -142.875; -994.000;-1091.000
239.813; -120.375; -696.000; -658.000
239.956;   70.950;  579.000;  473.000
240.099; -116.150; -778.000; -725.000
240.242;   60.875;  428.000;  432.000
240.385;   42.650;  466.000;  450.000
240.528;  -82.875; -706.000; -473.000
240.671;   10.275;  189.000;  134.000
240.814;  -34.225; -441.000; -158.000
240.957;  -97.525; -767.000; -578.000
241.100;  -99.875; -779.000; -755.000
241.243; -154.925;-1234.000; -893.000
241.386;  -77.050; -508.000; -379.000
241.529;  -84.575; -735.000; -547.000
241.672;  -58.325; -566.000; -495.000
241.815; -120.450; -832.000; -808.000
241.958;  -21.850; -125.000; -182.000
242.101;  -74.125; -545.000; -390.000
242.244;  -40.050; -270.000; -325.000
242.387;  -38.475; -304.000; -246.000
242.530;   68.150;  470.000;  134.000
242.673;  -51.375; -381.000; -309.000
242.815; -122.600; -925.000; -899.000
242.958;  -65.075; -482.000; -381.000
243.101;   16.025;  132.000;  187.000
243.244;  -87.125; -564.000; -521.000
243.387;  -50.475; -313.000; -316.000
243.530;  -97.750; -657.000; -674.000
243.672;    5.050;   43.000;  -92.000
243.815;  -64.400; -355.000; -283.000
243.958;   -1.850;   98.000;  -26.000
244.101;   -3.600;   59.000;  -16.000
244.243;  -12.375;  -47.000;  101.000
244.386; -119.150; -761.000; -630.000
244.529;  -35.200; -132.000; -139.000
244.672; -140.700;-1154.000; -951.000
244.814; -107.125; -621.000; -794.000
244.957;  -52.200; -380.000; -304.000
245.100;  -67.800; -489.000; -489.000
245.242;  -59.000; -387.000; -374.000
245.385;   -6.925;  -59.000;  -39.000
245.528; -123.675; -871.000; -705.000
245.670;   91.400;  612.000;  634.000
245.813;  -84.075; -599.000; -547.000
245.956;  -30.700; -324.000; -275.000
246.098;  -67.575; -508.000; -650.000
246.241;  -14.975;  194.000;   48.000
246.383;  -28.875; -119.000;  -73.000
246.526;  -77.075; -454.000; -525.000
246.669; -112.125; -889.000; -780.000
246.811;   16.000;  172.000;   -1.000
246.954;  -62.275; -512.000; -426.000
247.096;  -26.475;  -84.000;   -6.000
247.239;  -69.750; -482.000; -445.000
247.381;  -81.200; -647.000; -488.000
247.524;   74.100;  645.000;  679.000
247.666;   -3.925;   58.000;   11.000
247.809; -112.425; -887.000; -691.000
247.951;   -0.150;  -75.000;  138.000
248.094;   24.350;  432.000;  308.000
248.236; -159.475;-1262.000;-1238.000
248.378;   -2.825; -356.000;  -81.000
248.521;  -30.350; -334.000; -337.000
248.663;  -45.075; -236.000; -267.000
248.806;  -21.375; -300.000; -266.000
248.948;  -91.800; -886.000; -763.000
249.090;  -45.500; -428.000; -398.000
249.233;  -55.325; -344.000; -381.000
249.375;  -71.025; -474.000; -451.000
249.518;  -25.975;  -83.000; -133.000
249.660;   -2.875; -103.000;    3.000
249.802; -166.000;-1303.000;-1189.000
249.945;  -78.600; -612.000; -540.000
250.087; -124.800; -834.000; -768.000
250.229;  -50.275; -362.000; -480.000
250.371;  -81.100; -494.000; -439.000
250.514;  -51.100; -310.000; -244.000
250.656;   -3.925;   69.000;  102.000
250.798; -121.700; -849.000; -800.000
250.940;  -56.525; -322.000; -322.000
251.083;  -20.575; -335.000; -111.000
251.225;   46.275;  338.000;  310.000
251.367;  -37.625; -274.000; -373.000
251.509;  -44.825; -265.000; -210.000
251.651; -101.925; -731.000; -671.000
251.794;   50.350;  538.000;  632.000
251.936; -109.975; -821.000; -747.000
252.078;  -81.250; -540.000; -461.000
252.220;  -76.450; -645.000; -477.000
252.362;   83.450;  344.000;  462.000
252.504;  -53.650; -677.000; -584.000
252.646; -117.875; -875.000; -722.000
252.788;   -2.575;   14.000; -128.000
252.931;  -55.425; -257.000; -253.000
253.073;  -39.850; -376.000; -317.000
253.215;   -0.475;  141.000;  122.000
253.357;  -16.500;   82.000; -153.000
253.499;  -65.100; -374.000; -234.000
253.641;  -70.425; -749.000; -594.000
253.783; -101.050; -609.000; -527.000
253.925;  -94.575; -586.000; -591.000
254.067; -123.225; -744.000; -667.000
254.209;  -38.475; -391.000; -259.000
254.351; -138.675; -865.000; -883.000
254.493;  -54.725; -441.000; -417.000
254.635; -124.150; -936.000; -818.000
254.777;  -83.625; -752.000; -687.000
254.918;  -80.275; -512.000; -430.000
255.060;  -65.825; -551.000; -395.000
255.202;  -52.875; -473.000; -261.000
255.344;  -80.025; -658.000; -455.000
255.486;  -76.925; -471.000; -406.000
255.628;  -98.625; -780.000; -781.000
255.770;  -92.075; -676.000; -536.000
255.912;  -67.000; -559.000; -468.000
256.053;  -87.675; -730.000; -508.000
256.195;  158.250; 1008.000;  903.000
256.337; -109.850; -861.000; -595.000
256.479;   73.100;  532.000;  416.000
256.621;  -51.150; -394.000; -212.000
256.762;  -91.325; -789.000; -742.000
256.904;   43.550;  485.000;  487.000
257.046;  -45.000; -381.000; -271.000
257.188;  -49.150; -351.000; -264.000
257.329;  -66.650; -525.000; -464.000
257.471; -134.500; -939.000; -807.000
257.613;  -60.125; -584.000; -498.000
257.755; -152.325;-1073.000; -982.000
257.896;   26.675;  286.000;  392.000
258.038;  -64.550; -403.000; -352.000
258.180;  -55.150; -354.000; -279.000
258.321;  -92.850; -581.000; -457.000
258.463;   -4.125;  -71.000;  133.000
258.605;  -93.700; -562.000; -570.000
258.746;  -95.425; -886.000; -772.000
258.888; -159.050;-1026.000;-1020.000
259.029;   13.000;  121.000;   -8.000
259.171;  -86.600; -614.000; -550.000
259.313;  -11.000;  -49.000;  -47.000
259.454;  -81.700; -536.000; -414.000
259.596;  -46.900; -483.000; -390.000
259.737;  -82.750; -590.000; -474.000
259.879;   38.650;  217.000;  311.000
260.020;   94.150;  901.000;  636.000
260.162;  -33.225; -146.000; -253.000
260.303; -130.425; -768.000; -687.000
260.445;  -91.275; -609.000; -613.000
260.586;   26.250;  392.000;  157.000
260.728;  -54.950; -360.000; -248.000
260.869;  -76.625; -350.000; -343.000
261.011;   91.250;  706.000;  537.000
261.152;  -61.175; -479.000; -319.000
261.293;  -68.150; -576.000; -595.000
261.435;  -37.725; -219.000; -184.000
261.576;  -60.850; -455.000; -325.000
261.718;   51.050;  420.000;  470.000
261.859; -132.900; -940.000; -949.000
262.000; -133.275; -951.000;-1016.000
262.142;  -10.575;  -52.000;  -60.000
262.283; -127.175; -808.000; -691.000
262.424;  -90.525; -666.000; -625.000
262.566; -160.500;-1161.000; -983.000
262.707; -113.875; -840.000; -830.000
262.848; -123.900; -769.000; -726.000
262.990;  -48.575; -362.000; -345.000
263.131;   91.250;  650.000;  681.000
263.272;    2.100;  -61.000;  -41.000
263.413;  -84.625; -589.000; -561.000
263.555;  -72.450; -669.000; -143.000
263.696;  -81.275; -550.000; -641.000
263.837;  -71.600; -449.000; -551.000
263.978;  -11.650;   -5.000;  -77.000
264.119;  -46.425; -283.000; -264.000
264.261; -117.575; -847.000; -630.000
264.402;  -18.300;   33.000;   40.000
264.543;  -85.075; -509.000; -524.000
264.684;  -18.300;   61.000;  -50.000
264.825;  -74.650; -816.000; -538.000
264.966;   -6.700;  -84.000;  -67.000
265.107; -116.775; -646.000; -670.000
265.248; -121.600; -825.000; -812.000
265.390;  -15.975;  152.000;   -9.000
265.531;  -22.475; -238.000; -107.000
265.672;  -85.725; -557.000; -630.000
265.813;   55.625;  563.000;  439.000
265.954; -154.325; -959.000; -940.000
266.095;  -13.600; -372.000; -322.000
266.236;  -88.675; -686.000; -548.000
266.377;  -50.725; -243.000; -297.000
266.518;  -77.550; -619.000; -547.000
266.659;   33.525;  170.000;  268.000
266.800;    7.325;   83.000;   85.000
266.941;  -79.000; -487.000; -478.000
267.082;   11.150;  354.000;   99.000
267.223;  -50.375; -344.000; -273.000
267.364; -118.275; -892.000; -686.000
267.504;  -11.425;    3.000;  135.000
267.645;   -5.550;  160.000;   67.000
267.786;  -41.850; -147.000;  -86.000
267.927;  -82.850; -473.000; -379.000
268.068;  -16.350; -186.000;  -61.000
268.209;  -50.575; -175.000; -413.000
268.350;  -61.275; -388.000; -532.000
268.490;  -86.125; -648.000; -521.000
268.631;   29.275;  127.000;  225.000
268.772; -112.225; -874.000; -647.000
268.913;  -40.875; -328.000; -476.000
269.054;  -22.900; -117.000;   12.000
269.194;  -54.400; -418.000; -402.000
269.335; -160.150;-1137.000;-1074.000
269.476;  -12.925;   33.000;  -35.000
269.617;  -53.950; -347.000; -392.000
269.757;  -82.875; -713.000; -646.000
269.898; -118.100; -856.000; -613.000
270.039;  -61.075; -415.000; -405.000
270.180; -143.625; -952.000; -816.000
270.320;  -31.925; -190.000; -250.000
270.461;  -38.325; -277.000; -249.000
270.602;  -27.650; -186.000; -156.000
270.742; -131.275; -868.000; -943.000
270.883;  -62.050; -442.000; -390.000
271.023;  -65.975; -358.000; -357.000
271.164;  -86.625; -607.000; -528.000
271.305; -106.475; -666.000; -654.000
271.445;  -87.800; -722.000; -683.000
271.586;  -72.025; -462.000; -283.000
271.726;  -35.725; -397.000; -322.000
271.867;  -69.750; -594.000; -534.000
272.008;  181.125; -473.000; -285.000
272.148;  132.025;  462.000;  468.000
272.289;   15.050; -113.000; -181.000
272.429;   13.875;   19.000;  185.000
272.570;  -82.850; -633.000; -737.000
272.710; -104.300; -825.000; -775.000
272.851;  -15.500;  113.000; -130.000
272.991; -168.725;-1173.000;-1077.000
273.131;  -69.200; -419.000; -459.000
273.272;  -99.900; -683.000; -723.000
273.412;   13.250; -143.000;  -31.000
273.553;  -55.750; -488.000; -507.000
273.693;  138.550;  913.000;  858.000
273.834; -100.150; -894.000; -692.000
273.974;  -80.300; -664.000; -615.000
274.114; -107.875; -772.000; -560.000
274.255;   76.675;  414.000;  373.000
274.395;    8.125; -180.000; -125.000
274.535;   53.000;  199.000;  350.000
274.676;   19.850;  225.000;   94.000
274.816;   -1.175;  110.000;   34.000
274.956;  -80.550; -624.000; -690.000
275.097;  -66.625;-1014.000; -922.000
275.237; -106.600; -913.000; -803.000
275.377; -100.925; -778.000; -689.000
275.517; -155.400; -878.000; -937.000
275.658;  -64.000; -590.000; -555.000
275.798;  -70.500; -606.000; -413.000
275.938;   22.450;  215.000;  323.000
276.078; -108.825; -626.000; -395.000
276.218;   10.175;   99.000;  104.000
276.359; -140.550;-1026.000;-1024.000
276.499;  -71.750; -605.000; -446.000
276.639;  -28.350; -305.000; -151.000
276.779;  -52.925; -475.000; -357.000
276.919; -106.500; -783.000; -624.000
277.059;  -13.125; -261.000; -212.000
277.199;  -40.225; -357.000; -259.000
277.340;   42.900;  287.000;  175.000
277.480; -104.575; -840.000; -693.000
277.620;   31.050;  192.000;   16.000
277.760; -200.225;-1533.000;-1294.000
277.900;    3.525;  113.000;   33.000
278.040;    3.250;  137.000;  159.000
278.180;   31.400;  270.000;  170.000
278.320;  -14.225;   21.000;   56.000
278.460;  -64.700; -443.000; -469.000
278.600;  -79.825; -708.000; -598.000
278.740;   62.175;  448.000;  224.000
278.880;  -60.025; -768.000; -791.000
279.020;    2.575; -194.000; -144.000
279.160; -100.575; -672.000; -595.000
279.300; -111.900; -926.000; -873.000
279.440;  -80.750; -709.000; -622.000
279.579;  -18.950;-1014.000; -929.000
279.719;  -54.425; -410.000; -394.000
279.859;   77.200;   -4.000;   41.000
279.999;   32.200; -208.000;  101.000
280.139;  -16.950; -435.000; -387.000
280.279;  -65.050; -708.000; -745.000
280.419;  -20.675; -229.000; -147.000
280.559;  -35.900; -259.000; -180.000
280.698;  -86.350; -790.000; -639.000
280.838; -101.125; -778.000; -800.000
280.978;  -91.525; -846.000; -790.000
281.118; -116.150; -811.000; -704.000
281.257;    5.800;   24.000;    6.000
281.397; -120.050;-1094.000; -960.000
281.537;  -89.075; -599.000; -712.000
281.677;  -32.775; -150.000; -101.000
281.816;  -93.125; -700.000; -630.000
281.956;  -52.025; -193.000; -257.000
282.096;  -56.675; -539.000; -396.000
282.235; -112.250; -672.000; -638.000
282.375;  -20.350; -243.000;  -98.000
282.515; -114.075; -715.000; -707.000
282.654;   38.800;   29.000;  106.000
282.794;   32.525;  388.000;  244.000
282.934;  -50.475; -530.000; -491.000
283.073; -129.900;-1030.000; -857.000
283.213;  -52.250; -460.000; -467.000
283.353;  -34.750; -408.000; -349.000
283.492;  -38.500; -264.000; -296.000
283.632;  -34.550; -254.000; -168.000
283.771;  -80.025; -859.000; -730.000
283.911;  -64.900; -369.000; -260.000
284.050; -110.650; -794.000; -748.000
284.190; -163.100;-1229.000;-1096.000
284.329; -136.450;-1055.000; -964.000
284.469;  -58.875; -516.000; -591.000
284.608;  -61.200; -559.000; -598.000
284.748;  -83.475; -614.000; -570.000
284.887;   -0.050;  -87.000;  -20.000
285.027; -125.650; -844.000; -892.000
285.166;  -27.475; -192.000; -249.000
285.306;   -0.125; -116.000;  -33.000
285.445;  -46.950; -229.000; -343.000
285.584; -101.100; -630.000; -494.000
285.724;  -51.175; -282.000; -322.000
285.863; -101.575; -857.000; -507.000
286.002;  -57.225; -366.000; -276.000
286.142; -115.900; -715.000; -622.000
286.281;  -68.200; -525.000; -493.000
286.420;  -82.325; -554.000; -417.000
286.560;   98.225;  653.000;  623.000
286.699; -143.800; -958.000; -912.000
286.838;  -73.850; -590.000; -591.000
286.978;  -91.450; -533.000; -537.000
287.117; -126.275;-1085.000; -950.000
287.256;  -29.425; -228.000; -211.000
287.395;  -48.325; -197.000; -378.000
287.535;  -62.775; -370.000; -298.000
287.674;  -73.825; -509.000; -484.000
287.813;   45.225;  661.000;  533.000
287.952; -127.500;-1010.000; -871.000
288.091; -150.200;-1049.000; -915.000
288.231;   18.275;   13.000;   15.000
288.370; -172.975;-1217.000;-1200.000
288.509; -103.525; -728.000; -645.000
288.648;  -94.125; -770.000; -548.000
288.787;  -26.575; -243.000;  -87.000
288.926;  -79.225; -454.000; -475.000
289.065;  104.850;  859.000;  672.000
289.204;  -56.425; -377.000; -217.000
289.344; -102.000; -791.000; -690.000
289.483;   17.150;  416.000;  304.000
289.622;  -16.950; -291.000; -149.000
289.761;  -20.200; -309.000; -166.000
289.900; -103.200; -785.000; -626.000
290.039;  -27.025;  -12.000;  -95.000
290.178;  -39.600; -274.000; -180.000
290.317;  -84.375; -618.000; -479.000
290.456;  -61.750; -463.000; -451.000
290.595; -144.000; -961.000; -833.000
290.734; -130.325; -904.000; -891.000
290.873;  -68.150; -456.000; -420.000
291.011; -113.250; -833.000; -843.000
291.150; -100.125; -770.000; -682.000
291.289;  -17.075; -343.000; -110.000
291.428; -108.075; -599.000; -480.000
291.567;  -49.700; -370.000; -442.000
291.706;  -16.550;  109.000;  154.000
291.845;  -84.025; -597.000; -505.000
291.984; -168.500;-1234.000;-1061.000
292.122;   78.700;  602.000;  582.000
292.261;   36.400;  620.000;  463.000
292.400;    8.750; -144.000;  211.000
292.539; -128.300; -959.000; -813.000
292.678;  -31.700; -325.000; -300.000
292.816; -154.850;-1136.000; -965.000
292.955;  -99.825; -844.000; -684.000
293.094;  -23.425; -173.000; -337.000
293.233;  -53.675; -556.000; -400.000
293.371;  -42.175; -225.000;  -84.000
293.510; -108.050; -866.000; -780.000
293.649; -124.300; -959.000; -924.000
293.787;  -66.625;-1083.000;-1012.000
293.926;   -2.500; -113.000;  -32.000
294.065;  -49.025; -379.000; -290.000
294.203;   40.350;  298.000;  406.000
294.342;   28.450;   74.000;  156.000
294.481; 5361.475;51180.000; -836.000
294.619;  -27.550; -425.000; -582.000
294.758; -144.525;-1230.000;-1137.000
294.896;   72.775; -125.000;    5.000
295.035; -125.950;-1040.000;-1006.000
295.174; -127.525;-1082.000; -954.000
295.312;  -41.975; -323.000; -203.000
295.451;   -2.575; -307.000; -428.000
295.589;  -49.000; -389.000; -518.000
295.728;   13.675; -292.000; -165.000
295.866;    6.450;  -36.000;  -51.000
296.005;  -58.900; -584.000; -341.000
296.143;  -67.225; -558.000; -596.000
296.282;  -95.550; -957.000; -881.000
296.420;  -93.800; -657.000; -557.000
296.559;  -83.500; -892.000; -633.000
296.697;   23.825; -847.000; -665.000
296.835;   53.125;-1141.000;-1002.000
296.974;   39.800;  -23.000;   39.000
297.112;   11.450; -443.000; -504.000
297.251;  -81.325; -815.000; -755.000
297.389;   80.725; -576.000; -438.000
297.527;   40.000; -145.000;  -83.000
297.666;  -49.425; -486.000; -438.000
297.804;  -58.575; -404.000; -264.000
297.942;   -3.275; -136.000; -161.000
298.081;   -4.500; -183.000;   63.000
298.219;   71.475;  -17.000;  -19.000
298.357;   50.300; -144.000;  -71.000
298.495;   34.400; -810.000; -812.000
298.634;   78.375;  245.000;  219.000
298.772;   52.775; -220.000; -338.000
298.910;  -54.875; -309.000; -182.000
299.048;   -9.075; -130.000; -153.000
299.187;  -30.450; -350.000; -250.000
299.325;   21.625;   52.000;  122.000
299.463;   53.600; -389.000; -299.000
299.601;  105.950; -327.000; -271.000
299.739; -105.675; -908.000; -883.000
299.877;  -80.050; -791.000; -703.000
300.016;  -58.600;-1095.000; -935.000
300.154;  156.600;  -19.000; -161.000
300.292;   55.450; -428.000; -348.000
300.430;   20.300; -408.000; -291.000
300.568; -102.750; -940.000; -874.000
300.706;  -40.175; -366.000; -469.000
300.844;  -73.900;-1108.000; -979.000
300.982;  108.200;  246.000;  282.000
301.120; -114.025; -965.000; -866.000
301.258;  -71.625; -812.000; -705.000
301.396;   24.075;  104.000;  -41.000
301.534;   81.125; -218.000; -293.000
301.672;    4.650; -664.000; -521.000
301.810;   20.050; -613.000; -545.000
301.948;  134.425;   53.000;  149.000
302.086;  607.925; -250.000;  -32.000
302.224;  966.925; -610.000; -585.000
302.362;   40.325; -558.000; -622.000
302.500;  -19.025; -923.000; -893.000
302.638;   97.125;  128.000;  245.000
302.776;   -6.950; -352.000; -408.000
302.913;   39.875;  447.000;  236.000
303.051;   -3.200;  -86.000;  -23.000
303.189;   51.050;   90.000;  118.000
303.327;  -47.500; -341.000; -256.000
303.465;  -80.175; -832.000; -588.000
303.603; -100.750; -805.000; -604.000
303.740;  107.200;  417.000;  241.000
303.878;   12.300; -800.000; -759.000
304.016;  -97.775; -915.000; -790.000
304.154; -127.600;-1123.000;-1152.000
304.291;  -32.750; -505.000; -554.000
304.429;    3.675;  102.000;   74.000
304.567; -116.725; -908.000; -893.000
304.705;  -59.575; -408.000; -515.000
304.842;   94.050; -616.000; -540.000
304.980;   51.550;  215.000;   35.000
305.118;   45.750; -367.000; -365.000
305.255;  -78.275; -945.000; -927.000
305.393;   55.225;  178.000;  239.000
305.531; -108.600;-1173.000; -956.000
305.668;  -57.525; -663.000; -582.000
305.806;   97.825; -358.000; -439.000
305.943;  106.525; -629.000; -637.000
306.081;   60.025; -378.000; -267.000
306.219; -102.225; -863.000; -748.000
306.356;  -10.275;  158.000;   27.000
306.494;  111.000;  981.000;  761.000
306.631;   11.250;  -11.000;  -55.000
306.769;   -0.775; -613.000; -485.000
306.906;  -24.175; -284.000; -258.000
307.044;  -63.250; -473.000; -488.000
307.181;  -61.200; -410.000; -332.000
307.319;   13.075;  112.000;   87.000
307.456; -183.550;-1191.000;-1153.000
307.594;  -95.500; -980.000; -727.000
307.731;   -6.375; -371.000; -164.000
307.868;  -10.950;  -15.000;   20.000
308.006; -140.775; -961.000; -847.000
308.143;  -78.050; -618.000; -330.000
308.281;  137.975;  -37.000; -254.000
308.418;  -18.500; -748.000; -640.000
308.555;  -76.050; -400.000; -250.000
308.693;  -85.825; -577.000; -573.000
308.830; -114.250; -712.000; -657.000
308.967;   -2.150; -215.000;  -95.000
309.105;  -53.200; -507.000; -396.000
309.242;   23.475; -468.000; -367.000
309.379;  235.700; -577.000; -655.000
309.517;  -79.950; -936.000; -948.000
309.654; -119.175; -910.000; -734.000
309.791;  -77.925; -662.000; -580.000
309.928; -123.825; -977.000; -914.000
310.065;  194.475;  819.000;  697.000
310.203;   -7.325; -825.000; -850.000
310.340;   -6.425; -465.000; -321.000
310.477;  -83.500; -412.000; -516.000
310.614;  -74.775; -383.000; -473.000
310.751;  -86.750; -427.000; -518.000
310.889;  -21.975;    1.000;   11.000
311.026; -149.275;-1161.000; -939.000
311.163;  -49.650; -386.000; -380.000
311.300;  -83.975; -512.000; -479.000
311.437;  -65.600; -658.000; -619.000
311.574; -156.200;-1226.000; -985.000
311.711;  -54.975; -595.000; -433.000
311.848;  -48.750; -380.000; -388.000
311.985;    3.475;  270.000;   93.000
312.122; -111.225; -932.000; -762.000
312.259; -119.750; -941.000; -994.000
312.396;  -85.300; -508.000; -551.000
312.533;  -81.625; -812.000; -790.000
312.670; -130.350;-1070.000; -898.000
312.807;  -41.400; -352.000; -367.000
312.944;  -90.725; -513.000; -611.000
313.081;  -33.275; -150.000; -415.000
313.218;  -99.500;-1111.000; -867.000
313.355;   13.925; -531.000; -449.000
313.492;   -3.375; -455.000; -292.000
313.629;  141.625;  815.000;  735.000
313.766; -153.975;-1176.000;-1008.000
313.902;   -1.100; -186.000;   21.000
314.039;  -57.000; -372.000; -289.000
314.176;   27.425;  286.000;  192.000
314.313;  -83.350; -569.000; -473.000
314.450;  -81.300; -788.000; -684.000
314.587;  -66.050; -468.000; -480.000
314.723;    5.875;  -78.000;  130.000
314.860;   21.850;  318.000;  332.000
314.997;   34.350;  223.000;  142.000
315.134;  -50.700; -385.000; -368.000
315.270;  -40.275; -480.000; -496.000
315.407; -135.475;-1094.000; -967.000
315.544;  -55.575; -657.000; -538.000
315.681;  -56.700; -681.000; -565.000
315.817;   30.375; -133.000; -176.000
315.954;   17.950; -613.000; -392.000
316.091; -126.200;-1045.000;-1023.000
316.227;  -21.900;  -71.000; -179.000
316.364;   -1.275;   23.000;    6.000
316.500;  -36.150; -113.000; -300.000
316.637;  -43.450; -181.000; -302.000
316.774; -100.200; -625.000; -358.000
316.910;  -84.550; -598.000; -629.000
317.047;  -74.925; -487.000; -351.000
317.183;  -41.125; -435.000; -566.000
317.320;  -13.250; -367.000; -321.000
317.456;  -63.675; -733.000; -805.000
317.593; -104.025; -598.000; -641.000
317.729;   -7.650;  168.000;  -67.000
317.866; -202.350;-1434.000;-1285.000
318.002;  -91.325; -708.000; -948.000
318.139;  -99.275; -883.000; -867.000
318.275; -115.300;-1003.000; -738.000
318.412;  -62.575; -517.000; -336.000
318.548;  -28.900; -751.000; -720.000
318.685; -104.425; -985.000; -888.000
318.821; -108.325; -762.000; -735.000
318.957;   -7.075;   34.000;  -23.000
319.094;   31.275;  297.000;  154.000
319.230;  -78.525; -756.000; -742.000
319.367;  112.800; -471.000; -520.000
319.503;   48.950; -538.000; -436.000
319.639; -100.375; -877.000; -793.000
319.775;  -66.575; -750.000; -685.000
319.912;  -59.425; -424.000; -519.000
320.048;  -88.625;-1184.000;-1184.000
320.184;   74.550;   59.000;   70.000
320.321;  -64.250; -497.000; -467.000
320.457;   53.575;  475.000;  662.000
320.593;  -81.050; -375.000; -382.000
320.729; -108.625; -732.000; -734.000
320.866;  -94.125; -577.000; -635.000
321.002;  -78.325; -759.000; -809.000
321.138;  -15.375; -135.000; -211.000
321.274;   78.975; -148.000; -115.000
321.410;  -23.400; -585.000; -353.000
321.546;  -41.550;-1011.000; -911.000
321.683;   52.575;  400.000;  185.000
321.819;    9.375;  -48.000; -117.000
321.955; -118.475; -743.000; -722.000
322.091;  -41.675; -585.000; -540.000
322.227;  -13.950; -382.000; -202.000
322.363;   -4.600; -320.000; -215.000
322.499;  -44.925; -343.000; -331.000
322.635;  149.225;  636.000;  443.000
322.771;   34.525; -139.000;   12.000
322.907;   83.550;  129.000;  327.000
323.043;  -16.750; -115.000; -206.000
323.179;  -36.250; -394.000; -363.000
323.315;   13.025; -401.000; -371.000
323.451;   79.725; -328.000; -236.000
323.587;   67.950;  -60.000;  -77.000
323.723;   21.250; -682.000; -601.000
323.859;  -21.500; -258.000;  -76.000
323.995;  -40.150; -467.000; -409.000
324.131; -125.600; -967.000; -892.000
324.267;  -40.175; -254.000; -276.000
324.402; -132.775; -960.000; -983.000
324.538;   -4.850; -279.000; -104.000
324.674;   29.950;  164.000;   77.000
324.810;  124.400;  226.000;  308.000
324.946;    9.675; -810.000; -658.000
325.082;  -73.125; -568.000; -475.000
325.217;  -10.825;  -62.000;   16.000
325.353; -110.200; -764.000; -659.000
325.489;  -84.100; -540.000; -506.000
325.625;  -74.250; -579.000; -525.000
325.760;   57.175;  517.000;  376.000
325.896;  -43.050; -515.000; -702.000
326.032;  -45.925; -403.000; -352.000
326.168;  -58.850; -462.000; -369.000
326.303;  -68.975; -352.000; -461.000
326.439;  -18.000; -336.000; -276.000
326.575;   -2.550; -190.000;  -29.000
326.710;  -11.400; -156.000;  -30.000
326.846;  -12.325;  146.000;  103.000
326.982;  -88.775; -530.000; -548.000
327.117;  -74.750; -481.000; -442.000
327.253;  -93.400; -745.000; -742.000
327.388; -156.325;-1137.000;-1153.000
327.524;  -46.375; -811.000; -578.000
327.659;  -34.275;  -58.000;  -22.000
327.795;  -12.450;   69.000;   45.000
327.931;  -81.825; -723.000; -499.000
328.066;  -24.900; -417.000; -276.000
328.202;   -8.625;   12.000; -129.000
328.337;   97.600;  957.000;  713.000
328.473;   47.925;  -12.000;  -74.000
328.608;  -22.800; -256.000; -267.000
328.743;  -91.725; -799.000; -664.000
328.879;   22.325;  214.000;  114.000
329.014;  -26.075; -102.000; -122.000
329.150;  -85.050; -358.000; -483.000
329.285;  -70.675; -465.000; -466.000
329.421;  -59.350; -548.000; -246.000
329.556;  -38.200;  -36.000;   85.000
329.691; -111.100; -633.000; -615.000
329.827;  -89.875; -626.000; -480.000
329.962;  -44.850;  131.000; -301.000
330.097;  -89.200; -673.000; -585.000
330.233;  -49.000; -410.000; -223.000
330.368; -134.300; -839.000; -628.000
330.503;  -11.500;    3.000;   98.000
330.638;    4.325;  -93.000; -125.000
330.774;  -69.100; -609.000; -530.000
330.909;  -47.800; -434.000; -244.000
331.044;  -89.800; -714.000; -708.000
331.179; -167.125;-1217.000;-1109.000
331.315;   11.600;   77.000;   20.000
331.450;    1.325;  157.000;  285.000
331.585;  -92.450; -805.000; -706.000
331.720;  -85.225; -510.000; -460.000
331.855;    0.575;  -35.000; -102.000
331.990;  240.525;   62.000;  138.000
332.126;  128.800; -110.000;   71.000
332.261;  -34.700; -379.000; -265.000
332.396;   -0.450; -135.000; -242.000
332.531;  -92.350;-1074.000;-1031.000
332.666;   29.700; -519.000; -363.000
332.801; -115.275; -726.000; -807.000
332.936;  -32.175; -192.000; -122.000
333.071; -132.450; -870.000; -817.000
333.206;   31.700;  307.000;  379.000
333.341;   28.800;  344.000;  418.000
333.476;  -88.575; -627.000; -623.000
333.611;  -38.975; -251.000; -173.000
333.746;  -44.775; -381.000; -464.000
333.881; -121.750; -973.000; -935.000
334.016; -131.900; -936.000; -917.000
334.151; -125.675; -746.000; -702.000
334.286;   32.275;  152.000;  186.000
334.421;  -33.075; -125.000; -178.000
334.556;  -79.150; -611.000; -567.000
334.690;  -87.025; -631.000; -577.000
334.825;   49.675;  381.000;   83.000
334.960;  -51.225; -285.000; -413.000
335.095;    3.350;  135.000;  -91.000
335.230; -100.625; -722.000; -738.000
335.365; -140.650;-1084.000; -990.000
335.499; -137.050;-1108.000;-1037.000
335.634;   11.775;    9.000;  534.000
335.769;  -91.125; -755.000; -720.000
335.904;  -63.350; -603.000; -561.000
336.038;  -67.650; -735.000; -657.000
336.173; -114.150;-1206.000;-1194.000
336.308;    5.925; -116.000; -189.000
336.443;   26.500; -544.000; -634.000
336.577;  -71.575; -936.000; -787.000
336.712;   67.750;   -4.000;  -12.000
336.847;  -35.375; -724.000; -607.000
336.981;   70.750; -272.000; -208.000
337.116;  292.500;  615.000;  501.000
337.250;  155.950; -434.000; -421.000
337.385;  226.225; -297.000; -208.000
337.520;   71.900; -632.000; -603.000
337.654;  -51.150; -215.000; -126.000
337.789; -126.925; -989.000; -933.000
337.923;  -36.225; -104.000; -205.000
338.058;  -85.100; -673.000; -738.000
338.192;  -34.400; -611.000; -488.000
338.327;  -15.650;  -18.000; -155.000
338.461;  -74.450; -299.000; -469.000
338.596;  -91.325; -780.000; -638.000
338.730; -102.175; -767.000; -803.000
338.865;   82.875;  -46.000; -140.000
338.999;  -57.675; -846.000; -702.000
339.134;  -32.250; -634.000; -536.000
339.268;    9.225; -741.000; -603.000
339.403;  355.475; -740.000; -775.000
339.537;  106.525; -894.000; -820.000
339.671; -123.550; -829.000; -813.000
339.806;  -80.575; -556.000; -512.000
339.940;    2.500; -261.000; -235.000
340.074;  -98.900; -685.000; -510.000
340.209;  -44.450; -351.000; -230.000
340.343; -101.875; -517.000; -573.000
340.477;  156.725;  998.000; 1036.000
340.612;  -62.050;-1033.000; -900.000
340.746;  128.275; -199.000; -243.000
340.880;  -60.625; -924.000; -785.000
341.014;  -33.775;  -45.000; -154.000
341.149; -114.125; -756.000; -718.000
341.283; -115.800; -839.000; -754.000
341.417;  -99.500;-1124.000; -938.000
341.551;  126.700; -768.000; -708.000
341.685;  -43.825; -633.000; -611.000
341.820;  -57.100; -562.000; -493.000
341.954;  -43.750; -218.000; -349.000
342.088; -157.250;-1102.000;-1019.000
342.222;   47.750;  565.000;  618.000
342.356;  -70.275; -395.000; -335.000
342.490;  -97.875; -880.000; -841.000
342.624;  -38.800; -339.000; -242.000
342.758;  -12.850; -364.000; -312.000
342.892;  -71.000; -710.000; -585.000
343.026;  -45.400;  -58.000; -116.000
343.160;  -58.900; -426.000; -376.000
343.294;  -88.325; -474.000; -337.000
343.428;  -26.300; -488.000; -448.000
343.562;  -17.350; -172.000;  -23.000
343.696;  -16.725; -385.000; -314.000
343.830;  -21.950; -362.000; -356.000
343.964;   14.250; -231.000; -168.000
344.098;  923.400;  199.000;   70.000
344.232;  776.600; -266.000; -127.000
344.366;   76.925; -567.000; -453.000
344.500;   60.900; -665.000; -744.000
344.634;   35.875; -324.000; -164.000
344.768;   -6.575; -531.000; -341.000
344.902;   19.400;  278.000;  256.000
345.035;  -77.450; -556.000; -496.000
345.169; -132.700; -933.000; -656.000
345.303;  -51.300; -308.000; -482.000
345.437;  -69.625; -826.000; -717.000
345.571;  -74.975; -675.000; -594.000
345.704;  -72.175; -309.000; -532.000
345.838;  -16.250; -331.000; -284.000
345.972;  -33.300; -543.000; -495.000
346.106;  162.875; -179.000; -190.000
346.239;  401.625; -312.000; -243.000
346.373;    6.625; -343.000; -302.000
346.507; -144.950; -950.000; -962.000
346.640;  135.725;  -30.000;   13.000
346.774;  -46.700; -650.000; -797.000
346.908;  -16.925; -138.000;  -11.000
347.041;  -99.125; -646.000; -593.000
347.175;   13.675;  259.000;   27.000
347.309;  -78.325; -698.000; -628.000
347.442; -109.475; -883.000; -732.000
347.576;  278.725;  670.000;  668.000
347.709;  201.775; -123.000;  -52.000
347.843;  -92.850; -933.000; -825.000
347.976;   41.050;  235.000;  294.000
348.110; -193.125;-1268.000;-1186.000
348.243; -102.025; -679.000; -772.000
348.377;   -6.875;  -26.000;   60.000
348.510;   38.400;  403.000;  540.000
348.644;  -47.825;  -37.000; -159.000
348.777;    8.450;  180.000;  191.000
348.911;  -60.025; -142.000; -112.000
349.044;  169.525;  471.000;  448.000
349.178;  146.425;-1069.000;-1006.000
349.311;  119.700;  141.000;  255.000
349.444;  -14.625; -927.000; -813.000
349.578;  -14.675; -347.000; -200.000
349.711; -109.425; -959.000; -862.000
349.845;   -8.750; -661.000; -591.000
349.978; -154.700;-1224.000;-1137.000
350.111;  -85.800; -546.000; -612.000
350.244;  -91.000; -596.000; -700.000
350.378;    7.925; -392.000; -393.000
350.511;  -65.900; -393.000; -426.000
350.644; -114.275; -808.000; -806.000
350.778;   -0.025;  168.000;  104.000
350.911;  -12.050;  134.000;  140.000
351.044;  -97.600; -685.000; -615.000
351.177;  -21.700; -321.000; -281.000
351.310;  -20.775;    3.000; -131.000
351.444;  -93.050; -888.000; -788.000
351.577;  113.100;  140.000;   90.000
351.710;  106.650;  593.000;  417.000
351.843;  -45.775; -165.000;  -77.000
351.976;    6.075;  149.000;  -79.000
352.109;  -80.425; -621.000; -612.000
352.242;  -24.400; -464.000; -419.000
352.376;  -62.450; -580.000; -636.000
352.509;  178.825; -437.000; -356.000
352.642;   18.925; -654.000; -604.000
352.775;   59.100; -141.000;  -98.000
352.908; -122.175; -933.000; -904.000
353.041; -106.000; -814.000; -824.000
353.174;  -66.800; -551.000; -424.000
353.307;  -76.550; -753.000; -764.000
353.440;   65.450;  541.000;  453.000
353.573; -119.400; -957.000;-1008.000
353.706;  -49.800; -384.000; -558.000
353.839;  -18.525; -264.000; -220.000
353.971;  -98.525; -657.000; -512.000
354.104;  -84.050; -896.000; -835.000
354.237;  -42.825; -627.000; -662.000
354.370;  -87.175; -846.000; -879.000
354.503; -176.350;-1231.000;-1308.000
354.636;  -31.900; -529.000; -348.000
354.769; -137.775; -937.000; -860.000
354.902;   -8.950; -230.000; -139.000
355.034;  -29.625; -164.000; -220.000
355.167;  -28.800; -262.000; -162.000
355.300;  -90.625;-1061.000; -880.000
355.433;  920.125;  -71.000;  -14.000
355.565; 1450.525; -402.000; -384.000
355.698;  382.275; -356.000; -296.000
355.831;   -7.900; -882.000; -801.000
355.964;   73.150; -285.000; -170.000
356.096;  -87.550; -856.000; -843.000
356.229;    3.150; -523.000; -530.000
356.362;  298.100; -373.000; -266.000
356.494;  610.325; -229.000; -162.000
356.627;  477.350;  269.000;  377.000
356.760;  664.000;  120.000;   53.000
356.892;  918.525; -286.000; -601.000
357.025;  671.025;  403.000;  389.000
357.157;  596.050; -167.000; -179.000
357.290;  645.175; -856.000; -713.000
357.423;  182.900; -667.000; -556.000
357.555;  113.950; -217.000; -228.000
357.688;  116.900; -483.000; -364.000
357.820;  475.275; -870.000; -877.000
357.953; 3683.375; -563.000; -589.000
358.085;  817.600; -632.000; -612.000
358.218; 1144.625;-1131.000; -932.000
358.350;  199.075;  -58.000;  312.000
358.483; -123.075;-1300.000;-1187.000
358.615;  -18.625;-1182.000;-1078.000
358.747;  -67.325;-1187.000;-1058.000
358.880;   26.100; -810.000; -744.000
359.012;  -10.875; -376.000; -202.000
359.145;  -38.675; -480.000; -511.000
359.277;   56.300; -962.000; -913.000
359.409; 3039.100;  536.000;  231.000
359.542;  754.450; -738.000; -688.000
359.674;   66.125;   46.000;   13.000
359.806;  -77.400; -565.000; -438.000
359.939;  -53.300; -617.000; -516.000
360.071;  -22.900; -583.000; -579.000
360.203;  -21.125; -411.000; -364.000
360.335;   39.525;  164.000;  -16.000
360.468;  198.075; -249.000; -307.000
360.600; 2437.575; -547.000; -454.000
360.732; 2709.850; -546.000; -423.000
360.864;  379.325;-1216.000;-1044.000
360.996;  282.875; -516.000; -554.000
361.129;   42.150; -389.000; -598.000
361.261;   28.025;  110.000; -113.000
361.393;  -22.475; -252.000; -214.000
361.525;   24.075;   94.000;  244.000
361.657;  -41.450; -821.000; -703.000
361.789;   -0.800; -139.000; -155.000
361.921;  225.250; -642.000; -593.000
362.053;  261.975;  524.000;  541.000
362.185;   39.250;  288.000;   72.000
362.318;  -88.450; -709.000; -705.000
362.450;  124.225;  294.000;  444.000
362.582;  121.900; -913.000; -870.000
362.714;  -43.450; -353.000; -332.000
362.846;  -86.425; -606.000; -490.000
362.978; -154.775; -941.000; -811.000
363.109;   44.950; -161.000; -260.000
363.241;  445.525; -739.000; -749.000
363.373;  419.650; -649.000; -564.000
363.505;  666.600; -186.000;  -91.000
363.637;  152.250; -787.000; -601.000
363.769; -129.350;-1067.000;-1080.000
363.901;  -76.325; -596.000; -654.000
364.033; -120.500;-1103.000;-1062.000
364.165;   -7.975; -283.000; -283.000
364.296;   70.150; -316.000; -177.000
364.428;   54.300;-1344.000;-1220.000
364.560;  -71.125; -679.000; -661.000
364.692;  -69.800; -738.000; -835.000
364.824;  262.975; -588.000; -456.000
364.955;  439.100; -402.000; -564.000
365.087;  865.850;-1097.000; -852.000
365.219;   13.625; -686.000; -816.000
365.351;  -66.750; -526.000; -572.000
365.482;   43.525;  300.000;  240.000
365.614;  -43.500; -402.000; -314.000
365.746; -105.025; -729.000; -752.000
365.877; -101.375; -706.000; -672.000
366.009;  253.925;  -35.000;  -62.000
366.141; -100.050;-1249.000;-1134.000
366.272; -101.150; -803.000; -719.000
366.404; -125.850;-1005.000; -874.000
366.535;   -9.650; -139.000;  -12.000
366.667; -106.500; -644.000; -649.000
366.799;   38.000;  353.000;  203.000
366.930; -134.800; -862.000; -996.000
367.062;  111.250; -639.000; -613.000
367.193;  142.575; -872.000; -842.000
367.325;  -64.925; -580.000; -684.000
367.456;   63.200; -246.000;   31.000
367.588;  158.375; -371.000; -318.000
367.719;   11.425;  -44.000;  -45.000
367.851;  -17.400; -222.000; -241.000
367.982;  -49.950; -875.000; -732.000
368.113;   97.825; -475.000; -358.000
368.245; -134.200; -960.000; -841.000
368.376;  -14.000; -254.000; -302.000
368.508;  -47.425; -188.000; -263.000
368.639; -142.300;-1166.000;-1034.000
368.770;  -12.600; -670.000; -589.000
368.902;  -63.100; -836.000; -926.000
369.033; -105.825; -906.000; -855.000
369.164;  -46.600; -720.000; -653.000
369.296; -114.425; -452.000; -601.000
369.427;    1.075; -209.000; -144.000
369.558;  -54.950; -593.000; -377.000
369.689;  -86.725; -721.000; -569.000
369.821; -137.350; -951.000; -845.000
369.952;   -9.725;   42.000; -108.000
370.083;  -49.025; -229.000; -108.000
370.214;  -88.750; -735.000; -650.000
370.345;  -13.000;   65.000;   81.000
370.477;  -90.475; -810.000; -790.000
370.608;  230.650; -328.000; -264.000
370.739;  -55.975;-1233.000;-1292.000
370.870;  -37.575;-1102.000; -923.000
371.001;  101.425; -378.000; -467.000
371.132;  -80.950; -754.000; -735.000
371.263;  -36.075;  -42.000; -148.000
371.394; -138.550; -841.000; -748.000
371.525;   23.425;  345.000;  225.000
371.657;  -87.450; -808.000; -670.000
371.788;   68.100;  103.000;  199.000
371.919;  156.025; -384.000; -304.000
372.050; 3641.975;  -91.000; -156.000
372.181; 1080.925; -188.000; -294.000
372.311;  362.625;   42.000; -127.000
372.442;   41.600; -457.000; -451.000
372.573;  -21.425; -444.000; -340.000
372.704; -123.475;-1008.000; -980.000
372.835;   89.350; -228.000; -289.000
372.966;  -76.600; -646.000; -554.000
373.097;  -69.925; -575.000; -711.000
373.228;  -36.825; -717.000; -542.000
373.359;  121.925; -824.000; -536.000
373.490;  925.600; -881.000; -727.000
373.620; 1159.700;-1001.000; -803.000
373.751; 1791.650; -332.000; -396.000
373.882;  799.950; -663.000; -733.000
374.013;   55.075; -449.000; -262.000
374.143;  -42.475; -581.000; -659.000
374.274; -106.275; -987.000; -908.000
374.405;  161.100; -388.000; -276.000
374.536;  457.125; -526.000; -387.000
374.666; 1132.575; -759.000; -807.000
374.797;  226.300; -817.000; -868.000
374.928;  869.550; -710.000; -560.000
375.058;  904.125; -535.000; -500.000
375.189;   86.375;  -59.000;  -93.000
375.320; -113.575; -928.000;-1034.000
375.450;  -43.725; -625.000; -616.000
375.581;  -42.150; -526.000; -436.000
375.712;  -44.275; -574.000; -250.000
375.842;  302.875; -438.000; -415.000
375.973;  210.175; -554.000; -513.000
376.103;  -47.925; -665.000; -648.000
376.234;  -81.650; -531.000; -552.000
376.364;  -45.375; -944.000; -867.000
376.495;  327.650;  925.000;  529.000
376.625;  -12.675; -472.000; -485.000
376.756;   57.075; -709.000; -678.000
376.886;  -80.575;-1178.000;-1026.000
377.017;   46.250;-1048.000;-1061.000
377.147;  318.025; -786.000; -782.000
377.278;   55.650;  174.000;  228.000
377.408; -127.900; -801.000; -815.000
377.538; -109.275; -707.000; -693.000
377.669;  -88.000; -537.000; -613.000
377.799;  -87.350; -645.000; -635.000
377.929;  -63.000; -610.000; -428.000
378.060; -130.650; -781.000; -847.000
378.190;  -47.175; -726.000; -531.000
378.320;  -65.125; -401.000; -406.000
378.451;  -22.375; -131.000;  -22.000
378.581;    4.975;  -67.000; -110.000
378.711;  148.050; 1035.000;  866.000
378.841;   -9.500; -533.000; -675.000
378.972;  -79.600; -871.000; -751.000
379.102;   -7.250; -652.000; -579.000
379.232;  -14.250; -126.000;  -73.000
379.362;  -97.600;-1001.000; -885.000
379.492;    6.675; -373.000; -424.000
379.623;  115.125;    0.000;  111.000
379.753;  -83.475;-1107.000; -974.000
379.883;  178.050;   59.000;  156.000
380.013;   -2.650;-1081.000;-1017.000
380.143; -105.900;-1097.000;-1056.000
380.273; -114.700; -985.000; -861.000
380.403;   -0.375; -344.000; -257.000
380.533;  -16.600; -651.000; -664.000
380.663;   60.925;  173.000;  128.000
380.793; -103.725;-1027.000;-1074.000
380.923;  -22.225; -103.000;  -34.000
381.053;  -82.425; -613.000; -623.000
381.183;  -27.700; -106.000; -248.000
381.313;   37.225; -656.000; -470.000
381.443;   45.175; -692.000; -473.000
381.573;  202.375; -402.000; -409.000
381.703;  276.150;-1249.000;-1095.000
381.833; -121.925;-1454.000;-1336.000
381.963;  110.925; -134.000;  -87.000
382.093; 1388.250; -925.000; -909.000
382.223;  422.975; -713.000; -602.000
382.353;  -17.475; -801.000; -608.000
382.482;  375.450;-1091.000; -964.000
382.612;  765.175; -872.000; -644.000
382.742;  436.100; -695.000; -622.000
382.872;  254.825; -565.000; -551.000
383.002;   52.950;  347.000; -132.000
383.131;  -41.400; -226.000; -160.000
383.261;  -49.250; -706.000; -768.000
383.391;  277.050; -552.000; -377.000
383.521; 3070.650;  451.000;  263.000
383.650;  709.000; -947.000; -904.000
383.780;  -31.950; -783.000; -656.000
383.910;  111.350;  880.000;  802.000
384.039;   23.450; -794.000; -656.000
384.169;  203.150;-1205.000;-1017.000
384.299;  -29.325; -650.000; -662.000
384.428;  -81.225; -764.000; -680.000
384.558;  -40.200; -308.000; -275.000
384.687;  -56.100; -414.000; -334.000
384.817;   19.375;   75.000;   -2.000
384.947;   18.500; -234.000; -141.000
385.076;  291.625;  982.000;  912.000
385.206;  100.050;  369.000;  480.000
385.335;  -30.775; -549.000; -417.000
385.465;  -67.550; -655.000; -663.000
385.594;  149.700;  -53.000;  -44.000
385.724;  448.075; -868.000; -838.000
385.853;  117.200; -296.000; -270.000
385.982; 1399.850; -743.000; -787.000
386.112; 2160.700;-1052.000; -871.000
386.241;  146.950; -307.000; -312.000
386.371;   25.375; -174.000;  -87.000
386.500;   -2.600; -825.000; -789.000
386.629;   17.675; -874.000; -817.000
386.759;   56.400;  -43.000;   68.000
386.888;  -15.125; -170.000; -250.000
387.017;  -82.300; -648.000; -620.000
387.147;  -80.350; -771.000; -798.000
387.276;   -4.575; -410.000; -397.000
387.405;    7.875; -398.000; -342.000
387.535;  -41.975; -452.000; -361.000
387.664;  -55.625; -692.000; -620.000
387.793;   39.250; -198.000; -113.000
387.922;  534.900;  255.000;  200.000
388.052;   18.125; -576.000; -423.000
388.181;   12.700; -342.000; -472.000
388.310;    0.125; -889.000; -710.000
388.439;  -42.225; -749.000; -742.000
388.568;  180.500;  365.000;  244.000
388.697; 1058.575; -756.000; -653.000
388.826;  200.950; -768.000; -666.000
388.956;   64.250; -285.000; -307.000
389.085;  -34.000; -347.000; -287.000
389.214; -106.500; -842.000; -872.000
389.343;  -61.900; -645.000; -413.000
389.472;  384.500;  126.000;  149.000
389.601;  491.175;   91.000;    0.000
389.730;   13.250; -568.000; -687.000
389.859;   55.825;  226.000;   46.000
389.988;  203.175; -423.000; -408.000
390.117;  138.950; -168.000; -146.000
390.246;  -11.950; -331.000; -320.000
390.375;  103.525; -673.000; -626.000
390.504;  -54.625; -703.000; -621.000
390.633; -111.425; -672.000; -726.000
390.761;  -63.050; -732.000; -645.000
390.890;   10.050;   -4.000; -130.000
391.019;  -47.425; -421.000; -441.000
391.148; -135.625; -826.000; -855.000
391.277;  -76.275; -576.000; -493.000
391.406;  -79.400; -821.000; -805.000
391.534;   21.375;  574.000; -301.000
391.663;  -76.575; -583.000; -645.000
391.792;  -89.625; -673.000; -701.000
391.921;   95.225;   -3.000;   15.000
392.050;  180.925; -287.000; -228.000
392.178;  -57.850;-1206.000;-1061.000
392.307;  145.925; -758.000; -712.000
392.436;   68.425; -427.000; -641.000
392.564;   21.725;  166.000;   -6.000
392.693;  -97.975; -860.000; -682.000
392.822;  222.625; -529.000; -534.000
392.950;   89.400; -880.000; -714.000
393.079;  319.400; -188.000; -328.000
393.208;   19.150; -488.000; -511.000
393.336;   -7.450; -170.000; -145.000
393.465;  -49.175; -317.000; -199.000
393.593;   -4.850;   62.000;   79.000
393.722; -144.475;-1121.000; -916.000
393.850;  -38.575; -188.000;  -61.000
393.979; -161.375; -926.000; -805.000
394.107;  -73.650; -517.000; -537.000
394.236;  -33.075; -570.000; -507.000
394.364;  179.125;  383.000;  206.000
394.493;  266.350; -911.000; -767.000
394.621;  -26.500; -955.000; -916.000
394.750;  680.200; -873.000; -923.000
394.878; 2896.675; -247.000; -149.000
395.007; 3850.375; -721.000; -807.000
395.135;  275.825; -790.000; -721.000
395.263;  -97.800;-1038.000;-1040.000
395.392;  -12.500;  -25.000; -107.000
395.520; -148.050; -818.000; -679.000
395.648;  -90.025; -865.000; -915.000
395.777;  -27.675; -366.000; -405.000
395.905;  -52.050; -449.000; -564.000
396.033;    8.225;  217.000;  172.000
396.162;  462.825; -399.000; -453.000
396.290;  408.375;  -17.000;   -2.000
396.418;  105.275; -555.000; -514.000
396.546;  -75.275; -571.000; -466.000
396.674;  -92.575; -850.000; -878.000
396.803;   -2.875;  -72.000;  -23.000
396.931;   84.350; -179.000; -199.000
397.059;   45.350;-1026.000; -989.000
397.187; -123.825;-1026.000; -975.000
397.315; -153.100; -884.000; -649.000
397.443; -105.450; -592.000; -443.000
397.572;  -96.525; -578.000; -424.000
397.700;  -17.050; -607.000; -614.000
397.828;    0.875;  120.000;  -90.000
397.956;  -50.850; -508.000; -478.000
398.084;  -70.625; -767.000; -626.000
398.212;   22.350;  137.000;  124.000
398.340;  -11.475;  -56.000;  159.000
398.468;   31.400; -390.000; -169.000
398.596; -145.925; -993.000; -953.000
398.724; -126.225; -762.000; -767.000
398.852; -170.300;-1024.000; -976.000
398.980;  -73.125; -560.000; -560.000
399.108;  -51.325; -982.000; -735.000
399.236;   25.575;   13.000;    8.000
399.363;    9.750;  222.000;  196.000
399.491;  -72.325; -404.000; -398.000
399.619; -139.500; -829.000; -800.000
399.747; -103.050; -859.000; -771.000
399.875;   59.375;  220.000;  234.000
400.003;  -65.225; -359.000; -284.000
400.130; -114.100; -421.000; -341.000
400.258;  -29.525;  -83.000;   38.000
400.386;  -84.450; -352.000; -168.000
400.514;  -47.175; -526.000; -587.000
400.641;  -92.225; -928.000; -802.000
400.769; -142.900; -979.000; -888.000
400.897; -119.625; -838.000; -793.000
401.025;  -24.550; -166.000; -152.000
401.152;   -2.125;  220.000;   38.000
401.280;  -75.700; -430.000; -429.000
401.408; -109.625; -712.000; -576.000
401.535; -106.575; -735.000; -758.000
401.663; -190.750;-1134.000;-1054.000
401.790;  -92.425; -514.000; -525.000
401.918;   32.050;  436.000;  405.000
402.046;   -7.200;  134.000;  122.000
402.173;  -31.875;  -18.000;    7.000
402.301;  -69.925; -519.000; -397.000
402.428;   40.675;  528.000;  383.000
402.556; -144.675;-1188.000; -913.000
402.683;  -29.650;  -20.000;   -1.000
402.811;  -25.300;  -37.000; -206.000
402.938;  -28.850;   20.000;   27.000
403.066;  196.575; -574.000; -558.000
403.193;  339.975;  299.000;  239.000
403.321;  271.850; -396.000; -574.000
403.448;  326.750;   83.000;   27.000
403.575;  136.125;  -90.000;  -46.000
403.703;  -97.850; -732.000; -557.000
403.830;  -60.250; -531.000; -496.000
403.957; -142.075;-1117.000;-1023.000
404.085;    7.700;  -61.000; -172.000
404.212;   92.875;  -50.000;   63.000
404.339;  264.625; -566.000; -306.000
404.467; 5669.050; -612.000; -524.000
404.594; 3711.475; -287.000; -227.000
404.721;  865.675; -869.000; -764.000
404.848;   85.075; -113.000; -202.000
404.976; -118.800; -856.000; -783.000
405.103;  -23.500;  -14.000;  -82.000
405.230;   -7.325;  190.000;  226.000
405.357;   15.175;  117.000;   44.000
405.484;  260.825;  -49.000;    5.000
405.612;   24.350; -548.000; -563.000
405.739;  -73.525; -488.000; -243.000
405.866;   83.100;  669.000;  385.000
405.993;  -44.475; -398.000; -102.000
406.120; -144.475; -801.000; -887.000
406.247;  -59.025; -323.000; -342.000
406.374;  449.875;  540.000;  629.000
406.501;   94.850; -632.000; -702.000
406.628;  -81.075; -621.000; -589.000
406.755; -108.900; -803.000; -620.000
406.882;  -52.475; -228.000; -277.000
407.009; -124.525; -719.000; -628.000
407.136;   46.625; -480.000; -401.000
407.263;  126.850; -939.000; -829.000
407.390;  -82.775; -692.000; -614.000
407.517; -187.750;-1139.000;-1187.000
407.644;  -61.200; -332.000; -256.000
407.771; -130.775; -249.000; -287.000
407.898;    1.700;  168.000;  328.000
408.025;  -86.100; -421.000; -313.000
408.151;  -13.550;   82.000;  153.000
408.278;  -85.175; -267.000; -216.000
408.405; -118.350; -931.000; -899.000
408.532;  -65.150; -549.000; -542.000
408.659; -117.550; -677.000; -648.000
408.785; -214.525;-1298.000;-1170.000
408.912;  -73.825; -412.000; -296.000
409.039; -117.425; -610.000; -686.000
409.166; -102.225; -591.000; -555.000
409.292; -103.175; -571.000; -534.000
409.419; -121.175; -665.000; -649.000
409.546;  -85.625; -431.000; -192.000
409.672; -108.050; -713.000; -545.000
409.799;  -41.900;  -36.000;   34.000
409.926;  -48.600; -180.000; -179.000
410.052; -172.125;-1127.000;-1091.000
410.179;  -63.775; -368.000; -392.000
410.305;  -98.725; -375.000; -493.000
410.432;  -56.175; -220.000; -333.000
410.558;  -83.600; -305.000; -380.000
410.685;  -99.175; -688.000; -431.000
410.812; -108.100; -409.000; -588.000
410.938; -135.400; -964.000; -808.000
411.065;  -90.125; -671.000; -645.000
411.191;  -27.925; -189.000; -174.000
411.317; -131.650; -823.000; -742.000
411.444;  -73.550; -317.000; -246.000
411.570;  -75.875; -339.000; -294.000
411.697; -126.350; -758.000; -752.000
411.823; -178.725; -989.000; -999.000
411.949;  -25.375;  -56.000;   17.000
412.076; -109.550; -539.000; -519.000
412.202; -115.575; -758.000; -757.000
412.329; -140.650; -798.000; -752.000
412.455; -114.850; -821.000; -657.000
412.581;  -19.825;  -15.000;  172.000
412.707;  -60.000; -540.000; -457.000
412.834;    4.025;  156.000;  219.000
412.960; -100.800; -785.000; -784.000
413.086; -117.025; -743.000; -701.000
413.212;  127.175;  604.000;  578.000
413.339;  -62.675; -685.000; -701.000
413.465;    0.475; -364.000; -310.000
413.591;  -95.225; -757.000; -474.000
413.717;  -63.325; -358.000; -366.000
413.843; -144.650; -839.000; -861.000
413.969;  -63.250;  -47.000; -292.000
414.096; -100.100; -679.000; -679.000
414.222;   -9.950;  -33.000;   85.000
414.348;  -32.300; -652.000; -385.000
414.474;   87.225;   38.000;  -52.000
414.600;  -12.775; -126.000; -144.000
414.726;  -16.075;  -96.000;  -55.000
414.852;  -60.450; -365.000; -342.000
414.978;   23.925;  104.000;  -18.000
415.104;   31.075;   38.000;   80.000
415.230;   23.475; -329.000; -330.000
415.356;   32.600; -409.000; -514.000
415.482;  192.575;   13.000;  -35.000
415.608;  274.675; -247.000; -323.000
415.734;  974.300;   67.000;   38.000
415.860;19816.575; -875.000; -767.000
415.986;14221.675; -685.000; -607.000
416.111; 1213.275; -798.000; -652.000
416.237;  231.325; -424.000; -571.000
416.363; 1093.100; -765.000; -733.000
416.489; 4114.075; -324.000; -251.000
416.615;  419.425; -707.000; -742.000
416.741;  -28.050; -677.000; -784.000
416.866; -107.125; -673.000; -736.000
416.992; -126.975; -801.000; -818.000
417.118;  -35.150;  -41.000;  -80.000
417.244;  -78.150; -798.000; -531.000
417.369;  -90.925; -801.000; -612.000
417.495;  -16.000; -325.000; -254.000
417.621;  -98.775;-1015.000; -803.000
417.746;   -2.925; -579.000; -572.000
417.872;   38.800; -254.000; -144.000
417.998;   39.500; -515.000; -530.000
418.123; 1016.575;-1073.000; -845.000
418.249; 5314.275; -512.000; -601.000
418.374;  682.050; -916.000; -824.000
418.500;  102.575; -383.000; -482.000
418.626;   88.200;   70.000;  -59.000
418.751;  116.225; -549.000; -448.000
418.877;  184.975; -637.000; -643.000
419.002; 1771.125; -688.000; -560.000
419.128;12362.125; -930.000; -721.000
419.253; 2954.275; -967.000; -837.000
419.379;  388.750; -391.000; -338.000
419.504;  382.775;  325.000;  415.000
419.629;  494.300; -393.000; -212.000
419.755; 3527.775; -317.000; -254.000
419.880;20591.950;  -98.000;   67.000
420.006;11244.750; -280.000; -221.000
420.131;28929.550; -662.000; -775.000
420.256; 4087.375; -315.000; -316.000
420.382;  526.725; -665.000; -687.000
420.507;   70.825; -649.000; -778.000
420.632;  129.700; -337.000; -339.000
420.758;  235.750; -251.000; -425.000
420.883;  -84.150; -876.000; -672.000
421.008; -104.600; -775.000; -619.000
421.133;  -96.750; -509.000; -467.000
421.259;  -52.525; -325.000; -259.000
421.384; -126.425; -834.000; -693.000
421.509;  -50.150;-1052.000; -862.000
421.634; 1158.900; -936.000; -820.000
421.759;  508.250; -359.000; -327.000
421.885;  -61.050; -717.000; -656.000
422.010;  -87.675; -673.000; -542.000
422.135; -160.375; -695.000; -727.000
422.260;   32.125;  340.000;  280.000
422.385;  -67.275;   12.000;  -98.000
422.510;    4.900;  151.000;  -26.000
422.635;   10.025;  -87.000;  -43.000
422.760;  103.825; -766.000; -791.000
422.885;   47.425;  -57.000;  -80.000
423.010;  -38.950; -112.000; -169.000
423.135; -113.125; -481.000; -561.000
423.260;  -19.800; -150.000; -245.000
423.385;   58.775;  476.000;  222.000
423.510;   48.350;   71.000;  -22.000
423.635;   76.725;  133.000;   45.000
423.760;   59.325;  383.000;  328.000
423.885;   48.450;  336.000;  391.000
424.010;   17.500;  -68.000;  -13.000
424.135;  -20.425;    5.000;  -33.000
424.259;  -95.525; -654.000; -457.000
424.384;  -77.075; -279.000; -272.000
424.509;  -32.450; -260.000; -186.000
424.634; -103.450; -761.000; -623.000
424.759;  -43.850; -688.000; -544.000
424.883;  -10.775; -506.000; -527.000
425.008;  157.450; -502.000; -410.000
425.133; 1973.850; -679.000; -653.000
425.258;  916.650; -517.000; -381.000
425.382; 1049.350; -867.000; -774.000
425.507; 2646.675; -487.000; -543.000
425.632;  431.175; -802.000; -663.000
425.756;  445.450; -256.000; -146.000
425.881; 6435.200; -831.000; -857.000
426.006;17144.900; -604.000; -355.000
426.130; 2666.625; -696.000; -508.000
426.255;  340.850; -611.000; -491.000
426.379;  139.025; -189.000; -577.000
426.504;  367.775;  660.000;  544.000
426.629; 3964.800; -519.000; -466.000
426.753; 2714.300;   64.000;  -46.000
426.878;  304.000; -252.000; -288.000
427.002;  135.650; -651.000; -668.000
427.127; 1573.575;  -35.000; -158.000
427.251;11169.050;  372.000;  401.000
427.375; 3137.975; -191.000; -173.000
427.500; 2297.400; -616.000; -610.000
427.624;  779.675; -234.000; -400.000
427.749;   90.725; -216.000; -225.000
427.873;  -53.300; -499.000; -412.000
427.997;  -36.700; -222.000; -230.000
428.122;   72.900;  795.000;  703.000
428.246;   57.550;  433.000;  434.000
428.371; -122.525; -869.000; -773.000
428.495; -108.525; -624.000; -646.000
428.619;  -29.925; -186.000; -117.000
428.743;   32.250;   65.000;  132.000
428.868;   17.975; -732.000; -643.000
428.992; 1416.525; -219.000; -326.000
429.116;  576.075; -329.000; -357.000
429.240;  281.775;  419.000;  426.000
429.365;  -26.350; -454.000; -574.000
429.489;  -59.250; -638.000; -647.000
429.613;    6.825; -236.000; -177.000
429.737;   34.775; -563.000; -432.000
429.861;  278.825; -247.000; -133.000
429.985; 5520.825; -425.000; -305.000
430.109; 5978.725; -770.000; -908.000
430.234;  681.950;   76.000;  -50.000
430.358;   59.725; -250.000; -160.000
430.482;  -73.775; -672.000; -564.000
430.606;  -79.750; -655.000; -375.000
430.730;   17.700; -437.000; -388.000
430.854;  120.375; -909.000; -835.000
430.978;  -82.275; -795.000; -764.000
431.102;  -78.575; -499.000; -422.000
431.226; -117.700; -874.000; -815.000
431.350;   27.475;  345.000;  422.000
431.474;  -72.700; -661.000; -373.000
431.597; -159.400;-1060.000; -848.000
431.721;  -82.175; -276.000; -267.000
431.845; -138.975; -704.000; -472.000
431.969;  -78.975; -304.000; -349.000
432.093;  -96.225; -395.000; -317.000
432.217;  -23.950;   32.000;   82.000
432.341; -100.400; -523.000; -518.000
432.464;   -5.000;   96.000;   40.000
432.588;  196.775; -401.000; -329.000
432.712;   86.075;  -52.000;  -52.000
432.836;   42.100;  213.000;  263.000
432.959;  -23.400; -372.000; -311.000
433.083;   71.400;   11.000;    2.000
433.207;  367.375;  285.000;  930.000
433.330; 5016.250; -391.000; -200.000
433.454; 6110.300; -654.000; -638.000
433.578; 3529.200;  583.000;  278.000
433.701;  642.000; -623.000; -675.000
433.825;  138.775; -292.000; -299.000
433.949;  186.650;   28.000;  -72.000
434.072;   54.150; -410.000; -323.000
434.196;  -14.200; -309.000; -117.000
434.319; 3768.850;25482.000;25124.000
434.443;  729.125; -656.000; -603.000
434.566; 2603.475;  281.000;   62.000
434.690;  423.900; -637.000; -383.000
434.813;   47.750; -251.000; -173.000
434.937;  -82.600; -569.000; -696.000
435.060;  -53.475; -423.000; -332.000
435.184;  309.450; -492.000; -217.000
435.307;  170.575;  159.000;  102.000
435.431;  -11.700;  -40.000;   24.000
435.554;  -78.500; -399.000; -240.000
435.677;  -80.400; -350.000; -258.000
435.801;  -61.625;  -25.000;   49.000
435.924;  -14.300;    1.000;  -67.000
436.048; -122.500;-1019.000; -732.000
436.171;  -83.225; -240.000;  -66.000
436.294;  -35.175; -248.000; -229.000
436.417;   76.725; -963.000; -849.000
436.541;  -93.825; -814.000; -840.000
436.664;  -49.625; -242.000; -316.000
436.787;  -51.200;   13.000;  113.000
436.910; -113.350; -792.000; -422.000
437.034;    8.450;  142.000;  143.000
437.157;   40.650;  -11.000;    0.000
437.280;  -59.925; -392.000; -292.000
437.403;  -76.625; -982.000; -869.000
437.526;  630.225; -903.000; -865.000
437.649; 2308.400; -505.000; -332.000
437.772;  332.025; -692.000; -540.000
437.896;  108.225;  700.000;  544.000
438.019; -111.075; -758.000; -503.000
438.142;  -95.350; -596.000; -506.000
438.265;  -10.850; -639.000; -670.000
438.388;  541.700; -520.000; -410.000
438.511;   92.325; -597.000; -394.000
438.634;  -33.425; -247.000; -125.000
438.757; -130.600; -693.000; -619.000
438.880;  -33.025;  -34.000;  -57.000
439.003;  -88.325; -417.000; -437.000
439.126;  -67.450; -287.000; -167.000
439.248;  -69.750;  -98.000; -139.000
439.371;  -45.075;    9.000;  -53.000
439.494;   18.575;  510.000;  439.000
439.617;  -49.850;   65.000;  -88.000
439.740; -189.275; -968.000; -816.000
439.863; -157.925; -755.000; -595.000
439.986; -125.525; -476.000; -431.000
440.108;  -64.250; -161.000; -112.000
440.231; -165.675; -950.000; -836.000
440.354;  -45.650;  -64.000; -150.000
440.477;   12.650; -566.000; -542.000
440.599;    6.725; -200.000; -225.000
440.722; -117.425; -709.000; -586.000
440.845;   67.050;  751.000;  928.000
440.968; -115.975; -415.000; -311.000
441.090;  -70.000; -199.000;  -33.000
441.213; -179.875;-1021.000; -825.000
441.336;  -43.000; -159.000;   -5.000
441.458;  -80.900; -549.000; -396.000
441.581;  -97.725; -628.000; -629.000
441.703;  -84.650; -152.000;   13.000
441.826; -111.825; -557.000; -400.000
441.948;  -43.225;   56.000;   51.000
442.071;   17.925;  555.000;  424.000
442.193; -123.525; -531.000; -485.000
442.316;    9.475;  152.000;   97.000
442.438;   48.400; -233.000;  -10.000
442.561;   68.375;  272.000;  262.000
442.683;  533.875; -809.000; -522.000
442.806; 1183.450;   -8.000;   74.000
442.928;   18.150; -859.000; -604.000
443.051;  -73.350; -577.000; -373.000
443.173;  -89.400; -341.000; -339.000
443.295;  -90.475; -263.000; -371.000
443.418;  -79.625; -321.000;  -29.000
443.540;   -4.575; -106.000;   -4.000
443.662; -131.450; -563.000; -465.000
443.785;  -22.600;  335.000;  199.000
443.907; -104.725; -362.000; -208.000
444.029; -143.500; -767.000; -494.000
444.152; -158.150; -644.000; -554.000
444.274;  -38.975;  -18.000;  -24.000
444.396; -106.400; -461.000; -221.000
444.518; -132.750; -691.000; -454.000
444.640; -101.850; -268.000; -111.000
444.763;  -25.100;  388.000;  249.000
444.885; -120.500; -432.000; -392.000
445.007;  -26.225;   35.000;   86.000
445.129; -129.925; -610.000; -515.000
445.251; -116.925; -372.000; -439.000
445.373; -126.700; -537.000; -386.000
445.495;   -0.175;  242.000;  350.000
445.617;   40.275;  853.000;  753.000
445.739;  -76.450; -215.000;  -97.000
445.861;  -36.900; -245.000; -112.000
445.984;  -38.300; -267.000; -101.000
446.105;  190.575; -418.000; -251.000
446.227;  617.950; -176.000;  -19.000
446.349;   19.875; -358.000; -249.000
446.471; -103.750; -615.000; -448.000
446.593;  -74.650; -316.000;   19.000
446.715;   -8.425;  -67.000;   41.000
446.837;   58.400;  697.000;  832.000
446.959; -106.225; -457.000; -478.000
447.081; -140.100; -628.000; -518.000
447.203;   43.525;  862.000;  834.000
447.325;  -95.425; -270.000;   42.000
447.446;   -3.925;  286.000;  530.000
447.568; -162.500; -921.000; -803.000
447.690;  -78.400; -236.000; -245.000
447.812; -150.925; -798.000; -519.000
447.933;  -26.400;  155.000;  127.000
448.055;  -77.875; -306.000; -261.000
448.177;  144.825;   31.000;   79.000
448.299;   86.200; -935.000; -727.000
448.420;   16.275;  -25.000;  159.000
448.542;  -57.675;   -3.000;   33.000
448.664;  -27.200;  109.000;  322.000
448.785;  -38.375;  265.000;   83.000
448.907;  -90.925; -614.000; -353.000
449.028;  -32.075; -771.000; -471.000
449.150;   59.350;  492.000;  589.000
449.272; -179.200;-1044.000; -913.000
449.393;   21.475;  612.000;  694.000
449.515; -156.650; -634.000; -581.000
449.636;  -48.900; -264.000; -155.000
449.758;   63.075;  763.000;  622.000
449.879;  -95.900; -498.000; -396.000
450.001;  -88.450; -149.000;  -49.000
450.122;  -38.200;  -95.000;  162.000
450.244;  -21.375;   37.000;  364.000
450.365;  -90.550; -495.000; -301.000
450.486;  -28.200;   80.000;  268.000
450.608;   23.425;  393.000;  326.000
450.729;   62.425;  578.000;  645.000
450.850;    0.475; -574.000; -466.000
450.972;  718.000; -552.000; -389.000
451.093; 4825.125;  190.000;  588.000
451.214; 2057.900; -516.000; -337.000
451.336;  364.875;  773.000;  579.000
451.457;   61.000;  264.000;  393.000
451.578;  -46.325; -118.000;  -74.000
451.699; -114.975; -546.000; -540.000
451.821;  -52.250; -284.000;  -50.000
451.942;   -0.925;  278.000;  285.000
452.063;   25.125;  228.000;  419.000
452.184;  536.150;  -54.000;  -49.000
452.305; 1091.175;  103.000;  170.000
452.427;  103.500; -549.000; -301.000
452.548;   -7.225;   23.000;   79.000
452.669;  -51.750; -257.000;  -89.000
452.790;  -52.100;    3.000;  -18.000
452.911;   -9.775;  195.000;  259.000
453.032;  -70.275; -289.000;  -60.000
453.153;  -46.950;  -29.000;   81.000
453.274;   58.775;  737.000;  868.000
453.395;  -45.775;  -51.000;  175.000
453.516;  136.100; 1317.000; 1388.000
453.637;  -80.775; -205.000; -150.000
453.758;  -51.225;   15.000;   69.000
453.879; -132.975; -462.000; -250.000
454.000;   84.400; 1086.000;  948.000
454.121; -116.175; -554.000; -326.000
454.242; -133.300; -599.000; -383.000
454.362;  -59.150;  -99.000;  114.000
454.483;  -40.575; -309.000; -229.000
454.604;   44.100;  512.000;  580.000
454.725; -132.875; -627.000; -555.000
454.846; -147.850; -474.000; -406.000
454.967;  -44.525;  230.000;  539.000
455.087;  -50.225;  179.000;  153.000
455.208;   17.450;  554.000;  856.000
455.329;  -70.725;  -22.000;   82.000
455.450;   16.125;  473.000;  633.000
455.570;  -81.100; -234.000; -211.000
455.691;  -38.400;  201.000;  407.000
455.812; -111.600; -270.000;  -92.000
455.932;  -63.675;  107.000;  -97.000
456.053;  -92.200;   36.000;   24.000
456.173; -100.475; -433.000; -355.000
456.294; -137.300; -476.000; -303.000
456.415;  -73.075;  -73.000;   70.000
456.535;  -34.825;  297.000;  273.000
456.656;  -41.050;  132.000;  240.000
456.776;  -86.600;    3.000;  298.000
456.897;  -15.100;  308.000;  513.000
457.017;  -72.700; -153.000;   -3.000
457.138; -103.525; -402.000; -249.000
457.258;  -32.850;  263.000;  224.000
457.379;  -17.100;  509.000;  521.000
457.499;  -41.875;  443.000;  432.000
457.620; -128.550; -407.000; -231.000
457.740; -106.650; -132.000;  -11.000
457.860;  -61.175;   87.000;   44.000
457.981;  -54.600;  132.000;  124.000
458.101;  -71.225;  -89.000;   40.000
458.221;  -28.800;  336.000;  402.000
458.342;  -77.450;   -4.000;  -37.000
458.462;    8.475;  617.000;  352.000
458.582;  -50.100; -302.000; -294.000
458.703;    8.150;  303.000;  154.000
458.823;  -24.500;   22.000;  163.000
458.943;   37.975;  341.000;  467.000
459.063;  -11.650; 1124.000;  192.000
459.183;  -29.900;  328.000;  313.000
459.304;    7.875;  315.000;  517.000
459.424;  -68.075; -246.000;  -89.000
459.544;  317.000;  388.000;  764.000
459.664;  826.700;  499.000;  506.000
459.784;  298.450; 1004.000; 1175.000
459.904;   49.600;  867.000;  744.000
460.024;   80.275;  867.000;  684.000
460.144;   12.050;  449.000;  554.000
460.264;   -7.275;  515.000;  327.000
460.385;  -98.350; -145.000; -119.000
460.505;   63.825;  905.000;  858.000
460.625;  -78.250;  -17.000;  -68.000
460.745;  -18.300;  396.000;  541.000
460.864;  -53.325;  153.000;  469.000
460.984;   19.675;  499.000;  573.000
461.104;  128.750; 1656.000; 1775.000
461.224;   15.225;  657.000;  650.000
461.344;  -29.400;  431.000;  360.000
461.464;  -31.750;  258.000;  513.000
461.584;  -34.775;  283.000;  466.000
461.704;  -56.825;   58.000;  108.000
461.824;  -71.200;  238.000;  259.000
461.943;  -34.875;  191.000;  130.000
462.063;  -79.875;    2.000;  324.000
462.183;   29.175;  639.000;  717.000
462.303;  103.525; 1678.000; 1230.000
462.422;   10.950;  781.000;  840.000
462.542;  -55.100;  271.000;  391.000
462.662;   35.950;  353.000;  380.000
462.782;  235.350;  833.000;  572.000
462.901;  471.100;  545.000;  717.000
463.021;  285.925; 1702.000; 1638.000
463.141;  -13.200;  337.000;  770.000
463.260;  -23.725;  614.000;  474.000
463.380;   21.075;  902.000;  884.000
463.499;  -33.900;  342.000;  332.000
463.619;  -50.200;  581.000;  559.000
463.738;  102.850; 1644.000;  903.000
463.858;    8.675;  657.000;  811.000
463.978;  -39.225;  542.000;  396.000
464.097;   37.925;  921.000; 1114.000
464.217;  116.500; 1196.000; 1143.000
464.336;   98.650; 1068.000; 1130.000
464.455;  -35.300;  328.000;  659.000
464.575;   29.325;  597.000;  602.000
464.694;  173.450; 1204.000; 1179.000
464.814;  130.400; 1190.000; 1138.000
464.933;   72.550; 1095.000; 1027.000
465.052;   89.750; 1412.000; 1054.000
465.172;   69.025;  922.000;  799.000
465.291;  136.800; 1376.000; 1320.000
465.410;   23.200;  462.000;  735.000
465.530;   81.175; 1355.000; 1310.000
465.649;   57.125; 1209.000; 1273.000
465.768;  120.925; 1673.000; 1508.000
465.888;   54.475;  941.000; 1174.000
466.007;   93.825; 1335.000; 1440.000
466.126;   -9.350;  721.000;  641.000
466.245;   51.050; 1176.000; 1187.000
466.364;   23.175;  950.000; 1060.000
466.484;   58.850; 1024.000; 1213.000
466.603;   25.625; 1101.000; 1222.000
466.722;  107.200; 1490.000; 1769.000
466.841;   72.425; 1151.000; 1401.000
466.960;   45.500; 1069.000;  972.000
467.079;  138.075; 1971.000; 1786.000
467.198;   44.350; 1238.000; 1181.000
467.317;   72.650; 1768.000; 1162.000
467.436;   84.225; 1709.000; 1261.000
467.555;  106.325; 1796.000; 1746.000
467.674;   69.525; 1227.000; 1329.000
467.793;   43.975; 1376.000; 1374.000
467.912;   72.025; 1658.000; 1539.000
468.031;  130.250; 2038.000; 1930.000
468.150;  142.075; 1842.000; 1837.000
468.269;  191.975; 2313.000; 2090.000
468.388;  178.700; 2168.000; 2339.000
468.507;  238.000; 2884.000; 2903.000
468.626;  216.875; 2555.000; 2541.000
468.744;  140.625; 2018.000; 2174.000
468.863;  197.550; 2312.000; 2523.000
468.982;   91.150; 1503.000; 1555.000
469.101;  213.275; 2788.000; 2692.000
469.220;  145.825; 2333.000; 2176.000
469.338;  244.900; 2935.000; 3051.000
469.457;  195.575; 2719.000; 2545.000
469.576;  355.750; 3953.000; 3784.000
469.695;  243.225; 2877.000; 3066.000
469.813;  406.900; 4148.000; 4192.000
469.932;  418.550; 4255.000; 4485.000
470.051;  425.625; 4075.000; 4161.000
470.169;  841.975; 4470.000; 4338.000
470.288; 1463.850; 4700.000; 4809.000
470.406;  870.000; 5059.000; 5194.000
470.525;  657.025; 6101.000; 5787.000
470.644;  632.975; 6847.000; 6794.000
470.762;  821.475; 8397.000; 7873.000
470.881;  913.100; 8651.000; 8464.000
470.999; 1055.925; 9685.000; 9151.000
471.118; 1125.075;11174.000;10711.000

