
Integration time [ms]: 200.000
Averaging Nr. [scans]: 10
Smoothing Nr. [pixels]: 0
Data measured with spectrometer [name]: 2101012U2
Wave   ;Sample   ;Dark     ;Reference
[nm]   ;[counts] ;[counts] ;[counts] 

197.733;  148.000;  516.000;  404.000
197.879; -185.500; -610.000; -634.000
198.025;  -84.300; -475.000; -420.000
198.171; -163.900; -602.000; -612.000
198.317;  -54.700; -401.000; -316.000
198.463; -134.000; -655.000; -404.000
198.609;   47.400;  181.000; -137.000
198.755; -181.900; -644.000; -410.000
198.901; -135.800; -505.000; -424.000
199.047; -130.300; -615.000; -488.000
199.193;  -53.600; -230.000; -468.000
199.339;  -92.400; -222.000; -369.000
199.485;   62.600;  330.000;  271.000
199.631;   75.500;  227.000;  310.000
199.777; -114.600; -466.000; -398.000
199.923;  -95.100; -610.000; -424.000
200.069;  -20.400; -141.000;  -58.000
200.215;  129.500;  128.000;  453.000
200.361;   92.200;  243.000;  477.000
200.507; -147.500; -600.000; -373.000
200.653;   -1.900; -371.000; -194.000
200.798; -100.800; -215.000; -125.000
200.944;  -15.100; -146.000;  -41.000
201.090;   97.500;   61.000;  222.000
201.236;   -0.900; -116.000; -158.000
201.382;  265.800;  874.000;  903.000
201.528;    8.400;  -58.000;  -48.000
201.674; -111.200; -386.000; -293.000
201.819; -145.900; -540.000; -439.000
201.965; -172.500; -699.000; -447.000
202.111;  -43.200; -273.000; -226.000
202.257;  -83.200; -250.000; -238.000
202.402;    7.300;   13.000;  -36.000
202.548;  -51.300; -169.000; -116.000
202.694;  180.500;  410.000; -183.000
202.840; -171.600; -603.000; -531.000
202.985; -168.600; -681.000; -639.000
203.131; -218.400; -832.000; -666.000
203.277;  -24.500; -199.000; -262.000
203.423; -122.800; -434.000; -520.000
203.568;  -86.700; -462.000; -237.000
203.714; -119.000; -535.000; -542.000
203.860; -155.600; -682.000; -641.000
204.005;   55.500;  112.000;  167.000
204.151;  180.800;  561.000;  556.000
204.296;  -80.900; -354.000; -221.000
204.442; -144.300; -600.000; -547.000
204.588; -141.800; -592.000; -579.000
204.733;   46.100;  178.000;  168.000
204.879; -268.200;-1018.000; -822.000
205.025;   20.700;  -99.000;  126.000
205.170;   19.000;  -17.000;   94.000
205.316;  171.800;  438.000;  661.000
205.461; -153.400; -698.000; -554.000
205.607;  177.600;  609.000;  665.000
205.752; -177.200; -626.000; -551.000
205.898;  -92.900; -501.000; -391.000
206.043; -133.400; -578.000; -506.000
206.189; -104.700; -243.000; -285.000
206.334;  171.200;  554.000;  606.000
206.480;  105.500;  409.000;  239.000
206.625; -162.700; -529.000; -552.000
206.771; -106.700; -451.000; -373.000
206.916;  -46.400; -210.000; -537.000
207.062; -152.200; -545.000; -591.000
207.207; -137.300; -546.000; -443.000
207.353;  124.200;  185.000;  460.000
207.498;   55.800;  196.000;   85.000
207.643;  -94.800; -501.000; -370.000
207.789; -287.700;-1069.000; -910.000
207.934; -198.400; -665.000; -713.000
208.080;  -60.800; -154.000;   66.000
208.225;  -27.900;  -22.000;  -57.000
208.370; -182.200; -727.000; -619.000
208.516; -163.000; -741.000; -487.000
208.661;  -27.600; -127.000;  -69.000
208.806;  -18.600; -165.000; -171.000
208.952; -271.900;-1044.000; -731.000
209.097;  184.100;  378.000;  349.000
209.242;  -96.300; -307.000; -382.000
209.387;  119.100;  392.000;  350.000
209.533; -108.400; -321.000; -350.000
209.678;  186.500;  472.000;  543.000
209.823; -111.500; -408.000; -310.000
209.969; -220.500; -860.000; -757.000
210.114; -232.200; -907.000; -719.000
210.259; -222.900; -939.000; -889.000
210.404;  -12.500; -171.000;  103.000
210.549;   16.000;  108.000;    3.000
210.695;   -5.700;   -3.000;  -95.000
210.840;   84.100;   94.000;   67.000
210.985;  -88.600; -484.000; -303.000
211.130;  164.400;  268.000;  406.000
211.275;   69.900;  207.000;  199.000
211.420; -104.000; -300.000; -289.000
211.566; -141.300; -536.000; -489.000
211.711;   57.400;  218.000;  157.000
211.856; -126.200; -545.000; -519.000
212.001;   15.200;  151.000;   44.000
212.146;   -4.800;  153.000;   49.000
212.291;  -39.100; -210.000; -186.000
212.436;  -66.000; -280.000;   -6.000
212.581; -166.200; -685.000; -653.000
212.726; -130.400; -487.000; -538.000
212.871;  -92.200; -552.000; -217.000
213.016; -301.700;-1172.000;-1029.000
213.161;  156.300;  406.000;  291.000
213.306; -155.600; -435.000; -577.000
213.451; -170.800; -778.000; -689.000
213.596;  -71.100; -455.000; -347.000
213.741; -120.000; -448.000; -538.000
213.886; -182.700; -498.000; -517.000
214.031;    1.800; -294.000; -124.000
214.176; -107.100; -408.000; -341.000
214.321;   -4.900; -296.000; -157.000
214.466;  -61.900; -163.000;  -43.000
214.611;   23.200;  -61.000;  -10.000
214.756; -245.400; -948.000; -858.000
214.901;  -44.700; -388.000; -226.000
215.046; -251.300; -797.000; -825.000
215.191;    3.700;  128.000;   35.000
215.336;  -58.900; -157.000;  -19.000
215.480; -130.300; -684.000; -505.000
215.625;  -19.100; -175.000;  -19.000
215.770; -164.400; -757.000; -662.000
215.915;   -8.800;   -5.000;  -97.000
216.060;   27.600; -113.000;  -21.000
216.205; -222.200; -731.000; -779.000
216.349; -134.300; -470.000; -533.000
216.494; -282.900; -939.000; -867.000
216.639; -246.500; -823.000; -888.000
216.784; -200.900; -577.000; -525.000
216.929;  125.800;  392.000;  281.000
217.073;  -31.600; -244.000;  -31.000
217.218;   35.700;   78.000;  -47.000
217.363; -188.600; -656.000; -618.000
217.507; -124.200; -623.000; -588.000
217.652; -256.600; -845.000; -874.000
217.797; -204.700; -708.000; -659.000
217.942; -229.400; -856.000; -720.000
218.086;  155.800;  608.000;  539.000
218.231;  -47.800; -174.000;  -26.000
218.376;  -78.500; -337.000; -229.000
218.520;   27.700;  -41.000;   96.000
218.665;  -80.000; -338.000; -204.000
218.810;  -79.300; -275.000; -233.000
218.954;   29.900;  201.000;   35.000
219.099; -207.400; -713.000; -963.000
219.243; -139.900; -589.000; -554.000
219.388;  -58.500; -264.000; -136.000
219.532;   -2.100; -116.000; -116.000
219.677; -153.800; -564.000; -521.000
219.822;   25.700;   33.000;   89.000
219.966;   23.700;   17.000;  -99.000
220.111;  -72.300; -328.000;  -40.000
220.255; -195.800; -797.000; -750.000
220.400;  -42.800; -180.000; -146.000
220.544; -134.100; -516.000; -450.000
220.689; -113.400; -422.000; -451.000
220.833;  -16.400; -123.000;  -58.000
220.978;  -78.700; -393.000; -563.000
221.122;   84.500;  319.000;  307.000
221.267; -206.200; -906.000; -837.000
221.411; -127.600; -478.000; -394.000
221.555;  -15.700; -104.000;  -23.000
221.700; -119.400; -329.000; -222.000
221.844;   68.600;  255.000;  272.000
221.989; -100.700; -328.000; -311.000
222.133;  -69.600; -289.000; -307.000
222.277;  -16.700;    5.000;   78.000
222.422;   67.800;  227.000;  113.000
222.566;  -70.700; -381.000; -214.000
222.711; -121.900; -414.000; -479.000
222.855; -136.800; -643.000; -586.000
222.999; -177.400; -642.000; -717.000
223.144;  -54.300; -195.000; -194.000
223.288;  105.500;  423.000;  251.000
223.432;   30.000;  184.000;  230.000
223.576;   37.500;  152.000;  -21.000
223.721;   79.900;  364.000;  273.000
223.865;  -82.400; -472.000; -475.000
224.009;  534.500; 1673.000; 1631.000
224.153; -149.800; -660.000; -671.000
224.298; -128.400; -531.000; -489.000
224.442;   -6.400;  -74.000;  -33.000
224.586;  -24.000; -169.000; -106.000
224.730; -226.200; -858.000; -670.000
224.875; -229.700; -739.000; -688.000
225.019;   32.000;  102.000;  188.000
225.163;  153.700;  208.000;  341.000
225.307;   70.200;   97.000;  -91.000
225.451;  110.000;  360.000;  481.000
225.595;   80.500;  264.000;  176.000
225.739;   -9.800; -170.000;  -94.000
225.884;   23.000;   86.000;    5.000
226.028; -187.300; -760.000; -626.000
226.172;  -53.100; -260.000; -273.000
226.316; -232.100; -941.000; -902.000
226.460; -142.700; -645.000; -493.000
226.604; -115.300; -406.000; -400.000
226.748; -194.400; -836.000; -733.000
226.892;  -61.900; -227.000; -181.000
227.036; -113.000; -537.000; -447.000
227.180; -106.500; -551.000; -375.000
227.324; -103.900; -561.000; -580.000
227.468; -229.300; -819.000; -717.000
227.612;    3.100;  242.000;  -28.000
227.756; -207.300; -845.000; -698.000
227.900;  111.200;  342.000;  441.000
228.044; -136.600; -509.000; -290.000
228.188;  131.400;  448.000;  568.000
228.332; -157.800; -546.000; -472.000
228.476;  -31.500; -223.000; -149.000
228.620;  -45.900; -210.000; -150.000
228.764;  143.200;  431.000;  349.000
228.908;  -46.900; -155.000;   30.000
229.052; -111.800; -615.000; -528.000
229.195;  -44.100; -172.000;   13.000
229.339;  -56.500; -235.000; -305.000
229.483;  -43.400;    5.000; -162.000
229.627;    3.600; -156.000;  139.000
229.771;  -67.900; -218.000; -294.000
229.915;   24.100;  230.000;   79.000
230.059; -198.300; -648.000; -663.000
230.202;  -87.700; -370.000; -317.000
230.346;  -22.200; -107.000;  107.000
230.490; -133.400; -489.000; -521.000
230.634; -226.000; -736.000; -553.000
230.777;  197.600;  478.000;  509.000
230.921; -108.900; -450.000; -359.000
231.065;  -46.700; -246.000; -286.000
231.209;   90.400;  261.000;  265.000
231.352;   72.900;   54.000;   40.000
231.496;   18.700;  568.000;  188.000
231.640; -157.900; -693.000; -621.000
231.783;  156.800;  546.000;  525.000
231.927;  -79.400; -294.000; -365.000
232.071; -236.100; -962.000; -736.000
232.214; -229.500; -980.000; -764.000
232.358; -206.200; -683.000; -599.000
232.502;   39.200;  -19.000;    7.000
232.645; -260.700;-1090.000; -927.000
232.789;  -36.500; -257.000; -218.000
232.933;  -86.700; -407.000; -224.000
233.076; -249.100;-1038.000; -897.000
233.220; -215.200; -752.000; -777.000
233.363; -149.000; -669.000; -477.000
233.507;  137.000;  371.000;  129.000
233.650; -176.100; -764.000; -834.000
233.794;  111.600;  438.000;  461.000
233.938; -111.400; -530.000; -362.000
234.081;  -22.000;  -93.000;   31.000
234.225; -131.500; -631.000; -539.000
234.368; -221.700; -773.000; -723.000
234.512;  -57.800; -385.000; -299.000
234.655; -151.300; -582.000; -555.000
234.798; -129.300; -493.000; -466.000
234.942; -291.400; -884.000;-1002.000
235.085; -122.100; -651.000; -443.000
235.229; -144.100; -405.000; -410.000
235.372;  -96.100; -247.000; -191.000
235.516; -130.500; -397.000; -321.000
235.659;   79.300;   92.000;  121.000
235.802;    1.500;  -38.000;  -22.000
235.946;  101.300;  335.000;  215.000
236.089;   88.200;  126.000;  250.000
236.233;  117.800;  275.000;  298.000
236.376;  -91.200; -235.000; -378.000
236.519;  -67.300; -297.000; -319.000
236.663;  -11.200; -215.000; -117.000
236.806; -291.100;-1029.000; -999.000
236.949;  147.500;  543.000;  431.000
237.092;  140.600;  412.000;  391.000
237.236; -143.000; -589.000; -502.000
237.379;  155.900;  352.000;  428.000
237.522; -229.000; -879.000; -768.000
237.666;  -17.800; -271.000;   18.000
237.809; -270.300; -851.000; -823.000
237.952;  107.600;  469.000;  271.000
238.095; -133.300; -447.000; -442.000
238.238;  190.200;  688.000;  700.000
238.382;    9.300;  166.000;  103.000
238.525; -127.300; -598.000; -511.000
238.668; -285.100;-1060.000; -985.000
238.811; -157.600; -638.000; -643.000
238.954;  -78.900; -483.000; -334.000
239.097;  202.400;  617.000;  664.000
239.241;   69.600;  394.000;  326.000
239.384;  -54.300; -254.000; -214.000
239.527; -125.200; -424.000; -224.000
239.670; -293.500; -994.000;-1091.000
239.813; -228.500; -696.000; -658.000
239.956;  183.900;  579.000;  473.000
240.099; -226.100; -778.000; -725.000
240.242;  167.800;  428.000;  432.000
240.385;  115.800;  466.000;  450.000
240.528; -155.600; -706.000; -473.000
240.671;   42.100;  189.000;  134.000
240.814;  -71.600; -441.000; -158.000
240.957; -200.900; -767.000; -578.000
241.100; -166.000; -779.000; -755.000
241.243; -294.200;-1234.000; -893.000
241.386;  -72.300; -508.000; -379.000
241.529; -186.800; -735.000; -547.000
241.672; -144.200; -566.000; -495.000
241.815; -256.200; -832.000; -808.000
241.958;  -58.100; -125.000; -182.000
242.101; -171.900; -545.000; -390.000
242.244;  -60.300; -270.000; -325.000
242.387;  -56.100; -304.000; -246.000
242.530;  127.400;  470.000;  134.000
242.673;  -93.900; -381.000; -309.000
242.815; -225.900; -925.000; -899.000
242.958; -139.500; -482.000; -381.000
243.101;   21.900;  132.000;  187.000
243.244; -169.900; -564.000; -521.000
243.387;  -85.100; -313.000; -316.000
243.530; -188.000; -657.000; -674.000
243.672;   26.500;   43.000;  -92.000
243.815; -112.800; -355.000; -283.000
243.958;   -8.000;   98.000;  -26.000
244.101;    5.800;   59.000;  -16.000
244.243;  -13.500;  -47.000;  101.000
244.386; -250.300; -761.000; -630.000
244.529;  -34.400; -132.000; -139.000
244.672; -330.700;-1154.000; -951.000
244.814; -210.600; -621.000; -794.000
244.957;  -58.600; -380.000; -304.000
245.100; -155.300; -489.000; -489.000
245.242; -124.000; -387.000; -374.000
245.385;    2.700;  -59.000;  -39.000
245.528; -246.300; -871.000; -705.000
245.670;  198.500;  612.000;  634.000
245.813; -188.900; -599.000; -547.000
245.956;  -46.800; -324.000; -275.000
246.098; -138.600; -508.000; -650.000
246.241;   42.800;  194.000;   48.000
246.383;  -12.700; -119.000;  -73.000
246.526; -165.400; -454.000; -525.000
246.669; -219.400; -889.000; -780.000
246.811;   49.600;  172.000;   -1.000
246.954;  -96.000; -512.000; -426.000
247.096;  -56.000;  -84.000;   -6.000
247.239; -119.400; -482.000; -445.000
247.381; -149.500; -647.000; -488.000
247.524;  196.200;  645.000;  679.000
247.666;  -14.000;   58.000;   11.000
247.809; -261.100; -887.000; -691.000
247.951;   -3.700;  -75.000;  138.000
248.094;   94.500;  432.000;  308.000
248.236; -321.600;-1262.000;-1238.000
248.378;    0.500; -356.000;  -81.000
248.521;  -37.300; -334.000; -337.000
248.663;  -41.700; -236.000; -267.000
248.806;  -30.300; -300.000; -266.000
248.948; -183.700; -886.000; -763.000
249.090;  -99.500; -428.000; -398.000
249.233; -102.600; -344.000; -381.000
249.375; -125.900; -474.000; -451.000
249.518;  -19.200;  -83.000; -133.000
249.660;   22.200; -103.000;    3.000
249.802; -356.500;-1303.000;-1189.000
249.945; -126.100; -612.000; -540.000
250.087; -220.300; -834.000; -768.000
250.229;  -94.000; -362.000; -480.000
250.371; -137.900; -494.000; -439.000
250.514;  -80.100; -310.000; -244.000
250.656; -126.300;   69.000;  102.000
250.798; -212.800; -849.000; -800.000
250.940;  -98.900; -322.000; -322.000
251.083;  -25.700; -335.000; -111.000
251.225;  137.600;  338.000;  310.000
251.367;  -95.300; -274.000; -373.000
251.509;  -72.700; -265.000; -210.000
251.651; -188.600; -731.000; -671.000
251.794;  132.400;  538.000;  632.000
251.936; -211.600; -821.000; -747.000
252.078; -122.100; -540.000; -461.000
252.220; -103.600; -645.000; -477.000
252.362;  134.000;  344.000;  462.000
252.504; -156.400; -677.000; -584.000
252.646; -217.400; -875.000; -722.000
252.788;    4.200;   14.000; -128.000
252.931;  -89.100; -257.000; -253.000
253.073;  -67.700; -376.000; -317.000
253.215;    7.000;  141.000;  122.000
253.357;    0.100;   82.000; -153.000
253.499; -110.700; -374.000; -234.000
253.641; -158.400; -749.000; -594.000
253.783; -174.200; -609.000; -527.000
253.925; -168.100; -586.000; -591.000
254.067; -227.300; -744.000; -667.000
254.209;  -54.600; -391.000; -259.000
254.351; -269.500; -865.000; -883.000
254.493; -100.600; -441.000; -417.000
254.635; -213.900; -936.000; -818.000
254.777; -176.000; -752.000; -687.000
254.918; -158.400; -512.000; -430.000
255.060;  -78.700; -551.000; -395.000
255.202; -106.800; -473.000; -261.000
255.344; -148.000; -658.000; -455.000
255.486; -120.500; -471.000; -406.000
255.628; -233.100; -780.000; -781.000
255.770; -172.700; -676.000; -536.000
255.912; -137.000; -559.000; -468.000
256.053; -173.200; -730.000; -508.000
256.195;  357.300; 1008.000;  903.000
256.337; -185.900; -861.000; -595.000
256.479;  170.400;  532.000;  416.000
256.621;  -78.500; -394.000; -212.000
256.762; -176.000; -789.000; -742.000
256.904;  104.200;  485.000;  487.000
257.046;  -84.200; -381.000; -271.000
257.188;  -79.600; -351.000; -264.000
257.329; -145.800; -525.000; -464.000
257.471; -246.500; -939.000; -807.000
257.613; -127.100; -584.000; -498.000
257.755; -291.400;-1073.000; -982.000
257.896;   89.500;  286.000;  392.000
258.038; -127.900; -403.000; -352.000
258.180;  -55.600; -354.000; -279.000
258.321; -155.900; -581.000; -457.000
258.463;   34.800;  -71.000;  133.000
258.605; -159.100; -562.000; -570.000
258.746; -209.500; -886.000; -772.000
258.888; -329.400;-1026.000;-1020.000
259.029;   70.500;  121.000;   -8.000
259.171; -170.600; -614.000; -550.000
259.313;    8.400;  -49.000;  -47.000
259.454; -120.800; -536.000; -414.000
259.596;  -97.000; -483.000; -390.000
259.737; -132.700; -590.000; -474.000
259.879;  127.100;  217.000;  311.000
260.020;  242.500;  901.000;  636.000
260.162;  -45.500; -146.000; -253.000
260.303; -242.700; -768.000; -687.000
260.445; -155.200; -609.000; -613.000
260.586;   97.800;  392.000;  157.000
260.728;  -62.300; -360.000; -248.000
260.869; -130.700; -350.000; -343.000
261.011;  195.800;  706.000;  537.000
261.152; -104.100; -479.000; -319.000
261.293; -156.200; -576.000; -595.000
261.435;  -58.900; -219.000; -184.000
261.576;  -94.900; -455.000; -325.000
261.718;  121.400;  420.000;  470.000
261.859; -234.000; -940.000; -949.000
262.000; -246.900; -951.000;-1016.000
262.142;  -46.400;  -52.000;  -60.000
262.283; -241.600; -808.000; -691.000
262.424; -155.200; -666.000; -625.000
262.566; -291.200;-1161.000; -983.000
262.707; -212.600; -840.000; -830.000
262.848; -241.800; -769.000; -726.000
262.990;  -87.900; -362.000; -345.000
263.131;  166.000;  650.000;  681.000
263.272;   54.600;  -61.000;  -41.000
263.413; -170.700; -589.000; -561.000
263.555; -133.100; -669.000; -143.000
263.696; -160.400; -550.000; -641.000
263.837; -107.400; -449.000; -551.000
263.978;   10.200;   -5.000;  -77.000
264.119;  -91.000; -283.000; -264.000
264.261; -224.700; -847.000; -630.000
264.402;   20.100;   33.000;   40.000
264.543; -135.400; -509.000; -524.000
264.684;   -1.000;   61.000;  -50.000
264.825; -139.300; -816.000; -538.000
264.966;   31.100;  -84.000;  -67.000
265.107; -198.900; -646.000; -670.000
265.248; -226.200; -825.000; -812.000
265.390;    2.700;  152.000;   -9.000
265.531;   -9.500; -238.000; -107.000
265.672; -148.500; -557.000; -630.000
265.813;  146.200;  563.000;  439.000
265.954; -278.100; -959.000; -940.000
266.095;   13.300; -372.000; -322.000
266.236; -186.300; -686.000; -548.000
266.377;  -77.000; -243.000; -297.000
266.518; -157.300; -619.000; -547.000
266.659;  101.900;  170.000;  268.000
266.800;   48.900;   83.000;   85.000
266.941; -145.500; -487.000; -478.000
267.082;   23.200;  354.000;   99.000
267.223; -106.200; -344.000; -273.000
267.364; -227.600; -892.000; -686.000
267.504;   -5.100;    3.000;  135.000
267.645;   18.900;  160.000;   67.000
267.786;  -62.900; -147.000;  -86.000
267.927; -130.500; -473.000; -379.000
268.068;  -21.300; -186.000;  -61.000
268.209;  -79.200; -175.000; -413.000
268.350; -112.300; -388.000; -532.000
268.490; -165.100; -648.000; -521.000
268.631;   70.400;  127.000;  225.000
268.772; -228.400; -874.000; -647.000
268.913;  -61.900; -328.000; -476.000
269.054;   -0.300; -117.000;   12.000
269.194;  -97.800; -418.000; -402.000
269.335; -299.600;-1137.000;-1074.000
269.476;   -4.700;   33.000;  -35.000
269.617;  -95.500; -347.000; -392.000
269.757; -166.200; -713.000; -646.000
269.898; -219.000; -856.000; -613.000
270.039;  -90.200; -415.000; -405.000
270.180; -276.800; -952.000; -816.000
270.320;  -33.300; -190.000; -250.000
270.461;  -16.800; -277.000; -249.000
270.602;   -2.300; -186.000; -156.000
270.742; -257.000; -868.000; -943.000
270.883; -103.300; -442.000; -390.000
271.023;  -85.700; -358.000; -357.000
271.164; -126.200; -607.000; -528.000
271.305; -162.600; -666.000; -654.000
271.445; -166.000; -722.000; -683.000
271.586; -109.500; -462.000; -283.000
271.726; -107.800; -397.000; -322.000
271.867; -107.600; -594.000; -534.000
272.008;  267.600; -473.000; -285.000
272.148;  249.400;  462.000;  468.000
272.289;   50.800; -113.000; -181.000
272.429;   27.800;   19.000;  185.000
272.570; -150.400; -633.000; -737.000
272.710; -210.400; -825.000; -775.000
272.851;  -21.600;  113.000; -130.000
272.991; -331.000;-1173.000;-1077.000
273.131; -124.100; -419.000; -459.000
273.272; -185.500; -683.000; -723.000
273.412;  -19.100; -143.000;  -31.000
273.553; -112.100; -488.000; -507.000
273.693;  299.300;  913.000;  858.000
273.834; -201.600; -894.000; -692.000
273.974; -140.700; -664.000; -615.000
274.114; -204.100; -772.000; -560.000
274.255;  165.600;  414.000;  373.000
274.395;    2.200; -180.000; -125.000
274.535;   88.300;  199.000;  350.000
274.676;   96.600;  225.000;   94.000
274.816;   -0.800;  110.000;   34.000
274.956; -160.500; -624.000; -690.000
275.097; -137.300;-1014.000; -922.000
275.237; -207.900; -913.000; -803.000
275.377; -192.400; -778.000; -689.000
275.517; -280.900; -878.000; -937.000
275.658; -102.200; -590.000; -555.000
275.798; -116.900; -606.000; -413.000
275.938;   57.400;  215.000;  323.000
276.078; -152.500; -626.000; -395.000
276.218;   21.700;   99.000;  104.000
276.359; -265.000;-1026.000;-1024.000
276.499; -118.500; -605.000; -446.000
276.639;  -36.900; -305.000; -151.000
276.779;  -86.200; -475.000; -357.000
276.919; -181.200; -783.000; -624.000
277.059;  -36.600; -261.000; -212.000
277.199;  -73.500; -357.000; -259.000
277.340;  130.600;  287.000;  175.000
277.480; -222.800; -840.000; -693.000
277.620;  145.600;  192.000;   16.000
277.760; -419.900;-1533.000;-1294.000
277.900;   61.200;  113.000;   33.000
278.040;   81.100;  137.000;  159.000
278.180;   97.100;  270.000;  170.000
278.320;   29.800;   21.000;   56.000
278.460; -115.100; -443.000; -469.000
278.600; -164.100; -708.000; -598.000
278.740;  153.300;  448.000;  224.000
278.880; -160.400; -768.000; -791.000
279.020;   34.500; -194.000; -144.000
279.160; -171.800; -672.000; -595.000
279.300; -211.600; -926.000; -873.000
279.440; -150.900; -709.000; -622.000
279.579;  -86.600;-1014.000; -929.000
279.719;  -62.500; -410.000; -394.000
279.859;  125.800;   -4.000;   41.000
279.999;   33.800; -208.000;  101.000
280.139;  -23.900; -435.000; -387.000
280.279; -155.000; -708.000; -745.000
280.419;   19.200; -229.000; -147.000
280.559;  -51.100; -259.000; -180.000
280.698; -165.500; -790.000; -639.000
280.838; -197.800; -778.000; -800.000
280.978; -202.000; -846.000; -790.000
281.118; -233.400; -811.000; -704.000
281.257;   46.200;   24.000;    6.000
281.397; -239.900;-1094.000; -960.000
281.537; -163.400; -599.000; -712.000
281.677;  -40.500; -150.000; -101.000
281.816; -149.300; -700.000; -630.000
281.956;  -22.600; -193.000; -257.000
282.096;  -94.400; -539.000; -396.000
282.235; -153.600; -672.000; -638.000
282.375;    3.400; -243.000;  -98.000
282.515; -174.100; -715.000; -707.000
282.654;   69.600;   29.000;  106.000
282.794;   71.200;  388.000;  244.000
282.934; -108.500; -530.000; -491.000
283.073; -240.900;-1030.000; -857.000
283.213;  -86.400; -460.000; -467.000
283.353;  -64.300; -408.000; -349.000
283.492;  -45.600; -264.000; -296.000
283.632; -115.700; -254.000; -168.000
283.771; -178.700; -859.000; -730.000
283.911;  -86.900; -369.000; -260.000
284.050; -186.300; -794.000; -748.000
284.190; -320.400;-1229.000;-1096.000
284.329; -276.200;-1055.000; -964.000
284.469; -143.600; -516.000; -591.000
284.608; -109.200; -559.000; -598.000
284.748; -141.200; -614.000; -570.000
284.887;    6.400;  -87.000;  -20.000
285.027; -256.900; -844.000; -892.000
285.166;  -40.500; -192.000; -249.000
285.306;   26.200; -116.000;  -33.000
285.445;  -47.600; -229.000; -343.000
285.584; -154.800; -630.000; -494.000
285.724;  -38.400; -282.000; -322.000
285.863; -224.700; -857.000; -507.000
286.002;  -80.200; -366.000; -276.000
286.142; -195.600; -715.000; -622.000
286.281;  -86.800; -525.000; -493.000
286.420; -147.500; -554.000; -417.000
286.560;  216.900;  653.000;  623.000
286.699; -281.200; -958.000; -912.000
286.838; -159.200; -590.000; -591.000
286.978; -194.400; -533.000; -537.000
287.117; -250.600;-1085.000; -950.000
287.256;  -68.800; -228.000; -211.000
287.395;  -69.700; -197.000; -378.000
287.535;  -91.200; -370.000; -298.000
287.674; -116.400; -509.000; -484.000
287.813;  172.900;  661.000;  533.000
287.952; -247.000;-1010.000; -871.000
288.091; -298.800;-1049.000; -915.000
288.231;   65.500;   13.000;   15.000
288.370; -343.500;-1217.000;-1200.000
288.509; -185.700; -728.000; -645.000
288.648; -163.400; -770.000; -548.000
288.787;  -30.200; -243.000;  -87.000
288.926; -124.200; -454.000; -475.000
289.065;  266.400;  859.000;  672.000
289.204;  -94.900; -377.000; -217.000
289.344; -161.300; -791.000; -690.000
289.483;   71.000;  416.000;  304.000
289.622;  -23.500; -291.000; -149.000
289.761;  -16.900; -309.000; -166.000
289.900; -208.300; -785.000; -626.000
290.039;    1.000;  -12.000;  -95.000
290.178;  -33.600; -274.000; -180.000
290.317; -140.100; -618.000; -479.000
290.456; -123.100; -463.000; -451.000
290.595; -267.500; -961.000; -833.000
290.734; -264.000; -904.000; -891.000
290.873; -129.700; -456.000; -420.000
291.011; -224.800; -833.000; -843.000
291.150; -189.500; -770.000; -682.000
291.289;  -33.000; -343.000; -110.000
291.428; -189.800; -599.000; -480.000
291.567;  -86.300; -370.000; -442.000
291.706;   14.600;  109.000;  154.000
291.845; -149.300; -597.000; -505.000
291.984; -328.800;-1234.000;-1061.000
292.122;  200.800;  602.000;  582.000
292.261;  120.800;  620.000;  463.000
292.400;   32.500; -144.000;  211.000
292.539; -257.900; -959.000; -813.000
292.678;    2.600; -325.000; -300.000
292.816; -320.300;-1136.000; -965.000
292.955; -158.900; -844.000; -684.000
293.094;  -40.400; -173.000; -337.000
293.233;  -99.500; -556.000; -400.000
293.371;  -52.300; -225.000;  -84.000
293.510; -199.900; -866.000; -780.000
293.649; -254.200; -959.000; -924.000
293.787; -174.900;-1083.000;-1012.000
293.926;    7.900; -113.000;  -32.000
294.065;  -72.100; -379.000; -290.000
294.203;  118.800;  298.000;  406.000
294.342;   51.500;   74.000;  156.000
294.481;12255.500;51180.000; -836.000
294.619;  -42.400; -425.000; -582.000
294.758; -293.300;-1230.000;-1137.000
294.896;   99.700; -125.000;    5.000
295.035; -249.600;-1040.000;-1006.000
295.174; -210.200;-1082.000; -954.000
295.312;  -35.000; -323.000; -203.000
295.451;  -47.500; -307.000; -428.000
295.589; -119.800; -389.000; -518.000
295.728;   52.600; -292.000; -165.000
295.866;   17.900;  -36.000;  -51.000
296.005; -133.200; -584.000; -341.000
296.143; -135.300; -558.000; -596.000
296.282; -196.800; -957.000; -881.000
296.420; -162.700; -657.000; -557.000
296.559; -132.700; -892.000; -633.000
296.697;  -22.600; -847.000; -665.000
296.835;   10.400;-1141.000;-1002.000
296.974;  102.100;  -23.000;   39.000
297.112;   -4.700; -443.000; -504.000
297.251; -141.800; -815.000; -755.000
297.389;  131.600; -576.000; -438.000
297.527;   87.100; -145.000;  -83.000
297.666; -101.400; -486.000; -438.000
297.804;  -58.900; -404.000; -264.000
297.942;   34.600; -136.000; -161.000
298.081;   15.500; -183.000;   63.000
298.219;  116.900;  -17.000;  -19.000
298.357;   77.400; -144.000;  -71.000
298.495;    2.900; -810.000; -812.000
298.634;  142.300;  245.000;  219.000
298.772;   68.400; -220.000; -338.000
298.910;  -47.500; -309.000; -182.000
299.048;   -3.000; -130.000; -153.000
299.187;  -53.800; -350.000; -250.000
299.325;   64.700;   52.000;  122.000
299.463;   39.200; -389.000; -299.000
299.601;  172.200; -327.000; -271.000
299.739; -198.500; -908.000; -883.000
299.877; -164.900; -791.000; -703.000
300.016; -116.700;-1095.000; -935.000
300.154;  286.700;  -19.000; -161.000
300.292;   45.500; -428.000; -348.000
300.430;   88.100; -408.000; -291.000
300.568; -203.300; -940.000; -874.000
300.706;  -98.400; -366.000; -469.000
300.844; -183.200;-1108.000; -979.000
300.982;  244.900;  246.000;  282.000
301.120; -208.000; -965.000; -866.000
301.258; -143.200; -812.000; -705.000
301.396;   51.500;  104.000;  -41.000
301.534;  110.800; -218.000; -293.000
301.672;  -70.700; -664.000; -521.000
301.810;  -10.600; -613.000; -545.000
301.948;  237.300;   53.000;  149.000
302.086;  898.100; -250.000;  -32.000
302.224; 1472.700; -610.000; -585.000
302.362;   69.600; -558.000; -622.000
302.500; -105.900; -923.000; -893.000
302.638;  200.800;  128.000;  245.000
302.776;  -16.500; -352.000; -408.000
302.913;  135.900;  447.000;  236.000
303.051;  -26.000;  -86.000;  -23.000
303.189;  109.000;   90.000;  118.000
303.327;  -51.700; -341.000; -256.000
303.465; -155.400; -832.000; -588.000
303.603; -161.100; -805.000; -604.000
303.740;  225.700;  417.000;  241.000
303.878;    8.000; -800.000; -759.000
304.016; -179.000; -915.000; -790.000
304.154; -269.300;-1123.000;-1152.000
304.291;  -54.000; -505.000; -554.000
304.429;   65.700;  102.000;   74.000
304.567; -247.400; -908.000; -893.000
304.705; -103.400; -408.000; -515.000
304.842;  132.900; -616.000; -540.000
304.980;  127.800;  215.000;   35.000
305.118;   63.800; -367.000; -365.000
305.255; -174.800; -945.000; -927.000
305.393;  123.300;  178.000;  239.000
305.531; -202.100;-1173.000; -956.000
305.668; -102.700; -663.000; -582.000
305.806;  166.600; -358.000; -439.000
305.943;  125.200; -629.000; -637.000
306.081;  104.900; -378.000; -267.000
306.219; -202.300; -863.000; -748.000
306.356;   77.100;  158.000;   27.000
306.494;  285.800;  981.000;  761.000
306.631;   58.200;  -11.000;  -55.000
306.769;   23.200; -613.000; -485.000
306.906;    5.900; -284.000; -258.000
307.044;  -74.300; -473.000; -488.000
307.181;  -72.900; -410.000; -332.000
307.319;   74.600;  112.000;   87.000
307.456; -348.600;-1191.000;-1153.000
307.594; -183.300; -980.000; -727.000
307.731;   -9.500; -371.000; -164.000
307.868;   53.200;  -15.000;   20.000
308.006; -240.100; -961.000; -847.000
308.143;  -87.400; -618.000; -330.000
308.281;  365.600;  -37.000; -254.000
308.418;    3.500; -748.000; -640.000
308.555; -141.200; -400.000; -250.000
308.693; -132.300; -577.000; -573.000
308.830; -198.400; -712.000; -657.000
308.967;   11.700; -215.000;  -95.000
309.105;  -61.300; -507.000; -396.000
309.242;   99.900; -468.000; -367.000
309.379;  649.200; -577.000; -655.000
309.517; -110.500; -936.000; -948.000
309.654; -165.800; -910.000; -734.000
309.791; -105.300; -662.000; -580.000
309.928; -227.400; -977.000; -914.000
310.065;  390.300;  819.000;  697.000
310.203;  -32.600; -825.000; -850.000
310.340;  -50.500; -465.000; -321.000
310.477; -124.200; -412.000; -516.000
310.614;  -90.000; -383.000; -473.000
310.751; -133.600; -427.000; -518.000
310.889;   -0.200;    1.000;   11.000
311.026; -250.300;-1161.000; -939.000
311.163;  -52.300; -386.000; -380.000
311.300; -120.100; -512.000; -479.000
311.437; -124.600; -658.000; -619.000
311.574; -299.300;-1226.000; -985.000
311.711;  -73.100; -595.000; -433.000
311.848;  -50.000; -380.000; -388.000
311.985;   51.700;  270.000;   93.000
312.122; -201.300; -932.000; -762.000
312.259; -215.900; -941.000; -994.000
312.396;  -86.400; -508.000; -551.000
312.533; -119.800; -812.000; -790.000
312.670; -259.800;-1070.000; -898.000
312.807;   17.300; -352.000; -367.000
312.944; -100.200; -513.000; -611.000
313.081;  -27.900; -150.000; -415.000
313.218; -195.200;-1111.000; -867.000
313.355;   38.700; -531.000; -449.000
313.492;   33.600; -455.000; -292.000
313.629;  297.400;  815.000;  735.000
313.766; -311.800;-1176.000;-1008.000
313.902;   23.200; -186.000;   21.000
314.039;  -61.000; -372.000; -289.000
314.176;   88.100;  286.000;  192.000
314.313; -106.400; -569.000; -473.000
314.450; -129.300; -788.000; -684.000
314.587; -100.700; -468.000; -480.000
314.723;   49.800;  -78.000;  130.000
314.860;  102.300;  318.000;  332.000
314.997;  123.200;  223.000;  142.000
315.134;  -43.900; -385.000; -368.000
315.270;  -49.100; -480.000; -496.000
315.407; -243.000;-1094.000; -967.000
315.544;  -74.500; -657.000; -538.000
315.681;  -85.000; -681.000; -565.000
315.817;   62.300; -133.000; -176.000
315.954;   31.300; -613.000; -392.000
316.091; -229.300;-1045.000;-1023.000
316.227;   -3.200;  -71.000; -179.000
316.364;   64.700;   23.000;    6.000
316.500;  -44.200; -113.000; -300.000
316.637;  -47.000; -181.000; -302.000
316.774; -156.600; -625.000; -358.000
316.910; -149.000; -598.000; -629.000
317.047; -107.300; -487.000; -351.000
317.183;  -81.500; -435.000; -566.000
317.320;   30.900; -367.000; -321.000
317.456; -108.500; -733.000; -805.000
317.593; -172.700; -598.000; -641.000
317.729;   28.400;  168.000;  -67.000
317.866; -409.900;-1434.000;-1285.000
318.002; -189.700; -708.000; -948.000
318.139; -177.200; -883.000; -867.000
318.275; -218.200;-1003.000; -738.000
318.412; -108.300; -517.000; -336.000
318.548;  -57.200; -751.000; -720.000
318.685; -159.800; -985.000; -888.000
318.821; -158.500; -762.000; -735.000
318.957;  -25.500;   34.000;  -23.000
319.094;  108.500;  297.000;  154.000
319.230; -117.800; -756.000; -742.000
319.367;  153.600; -471.000; -520.000
319.503;   48.000; -538.000; -436.000
319.639; -174.400; -877.000; -793.000
319.775;  -96.600; -750.000; -685.000
319.912;  -86.800; -424.000; -519.000
320.048; -199.200;-1184.000;-1184.000
320.184;  196.700;   59.000;   70.000
320.321;  -81.800; -497.000; -467.000
320.457;  169.800;  475.000;  662.000
320.593; -131.700; -375.000; -382.000
320.729; -195.700; -732.000; -734.000
320.866; -144.100; -577.000; -635.000
321.002; -136.600; -759.000; -809.000
321.138;  -21.300; -135.000; -211.000
321.274;  127.100; -148.000; -115.000
321.410;  -24.100; -585.000; -353.000
321.546;  -93.600;-1011.000; -911.000
321.683;  136.700;  400.000;  185.000
321.819;   38.400;  -48.000; -117.000
321.955; -223.000; -743.000; -722.000
322.091;  -65.500; -585.000; -540.000
322.227;    6.200; -382.000; -202.000
322.363;  -22.100; -320.000; -215.000
322.499;  -77.800; -343.000; -331.000
322.635;  329.600;  636.000;  443.000
322.771;   57.700; -139.000;   12.000
322.907;  150.400;  129.000;  327.000
323.043;  -23.100; -115.000; -206.000
323.179;  -31.900; -394.000; -363.000
323.315;    3.100; -401.000; -371.000
323.451;  140.800; -328.000; -236.000
323.587;  115.700;  -60.000;  -77.000
323.723;   29.500; -682.000; -601.000
323.859;  -31.200; -258.000;  -76.000
323.995;  -13.700; -467.000; -409.000
324.131; -217.500; -967.000; -892.000
324.267;  -30.200; -254.000; -276.000
324.402; -259.800; -960.000; -983.000
324.538;  -41.900; -279.000; -104.000
324.674;   66.700;  164.000;   77.000
324.810;  240.500;  226.000;  308.000
324.946;    8.500; -810.000; -658.000
325.082; -101.200; -568.000; -475.000
325.217;   16.900;  -62.000;   16.000
325.353; -167.700; -764.000; -659.000
325.489; -152.600; -540.000; -506.000
325.625; -109.600; -579.000; -525.000
325.760;  168.100;  517.000;  376.000
325.896;  -25.200; -515.000; -702.000
326.032;  -64.800; -403.000; -352.000
326.168; -110.800; -462.000; -369.000
326.303; -105.800; -352.000; -461.000
326.439;    5.100; -336.000; -276.000
326.575;   16.100; -190.000;  -29.000
326.710;   16.000; -156.000;  -30.000
326.846;    7.100;  146.000;  103.000
326.982; -129.800; -530.000; -548.000
327.117; -145.300; -481.000; -442.000
327.253; -124.800; -745.000; -742.000
327.388; -243.800;-1137.000;-1153.000
327.524; -100.800; -811.000; -578.000
327.659;   -9.600;  -58.000;  -22.000
327.795;  -19.900;   69.000;   45.000
327.931; -147.100; -723.000; -499.000
328.066;  -31.300; -417.000; -276.000
328.202;  -35.900;   12.000; -129.000
328.337;  224.800;  957.000;  713.000
328.473;    7.500;  -12.000;  -74.000
328.608;  -27.500; -256.000; -267.000
328.743; -141.100; -799.000; -664.000
328.879;   47.400;  214.000;  114.000
329.014;  -78.100; -102.000; -122.000
329.150; -148.300; -358.000; -483.000
329.285; -108.300; -465.000; -466.000
329.421;  -40.500; -548.000; -246.000
329.556;   16.000;  -36.000;   85.000
329.691; -140.200; -633.000; -615.000
329.827; -128.300; -626.000; -480.000
329.962;  -18.100;  131.000; -301.000
330.097; -139.800; -673.000; -585.000
330.233;  -38.900; -410.000; -223.000
330.368; -228.100; -839.000; -628.000
330.503;   14.500;    3.000;   98.000
330.638;   60.700;  -93.000; -125.000
330.774;  -87.100; -609.000; -530.000
330.909;  -13.600; -434.000; -244.000
331.044; -170.900; -714.000; -708.000
331.179; -357.700;-1217.000;-1109.000
331.315;   75.300;   77.000;   20.000
331.450;   66.100;  157.000;  285.000
331.585; -153.000; -805.000; -706.000
331.720; -141.200; -510.000; -460.000
331.855;   19.300;  -35.000; -102.000
331.990;  589.100;   62.000;  138.000
332.126;  310.800; -110.000;   71.000
332.261;   -1.800; -379.000; -265.000
332.396;   32.600; -135.000; -242.000
332.531; -147.000;-1074.000;-1031.000
332.666;   94.700; -519.000; -363.000
332.801; -169.100; -726.000; -807.000
332.936;  -28.500; -192.000; -122.000
333.071; -273.300; -870.000; -817.000
333.206;   87.000;  307.000;  379.000
333.341;  110.300;  344.000;  418.000
333.476; -170.100; -627.000; -623.000
333.611;  -44.700; -251.000; -173.000
333.746;  -97.200; -381.000; -464.000
333.881; -207.200; -973.000; -935.000
334.016; -231.200; -936.000; -917.000
334.151; -229.500; -746.000; -702.000
334.286;   60.700;  152.000;  186.000
334.421;  -27.300; -125.000; -178.000
334.556; -132.900; -611.000; -567.000
334.690; -154.400; -631.000; -577.000
334.825;  129.000;  381.000;   83.000
334.960; -121.800; -285.000; -413.000
335.095;   59.200;  135.000;  -91.000
335.230; -207.200; -722.000; -738.000
335.365; -251.900;-1084.000; -990.000
335.499; -246.100;-1108.000;-1037.000
335.634;   89.900;    9.000;  534.000
335.769; -164.800; -755.000; -720.000
335.904; -110.900; -603.000; -561.000
336.038; -100.100; -735.000; -657.000
336.173; -240.300;-1206.000;-1194.000
336.308;   16.900; -116.000; -189.000
336.443;   43.200; -544.000; -634.000
336.577; -146.600; -936.000; -787.000
336.712;  132.700;   -4.000;  -12.000
336.847;  -70.600; -724.000; -607.000
336.981;   95.100; -272.000; -208.000
337.116;  521.600;  615.000;  501.000
337.250;  226.500; -434.000; -421.000
337.385;  579.400; -297.000; -208.000
337.520;  252.600; -632.000; -603.000
337.654;  -62.400; -215.000; -126.000
337.789; -238.100; -989.000; -933.000
337.923;  -27.800; -104.000; -205.000
338.058; -176.200; -673.000; -738.000
338.192;  -77.700; -611.000; -488.000
338.327;   12.700;  -18.000; -155.000
338.461; -107.600; -299.000; -469.000
338.596; -151.900; -780.000; -638.000
338.730; -152.600; -767.000; -803.000
338.865;  253.200;  -46.000; -140.000
338.999;  -66.700; -846.000; -702.000
339.134;  -16.700; -634.000; -536.000
339.268;   63.900; -741.000; -603.000
339.403;  762.100; -740.000; -775.000
339.537;  313.800; -894.000; -820.000
339.671; -211.800; -829.000; -813.000
339.806;  -63.700; -556.000; -512.000
339.940;   68.500; -261.000; -235.000
340.074; -163.600; -685.000; -510.000
340.209;  -72.500; -351.000; -230.000
340.343; -161.400; -517.000; -573.000
340.477;  343.400;  998.000; 1036.000
340.612;  -40.600;-1033.000; -900.000
340.746;  278.700; -199.000; -243.000
340.880; -115.900; -924.000; -785.000
341.014;    9.600;  -45.000; -154.000
341.149; -176.500; -756.000; -718.000
341.283; -178.300; -839.000; -754.000
341.417; -194.500;-1124.000; -938.000
341.551;  157.000; -768.000; -708.000
341.685;  -66.200; -633.000; -611.000
341.820;  -98.200; -562.000; -493.000
341.954;  -60.700; -218.000; -349.000
342.088; -285.700;-1102.000;-1019.000
342.222;   94.600;  565.000;  618.000
342.356; -106.400; -395.000; -335.000
342.490; -197.000; -880.000; -841.000
342.624;  -50.500; -339.000; -242.000
342.758;   -5.100; -364.000; -312.000
342.892; -111.500; -710.000; -585.000
343.026;  -31.100;  -58.000; -116.000
343.160;  -90.400; -426.000; -376.000
343.294; -126.000; -474.000; -337.000
343.428;  -54.400; -488.000; -448.000
343.562;   -8.600; -172.000;  -23.000
343.696;  -37.700; -385.000; -314.000
343.830;  -47.600; -362.000; -356.000
343.964;   66.800; -231.000; -168.000
344.098; 1317.100;  199.000;   70.000
344.232; 1133.200; -266.000; -127.000
344.366;  176.800; -567.000; -453.000
344.500;   86.500; -665.000; -744.000
344.634;   39.200; -324.000; -164.000
344.768;  -21.100; -531.000; -341.000
344.902;   63.200;  278.000;  256.000
345.035; -120.500; -556.000; -496.000
345.169; -219.300; -933.000; -656.000
345.303;  -40.500; -308.000; -482.000
345.437; -179.400; -826.000; -717.000
345.571;  -96.300; -675.000; -594.000
345.704; -119.200; -309.000; -532.000
345.838;   10.900; -331.000; -284.000
345.972;  -69.500; -543.000; -495.000
346.106;  387.500; -179.000; -190.000
346.239;  789.600; -312.000; -243.000
346.373;   12.900; -343.000; -302.000
346.507; -231.700; -950.000; -962.000
346.640;  253.100;  -30.000;   13.000
346.774;  -83.900; -650.000; -797.000
346.908;    5.400; -138.000;  -11.000
347.041; -163.300; -646.000; -593.000
347.175;   40.400;  259.000;   27.000
347.309; -131.300; -698.000; -628.000
347.442; -170.600; -883.000; -732.000
347.576;  475.100;  670.000;  668.000
347.709;  303.100; -123.000;  -52.000
347.843; -195.400; -933.000; -825.000
347.976;  144.500;  235.000;  294.000
348.110; -369.900;-1268.000;-1186.000
348.243; -150.900; -679.000; -772.000
348.377;   70.200;  -26.000;   60.000
348.510;  161.200;  403.000;  540.000
348.644;  -59.200;  -37.000; -159.000
348.777;   61.700;  180.000;  191.000
348.911;  -38.500; -142.000; -112.000
349.044;  333.900;  471.000;  448.000
349.178;  175.800;-1069.000;-1006.000
349.311;  290.800;  141.000;  255.000
349.444;   18.700; -927.000; -813.000
349.578;  -11.900; -347.000; -200.000
349.711; -207.700; -959.000; -862.000
349.845;    5.500; -661.000; -591.000
349.978; -288.700;-1224.000;-1137.000
350.111; -154.500; -546.000; -612.000
350.244; -139.800; -596.000; -700.000
350.378;   19.100; -392.000; -393.000
350.511; -106.600; -393.000; -426.000
350.644; -171.800; -808.000; -806.000
350.778;   73.700;  168.000;  104.000
350.911;   45.000;  134.000;  140.000
351.044; -172.100; -685.000; -615.000
351.177;  -10.500; -321.000; -281.000
351.310;   27.600;    3.000; -131.000
351.444; -165.900; -888.000; -788.000
351.577;  247.000;  140.000;   90.000
351.710;  218.100;  593.000;  417.000
351.843;  -28.600; -165.000;  -77.000
351.976;   56.100;  149.000;  -79.000
352.109; -156.400; -621.000; -612.000
352.242;  -46.500; -464.000; -419.000
352.376;  -88.700; -580.000; -636.000
352.509;  281.100; -437.000; -356.000
352.642;  -52.800; -654.000; -604.000
352.775;  123.200; -141.000;  -98.000
352.908; -245.500; -933.000; -904.000
353.041; -215.600; -814.000; -824.000
353.174;  -98.800; -551.000; -424.000
353.307; -173.600; -753.000; -764.000
353.440;  195.000;  541.000;  453.000
353.573; -186.400; -957.000;-1008.000
353.706; -102.900; -384.000; -558.000
353.839;  -17.200; -264.000; -220.000
353.971; -167.800; -657.000; -512.000
354.104; -148.400; -896.000; -835.000
354.237;  -59.700; -627.000; -662.000
354.370; -148.000; -846.000; -879.000
354.503; -362.600;-1231.000;-1308.000
354.636;  -52.100; -529.000; -348.000
354.769; -249.600; -937.000; -860.000
354.902;    9.500; -230.000; -139.000
355.034;  -27.400; -164.000; -220.000
355.167;  -21.900; -262.000; -162.000
355.300; -174.100;-1061.000; -880.000
355.433; 2105.900;  -71.000;  -14.000
355.565; 3177.600; -402.000; -384.000
355.698;  821.700; -356.000; -296.000
355.831;  -14.100; -882.000; -801.000
355.964;  119.600; -285.000; -170.000
356.096; -185.300; -856.000; -843.000
356.229;   36.900; -523.000; -530.000
356.362;  709.300; -373.000; -266.000
356.494; 1314.200; -229.000; -162.000
356.627;  824.800;  269.000;  377.000
356.760; 1392.000;  120.000;   53.000
356.892; 2066.300; -286.000; -601.000
357.025; 1034.100;  403.000;  389.000
357.157;  992.200; -167.000; -179.000
357.290; 1470.000; -856.000; -713.000
357.423;  398.900; -667.000; -556.000
357.555;  216.600; -217.000; -228.000
357.688;  208.700; -483.000; -364.000
357.820;  650.700; -870.000; -877.000
357.953; 5529.000; -563.000; -589.000
358.085; 1154.100; -632.000; -612.000
358.218; 1570.300;-1131.000; -932.000
358.350;  316.300;  -58.000;  312.000
358.483; -254.600;-1300.000;-1187.000
358.615;  -79.000;-1182.000;-1078.000
358.747; -151.100;-1187.000;-1058.000
358.880;   14.000; -810.000; -744.000
359.012;   38.700; -376.000; -202.000
359.145;  -39.400; -480.000; -511.000
359.277;   58.000; -962.000; -913.000
359.409; 4704.500;  536.000;  231.000
359.542; 1158.000; -738.000; -688.000
359.674;  141.300;   46.000;   13.000
359.806; -100.000; -565.000; -438.000
359.939;  -60.500; -617.000; -516.000
360.071;   -4.100; -583.000; -579.000
360.203;    7.300; -411.000; -364.000
360.335;  159.900;  164.000;  -16.000
360.468;  338.000; -249.000; -307.000
360.600; 3880.000; -547.000; -454.000
360.732; 5917.600; -546.000; -423.000
360.864;  806.900;-1216.000;-1044.000
360.996;  443.600; -516.000; -554.000
361.129;   61.700; -389.000; -598.000
361.261;   84.700;  110.000; -113.000
361.393;    2.000; -252.000; -214.000
361.525;  129.100;   94.000;  244.000
361.657;  -83.300; -821.000; -703.000
361.789;   55.200; -139.000; -155.000
361.921;  294.800; -642.000; -593.000
362.053;  424.700;  524.000;  541.000
362.185;  162.900;  288.000;   72.000
362.318; -122.200; -709.000; -705.000
362.450;  225.300;  294.000;  444.000
362.582;   92.300; -913.000; -870.000
362.714;   -4.800; -353.000; -332.000
362.846; -126.100; -606.000; -490.000
362.978; -256.500; -941.000; -811.000
363.109;  119.300; -161.000; -260.000
363.241;  699.700; -739.000; -749.000
363.373;  968.700; -649.000; -564.000
363.505; 1480.000; -186.000;  -91.000
363.637;  340.100; -787.000; -601.000
363.769; -233.000;-1067.000;-1080.000
363.901; -129.000; -596.000; -654.000
364.033; -239.800;-1103.000;-1062.000
364.165;   29.600; -283.000; -283.000
364.296;  199.900; -316.000; -177.000
364.428;  211.800;-1344.000;-1220.000
364.560;  -96.500; -679.000; -661.000
364.692; -126.200; -738.000; -835.000
364.824;  396.600; -588.000; -456.000
364.955;  887.600; -402.000; -564.000
365.087; 2121.600;-1097.000; -852.000
365.219;   77.600; -686.000; -816.000
365.351; -120.500; -526.000; -572.000
365.482;  135.600;  300.000;  240.000
365.614;  -61.500; -402.000; -314.000
365.746; -149.800; -729.000; -752.000
365.877; -144.500; -706.000; -672.000
366.009;  607.900;  -35.000;  -62.000
366.141; -165.100;-1249.000;-1134.000
366.272; -178.600; -803.000; -719.000
366.404; -210.800;-1005.000; -874.000
366.535;   22.200; -139.000;  -12.000
366.667; -173.200; -644.000; -649.000
366.799;  142.600;  353.000;  203.000
366.930; -214.400; -862.000; -996.000
367.062;  290.400; -639.000; -613.000
367.193;  383.800; -872.000; -842.000
367.325;  -87.000; -580.000; -684.000
367.456;   71.800; -246.000;   31.000
367.588;  370.100; -371.000; -318.000
367.719;   93.100;  -44.000;  -45.000
367.851;    5.700; -222.000; -241.000
367.982; -134.100; -875.000; -732.000
368.113;  114.200; -475.000; -358.000
368.245; -216.200; -960.000; -841.000
368.376;  -42.000; -254.000; -302.000
368.508;  -29.600; -188.000; -263.000
368.639; -231.100;-1166.000;-1034.000
368.770;  -57.200; -670.000; -589.000
368.902;  -74.600; -836.000; -926.000
369.033; -205.600; -906.000; -855.000
369.164;  -45.300; -720.000; -653.000
369.296; -206.800; -452.000; -601.000
369.427;   26.900; -209.000; -144.000
369.558;  -87.700; -593.000; -377.000
369.689; -131.000; -721.000; -569.000
369.821; -221.500; -951.000; -845.000
369.952;   13.800;   42.000; -108.000
370.083;  -78.500; -229.000; -108.000
370.214; -143.400; -735.000; -650.000
370.345;   32.900;   65.000;   81.000
370.477; -160.900; -810.000; -790.000
370.608;  347.000; -328.000; -264.000
370.739; -140.300;-1233.000;-1292.000
370.870; -101.100;-1102.000; -923.000
371.001;  160.500; -378.000; -467.000
371.132; -134.200; -754.000; -735.000
371.263;  -11.300;  -42.000; -148.000
371.394; -240.700; -841.000; -748.000
371.525;  140.500;  345.000;  225.000
371.657; -184.900; -808.000; -670.000
371.788;  171.800;  103.000;  199.000
371.919;  224.000; -384.000; -304.000
372.050; 5458.300;  -91.000; -156.000
372.181; 1536.100; -188.000; -294.000
372.311;  579.100;   42.000; -127.000
372.442;   32.900; -457.000; -451.000
372.573;  -14.200; -444.000; -340.000
372.704; -241.500;-1008.000; -980.000
372.835;  166.100; -228.000; -289.000
372.966; -105.200; -646.000; -554.000
373.097; -111.900; -575.000; -711.000
373.228;  -83.200; -717.000; -542.000
373.359;  155.000; -824.000; -536.000
373.490; 1337.100; -881.000; -727.000
373.620; 1639.200;-1001.000; -803.000
373.751; 2536.300; -332.000; -396.000
373.882; 1063.900; -663.000; -733.000
374.013;  106.600; -449.000; -262.000
374.143;  -34.400; -581.000; -659.000
374.274; -187.300; -987.000; -908.000
374.405;  297.300; -388.000; -276.000
374.536;  646.900; -526.000; -387.000
374.666; 1559.300; -759.000; -807.000
374.797;  276.200; -817.000; -868.000
374.928; 1260.200; -710.000; -560.000
375.058; 1293.600; -535.000; -500.000
375.189;  134.700;  -59.000;  -93.000
375.320; -210.500; -928.000;-1034.000
375.450;  -46.100; -625.000; -616.000
375.581;  -54.900; -526.000; -436.000
375.712;    5.600; -574.000; -250.000
375.842;  458.300; -438.000; -415.000
375.973;  292.400; -554.000; -513.000
376.103;  -85.000; -665.000; -648.000
376.234;  -92.600; -531.000; -552.000
376.364; -120.300; -944.000; -867.000
376.495;  629.400;  925.000;  529.000
376.625;  -26.800; -472.000; -485.000
376.756;  126.400; -709.000; -678.000
376.886; -172.500;-1178.000;-1026.000
377.017;  201.500;-1048.000;-1061.000
377.147;  821.100; -786.000; -782.000
377.278;  191.900;  174.000;  228.000
377.408; -233.000; -801.000; -815.000
377.538; -155.200; -707.000; -693.000
377.669; -111.400; -537.000; -613.000
377.799; -131.100; -645.000; -635.000
377.929;  -99.800; -610.000; -428.000
378.060; -235.900; -781.000; -847.000
378.190;  -75.800; -726.000; -531.000
378.320;  -78.300; -401.000; -406.000
378.451;   27.700; -131.000;  -22.000
378.581;   56.900;  -67.000; -110.000
378.711;  348.300; 1035.000;  866.000
378.841;  -22.700; -533.000; -675.000
378.972; -137.900; -871.000; -751.000
379.102;   -5.300; -652.000; -579.000
379.232;  -44.600; -126.000;  -73.000
379.362; -219.600;-1001.000; -885.000
379.492;   28.700; -373.000; -424.000
379.623;  245.700;    0.000;  111.000
379.753; -191.200;-1107.000; -974.000
379.883;  342.300;   59.000;  156.000
380.013;  -76.600;-1081.000;-1017.000
380.143; -211.400;-1097.000;-1056.000
380.273; -190.000; -985.000; -861.000
380.403;   39.700; -344.000; -257.000
380.533;  -44.600; -651.000; -664.000
380.663;  192.100;  173.000;  128.000
380.793; -192.900;-1027.000;-1074.000
380.923;   17.700; -103.000;  -34.000
381.053; -171.000; -613.000; -623.000
381.183;  -12.300; -106.000; -248.000
381.313;   72.500; -656.000; -470.000
381.443;   21.100; -692.000; -473.000
381.573;  258.500; -402.000; -409.000
381.703;  348.600;-1249.000;-1095.000
381.833; -273.700;-1454.000;-1336.000
381.963;  250.800; -134.000;  -87.000
382.093; 2069.200; -925.000; -909.000
382.223;  602.700; -713.000; -602.000
382.353;  -59.900; -801.000; -608.000
382.482;  521.100;-1091.000; -964.000
382.612; 1156.900; -872.000; -644.000
382.742;  624.600; -695.000; -622.000
382.872;  386.200; -565.000; -551.000
383.002;  125.400;  347.000; -132.000
383.131;  -21.800; -226.000; -160.000
383.261;  -50.900; -706.000; -768.000
383.391;  591.500; -552.000; -377.000
383.521; 7141.500;  451.000;  263.000
383.650; 1626.900; -947.000; -904.000
383.780;   21.700; -783.000; -656.000
383.910;  269.600;  880.000;  802.000
384.039;   44.800; -794.000; -656.000
384.169;  270.700;-1205.000;-1017.000
384.299;  -66.500; -650.000; -662.000
384.428; -129.100; -764.000; -680.000
384.558;  -12.500; -308.000; -275.000
384.687;  -42.900; -414.000; -334.000
384.817;   74.500;   75.000;   -2.000
384.947;   50.500; -234.000; -141.000
385.076;  553.000;  982.000;  912.000
385.206;  215.600;  369.000;  480.000
385.335;  -35.500; -549.000; -417.000
385.465; -151.100; -655.000; -663.000
385.594;  250.900;  -53.000;  -44.000
385.724;  572.200; -868.000; -838.000
385.853;  168.100; -296.000; -270.000
385.982; 2043.100; -743.000; -787.000
386.112; 2956.500;-1052.000; -871.000
386.241;  187.200; -307.000; -312.000
386.371;   51.300; -174.000;  -87.000
386.500;    8.900; -825.000; -789.000
386.629;   49.200; -874.000; -817.000
386.759;  182.400;  -43.000;   68.000
386.888;   11.100; -170.000; -250.000
387.017; -109.700; -648.000; -620.000
387.147; -144.300; -771.000; -798.000
387.276;   -5.400; -410.000; -397.000
387.405;   43.400; -398.000; -342.000
387.535;  -23.700; -452.000; -361.000
387.664;  -95.600; -692.000; -620.000
387.793;  130.700; -198.000; -113.000
387.922;  835.100;  255.000;  200.000
388.052;   12.800; -576.000; -423.000
388.181;    7.600; -342.000; -472.000
388.310;  -40.800; -889.000; -710.000
388.439;  -86.300; -749.000; -742.000
388.568;  305.400;  365.000;  244.000
388.697; 1498.600; -756.000; -653.000
388.826;  283.500; -768.000; -666.000
388.956;   95.300; -285.000; -307.000
389.085;  -18.200; -347.000; -287.000
389.214; -163.200; -842.000; -872.000
389.343;  -72.100; -645.000; -413.000
389.472;  968.800;  126.000;  149.000
389.601; 1046.800;   91.000;    0.000
389.730;   47.800; -568.000; -687.000
389.859;  151.400;  226.000;   46.000
389.988;  290.700; -423.000; -408.000
390.117;  196.600; -168.000; -146.000
390.246;  -10.100; -331.000; -320.000
390.375;  125.900; -673.000; -626.000
390.504; -117.800; -703.000; -621.000
390.633; -169.200; -672.000; -726.000
390.761;  -87.600; -732.000; -645.000
390.890;   71.300;   -4.000; -130.000
391.019;   -7.100; -421.000; -441.000
391.148; -240.400; -826.000; -855.000
391.277; -109.100; -576.000; -493.000
391.406; -144.100; -821.000; -805.000
391.534;   76.600;  574.000; -301.000
391.663;  -92.300; -583.000; -645.000
391.792; -146.300; -673.000; -701.000
391.921;  160.900;   -3.000;   15.000
392.050;  314.300; -287.000; -228.000
392.178; -160.500;-1206.000;-1061.000
392.307;  200.800; -758.000; -712.000
392.436;   79.500; -427.000; -641.000
392.564;  101.300;  166.000;   -6.000
392.693; -140.100; -860.000; -682.000
392.822;  278.300; -529.000; -534.000
392.950;   92.500; -880.000; -714.000
393.079;  513.500; -188.000; -328.000
393.208;   17.500; -488.000; -511.000
393.336;   29.000; -170.000; -145.000
393.465;  -39.000; -317.000; -199.000
393.593;   75.700;   62.000;   79.000
393.722; -268.400;-1121.000; -916.000
393.850;   16.900; -188.000;  -61.000
393.979; -257.700; -926.000; -805.000
394.107;  -64.000; -517.000; -537.000
394.236;  -34.500; -570.000; -507.000
394.364;  475.400;  383.000;  206.000
394.493;  729.900; -911.000; -767.000
394.621;   23.600; -955.000; -916.000
394.750; 1677.400; -873.000; -923.000
394.878; 6670.400; -247.000; -149.000
395.007; 8545.700; -721.000; -807.000
395.135;  645.300; -790.000; -721.000
395.263; -163.500;-1038.000;-1040.000
395.392;   57.200;  -25.000; -107.000
395.520; -237.200; -818.000; -679.000
395.648; -175.600; -865.000; -915.000
395.777;  -38.300; -366.000; -405.000
395.905;  -49.600; -449.000; -564.000
396.033;   84.100;  217.000;  172.000
396.162; 1140.300; -399.000; -453.000
396.290;  983.600;  -17.000;   -2.000
396.418;  143.200; -555.000; -514.000
396.546; -147.700; -571.000; -466.000
396.674; -202.100; -850.000; -878.000
396.803;   66.100;  -72.000;  -23.000
396.931;  184.000; -179.000; -199.000
397.059;  -23.100;-1026.000; -989.000
397.187; -215.500;-1026.000; -975.000
397.315; -229.000; -884.000; -649.000
397.443; -139.900; -592.000; -443.000
397.572; -150.500; -578.000; -424.000
397.700;  -38.100; -607.000; -614.000
397.828;   77.000;  120.000;  -90.000
397.956;  -53.700; -508.000; -478.000
398.084;  -63.400; -767.000; -626.000
398.212;  104.300;  137.000;  124.000
398.340;   61.400;  -56.000;  159.000
398.468;   62.500; -390.000; -169.000
398.596; -240.200; -993.000; -953.000
398.724; -196.600; -762.000; -767.000
398.852; -269.200;-1024.000; -976.000
398.980;  -88.800; -560.000; -560.000
399.108; -120.900; -982.000; -735.000
399.236;   94.700;   13.000;    8.000
399.363;   71.700;  222.000;  196.000
399.491;  -82.300; -404.000; -398.000
399.619; -210.400; -829.000; -800.000
399.747; -184.300; -859.000; -771.000
399.875;  186.300;  220.000;  234.000
400.003;  -62.000; -359.000; -284.000
400.130; -108.300; -421.000; -341.000
400.258;    9.000;  -83.000;   38.000
400.386;  -51.300; -352.000; -168.000
400.514;  -42.100; -526.000; -587.000
400.641; -167.200; -928.000; -802.000
400.769; -234.600; -979.000; -888.000
400.897; -159.600; -838.000; -793.000
401.025;    2.100; -166.000; -152.000
401.152;   36.400;  220.000;   38.000
401.280; -125.300; -430.000; -429.000
401.408; -214.400; -712.000; -576.000
401.535; -174.200; -735.000; -758.000
401.663; -328.000;-1134.000;-1054.000
401.790; -130.200; -514.000; -525.000
401.918;  175.400;  436.000;  405.000
402.046;   42.300;  134.000;  122.000
402.173;  -36.800;  -18.000;    7.000
402.301;  -73.800; -519.000; -397.000
402.428;  115.200;  528.000;  383.000
402.556; -245.400;-1188.000; -913.000
402.683;   -0.100;  -20.000;   -1.000
402.811;   21.400;  -37.000; -206.000
402.938;   30.100;   20.000;   27.000
403.066;  280.100; -574.000; -558.000
403.193;  499.800;  299.000;  239.000
403.321;  427.000; -396.000; -574.000
403.448;  515.100;   83.000;   27.000
403.575;  249.100;  -90.000;  -46.000
403.703; -144.400; -732.000; -557.000
403.830;  -69.100; -531.000; -496.000
403.957; -246.300;-1117.000;-1023.000
404.085;   94.300;  -61.000; -172.000
404.212;  265.000;  -50.000;   63.000
404.339;  653.400; -566.000; -306.000
404.467;13102.200; -612.000; -524.000
404.594; 7440.400; -287.000; -227.000
404.721; 1602.500; -869.000; -764.000
404.848;  193.900; -113.000; -202.000
404.976; -161.700; -856.000; -783.000
405.103;   30.400;  -14.000;  -82.000
405.230;   74.800;  190.000;  226.000
405.357;  102.600;  117.000;   44.000
405.484;  658.400;  -49.000;    5.000
405.612;  106.200; -548.000; -563.000
405.739; -112.600; -488.000; -243.000
405.866;  241.600;  669.000;  385.000
405.993;  -32.300; -398.000; -102.000
406.120; -217.500; -801.000; -887.000
406.247;  -72.100; -323.000; -342.000
406.374;  801.100;  540.000;  629.000
406.501;   92.500; -632.000; -702.000
406.628; -110.400; -621.000; -589.000
406.755; -200.100; -803.000; -620.000
406.882;  -49.900; -228.000; -277.000
407.009; -155.600; -719.000; -628.000
407.136;   80.300; -480.000; -401.000
407.263;  160.000; -939.000; -829.000
407.390; -109.800; -692.000; -614.000
407.517; -331.200;-1139.000;-1187.000
407.644;  -91.900; -332.000; -256.000
407.771;  -47.000; -249.000; -287.000
407.898;   97.500;  168.000;  328.000
408.025;  -75.000; -421.000; -313.000
408.151;   15.300;   82.000;  153.000
408.278; -111.500; -267.000; -216.000
408.405; -173.200; -931.000; -899.000
408.532; -112.300; -549.000; -542.000
408.659; -220.200; -677.000; -648.000
408.785; -349.000;-1298.000;-1170.000
408.912;  -46.500; -412.000; -296.000
409.039; -147.000; -610.000; -686.000
409.166; -176.000; -591.000; -555.000
409.292; -153.500; -571.000; -534.000
409.419; -185.700; -665.000; -649.000
409.546; -103.300; -431.000; -192.000
409.672; -164.400; -713.000; -545.000
409.799;    5.500;  -36.000;   34.000
409.926;  -16.400; -180.000; -179.000
410.052; -310.400;-1127.000;-1091.000
410.179;  -65.600; -368.000; -392.000
410.305; -126.600; -375.000; -493.000
410.432;   -0.100; -220.000; -333.000
410.558; -111.700; -305.000; -380.000
410.685; -158.900; -688.000; -431.000
410.812; -128.200; -409.000; -588.000
410.938; -234.900; -964.000; -808.000
411.065; -156.700; -671.000; -645.000
411.191;   34.400; -189.000; -174.000
411.317; -190.500; -823.000; -742.000
411.444;  -78.900; -317.000; -246.000
411.570;  -99.100; -339.000; -294.000
411.697; -183.400; -758.000; -752.000
411.823; -314.900; -989.000; -999.000
411.949;    0.600;  -56.000;   17.000
412.076; -194.300; -539.000; -519.000
412.202; -180.700; -758.000; -757.000
412.329; -239.000; -798.000; -752.000
412.455; -172.500; -821.000; -657.000
412.581;   35.100;  -15.000;  172.000
412.707; -107.100; -540.000; -457.000
412.834;   72.700;  156.000;  219.000
412.960; -125.500; -785.000; -784.000
413.086; -160.500; -743.000; -701.000
413.212;  323.900;  604.000;  578.000
413.339; -151.600; -685.000; -701.000
413.465;   15.500; -364.000; -310.000
413.591; -161.600; -757.000; -474.000
413.717;  -35.600; -358.000; -366.000
413.843; -234.500; -839.000; -861.000
413.969;  -54.000;  -47.000; -292.000
414.096; -191.300; -679.000; -679.000
414.222;   55.000;  -33.000;   85.000
414.348;  -44.600; -652.000; -385.000
414.474;  177.900;   38.000;  -52.000
414.600;  -27.100; -126.000; -144.000
414.726;   33.500;  -96.000;  -55.000
414.852;  -46.000; -365.000; -342.000
414.978;  114.000;  104.000;  -18.000
415.104;  142.900;   38.000;   80.000
415.230;   92.400; -329.000; -330.000
415.356;  117.500; -409.000; -514.000
415.482;  456.700;   13.000;  -35.000
415.608;  671.900; -247.000; -323.000
415.734; 2194.400;   67.000;   38.000
415.860;44572.500; -875.000; -767.000
415.986;29130.600; -685.000; -607.000
416.111; 2381.800; -798.000; -652.000
416.237;  616.800; -424.000; -571.000
416.363; 2778.600; -765.000; -733.000
416.489; 9025.600; -324.000; -251.000
416.615;  987.300; -707.000; -742.000
416.741;   20.000; -677.000; -784.000
416.866; -117.200; -673.000; -736.000
416.992; -192.100; -801.000; -818.000
417.118;   24.300;  -41.000;  -80.000
417.244;  -83.400; -798.000; -531.000
417.369; -146.600; -801.000; -612.000
417.495;   32.700; -325.000; -254.000
417.621; -114.000;-1015.000; -803.000
417.746;   85.900; -579.000; -572.000
417.872;  131.900; -254.000; -144.000
417.998;  225.600; -515.000; -530.000
418.123; 2717.800;-1073.000; -845.000
418.249;11755.400; -512.000; -601.000
418.374; 1541.800; -916.000; -824.000
418.500;  299.700; -383.000; -482.000
418.626;  292.500;   70.000;  -59.000
418.751;  270.900; -549.000; -448.000
418.877;  517.500; -637.000; -643.000
419.002; 4462.900; -688.000; -560.000
419.128;27936.700; -930.000; -721.000
419.253; 6082.800; -967.000; -837.000
419.379;  915.800; -391.000; -338.000
419.504;  918.600;  325.000;  415.000
419.629; 1239.100; -393.000; -212.000
419.755; 8841.000; -317.000; -254.000
419.880;46350.200;  -98.000;   67.000
420.006;25625.400; -280.000; -221.000
420.131;60602.800; -662.000; -775.000
420.256; 7918.800; -315.000; -316.000
420.382; 1157.900; -665.000; -687.000
420.507;  178.900; -649.000; -778.000
420.632;  245.500; -337.000; -339.000
420.758;  352.800; -251.000; -425.000
420.883; -124.400; -876.000; -672.000
421.008; -159.100; -775.000; -619.000
421.133; -119.100; -509.000; -467.000
421.259;  -34.500; -325.000; -259.000
421.384; -224.000; -834.000; -693.000
421.509; -114.100;-1052.000; -862.000
421.634; 1504.500; -936.000; -820.000
421.759;  603.600; -359.000; -327.000
421.885; -100.900; -717.000; -656.000
422.010;  -99.700; -673.000; -542.000
422.135; -207.000; -695.000; -727.000
422.260;  145.900;  340.000;  280.000
422.385;  -59.200;   12.000;  -98.000
422.510;   68.000;  151.000;  -26.000
422.635;   61.700;  -87.000;  -43.000
422.760;  203.300; -766.000; -791.000
422.885;  116.100;  -57.000;  -80.000
423.010;   -6.200; -112.000; -169.000
423.135; -119.000; -481.000; -561.000
423.260;   25.100; -150.000; -245.000
423.385;  171.000;  476.000;  222.000
423.510;  128.300;   71.000;  -22.000
423.635;  154.600;  133.000;   45.000
423.760;  168.000;  383.000;  328.000
423.885;  178.400;  336.000;  391.000
424.010;   75.900;  -68.000;  -13.000
424.135;   35.200;    5.000;  -33.000
424.259;  -90.000; -654.000; -457.000
424.384;  -54.500; -279.000; -272.000
424.509;  -16.800; -260.000; -186.000
424.634; -155.300; -761.000; -623.000
424.759;  -10.600; -688.000; -544.000
424.883;   19.300; -506.000; -527.000
425.008;  452.800; -502.000; -410.000
425.133; 4530.800; -679.000; -653.000
425.258; 1881.000; -517.000; -381.000
425.382; 1716.300; -867.000; -774.000
425.507; 3872.100; -487.000; -543.000
425.632;  746.600; -802.000; -663.000
425.756; 1026.500; -256.000; -146.000
425.881;16328.800; -831.000; -857.000
426.006;39126.000; -604.000; -355.000
426.130; 5391.900; -696.000; -508.000
426.255;  790.700; -611.000; -491.000
426.379;  381.200; -189.000; -577.000
426.504;  929.400;  660.000;  544.000
426.629; 9261.600; -519.000; -466.000
426.753; 5582.700;   64.000;  -46.000
426.878;  688.300; -252.000; -288.000
427.002;  426.800; -651.000; -668.000
427.127; 3703.700;  -35.000; -158.000
427.251;25518.400;  372.000;  401.000
427.375; 6168.600; -191.000; -173.000
427.500; 3594.300; -616.000; -610.000
427.624; 1050.200; -234.000; -400.000
427.749;  215.700; -216.000; -225.000
427.873;  -15.100; -499.000; -412.000
427.997;  -17.100; -222.000; -230.000
428.122;  208.800;  795.000;  703.000
428.246;  184.900;  433.000;  434.000
428.371; -207.500; -869.000; -773.000
428.495; -181.600; -624.000; -646.000
428.619;  -16.800; -186.000; -117.000
428.743;  100.200;   65.000;  132.000
428.868;   35.700; -732.000; -643.000
428.992; 2154.900; -219.000; -326.000
429.116;  779.500; -329.000; -357.000
429.240;  429.900;  419.000;  426.000
429.365;    0.000; -454.000; -574.000
429.489;  -28.700; -638.000; -647.000
429.613;  120.000; -236.000; -177.000
429.737;  175.000; -563.000; -432.000
429.861;  640.300; -247.000; -133.000
429.985;12991.700; -425.000; -305.000
430.109;12825.100; -770.000; -908.000
430.234; 1432.800;   76.000;  -50.000
430.358;  182.500; -250.000; -160.000
430.482;  -95.300; -672.000; -564.000
430.606;  -73.500; -655.000; -375.000
430.730;   36.500; -437.000; -388.000
430.854;  133.200; -909.000; -835.000
430.978;  -91.400; -795.000; -764.000
431.102;  -85.100; -499.000; -422.000
431.226; -172.000; -874.000; -815.000
431.350;  151.800;  345.000;  422.000
431.474;  -92.900; -661.000; -373.000
431.597; -268.400;-1060.000; -848.000
431.721; -101.300; -276.000; -267.000
431.845; -211.200; -704.000; -472.000
431.969;  -86.400; -304.000; -349.000
432.093; -118.000; -395.000; -317.000
432.217;   45.800;   32.000;   82.000
432.341; -123.400; -523.000; -518.000
432.464;   91.200;   96.000;   40.000
432.588;  327.500; -401.000; -329.000
432.712;  157.100;  -52.000;  -52.000
432.836;  198.800;  213.000;  263.000
432.959;   37.500; -372.000; -311.000
433.083;  262.900;   11.000;    2.000
433.207;  936.200;  285.000;  930.000
433.330;12118.000; -391.000; -200.000
433.454;13290.600; -654.000; -638.000
433.578; 7785.600;  583.000;  278.000
433.701; 1309.300; -623.000; -675.000
433.825;  285.700; -292.000; -299.000
433.949;  269.000;   28.000;  -72.000
434.072;  108.700; -410.000; -323.000
434.196;   42.800; -309.000; -117.000
434.319; 8021.500;25482.000;25124.000
434.443; 1681.700; -656.000; -603.000
434.566; 5855.400;  281.000;   62.000
434.690;  938.400; -637.000; -383.000
434.813;  155.800; -251.000; -173.000
434.937; -112.200; -569.000; -696.000
435.060;  -92.100; -423.000; -332.000
435.184;  409.600; -492.000; -217.000
435.307;  214.000;  159.000;  102.000
435.431;   12.300;  -40.000;   24.000
435.554; -105.500; -399.000; -240.000
435.677; -129.600; -350.000; -258.000
435.801;  -16.500;  -25.000;   49.000
435.924;   29.800;    1.000;  -67.000
436.048; -216.800;-1019.000; -732.000
436.171;  -30.900; -240.000;  -66.000
436.294;   -7.700; -248.000; -229.000
436.417;  314.900; -963.000; -849.000
436.541; -146.600; -814.000; -840.000
436.664;  -34.600; -242.000; -316.000
436.787;   15.900;   13.000;  113.000
436.910; -182.100; -792.000; -422.000
437.034;   54.600;  142.000;  143.000
437.157;  169.000;  -11.000;    0.000
437.280;  -63.900; -392.000; -292.000
437.403; -179.500; -982.000; -869.000
437.526;  801.400; -903.000; -865.000
437.649; 2863.600; -505.000; -332.000
437.772;  311.800; -692.000; -540.000
437.896;  267.400;  700.000;  544.000
438.019; -150.100; -758.000; -503.000
438.142; -121.200; -596.000; -506.000
438.265;  -40.600; -639.000; -670.000
438.388;  843.200; -520.000; -410.000
438.511;  102.500; -597.000; -394.000
438.634;  -58.500; -247.000; -125.000
438.757; -236.300; -693.000; -619.000
438.880;   14.600;  -34.000;  -57.000
439.003; -117.400; -417.000; -437.000
439.126;  -42.500; -287.000; -167.000
439.248;  -60.800;  -98.000; -139.000
439.371;    4.900;    9.000;  -53.000
439.494;  134.300;  510.000;  439.000
439.617;  -30.700;   65.000;  -88.000
439.740; -278.100; -968.000; -816.000
439.863; -233.700; -755.000; -595.000
439.986; -209.500; -476.000; -431.000
440.108;  -41.900; -161.000; -112.000
440.231; -274.100; -950.000; -836.000
440.354;  -24.100;  -64.000; -150.000
440.477;   37.600; -566.000; -542.000
440.599;   61.600; -200.000; -225.000
440.722; -190.800; -709.000; -586.000
440.845;  243.400;  751.000;  928.000
440.968; -179.100; -415.000; -311.000
441.090;  -66.100; -199.000;  -33.000
441.213; -274.000;-1021.000; -825.000
441.336;  -48.500; -159.000;   -5.000
441.458;  -79.600; -549.000; -396.000
441.581; -114.900; -628.000; -629.000
441.703;  -68.600; -152.000;   13.000
441.826; -156.600; -557.000; -400.000
441.948;  -13.700;   56.000;   51.000
442.071;  133.300;  555.000;  424.000
442.193; -170.700; -531.000; -485.000
442.316;   81.700;  152.000;   97.000
442.438;  132.900; -233.000;  -10.000
442.561;  185.200;  272.000;  262.000
442.683;  744.100; -809.000; -522.000
442.806; 1505.600;   -8.000;   74.000
442.928;  -56.700; -859.000; -604.000
443.051;  -92.600; -577.000; -373.000
443.173; -160.000; -341.000; -339.000
443.295; -122.700; -263.000; -371.000
443.418;  -67.000; -321.000;  -29.000
443.540;   26.600; -106.000;   -4.000
443.662; -212.800; -563.000; -465.000
443.785;   42.100;  335.000;  199.000
443.907; -169.100; -362.000; -208.000
444.029; -209.800; -767.000; -494.000
444.152; -236.600; -644.000; -554.000
444.274;   22.900;  -18.000;  -24.000
444.396; -183.000; -461.000; -221.000
444.518; -180.000; -691.000; -454.000
444.640; -138.300; -268.000; -111.000
444.763;   33.300;  388.000;  249.000
444.885; -159.200; -432.000; -392.000
445.007;   16.000;   35.000;   86.000
445.129; -182.500; -610.000; -515.000
445.251; -133.500; -372.000; -439.000
445.373; -222.300; -537.000; -386.000
445.495;   49.500;  242.000;  350.000
445.617;  184.600;  853.000;  753.000
445.739;  -82.900; -215.000;  -97.000
445.861;  -18.500; -245.000; -112.000
445.984;  -14.400; -267.000; -101.000
446.105;  287.300; -418.000; -251.000
446.227;  818.400; -176.000;  -19.000
446.349;  -30.800; -358.000; -249.000
446.471; -136.500; -615.000; -448.000
446.593;  -95.400; -316.000;   19.000
446.715;   38.000;  -67.000;   41.000
446.837;  188.000;  697.000;  832.000
446.959; -124.800; -457.000; -478.000
447.081; -211.700; -628.000; -518.000
447.203;  208.200;  862.000;  834.000
447.325; -107.300; -270.000;   42.000
447.446;   81.900;  286.000;  530.000
447.568; -282.500; -921.000; -803.000
447.690;  -89.500; -236.000; -245.000
447.812; -236.700; -798.000; -519.000
447.933;   21.900;  155.000;  127.000
448.055; -101.400; -306.000; -261.000
448.177;  263.200;   31.000;   79.000
448.299;   33.000; -935.000; -727.000
448.420;   66.000;  -25.000;  159.000
448.542;  -39.700;   -3.000;   33.000
448.664;   26.200;  109.000;  322.000
448.785;   -5.700;  265.000;   83.000
448.907; -107.300; -614.000; -353.000
449.028;  -75.100; -771.000; -471.000
449.150;  183.800;  492.000;  589.000
449.272; -306.900;-1044.000; -913.000
449.393;  130.200;  612.000;  694.000
449.515; -210.200; -634.000; -581.000
449.636;  -52.400; -264.000; -155.000
449.758;  248.200;  763.000;  622.000
449.879; -114.000; -498.000; -396.000
450.001; -123.800; -149.000;  -49.000
450.122;  -10.800;  -95.000;  162.000
450.244;   55.400;   37.000;  364.000
450.365; -138.600; -495.000; -301.000
450.486;    2.700;   80.000;  268.000
450.608;  121.800;  393.000;  326.000
450.729;  260.600;  578.000;  645.000
450.850;  100.100; -574.000; -466.000
450.972; 1929.600; -552.000; -389.000
451.093;11594.600;  190.000;  588.000
451.214; 4352.200; -516.000; -337.000
451.336;  843.600;  773.000;  579.000
451.457;  190.000;  264.000;  393.000
451.578;   -1.200; -118.000;  -74.000
451.699; -169.000; -546.000; -540.000
451.821;  -49.500; -284.000;  -50.000
451.942;   73.100;  278.000;  285.000
452.063;  180.300;  228.000;  419.000
452.184; 1445.900;  -54.000;  -49.000
452.305; 2425.700;  103.000;  170.000
452.427;  270.900; -549.000; -301.000
452.548;   16.800;   23.000;   79.000
452.669;  -74.100; -257.000;  -89.000
452.790;  -61.000;    3.000;  -18.000
452.911;   19.500;  195.000;  259.000
453.032;  -61.200; -289.000;  -60.000
453.153;  -36.400;  -29.000;   81.000
453.274;  190.200;  737.000;  868.000
453.395;  -35.500;  -51.000;  175.000
453.516;  308.600; 1317.000; 1388.000
453.637;  -85.700; -205.000; -150.000
453.758;  -19.000;   15.000;   69.000
453.879; -169.000; -462.000; -250.000
454.000;  229.600; 1086.000;  948.000
454.121; -157.500; -554.000; -326.000
454.242; -180.000; -599.000; -383.000
454.362;  -21.500;  -99.000;  114.000
454.483;   13.700; -309.000; -229.000
454.604;  181.000;  512.000;  580.000
454.725; -194.700; -627.000; -555.000
454.846; -221.700; -474.000; -406.000
454.967;   28.400;  230.000;  539.000
455.087;  -14.100;  179.000;  153.000
455.208;  115.500;  554.000;  856.000
455.329;  -44.900;  -22.000;   82.000
455.450;  169.700;  473.000;  633.000
455.570;  -99.600; -234.000; -211.000
455.691;    9.900;  201.000;  407.000
455.812; -117.300; -270.000;  -92.000
455.932;  -33.500;  107.000;  -97.000
456.053; -104.400;   36.000;   24.000
456.173; -172.400; -433.000; -355.000
456.294; -210.600; -476.000; -303.000
456.415;  -73.500;  -73.000;   70.000
456.535;    7.100;  297.000;  273.000
456.656;    6.300;  132.000;  240.000
456.776;  -58.600;    3.000;  298.000
456.897;   54.400;  308.000;  513.000
457.017; -103.000; -153.000;   -3.000
457.138; -156.200; -402.000; -249.000
457.258;   20.500;  263.000;  224.000
457.379;   70.800;  509.000;  521.000
457.499;   27.100;  443.000;  432.000
457.620; -175.600; -407.000; -231.000
457.740; -121.900; -132.000;  -11.000
457.860;  -41.800;   87.000;   44.000
457.981;  -21.600;  132.000;  124.000
458.101;  -83.800;  -89.000;   40.000
458.221;   13.600;  336.000;  402.000
458.342;  -53.600;   -4.000;  -37.000
458.462;  118.300;  617.000;  352.000
458.582;   -4.100; -302.000; -294.000
458.703;  100.200;  303.000;  154.000
458.823;    4.900;   22.000;  163.000
458.943;  128.800;  341.000;  467.000
459.063;   54.900; 1124.000;  192.000
459.183;   17.400;  328.000;  313.000
459.304;  113.700;  315.000;  517.000
459.424;  -67.800; -246.000;  -89.000
459.544;  882.300;  388.000;  764.000
459.664; 1948.600;  499.000;  506.000
459.784;  669.200; 1004.000; 1175.000
459.904;  212.200;  867.000;  744.000
460.024;  194.800;  867.000;  684.000
460.144;   83.000;  449.000;  554.000
460.264;   67.500;  515.000;  327.000
460.385; -140.800; -145.000; -119.000
460.505;  180.700;  905.000;  858.000
460.625; -143.500;  -17.000;  -68.000
460.745;   34.100;  396.000;  541.000
460.864;  -16.100;  153.000;  469.000
460.984;   59.800;  499.000;  573.000
461.104;  380.600; 1656.000; 1775.000
461.224;  109.300;  657.000;  650.000
461.344;  -17.300;  431.000;  360.000
461.464;   11.400;  258.000;  513.000
461.584;   34.200;  283.000;  466.000
461.704;  -34.500;   58.000;  108.000
461.824;  -66.400;  238.000;  259.000
461.943;   -5.100;  191.000;  130.000
462.063;  -92.200;    2.000;  324.000
462.183;  147.100;  639.000;  717.000
462.303;  285.600; 1678.000; 1230.000
462.422;  163.400;  781.000;  840.000
462.542;  -24.800;  271.000;  391.000
462.662;  134.200;  353.000;  380.000
462.782;  631.500;  833.000;  572.000
462.901; 1140.100;  545.000;  717.000
463.021;  632.300; 1702.000; 1638.000
463.141;   70.100;  337.000;  770.000
463.260;   22.500;  614.000;  474.000
463.380;  141.100;  902.000;  884.000
463.499;  -38.700;  342.000;  332.000
463.619;    9.900;  581.000;  559.000
463.738;  315.200; 1644.000;  903.000
463.858;   92.400;  657.000;  811.000
463.978;   -3.800;  542.000;  396.000
464.097;  176.600;  921.000; 1114.000
464.217;  331.200; 1196.000; 1143.000
464.336;  329.000; 1068.000; 1130.000
464.455;    7.300;  328.000;  659.000
464.575;  139.100;  597.000;  602.000
464.694;  381.000; 1204.000; 1179.000
464.814;  343.100; 1190.000; 1138.000
464.933;  223.000; 1095.000; 1027.000
465.052;  230.800; 1412.000; 1054.000
465.172;  237.400;  922.000;  799.000
465.291;  341.600; 1376.000; 1320.000
465.410;   90.600;  462.000;  735.000
465.530;  273.100; 1355.000; 1310.000
465.649;  196.400; 1209.000; 1273.000
465.768;  382.200; 1673.000; 1508.000
465.888;  192.900;  941.000; 1174.000
466.007;  291.800; 1335.000; 1440.000
466.126;   50.900;  721.000;  641.000
466.245;  187.200; 1176.000; 1187.000
466.364;   93.200;  950.000; 1060.000
466.484;  194.900; 1024.000; 1213.000
466.603;  140.800; 1101.000; 1222.000
466.722;  329.600; 1490.000; 1769.000
466.841;  194.100; 1151.000; 1401.000
466.960;  182.000; 1069.000;  972.000
467.079;  353.600; 1971.000; 1786.000
467.198;  186.500; 1238.000; 1181.000
467.317;  238.300; 1768.000; 1162.000
467.436;  243.800; 1709.000; 1261.000
467.555;  331.400; 1796.000; 1746.000
467.674;  202.400; 1227.000; 1329.000
467.793;  179.200; 1376.000; 1374.000
467.912;  270.800; 1658.000; 1539.000
468.031;  317.700; 2038.000; 1930.000
468.150;  342.300; 1842.000; 1837.000
468.269;  457.900; 2313.000; 2090.000
468.388;  424.200; 2168.000; 2339.000
468.507;  577.300; 2884.000; 2903.000
468.626;  626.200; 2555.000; 2541.000
468.744;  351.600; 2018.000; 2174.000
468.863;  490.500; 2312.000; 2523.000
468.982;  252.100; 1503.000; 1555.000
469.101;  574.000; 2788.000; 2692.000
469.220;  415.900; 2333.000; 2176.000
469.338;  580.200; 2935.000; 3051.000
469.457;  466.300; 2719.000; 2545.000
469.576;  804.400; 3953.000; 3784.000
469.695;  540.100; 2877.000; 3066.000
469.813;  956.600; 4148.000; 4192.000
469.932;  924.000; 4255.000; 4485.000
470.051;  939.000; 4075.000; 4161.000
470.169; 1957.800; 4470.000; 4338.000
470.288; 3250.300; 4700.000; 4809.000
470.406; 1793.100; 5059.000; 5194.000
470.525; 1385.600; 6101.000; 5787.000
470.644; 1379.400; 6847.000; 6794.000
470.762; 1811.700; 8397.000; 7873.000
470.881; 1842.000; 8651.000; 8464.000
470.999; 2189.300; 9685.000; 9151.000
471.118; 2345.300;11174.000;10711.000

