
Integration time [ms]: 100.000
Averaging Nr. [scans]: 40
Smoothing Nr. [pixels]: 0
Data measured with spectrometer [name]: 2101012U2
Wave   ;Sample   ;Dark     ;Reference
[nm]   ;[counts] ;[counts] ;[counts] 

197.733;   70.975;  516.000;  404.000
197.879;  -79.275; -610.000; -634.000
198.025;  -44.675; -475.000; -420.000
198.171;  -83.625; -602.000; -612.000
198.317;  -28.375; -401.000; -316.000
198.463;  -79.550; -655.000; -404.000
198.609;   29.850;  181.000; -137.000
198.755;  -87.400; -644.000; -410.000
198.901;  -65.225; -505.000; -424.000
199.047;  -73.475; -615.000; -488.000
199.193;  -34.200; -230.000; -468.000
199.339;  -35.525; -222.000; -369.000
199.485;   48.675;  330.000;  271.000
199.631;   27.900;  227.000;  310.000
199.777;  -38.275; -466.000; -398.000
199.923;  -65.900; -610.000; -424.000
200.069;   -2.500; -141.000;  -58.000
200.215;   47.000;  128.000;  453.000
200.361;   58.125;  243.000;  477.000
200.507;  -71.575; -600.000; -373.000
200.653;  -11.225; -371.000; -194.000
200.798;  -40.325; -215.000; -125.000
200.944;  -11.825; -146.000;  -41.000
201.090;   25.850;   61.000;  222.000
201.236;    9.975; -116.000; -158.000
201.382;  129.475;  874.000;  903.000
201.528;   12.425;  -58.000;  -48.000
201.674;  -23.800; -386.000; -293.000
201.819;  -56.300; -540.000; -439.000
201.965;  -76.400; -699.000; -447.000
202.111;  -28.100; -273.000; -226.000
202.257;  -32.850; -250.000; -238.000
202.402;   14.575;   13.000;  -36.000
202.548;  -50.675; -169.000; -116.000
202.694;   92.225;  410.000; -183.000
202.840;  -76.775; -603.000; -531.000
202.985;  -73.525; -681.000; -639.000
203.131; -107.900; -832.000; -666.000
203.277;  -28.075; -199.000; -262.000
203.423;  -69.200; -434.000; -520.000
203.568;  -36.400; -462.000; -237.000
203.714;  -73.400; -535.000; -542.000
203.860;  -68.850; -682.000; -641.000
204.005;   12.225;  112.000;  167.000
204.151;   72.925;  561.000;  556.000
204.296;  -48.750; -354.000; -221.000
204.442;  -55.975; -600.000; -547.000
204.588;  -77.125; -592.000; -579.000
204.733;   30.050;  178.000;  168.000
204.879; -138.350;-1018.000; -822.000
205.025;    2.800;  -99.000;  126.000
205.170;   -5.200;  -17.000;   94.000
205.316;   88.875;  438.000;  661.000
205.461;  -87.875; -698.000; -554.000
205.607;   86.350;  609.000;  665.000
205.752;  -76.500; -626.000; -551.000
205.898;  -54.900; -501.000; -391.000
206.043;  -64.525; -578.000; -506.000
206.189;  -44.225; -243.000; -285.000
206.334;   80.350;  554.000;  606.000
206.480;   85.875;  409.000;  239.000
206.625;  -82.900; -529.000; -552.000
206.771;  -45.375; -451.000; -373.000
206.916;  -25.200; -210.000; -537.000
207.062;  -64.725; -545.000; -591.000
207.207;  -55.850; -546.000; -443.000
207.353;   34.800;  185.000;  460.000
207.498;   19.625;  196.000;   85.000
207.643;  -49.075; -501.000; -370.000
207.789; -132.625;-1069.000; -910.000
207.934;  -92.275; -665.000; -713.000
208.080;  -34.300; -154.000;   66.000
208.225;  -18.100;  -22.000;  -57.000
208.370;  -94.575; -727.000; -619.000
208.516;  -70.700; -741.000; -487.000
208.661;  -32.650; -127.000;  -69.000
208.806;  -28.425; -165.000; -171.000
208.952; -129.700;-1044.000; -731.000
209.097;   69.750;  378.000;  349.000
209.242;  -38.700; -307.000; -382.000
209.387;   81.800;  392.000;  350.000
209.533;  -56.475; -321.000; -350.000
209.678;   92.275;  472.000;  543.000
209.823;  -48.000; -408.000; -310.000
209.969; -100.700; -860.000; -757.000
210.114; -108.550; -907.000; -719.000
210.259; -106.100; -939.000; -889.000
210.404;  -16.500; -171.000;  103.000
210.549;   15.775;  108.000;    3.000
210.695;  -16.225;   -3.000;  -95.000
210.840;   23.000;   94.000;   67.000
210.985;  -61.000; -484.000; -303.000
211.130;   74.125;  268.000;  406.000
211.275;   15.650;  207.000;  199.000
211.420;  -45.550; -300.000; -289.000
211.566;  -81.175; -536.000; -489.000
211.711;   24.175;  218.000;  157.000
211.856;  -76.975; -545.000; -519.000
212.001;    9.825;  151.000;   44.000
212.146;   27.125;  153.000;   49.000
212.291;  -19.325; -210.000; -186.000
212.436;  -28.850; -280.000;   -6.000
212.581;  -76.425; -685.000; -653.000
212.726;  -67.150; -487.000; -538.000
212.871;  -51.550; -552.000; -217.000
213.016; -150.925;-1172.000;-1029.000
213.161;   74.950;  406.000;  291.000
213.306;  -81.500; -435.000; -577.000
213.451;  -88.575; -778.000; -689.000
213.596;  -46.575; -455.000; -347.000
213.741;  -45.000; -448.000; -538.000
213.886;  -72.550; -498.000; -517.000
214.031;  -17.425; -294.000; -124.000
214.176;  -52.950; -408.000; -341.000
214.321;   -0.275; -296.000; -157.000
214.466;  -26.975; -163.000;  -43.000
214.611;   -3.775;  -61.000;  -10.000
214.756; -121.825; -948.000; -858.000
214.901;  -21.050; -388.000; -226.000
215.046; -128.750; -797.000; -825.000
215.191;   13.375;  128.000;   35.000
215.336;  -27.775; -157.000;  -19.000
215.480;  -61.375; -684.000; -505.000
215.625;  -16.800; -175.000;  -19.000
215.770;  -81.425; -757.000; -662.000
215.915;  -27.450;   -5.000;  -97.000
216.060;    0.475; -113.000;  -21.000
216.205; -111.425; -731.000; -779.000
216.349;  -72.275; -470.000; -533.000
216.494; -130.575; -939.000; -867.000
216.639; -118.675; -823.000; -888.000
216.784;  -95.000; -577.000; -525.000
216.929;   42.425;  392.000;  281.000
217.073;  -13.400; -244.000;  -31.000
217.218;    2.075;   78.000;  -47.000
217.363;  -98.925; -656.000; -618.000
217.507;  -90.500; -623.000; -588.000
217.652; -123.225; -845.000; -874.000
217.797;  -90.200; -708.000; -659.000
217.942; -116.925; -856.000; -720.000
218.086;   72.350;  608.000;  539.000
218.231;  -21.300; -174.000;  -26.000
218.376;  -32.275; -337.000; -229.000
218.520;   -7.050;  -41.000;   96.000
218.665;  -27.000; -338.000; -204.000
218.810;  -44.050; -275.000; -233.000
218.954;   11.875;  201.000;   35.000
219.099; -102.150; -713.000; -963.000
219.243;  -62.350; -589.000; -554.000
219.388;  -25.175; -264.000; -136.000
219.532;   -4.900; -116.000; -116.000
219.677;  -86.325; -564.000; -521.000
219.822;    4.475;   33.000;   89.000
219.966;    7.200;   17.000;  -99.000
220.111;  -38.325; -328.000;  -40.000
220.255; -111.100; -797.000; -750.000
220.400;  -17.050; -180.000; -146.000
220.544;  -75.425; -516.000; -450.000
220.689;  -46.075; -422.000; -451.000
220.833;  -24.725; -123.000;  -58.000
220.978;  -42.500; -393.000; -563.000
221.122;   25.050;  319.000;  307.000
221.267; -121.200; -906.000; -837.000
221.411;  -78.625; -478.000; -394.000
221.555;   10.525; -104.000;  -23.000
221.700;  -60.375; -329.000; -222.000
221.844;   40.425;  255.000;  272.000
221.989;  -51.200; -328.000; -311.000
222.133;  -45.100; -289.000; -307.000
222.277;  -12.675;    5.000;   78.000
222.422;   23.825;  227.000;  113.000
222.566;  -30.475; -381.000; -214.000
222.711;  -55.575; -414.000; -479.000
222.855;  -77.700; -643.000; -586.000
222.999;  -86.275; -642.000; -717.000
223.144;  -27.325; -195.000; -194.000
223.288;   48.075;  423.000;  251.000
223.432;   33.550;  184.000;  230.000
223.576;    8.125;  152.000;  -21.000
223.721;   40.825;  364.000;  273.000
223.865;  -53.650; -472.000; -475.000
224.009;  236.350; 1673.000; 1631.000
224.153;  -89.850; -660.000; -671.000
224.298;  -62.650; -531.000; -489.000
224.442;  -11.400;  -74.000;  -33.000
224.586;  -16.850; -169.000; -106.000
224.730;  -94.050; -858.000; -670.000
224.875; -114.900; -739.000; -688.000
225.019;    9.975;  102.000;  188.000
225.163;   59.200;  208.000;  341.000
225.307;   25.400;   97.000;  -91.000
225.451;   50.875;  360.000;  481.000
225.595;   27.900;  264.000;  176.000
225.739;  -25.900; -170.000;  -94.000
225.884;    1.875;   86.000;    5.000
226.028; -104.300; -760.000; -626.000
226.172;  -34.625; -260.000; -273.000
226.316; -118.325; -941.000; -902.000
226.460;  -55.400; -645.000; -493.000
226.604;  -56.800; -406.000; -400.000
226.748; -114.225; -836.000; -733.000
226.892;  -50.425; -227.000; -181.000
227.036;  -43.125; -537.000; -447.000
227.180;  -60.100; -551.000; -375.000
227.324;  -56.500; -561.000; -580.000
227.468; -122.575; -819.000; -717.000
227.612;   19.325;  242.000;  -28.000
227.756; -116.475; -845.000; -698.000
227.900;   48.675;  342.000;  441.000
228.044;  -72.025; -509.000; -290.000
228.188;   57.450;  448.000;  568.000
228.332;  -81.575; -546.000; -472.000
228.476;  -28.625; -223.000; -149.000
228.620;  -31.775; -210.000; -150.000
228.764;   82.025;  431.000;  349.000
228.908;  -28.625; -155.000;   30.000
229.052;  -60.875; -615.000; -528.000
229.195;  -21.775; -172.000;   13.000
229.339;  -26.900; -235.000; -305.000
229.483;  -24.575;    5.000; -162.000
229.627;    1.375; -156.000;  139.000
229.771;  -49.700; -218.000; -294.000
229.915;   13.075;  230.000;   79.000
230.059;  -89.850; -648.000; -663.000
230.202;  -47.050; -370.000; -317.000
230.346;  -14.700; -107.000;  107.000
230.490;  -62.200; -489.000; -521.000
230.634; -103.475; -736.000; -553.000
230.777;   81.250;  478.000;  509.000
230.921;  -56.850; -450.000; -359.000
231.065;  -39.825; -246.000; -286.000
231.209;   29.225;  261.000;  265.000
231.352;   23.800;   54.000;   40.000
231.496;   25.475;  568.000;  188.000
231.640;  -78.475; -693.000; -621.000
231.783;   69.200;  546.000;  525.000
231.927;  -43.125; -294.000; -365.000
232.071; -129.725; -962.000; -736.000
232.214; -113.025; -980.000; -764.000
232.358; -106.275; -683.000; -599.000
232.502;   -8.100;  -19.000;    7.000
232.645; -155.375;-1090.000; -927.000
232.789;  -29.225; -257.000; -218.000
232.933;  -45.325; -407.000; -224.000
233.076; -127.475;-1038.000; -897.000
233.220; -126.000; -752.000; -777.000
233.363;  -76.725; -669.000; -477.000
233.507;   57.100;  371.000;  129.000
233.650; -106.125; -764.000; -834.000
233.794;   36.100;  438.000;  461.000
233.938;  -57.775; -530.000; -362.000
234.081;  -17.525;  -93.000;   31.000
234.225;  -66.175; -631.000; -539.000
234.368; -118.850; -773.000; -723.000
234.512;  -34.425; -385.000; -299.000
234.655;  -96.025; -582.000; -555.000
234.798;  -55.225; -493.000; -466.000
234.942; -132.325; -884.000;-1002.000
235.085;  -70.025; -651.000; -443.000
235.229;  -86.775; -405.000; -410.000
235.372;  -46.150; -247.000; -191.000
235.516;  -66.675; -397.000; -321.000
235.659;   33.350;   92.000;  121.000
235.802;  -13.525;  -38.000;  -22.000
235.946;   24.375;  335.000;  215.000
236.089;   29.700;  126.000;  250.000
236.233;   56.325;  275.000;  298.000
236.376;  -55.450; -235.000; -378.000
236.519;  -44.425; -297.000; -319.000
236.663;  -29.500; -215.000; -117.000
236.806; -138.650;-1029.000; -999.000
236.949;   37.200;  543.000;  431.000
237.092;   71.350;  412.000;  391.000
237.236;  -86.075; -589.000; -502.000
237.379;   97.550;  352.000;  428.000
237.522; -117.850; -879.000; -768.000
237.666;  -16.125; -271.000;   18.000
237.809; -132.875; -851.000; -823.000
237.952;   28.950;  469.000;  271.000
238.095;  -71.525; -447.000; -442.000
238.238;   92.525;  688.000;  700.000
238.382;   -1.975;  166.000;  103.000
238.525;  -72.250; -598.000; -511.000
238.668; -140.425;-1060.000; -985.000
238.811;  -75.650; -638.000; -643.000
238.954;  -50.500; -483.000; -334.000
239.097;  110.225;  617.000;  664.000
239.241;   32.725;  394.000;  326.000
239.384;  -25.875; -254.000; -214.000
239.527;  -66.900; -424.000; -224.000
239.670; -139.150; -994.000;-1091.000
239.813; -106.100; -696.000; -658.000
239.956;   89.125;  579.000;  473.000
240.099; -113.450; -778.000; -725.000
240.242;   66.425;  428.000;  432.000
240.385;   55.350;  466.000;  450.000
240.528;  -63.925; -706.000; -473.000
240.671;    0.825;  189.000;  134.000
240.814;  -36.475; -441.000; -158.000
240.957; -102.000; -767.000; -578.000
241.100;  -89.525; -779.000; -755.000
241.243; -144.725;-1234.000; -893.000
241.386;  -53.275; -508.000; -379.000
241.529;  -91.650; -735.000; -547.000
241.672;  -52.700; -566.000; -495.000
241.815; -118.525; -832.000; -808.000
241.958;  -12.600; -125.000; -182.000
242.101;  -73.425; -545.000; -390.000
242.244;  -35.225; -270.000; -325.000
242.387;  -43.250; -304.000; -246.000
242.530;   66.400;  470.000;  134.000
242.673;  -49.000; -381.000; -309.000
242.815; -114.150; -925.000; -899.000
242.958;  -74.850; -482.000; -381.000
243.101;   13.500;  132.000;  187.000
243.244;  -85.425; -564.000; -521.000
243.387;  -35.000; -313.000; -316.000
243.530; -103.750; -657.000; -674.000
243.672;   13.850;   43.000;  -92.000
243.815;  -57.275; -355.000; -283.000
243.958;   10.400;   98.000;  -26.000
244.101;  -14.000;   59.000;  -16.000
244.243;   -3.525;  -47.000;  101.000
244.386; -114.875; -761.000; -630.000
244.529;   -6.300; -132.000; -139.000
244.672; -170.750;-1154.000; -951.000
244.814;  -90.150; -621.000; -794.000
244.957;  -58.025; -380.000; -304.000
245.100;  -74.175; -489.000; -489.000
245.242;  -65.750; -387.000; -374.000
245.385;   -9.825;  -59.000;  -39.000
245.528; -141.375; -871.000; -705.000
245.670;   80.100;  612.000;  634.000
245.813; -105.700; -599.000; -547.000
245.956;  -25.325; -324.000; -275.000
246.098;  -84.925; -508.000; -650.000
246.241;   -6.575;  194.000;   48.000
246.383;  -20.850; -119.000;  -73.000
246.526;  -73.825; -454.000; -525.000
246.669; -122.375; -889.000; -780.000
246.811;   12.500;  172.000;   -1.000
246.954;  -71.500; -512.000; -426.000
247.096;  -19.775;  -84.000;   -6.000
247.239;  -84.175; -482.000; -445.000
247.381;  -63.975; -647.000; -488.000
247.524;   83.250;  645.000;  679.000
247.666;    0.125;   58.000;   11.000
247.809; -129.450; -887.000; -691.000
247.951;  -15.800;  -75.000;  138.000
248.094;   16.650;  432.000;  308.000
248.236; -159.250;-1262.000;-1238.000
248.378;    4.925; -356.000;  -81.000
248.521;  -22.025; -334.000; -337.000
248.663;  -44.175; -236.000; -267.000
248.806;  -16.475; -300.000; -266.000
248.948; -106.050; -886.000; -763.000
249.090;  -51.525; -428.000; -398.000
249.233;  -60.200; -344.000; -381.000
249.375;  -59.550; -474.000; -451.000
249.518;  -26.950;  -83.000; -133.000
249.660;   -1.425; -103.000;    3.000
249.802; -167.225;-1303.000;-1189.000
249.945;  -74.925; -612.000; -540.000
250.087; -121.650; -834.000; -768.000
250.229;  -46.625; -362.000; -480.000
250.371;  -80.150; -494.000; -439.000
250.514;  -43.850; -310.000; -244.000
250.656;  -46.950;   69.000;  102.000
250.798; -117.525; -849.000; -800.000
250.940;  -57.700; -322.000; -322.000
251.083;  -20.775; -335.000; -111.000
251.225;   59.700;  338.000;  310.000
251.367;  -38.425; -274.000; -373.000
251.509;  -34.350; -265.000; -210.000
251.651;  -88.450; -731.000; -671.000
251.794;   58.700;  538.000;  632.000
251.936;  -94.925; -821.000; -747.000
252.078;  -85.550; -540.000; -461.000
252.220;  -64.225; -645.000; -477.000
252.362;   82.950;  344.000;  462.000
252.504;  -61.625; -677.000; -584.000
252.646; -123.050; -875.000; -722.000
252.788;    3.600;   14.000; -128.000
252.931;  -46.550; -257.000; -253.000
253.073;  -43.000; -376.000; -317.000
253.215;  -14.150;  141.000;  122.000
253.357;  -19.375;   82.000; -153.000
253.499;  -56.500; -374.000; -234.000
253.641;  -75.625; -749.000; -594.000
253.783; -100.900; -609.000; -527.000
253.925;  -90.700; -586.000; -591.000
254.067; -112.825; -744.000; -667.000
254.209;  -27.700; -391.000; -259.000
254.351; -146.300; -865.000; -883.000
254.493;  -56.150; -441.000; -417.000
254.635; -131.200; -936.000; -818.000
254.777;  -88.325; -752.000; -687.000
254.918;  -74.750; -512.000; -430.000
255.060;  -51.200; -551.000; -395.000
255.202;  -69.025; -473.000; -261.000
255.344;  -61.550; -658.000; -455.000
255.486;  -79.500; -471.000; -406.000
255.628; -104.900; -780.000; -781.000
255.770; -107.700; -676.000; -536.000
255.912;  -65.275; -559.000; -468.000
256.053; -102.900; -730.000; -508.000
256.195;  159.225; 1008.000;  903.000
256.337;  -94.325; -861.000; -595.000
256.479;   62.200;  532.000;  416.000
256.621;  -48.725; -394.000; -212.000
256.762;  -94.400; -789.000; -742.000
256.904;   52.350;  485.000;  487.000
257.046;  -42.275; -381.000; -271.000
257.188;  -47.525; -351.000; -264.000
257.329;  -78.725; -525.000; -464.000
257.471; -113.725; -939.000; -807.000
257.613;  -65.550; -584.000; -498.000
257.755; -150.225;-1073.000; -982.000
257.896;   30.650;  286.000;  392.000
258.038;  -81.575; -403.000; -352.000
258.180;  -33.975; -354.000; -279.000
258.321;  -86.825; -581.000; -457.000
258.463;   -2.175;  -71.000;  133.000
258.605;  -96.525; -562.000; -570.000
258.746;  -91.450; -886.000; -772.000
258.888; -173.175;-1026.000;-1020.000
259.029;   20.350;  121.000;   -8.000
259.171;  -91.625; -614.000; -550.000
259.313;   -3.300;  -49.000;  -47.000
259.454;  -70.925; -536.000; -414.000
259.596;  -48.575; -483.000; -390.000
259.737;  -86.825; -590.000; -474.000
259.879;   30.850;  217.000;  311.000
260.020;   83.925;  901.000;  636.000
260.162;  -22.775; -146.000; -253.000
260.303; -118.650; -768.000; -687.000
260.445;  -85.750; -609.000; -613.000
260.586;   19.275;  392.000;  157.000
260.728;  -52.950; -360.000; -248.000
260.869; -130.725; -350.000; -343.000
261.011;   86.850;  706.000;  537.000
261.152;  -62.950; -479.000; -319.000
261.293;  -71.575; -576.000; -595.000
261.435;  -44.450; -219.000; -184.000
261.576;  -42.875; -455.000; -325.000
261.718;   52.175;  420.000;  470.000
261.859; -132.400; -940.000; -949.000
262.000; -127.975; -951.000;-1016.000
262.142;  -18.500;  -52.000;  -60.000
262.283; -124.050; -808.000; -691.000
262.424;  -85.350; -666.000; -625.000
262.566; -171.200;-1161.000; -983.000
262.707; -114.625; -840.000; -830.000
262.848; -126.050; -769.000; -726.000
262.990;  -51.850; -362.000; -345.000
263.131;   79.625;  650.000;  681.000
263.272;   -3.025;  -61.000;  -41.000
263.413;  -95.725; -589.000; -561.000
263.555;  -85.750; -669.000; -143.000
263.696;  -93.425; -550.000; -641.000
263.837;  -61.625; -449.000; -551.000
263.978;    7.000;   -5.000;  -77.000
264.119;  -41.150; -283.000; -264.000
264.261; -130.575; -847.000; -630.000
264.402;   -3.075;   33.000;   40.000
264.543;  -75.725; -509.000; -524.000
264.684;  -14.350;   61.000;  -50.000
264.825;  -77.675; -816.000; -538.000
264.966;    6.775;  -84.000;  -67.000
265.107; -120.725; -646.000; -670.000
265.248; -116.350; -825.000; -812.000
265.390;   -6.925;  152.000;   -9.000
265.531;  -33.500; -238.000; -107.000
265.672;  -95.725; -557.000; -630.000
265.813;   58.950;  563.000;  439.000
265.954; -146.325; -959.000; -940.000
266.095;  -16.375; -372.000; -322.000
266.236; -106.625; -686.000; -548.000
266.377;  -22.750; -243.000; -297.000
266.518;  -80.550; -619.000; -547.000
266.659;   25.400;  170.000;  268.000
266.800;    4.425;   83.000;   85.000
266.941;  -76.275; -487.000; -478.000
267.082;   26.175;  354.000;   99.000
267.223;  -48.900; -344.000; -273.000
267.364; -128.075; -892.000; -686.000
267.504;  -23.300;    3.000;  135.000
267.645;  -20.250;  160.000;   67.000
267.786;  -36.000; -147.000;  -86.000
267.927;  -83.625; -473.000; -379.000
268.068;  -13.875; -186.000;  -61.000
268.209;  -65.250; -175.000; -413.000
268.350;  -59.300; -388.000; -532.000
268.490; -100.075; -648.000; -521.000
268.631;   30.150;  127.000;  225.000
268.772; -123.250; -874.000; -647.000
268.913;  -59.400; -328.000; -476.000
269.054;  -18.400; -117.000;   12.000
269.194;  -40.875; -418.000; -402.000
269.335; -163.250;-1137.000;-1074.000
269.476;  -11.350;   33.000;  -35.000
269.617;  -51.450; -347.000; -392.000
269.757;  -91.100; -713.000; -646.000
269.898;  -99.550; -856.000; -613.000
270.039;  -64.050; -415.000; -405.000
270.180; -142.850; -952.000; -816.000
270.320;  -27.250; -190.000; -250.000
270.461;  -46.525; -277.000; -249.000
270.602;  -13.250; -186.000; -156.000
270.742; -136.775; -868.000; -943.000
270.883;  -57.750; -442.000; -390.000
271.023;  -66.000; -358.000; -357.000
271.164;  -87.550; -607.000; -528.000
271.305; -103.725; -666.000; -654.000
271.445;  -89.300; -722.000; -683.000
271.586;  -67.375; -462.000; -283.000
271.726;  -51.875; -397.000; -322.000
271.867;  -63.325; -594.000; -534.000
272.008;  158.750; -473.000; -285.000
272.148;  117.225;  462.000;  468.000
272.289;   -1.300; -113.000; -181.000
272.429;   10.375;   19.000;  185.000
272.570;  -99.025; -633.000; -737.000
272.710; -104.200; -825.000; -775.000
272.851;  -22.275;  113.000; -130.000
272.991; -170.125;-1173.000;-1077.000
273.131;  -71.875; -419.000; -459.000
273.272;  -98.925; -683.000; -723.000
273.412;    6.575; -143.000;  -31.000
273.553;  -61.800; -488.000; -507.000
273.693;  124.975;  913.000;  858.000
273.834;  -97.450; -894.000; -692.000
273.974;  -76.050; -664.000; -615.000
274.114; -116.125; -772.000; -560.000
274.255;   77.800;  414.000;  373.000
274.395;   -6.400; -180.000; -125.000
274.535;   33.125;  199.000;  350.000
274.676;   19.250;  225.000;   94.000
274.816;    0.175;  110.000;   34.000
274.956;  -85.400; -624.000; -690.000
275.097;  -75.900;-1014.000; -922.000
275.237; -123.425; -913.000; -803.000
275.377; -116.250; -778.000; -689.000
275.517; -155.400; -878.000; -937.000
275.658;  -64.225; -590.000; -555.000
275.798;  -74.875; -606.000; -413.000
275.938;   26.675;  215.000;  323.000
276.078; -111.425; -626.000; -395.000
276.218;    7.300;   99.000;  104.000
276.359; -137.825;-1026.000;-1024.000
276.499;  -62.825; -605.000; -446.000
276.639;  -37.050; -305.000; -151.000
276.779;  -45.975; -475.000; -357.000
276.919; -108.600; -783.000; -624.000
277.059;  -21.225; -261.000; -212.000
277.199;  -61.675; -357.000; -259.000
277.340;   49.475;  287.000;  175.000
277.480; -124.725; -840.000; -693.000
277.620;   32.725;  192.000;   16.000
277.760; -214.725;-1533.000;-1294.000
277.900;   17.900;  113.000;   33.000
278.040;    9.500;  137.000;  159.000
278.180;   31.125;  270.000;  170.000
278.320;  -16.675;   21.000;   56.000
278.460;  -69.475; -443.000; -469.000
278.600;  -94.825; -708.000; -598.000
278.740;   36.975;  448.000;  224.000
278.880;  -75.300; -768.000; -791.000
279.020;   -6.200; -194.000; -144.000
279.160;  -97.275; -672.000; -595.000
279.300; -116.600; -926.000; -873.000
279.440;  -96.425; -709.000; -622.000
279.579;  -31.325;-1014.000; -929.000
279.719;  -53.925; -410.000; -394.000
279.859;   66.625;   -4.000;   41.000
279.999;   21.550; -208.000;  101.000
280.139;  -16.400; -435.000; -387.000
280.279;  -78.775; -708.000; -745.000
280.419;  -19.350; -229.000; -147.000
280.559;  -50.875; -259.000; -180.000
280.698;  -78.725; -790.000; -639.000
280.838;  -96.225; -778.000; -800.000
280.978; -106.050; -846.000; -790.000
281.118; -125.900; -811.000; -704.000
281.257;   25.275;   24.000;    6.000
281.397; -127.700;-1094.000; -960.000
281.537;  -87.050; -599.000; -712.000
281.677;  -34.525; -150.000; -101.000
281.816;  -82.575; -700.000; -630.000
281.956;  -38.350; -193.000; -257.000
282.096;  -56.300; -539.000; -396.000
282.235; -104.625; -672.000; -638.000
282.375;  -19.175; -243.000;  -98.000
282.515; -126.350; -715.000; -707.000
282.654;   24.925;   29.000;  106.000
282.794;   15.100;  388.000;  244.000
282.934;  -49.975; -530.000; -491.000
283.073; -146.350;-1030.000; -857.000
283.213;  -50.950; -460.000; -467.000
283.353;  -46.825; -408.000; -349.000
283.492;  -29.825; -264.000; -296.000
283.632;  -45.600; -254.000; -168.000
283.771;  -78.825; -859.000; -730.000
283.911;  -50.650; -369.000; -260.000
284.050; -114.550; -794.000; -748.000
284.190; -160.100;-1229.000;-1096.000
284.329; -145.775;-1055.000; -964.000
284.469;  -80.775; -516.000; -591.000
284.608;  -59.975; -559.000; -598.000
284.748; -102.125; -614.000; -570.000
284.887;   -0.150;  -87.000;  -20.000
285.027; -130.325; -844.000; -892.000
285.166;  -34.400; -192.000; -249.000
285.306;   -4.825; -116.000;  -33.000
285.445;  -33.600; -229.000; -343.000
285.584; -105.675; -630.000; -494.000
285.724;  -38.325; -282.000; -322.000
285.863; -117.950; -857.000; -507.000
286.002;  -56.300; -366.000; -276.000
286.142; -116.050; -715.000; -622.000
286.281;  -69.625; -525.000; -493.000
286.420;  -87.525; -554.000; -417.000
286.560;   99.400;  653.000;  623.000
286.699; -141.375; -958.000; -912.000
286.838;  -90.025; -590.000; -591.000
286.978;  -97.200; -533.000; -537.000
287.117; -134.125;-1085.000; -950.000
287.256;  -38.350; -228.000; -211.000
287.395;  -40.950; -197.000; -378.000
287.535;  -69.000; -370.000; -298.000
287.674;  -78.150; -509.000; -484.000
287.813;   57.975;  661.000;  533.000
287.952; -131.450;-1010.000; -871.000
288.091; -151.325;-1049.000; -915.000
288.231;   16.300;   13.000;   15.000
288.370; -187.300;-1217.000;-1200.000
288.509;  -92.550; -728.000; -645.000
288.648; -102.800; -770.000; -548.000
288.787;  -40.675; -243.000;  -87.000
288.926;  -61.125; -454.000; -475.000
289.065;  109.600;  859.000;  672.000
289.204;  -48.350; -377.000; -217.000
289.344;  -98.000; -791.000; -690.000
289.483;    1.850;  416.000;  304.000
289.622;  -30.725; -291.000; -149.000
289.761;  -27.325; -309.000; -166.000
289.900; -109.625; -785.000; -626.000
290.039;  -18.325;  -12.000;  -95.000
290.178;  -41.575; -274.000; -180.000
290.317;  -98.800; -618.000; -479.000
290.456;  -64.275; -463.000; -451.000
290.595; -152.750; -961.000; -833.000
290.734; -134.625; -904.000; -891.000
290.873;  -86.200; -456.000; -420.000
291.011; -113.725; -833.000; -843.000
291.150; -120.650; -770.000; -682.000
291.289;  -35.750; -343.000; -110.000
291.428; -104.325; -599.000; -480.000
291.567;  -61.400; -370.000; -442.000
291.706;  -10.475;  109.000;  154.000
291.845;  -88.550; -597.000; -505.000
291.984; -182.150;-1234.000;-1061.000
292.122;   69.625;  602.000;  582.000
292.261;   33.450;  620.000;  463.000
292.400;   11.950; -144.000;  211.000
292.539; -140.825; -959.000; -813.000
292.678;  -35.300; -325.000; -300.000
292.816; -182.500;-1136.000; -965.000
292.955;  -96.900; -844.000; -684.000
293.094;  -22.725; -173.000; -337.000
293.233;  -52.975; -556.000; -400.000
293.371;  -52.850; -225.000;  -84.000
293.510; -111.075; -866.000; -780.000
293.649; -134.500; -959.000; -924.000
293.787;  -77.000;-1083.000;-1012.000
293.926;  -10.300; -113.000;  -32.000
294.065;  -56.550; -379.000; -290.000
294.203;   32.250;  298.000;  406.000
294.342;   19.225;   74.000;  156.000
294.481; 7094.125;51180.000; -836.000
294.619;  -38.175; -425.000; -582.000
294.758; -153.850;-1230.000;-1137.000
294.896;   72.350; -125.000;    5.000
295.035; -139.025;-1040.000;-1006.000
295.174; -118.375;-1082.000; -954.000
295.312;  -59.675; -323.000; -203.000
295.451;  -10.975; -307.000; -428.000
295.589;  -55.425; -389.000; -518.000
295.728;   28.375; -292.000; -165.000
295.866;  -21.675;  -36.000;  -51.000
296.005;  -69.500; -584.000; -341.000
296.143;  -82.150; -558.000; -596.000
296.282; -114.400; -957.000; -881.000
296.420;  -92.725; -657.000; -557.000
296.559;  -89.225; -892.000; -633.000
296.697;   -5.150; -847.000; -665.000
296.835;   40.175;-1141.000;-1002.000
296.974;   35.800;  -23.000;   39.000
297.112;  -11.175; -443.000; -504.000
297.251;  -84.625; -815.000; -755.000
297.389;   78.550; -576.000; -438.000
297.527;   32.150; -145.000;  -83.000
297.666;  -56.400; -486.000; -438.000
297.804;  -60.250; -404.000; -264.000
297.942;  -12.250; -136.000; -161.000
298.081;  -13.675; -183.000;   63.000
298.219;   68.300;  -17.000;  -19.000
298.357;   35.800; -144.000;  -71.000
298.495;   27.175; -810.000; -812.000
298.634;   57.525;  245.000;  219.000
298.772;   40.825; -220.000; -338.000
298.910;  -42.075; -309.000; -182.000
299.048;  -13.700; -130.000; -153.000
299.187;  -46.700; -350.000; -250.000
299.325;   13.500;   52.000;  122.000
299.463;   29.750; -389.000; -299.000
299.601;   98.900; -327.000; -271.000
299.739; -124.925; -908.000; -883.000
299.877;  -80.125; -791.000; -703.000
300.016;  -75.700;-1095.000; -935.000
300.154;  140.150;  -19.000; -161.000
300.292;   25.925; -428.000; -348.000
300.430;   23.275; -408.000; -291.000
300.568; -107.150; -940.000; -874.000
300.706;  -48.400; -366.000; -469.000
300.844;  -90.125;-1108.000; -979.000
300.982;  117.675;  246.000;  282.000
301.120; -119.650; -965.000; -866.000
301.258;  -72.675; -812.000; -705.000
301.396;   19.525;  104.000;  -41.000
301.534;   49.025; -218.000; -293.000
301.672;  -24.300; -664.000; -521.000
301.810;   22.300; -613.000; -545.000
301.948;  101.125;   53.000;  149.000
302.086;  556.800; -250.000;  -32.000
302.224;  877.250; -610.000; -585.000
302.362;   13.450; -558.000; -622.000
302.500;  -52.575; -923.000; -893.000
302.638;   93.775;  128.000;  245.000
302.776;  -23.700; -352.000; -408.000
302.913;   41.200;  447.000;  236.000
303.051;   -5.425;  -86.000;  -23.000
303.189;   38.000;   90.000;  118.000
303.327;  -49.575; -341.000; -256.000
303.465;  -89.800; -832.000; -588.000
303.603;  -92.175; -805.000; -604.000
303.740;  105.650;  417.000;  241.000
303.878;   -3.125; -800.000; -759.000
304.016;  -92.250; -915.000; -790.000
304.154; -136.975;-1123.000;-1152.000
304.291;  -51.475; -505.000; -554.000
304.429;    4.625;  102.000;   74.000
304.567; -130.000; -908.000; -893.000
304.705;  -65.950; -408.000; -515.000
304.842;   84.800; -616.000; -540.000
304.980;   36.675;  215.000;   35.000
305.118;   32.175; -367.000; -365.000
305.255;  -86.875; -945.000; -927.000
305.393;   45.850;  178.000;  239.000
305.531; -114.500;-1173.000; -956.000
305.668;  -69.750; -663.000; -582.000
305.806;   77.375; -358.000; -439.000
305.943;   84.300; -629.000; -637.000
306.081;   44.425; -378.000; -267.000
306.219; -108.725; -863.000; -748.000
306.356;    1.850;  158.000;   27.000
306.494;  101.950;  981.000;  761.000
306.631;   -7.850;  -11.000;  -55.000
306.769;   -1.700; -613.000; -485.000
306.906;  -31.000; -284.000; -258.000
307.044;  -67.450; -473.000; -488.000
307.181;  -77.950; -410.000; -332.000
307.319;    2.675;  112.000;   87.000
307.456; -181.100;-1191.000;-1153.000
307.594; -112.850; -980.000; -727.000
307.731;  -26.300; -371.000; -164.000
307.868;   -9.850;  -15.000;   20.000
308.006; -145.150; -961.000; -847.000
308.143;  -78.200; -618.000; -330.000
308.281;  101.400;  -37.000; -254.000
308.418;  -31.200; -748.000; -640.000
308.555;  -82.250; -400.000; -250.000
308.693;  -77.200; -577.000; -573.000
308.830; -127.450; -712.000; -657.000
308.967;   -3.525; -215.000;  -95.000
309.105;  -73.950; -507.000; -396.000
309.242;    4.025; -468.000; -367.000
309.379;  200.825; -577.000; -655.000
309.517;  -78.300; -936.000; -948.000
309.654; -125.500; -910.000; -734.000
309.791;  -86.175; -662.000; -580.000
309.928; -129.125; -977.000; -914.000
310.065;  181.575;  819.000;  697.000
310.203;  -16.475; -825.000; -850.000
310.340;  -23.650; -465.000; -321.000
310.477;  -85.575; -412.000; -516.000
310.614;  -78.825; -383.000; -473.000
310.751;  -72.150; -427.000; -518.000
310.889;  -22.875;    1.000;   11.000
311.026; -151.525;-1161.000; -939.000
311.163;  -47.725; -386.000; -380.000
311.300;  -77.875; -512.000; -479.000
311.437;  -80.925; -658.000; -619.000
311.574; -168.925;-1226.000; -985.000
311.711;  -56.475; -595.000; -433.000
311.848;  -56.525; -380.000; -388.000
311.985;    5.150;  270.000;   93.000
312.122; -130.275; -932.000; -762.000
312.259; -124.400; -941.000; -994.000
312.396;  -92.425; -508.000; -551.000
312.533; -101.875; -812.000; -790.000
312.670; -136.350;-1070.000; -898.000
312.807;  -49.975; -352.000; -367.000
312.944;  -90.550; -513.000; -611.000
313.081;  -39.400; -150.000; -415.000
313.218; -120.275;-1111.000; -867.000
313.355;    4.050; -531.000; -449.000
313.492;  -15.375; -455.000; -292.000
313.629;  137.675;  815.000;  735.000
313.766; -167.625;-1176.000;-1008.000
313.902;  -24.275; -186.000;   21.000
314.039;  -60.575; -372.000; -289.000
314.176;   27.100;  286.000;  192.000
314.313;  -78.475; -569.000; -473.000
314.450;  -82.275; -788.000; -684.000
314.587;  -71.275; -468.000; -480.000
314.723;   14.375;  -78.000;  130.000
314.860;    5.625;  318.000;  332.000
314.997;   35.100;  223.000;  142.000
315.134;  -44.075; -385.000; -368.000
315.270;  -45.950; -480.000; -496.000
315.407; -143.100;-1094.000; -967.000
315.544;  -48.425; -657.000; -538.000
315.681;  -67.075; -681.000; -565.000
315.817;   12.125; -133.000; -176.000
315.954;   -8.900; -613.000; -392.000
316.091; -116.475;-1045.000;-1023.000
316.227;  -41.275;  -71.000; -179.000
316.364;    6.425;   23.000;    6.000
316.500;  -42.300; -113.000; -300.000
316.637;  -49.575; -181.000; -302.000
316.774;  -90.550; -625.000; -358.000
316.910;  -95.175; -598.000; -629.000
317.047;  -83.975; -487.000; -351.000
317.183;  -51.300; -435.000; -566.000
317.320;  -26.475; -367.000; -321.000
317.456;  -66.225; -733.000; -805.000
317.593;  -86.950; -598.000; -641.000
317.729;    8.075;  168.000;  -67.000
317.866; -208.175;-1434.000;-1285.000
318.002;  -94.600; -708.000; -948.000
318.139; -116.425; -883.000; -867.000
318.275; -118.450;-1003.000; -738.000
318.412;  -70.975; -517.000; -336.000
318.548;  -47.125; -751.000; -720.000
318.685; -117.650; -985.000; -888.000
318.821;  -90.100; -762.000; -735.000
318.957;  -30.000;   34.000;  -23.000
319.094;   36.625;  297.000;  154.000
319.230;  -80.825; -756.000; -742.000
319.367;   96.800; -471.000; -520.000
319.503;   38.400; -538.000; -436.000
319.639; -107.575; -877.000; -793.000
319.775;  -73.050; -750.000; -685.000
319.912;  -67.650; -424.000; -519.000
320.048;  -96.375;-1184.000;-1184.000
320.184;   66.125;   59.000;   70.000
320.321;  -69.075; -497.000; -467.000
320.457;   60.075;  475.000;  662.000
320.593;  -65.625; -375.000; -382.000
320.729; -117.725; -732.000; -734.000
320.866;  -87.625; -577.000; -635.000
321.002;  -74.375; -759.000; -809.000
321.138;  -26.775; -135.000; -211.000
321.274;   64.150; -148.000; -115.000
321.410;  -32.650; -585.000; -353.000
321.546;  -52.325;-1011.000; -911.000
321.683;   32.825;  400.000;  185.000
321.819;    9.000;  -48.000; -117.000
321.955; -115.750; -743.000; -722.000
322.091;  -37.250; -585.000; -540.000
322.227;  -20.900; -382.000; -202.000
322.363;  -27.325; -320.000; -215.000
322.499;  -54.400; -343.000; -331.000
322.635;  156.675;  636.000;  443.000
322.771;   18.875; -139.000;   12.000
322.907;   73.525;  129.000;  327.000
323.043;  -30.175; -115.000; -206.000
323.179;  -23.550; -394.000; -363.000
323.315;    5.500; -401.000; -371.000
323.451;   82.625; -328.000; -236.000
323.587;   54.625;  -60.000;  -77.000
323.723;   22.975; -682.000; -601.000
323.859;  -13.975; -258.000;  -76.000
323.995;  -38.525; -467.000; -409.000
324.131; -129.125; -967.000; -892.000
324.267;  -34.900; -254.000; -276.000
324.402; -149.400; -960.000; -983.000
324.538;  -15.225; -279.000; -104.000
324.674;    0.500;  164.000;   77.000
324.810;   89.975;  226.000;  308.000
324.946;  -18.150; -810.000; -658.000
325.082;  -61.950; -568.000; -475.000
325.217;  -19.125;  -62.000;   16.000
325.353; -107.100; -764.000; -659.000
325.489; -108.425; -540.000; -506.000
325.625;  -92.100; -579.000; -525.000
325.760;   51.025;  517.000;  376.000
325.896;  -13.900; -515.000; -702.000
326.032;  -54.575; -403.000; -352.000
326.168;  -64.750; -462.000; -369.000
326.303;  -67.950; -352.000; -461.000
326.439;  -17.575; -336.000; -276.000
326.575;   12.550; -190.000;  -29.000
326.710;   -3.300; -156.000;  -30.000
326.846;  -25.075;  146.000;  103.000
326.982;  -89.925; -530.000; -548.000
327.117;  -79.625; -481.000; -442.000
327.253;  -78.900; -745.000; -742.000
327.388; -144.300;-1137.000;-1153.000
327.524;  -53.425; -811.000; -578.000
327.659;  -36.975;  -58.000;  -22.000
327.795;  -19.300;   69.000;   45.000
327.931;  -90.250; -723.000; -499.000
328.066;  -23.925; -417.000; -276.000
328.202;   -1.325;   12.000; -129.000
328.337;  107.425;  957.000;  713.000
328.473;   38.600;  -12.000;  -74.000
328.608;   -7.500; -256.000; -267.000
328.743;  -92.850; -799.000; -664.000
328.879;    5.850;  214.000;  114.000
329.014;  -54.350; -102.000; -122.000
329.150;  -83.250; -358.000; -483.000
329.285;  -91.575; -465.000; -466.000
329.421;  -66.125; -548.000; -246.000
329.556;  -28.425;  -36.000;   85.000
329.691; -108.525; -633.000; -615.000
329.827;  -97.025; -626.000; -480.000
329.962;  -44.850;  131.000; -301.000
330.097; -105.600; -673.000; -585.000
330.233;  -43.500; -410.000; -223.000
330.368; -129.000; -839.000; -628.000
330.503;  -22.825;    3.000;   98.000
330.638;  -11.750;  -93.000; -125.000
330.774;  -60.575; -609.000; -530.000
330.909;  -57.300; -434.000; -244.000
331.044;  -97.275; -714.000; -708.000
331.179; -197.000;-1217.000;-1109.000
331.315;   11.850;   77.000;   20.000
331.450;    8.350;  157.000;  285.000
331.585;  -94.750; -805.000; -706.000
331.720;  -99.250; -510.000; -460.000
331.855;  -21.275;  -35.000; -102.000
331.990;  237.175;   62.000;  138.000
332.126;  140.075; -110.000;   71.000
332.261;  -20.850; -379.000; -265.000
332.396;   -5.700; -135.000; -242.000
332.531;  -96.550;-1074.000;-1031.000
332.666;   41.875; -519.000; -363.000
332.801; -120.025; -726.000; -807.000
332.936;  -27.550; -192.000; -122.000
333.071; -142.850; -870.000; -817.000
333.206;    6.550;  307.000;  379.000
333.341;    6.375;  344.000;  418.000
333.476;  -85.550; -627.000; -623.000
333.611;  -44.725; -251.000; -173.000
333.746;  -61.200; -381.000; -464.000
333.881; -127.400; -973.000; -935.000
334.016; -124.000; -936.000; -917.000
334.151; -143.200; -746.000; -702.000
334.286;   13.075;  152.000;  186.000
334.421;  -30.700; -125.000; -178.000
334.556;  -79.825; -611.000; -567.000
334.690;  -95.025; -631.000; -577.000
334.825;   57.350;  381.000;   83.000
334.960;  -67.050; -285.000; -413.000
335.095;   14.750;  135.000;  -91.000
335.230; -113.400; -722.000; -738.000
335.365; -145.750;-1084.000; -990.000
335.499; -140.950;-1108.000;-1037.000
335.634;   18.400;    9.000;  534.000
335.769; -112.750; -755.000; -720.000
335.904;  -61.125; -603.000; -561.000
336.038;  -67.800; -735.000; -657.000
336.173; -121.700;-1206.000;-1194.000
336.308;    4.500; -116.000; -189.000
336.443;  -14.475; -544.000; -634.000
336.577;  -77.250; -936.000; -787.000
336.712;   48.950;   -4.000;  -12.000
336.847;  -59.125; -724.000; -607.000
336.981;   43.800; -272.000; -208.000
337.116;  265.125;  615.000;  501.000
337.250;  130.050; -434.000; -421.000
337.385;  256.825; -297.000; -208.000
337.520;   92.150; -632.000; -603.000
337.654;  -43.675; -215.000; -126.000
337.789; -132.025; -989.000; -933.000
337.923;  -50.400; -104.000; -205.000
338.058;  -92.900; -673.000; -738.000
338.192;  -50.725; -611.000; -488.000
338.327;  -11.325;  -18.000; -155.000
338.461;  -83.325; -299.000; -469.000
338.596;  -93.925; -780.000; -638.000
338.730;  -97.925; -767.000; -803.000
338.865;   99.050;  -46.000; -140.000
338.999;  -49.025; -846.000; -702.000
339.134;  -25.275; -634.000; -536.000
339.268;    5.500; -741.000; -603.000
339.403;  371.700; -740.000; -775.000
339.537;  123.325; -894.000; -820.000
339.671; -121.525; -829.000; -813.000
339.806;  -68.425; -556.000; -512.000
339.940;   17.375; -261.000; -235.000
340.074; -102.950; -685.000; -510.000
340.209;  -51.600; -351.000; -230.000
340.343; -110.850; -517.000; -573.000
340.477;  138.150;  998.000; 1036.000
340.612;  -60.050;-1033.000; -900.000
340.746;  153.975; -199.000; -243.000
340.880;  -68.075; -924.000; -785.000
341.014;  -23.650;  -45.000; -154.000
341.149; -118.025; -756.000; -718.000
341.283; -120.750; -839.000; -754.000
341.417; -107.850;-1124.000; -938.000
341.551;  109.225; -768.000; -708.000
341.685;  -63.875; -633.000; -611.000
341.820;  -67.450; -562.000; -493.000
341.954;  -57.325; -218.000; -349.000
342.088; -151.725;-1102.000;-1019.000
342.222;   28.325;  565.000;  618.000
342.356;  -66.950; -395.000; -335.000
342.490; -114.775; -880.000; -841.000
342.624;  -42.650; -339.000; -242.000
342.758;  -18.350; -364.000; -312.000
342.892;  -76.525; -710.000; -585.000
343.026;  -45.550;  -58.000; -116.000
343.160;  -61.750; -426.000; -376.000
343.294;  -90.950; -474.000; -337.000
343.428;  -35.675; -488.000; -448.000
343.562;  -25.175; -172.000;  -23.000
343.696;  -32.200; -385.000; -314.000
343.830;  -26.300; -362.000; -356.000
343.964;    3.825; -231.000; -168.000
344.098;  828.475;  199.000;   70.000
344.232;  694.650; -266.000; -127.000
344.366;   60.525; -567.000; -453.000
344.500;   43.425; -665.000; -744.000
344.634;   19.850; -324.000; -164.000
344.768;  -35.475; -531.000; -341.000
344.902;    8.725;  278.000;  256.000
345.035;  -73.075; -556.000; -496.000
345.169; -140.150; -933.000; -656.000
345.303;  -74.350; -308.000; -482.000
345.437;  -94.075; -826.000; -717.000
345.571;  -70.600; -675.000; -594.000
345.704;  -74.975; -309.000; -532.000
345.838;  -15.525; -331.000; -284.000
345.972;  -49.225; -543.000; -495.000
346.106;  163.175; -179.000; -190.000
346.239;  399.550; -312.000; -243.000
346.373;   -1.150; -343.000; -302.000
346.507; -142.700; -950.000; -962.000
346.640;  116.375;  -30.000;   13.000
346.774;  -59.600; -650.000; -797.000
346.908;  -27.475; -138.000;  -11.000
347.041; -107.250; -646.000; -593.000
347.175;   -6.325;  259.000;   27.000
347.309;  -85.425; -698.000; -628.000
347.442; -110.075; -883.000; -732.000
347.576;  252.525;  670.000;  668.000
347.709;  161.975; -123.000;  -52.000
347.843; -107.925; -933.000; -825.000
347.976;   24.200;  235.000;  294.000
348.110; -199.600;-1268.000;-1186.000
348.243; -106.050; -679.000; -772.000
348.377;   -2.675;  -26.000;   60.000
348.510;   51.275;  403.000;  540.000
348.644;  -41.400;  -37.000; -159.000
348.777;   -3.625;  180.000;  191.000
348.911;  -53.000; -142.000; -112.000
349.044;  164.925;  471.000;  448.000
349.178;  118.000;-1069.000;-1006.000
349.311;  112.250;  141.000;  255.000
349.444;   -8.500; -927.000; -813.000
349.578;  -28.050; -347.000; -200.000
349.711; -122.575; -959.000; -862.000
349.845;   -7.500; -661.000; -591.000
349.978; -163.150;-1224.000;-1137.000
350.111;  -86.300; -546.000; -612.000
350.244;  -88.625; -596.000; -700.000
350.378;   -6.050; -392.000; -393.000
350.511;  -79.375; -393.000; -426.000
350.644; -105.075; -808.000; -806.000
350.778;    3.325;  168.000;  104.000
350.911;   -1.550;  134.000;  140.000
351.044;  -94.550; -685.000; -615.000
351.177;  -44.850; -321.000; -281.000
351.310;  -36.200;    3.000; -131.000
351.444;  -93.200; -888.000; -788.000
351.577;   93.375;  140.000;   90.000
351.710;   98.325;  593.000;  417.000
351.843;  -44.850; -165.000;  -77.000
351.976;   -3.300;  149.000;  -79.000
352.109; -102.550; -621.000; -612.000
352.242;  -27.225; -464.000; -419.000
352.376;  -79.450; -580.000; -636.000
352.509;  137.375; -437.000; -356.000
352.642;  -13.100; -654.000; -604.000
352.775;   49.675; -141.000;  -98.000
352.908; -138.675; -933.000; -904.000
353.041; -114.350; -814.000; -824.000
353.174;  -64.050; -551.000; -424.000
353.307;  -74.575; -753.000; -764.000
353.440;   58.700;  541.000;  453.000
353.573; -117.475; -957.000;-1008.000
353.706;  -36.800; -384.000; -558.000
353.839;  -21.450; -264.000; -220.000
353.971; -105.350; -657.000; -512.000
354.104;  -95.200; -896.000; -835.000
354.237;  -55.475; -627.000; -662.000
354.370;  -86.775; -846.000; -879.000
354.503; -188.500;-1231.000;-1308.000
354.636;  -35.700; -529.000; -348.000
354.769; -141.375; -937.000; -860.000
354.902;  -16.750; -230.000; -139.000
355.034;  -13.950; -164.000; -220.000
355.167;  -14.500; -262.000; -162.000
355.300;  -96.225;-1061.000; -880.000
355.433; 1010.000;  -71.000;  -14.000
355.565; 1512.900; -402.000; -384.000
355.698;  389.400; -356.000; -296.000
355.831;  -29.125; -882.000; -801.000
355.964;   74.475; -285.000; -170.000
356.096;  -79.500; -856.000; -843.000
356.229;  -16.375; -523.000; -530.000
356.362;  344.475; -373.000; -266.000
356.494;  598.300; -229.000; -162.000
356.627;  430.800;  269.000;  377.000
356.760;  657.625;  120.000;   53.000
356.892;  946.950; -286.000; -601.000
357.025;  598.775;  403.000;  389.000
357.157;  516.200; -167.000; -179.000
357.290;  710.400; -856.000; -713.000
357.423;  195.225; -667.000; -556.000
357.555;   90.600; -217.000; -228.000
357.688;  102.725; -483.000; -364.000
357.820;  426.125; -870.000; -877.000
357.953; 3521.825; -563.000; -589.000
358.085;  714.500; -632.000; -612.000
358.218;  933.200;-1131.000; -932.000
358.350;  167.625;  -58.000;  312.000
358.483; -151.425;-1300.000;-1187.000
358.615;  -37.900;-1182.000;-1078.000
358.747;  -88.800;-1187.000;-1058.000
358.880;   10.350; -810.000; -744.000
359.012;  -16.125; -376.000; -202.000
359.145;  -41.125; -480.000; -511.000
359.277;   36.275; -962.000; -913.000
359.409; 2894.225;  536.000;  231.000
359.542;  737.850; -738.000; -688.000
359.674;   73.725;   46.000;   13.000
359.806;  -76.475; -565.000; -438.000
359.939;  -53.050; -617.000; -516.000
360.071;  -18.100; -583.000; -579.000
360.203;  -47.175; -411.000; -364.000
360.335;   36.775;  164.000;  -16.000
360.468;  176.625; -249.000; -307.000
360.600; 2355.350; -547.000; -454.000
360.732; 2936.025; -546.000; -423.000
360.864;  386.150;-1216.000;-1044.000
360.996;  232.350; -516.000; -554.000
361.129;    7.500; -389.000; -598.000
361.261;   17.725;  110.000; -113.000
361.393;  -39.650; -252.000; -214.000
361.525;   36.075;   94.000;  244.000
361.657;  -62.100; -821.000; -703.000
361.789;   -2.900; -139.000; -155.000
361.921;  160.050; -642.000; -593.000
362.053;  226.200;  524.000;  541.000
362.185;   40.350;  288.000;   72.000
362.318;  -78.025; -709.000; -705.000
362.450;   90.800;  294.000;  444.000
362.582;   49.325; -913.000; -870.000
362.714;  -49.225; -353.000; -332.000
362.846;  -79.775; -606.000; -490.000
362.978; -144.050; -941.000; -811.000
363.109;   27.925; -161.000; -260.000
363.241;  365.850; -739.000; -749.000
363.373;  426.200; -649.000; -564.000
363.505;  670.700; -186.000;  -91.000
363.637;  168.425; -787.000; -601.000
363.769; -142.400;-1067.000;-1080.000
363.901;  -63.575; -596.000; -654.000
364.033; -126.500;-1103.000;-1062.000
364.165;  -11.200; -283.000; -283.000
364.296;   68.825; -316.000; -177.000
364.428;   70.600;-1344.000;-1220.000
364.560;  -75.600; -679.000; -661.000
364.692;  -56.275; -738.000; -835.000
364.824;  215.450; -588.000; -456.000
364.955;  431.575; -402.000; -564.000
365.087;  978.925;-1097.000; -852.000
365.219;   14.300; -686.000; -816.000
365.351;  -83.075; -526.000; -572.000
365.482;   52.450;  300.000;  240.000
365.614;  -52.025; -402.000; -314.000
365.746; -101.650; -729.000; -752.000
365.877; -111.350; -706.000; -672.000
366.009;  264.575;  -35.000;  -62.000
366.141; -100.050;-1249.000;-1134.000
366.272; -111.825; -803.000; -719.000
366.404; -123.000;-1005.000; -874.000
366.535;   -7.950; -139.000;  -12.000
366.667; -118.475; -644.000; -649.000
366.799;   36.300;  353.000;  203.000
366.930; -132.600; -862.000; -996.000
367.062;  123.975; -639.000; -613.000
367.193;  138.775; -872.000; -842.000
367.325;  -71.425; -580.000; -684.000
367.456;   38.625; -246.000;   31.000
367.588;  159.825; -371.000; -318.000
367.719;   17.475;  -44.000;  -45.000
367.851;  -21.800; -222.000; -241.000
367.982;  -72.625; -875.000; -732.000
368.113;   82.125; -475.000; -358.000
368.245; -141.875; -960.000; -841.000
368.376;  -29.000; -254.000; -302.000
368.508;  -48.150; -188.000; -263.000
368.639; -134.200;-1166.000;-1034.000
368.770;  -46.975; -670.000; -589.000
368.902;  -70.475; -836.000; -926.000
369.033; -128.125; -906.000; -855.000
369.164;  -52.800; -720.000; -653.000
369.296; -126.300; -452.000; -601.000
369.427;  -18.325; -209.000; -144.000
369.558;  -57.875; -593.000; -377.000
369.689;  -72.825; -721.000; -569.000
369.821; -141.625; -951.000; -845.000
369.952;  -18.975;   42.000; -108.000
370.083;  -58.600; -229.000; -108.000
370.214;  -91.250; -735.000; -650.000
370.345;  -11.925;   65.000;   81.000
370.477; -104.775; -810.000; -790.000
370.608;  176.675; -328.000; -264.000
370.739;  -68.550;-1233.000;-1292.000
370.870;  -59.825;-1102.000; -923.000
371.001;   68.775; -378.000; -467.000
371.132;  -95.000; -754.000; -735.000
371.263;  -23.750;  -42.000; -148.000
371.394; -147.400; -841.000; -748.000
371.525;   27.150;  345.000;  225.000
371.657; -103.150; -808.000; -670.000
371.788;   63.550;  103.000;  199.000
371.919;  136.250; -384.000; -304.000
372.050; 3367.450;  -91.000; -156.000
372.181;  970.800; -188.000; -294.000
372.311;  328.675;   42.000; -127.000
372.442;   12.750; -457.000; -451.000
372.573;  -21.900; -444.000; -340.000
372.704; -121.175;-1008.000; -980.000
372.835;   64.125; -228.000; -289.000
372.966;  -76.200; -646.000; -554.000
373.097;  -74.300; -575.000; -711.000
373.228;  -57.875; -717.000; -542.000
373.359;  107.700; -824.000; -536.000
373.490;  809.550; -881.000; -727.000
373.620; 1015.750;-1001.000; -803.000
373.751; 1584.525; -332.000; -396.000
373.882;  702.375; -663.000; -733.000
374.013;   40.125; -449.000; -262.000
374.143;  -46.650; -581.000; -659.000
374.274; -114.400; -987.000; -908.000
374.405;  151.575; -388.000; -276.000
374.536;  373.525; -526.000; -387.000
374.666;  988.725; -759.000; -807.000
374.797;  183.525; -817.000; -868.000
374.928;  738.525; -710.000; -560.000
375.058;  764.775; -535.000; -500.000
375.189;   75.750;  -59.000;  -93.000
375.320; -119.475; -928.000;-1034.000
375.450;  -55.575; -625.000; -616.000
375.581;  -61.525; -526.000; -436.000
375.712;  -47.500; -574.000; -250.000
375.842;  251.125; -438.000; -415.000
375.973;  187.950; -554.000; -513.000
376.103;  -59.375; -665.000; -648.000
376.234;  -68.925; -531.000; -552.000
376.364;  -71.875; -944.000; -867.000
376.495;  309.900;  925.000;  529.000
376.625;  -25.200; -472.000; -485.000
376.756;   39.100; -709.000; -678.000
376.886;  -91.100;-1178.000;-1026.000
377.017;   51.700;-1048.000;-1061.000
377.147;  350.300; -786.000; -782.000
377.278;   72.125;  174.000;  228.000
377.408; -134.900; -801.000; -815.000
377.538; -106.200; -707.000; -693.000
377.669;  -92.775; -537.000; -613.000
377.799;  -94.975; -645.000; -635.000
377.929;  -85.325; -610.000; -428.000
378.060; -136.300; -781.000; -847.000
378.190;  -62.925; -726.000; -531.000
378.320;  -74.575; -401.000; -406.000
378.451;  -19.000; -131.000;  -22.000
378.581;   -1.900;  -67.000; -110.000
378.711;  134.075; 1035.000;  866.000
378.841;  -38.050; -533.000; -675.000
378.972;  -99.750; -871.000; -751.000
379.102;  -14.375; -652.000; -579.000
379.232;  -39.000; -126.000;  -73.000
379.362; -118.000;-1001.000; -885.000
379.492;  -13.050; -373.000; -424.000
379.623;   90.250;    0.000;  111.000
379.753; -114.425;-1107.000; -974.000
379.883;  164.025;   59.000;  156.000
380.013;  -26.625;-1081.000;-1017.000
380.143; -116.200;-1097.000;-1056.000
380.273; -122.525; -985.000; -861.000
380.403;  -13.975; -344.000; -257.000
380.533;  -43.975; -651.000; -664.000
380.663;   44.200;  173.000;  128.000
380.793; -122.950;-1027.000;-1074.000
380.923;  -42.450; -103.000;  -34.000
381.053; -110.325; -613.000; -623.000
381.183;  -31.675; -106.000; -248.000
381.313;   10.125; -656.000; -470.000
381.443;   31.050; -692.000; -473.000
381.573;  132.975; -402.000; -409.000
381.703;  215.725;-1249.000;-1095.000
381.833; -152.225;-1454.000;-1336.000
381.963;  104.225; -134.000;  -87.000
382.093; 1306.825; -925.000; -909.000
382.223;  384.975; -713.000; -602.000
382.353;  -43.750; -801.000; -608.000
382.482;  316.925;-1091.000; -964.000
382.612;  684.050; -872.000; -644.000
382.742;  386.900; -695.000; -622.000
382.872;  211.200; -565.000; -551.000
383.002;   57.800;  347.000; -132.000
383.131;  -35.775; -226.000; -160.000
383.261;  -67.025; -706.000; -768.000
383.391;  288.750; -552.000; -377.000
383.521; 3345.750;  451.000;  263.000
383.650;  801.250; -947.000; -904.000
383.780;  -14.500; -783.000; -656.000
383.910;   94.250;  880.000;  802.000
384.039;    1.500; -794.000; -656.000
384.169;  154.350;-1205.000;-1017.000
384.299;  -42.600; -650.000; -662.000
384.428; -111.825; -764.000; -680.000
384.558;  -44.775; -308.000; -275.000
384.687;  -59.650; -414.000; -334.000
384.817;    1.575;   75.000;   -2.000
384.947;   -8.775; -234.000; -141.000
385.076;  252.675;  982.000;  912.000
385.206;   87.600;  369.000;  480.000
385.335;  -48.175; -549.000; -417.000
385.465; -107.700; -655.000; -663.000
385.594;  102.475;  -53.000;  -44.000
385.724;  329.950; -868.000; -838.000
385.853;   85.725; -296.000; -270.000
385.982; 1228.600; -743.000; -787.000
386.112; 1932.350;-1052.000; -871.000
386.241;  113.275; -307.000; -312.000
386.371;    5.000; -174.000;  -87.000
386.500;  -26.200; -825.000; -789.000
386.629;   17.875; -874.000; -817.000
386.759;   55.225;  -43.000;   68.000
386.888;  -35.075; -170.000; -250.000
387.017;  -79.525; -648.000; -620.000
387.147; -114.325; -771.000; -798.000
387.276;  -14.400; -410.000; -397.000
387.405;   -5.150; -398.000; -342.000
387.535;  -72.375; -452.000; -361.000
387.664;  -67.775; -692.000; -620.000
387.793;   31.525; -198.000; -113.000
387.922;  449.150;  255.000;  200.000
388.052;  -14.750; -576.000; -423.000
388.181;   -8.425; -342.000; -472.000
388.310;  -48.100; -889.000; -710.000
388.439;  -79.000; -749.000; -742.000
388.568;  151.150;  365.000;  244.000
388.697;  904.200; -756.000; -653.000
388.826;  156.550; -768.000; -666.000
388.956;   45.775; -285.000; -307.000
389.085;  -44.525; -347.000; -287.000
389.214; -111.375; -842.000; -872.000
389.343;  -85.175; -645.000; -413.000
389.472;  427.025;  126.000;  149.000
389.601;  508.000;   91.000;    0.000
389.730;  -14.250; -568.000; -687.000
389.859;   49.825;  226.000;   46.000
389.988;  145.425; -423.000; -408.000
390.117;  100.800; -168.000; -146.000
390.246;  -23.600; -331.000; -320.000
390.375;   56.175; -673.000; -626.000
390.504;  -70.800; -703.000; -621.000
390.633; -113.950; -672.000; -726.000
390.761;  -79.950; -732.000; -645.000
390.890;   10.700;   -4.000; -130.000
391.019;  -32.525; -421.000; -441.000
391.148; -152.275; -826.000; -855.000
391.277;  -78.275; -576.000; -493.000
391.406; -106.850; -821.000; -805.000
391.534;    9.975;  574.000; -301.000
391.663;  -82.125; -583.000; -645.000
391.792;  -89.800; -673.000; -701.000
391.921;   59.400;   -3.000;   15.000
392.050;  142.250; -287.000; -228.000
392.178;  -68.875;-1206.000;-1061.000
392.307;  115.375; -758.000; -712.000
392.436;   32.800; -427.000; -641.000
392.564;    7.900;  166.000;   -6.000
392.693;  -99.775; -860.000; -682.000
392.822;  160.850; -529.000; -534.000
392.950;   52.975; -880.000; -714.000
393.079;  281.950; -188.000; -328.000
393.208;    9.575; -488.000; -511.000
393.336;  -10.775; -170.000; -145.000
393.465;  -62.025; -317.000; -199.000
393.593;   -5.700;   62.000;   79.000
393.722; -172.825;-1121.000; -916.000
393.850;  -33.200; -188.000;  -61.000
393.979; -161.100; -926.000; -805.000
394.107;  -68.700; -517.000; -537.000
394.236;  -45.950; -570.000; -507.000
394.364;  177.525;  383.000;  206.000
394.493;  209.175; -911.000; -767.000
394.621;  -21.325; -955.000; -916.000
394.750;  736.300; -873.000; -923.000
394.878; 3093.350; -247.000; -149.000
395.007; 4054.950; -721.000; -807.000
395.135;  295.750; -790.000; -721.000
395.263;  -91.225;-1038.000;-1040.000
395.392;    4.700;  -25.000; -107.000
395.520; -136.775; -818.000; -679.000
395.648;  -99.675; -865.000; -915.000
395.777;  -27.800; -366.000; -405.000
395.905;  -70.850; -449.000; -564.000
396.033;    3.300;  217.000;  172.000
396.162;  411.925; -399.000; -453.000
396.290;  355.100;  -17.000;   -2.000
396.418;   82.500; -555.000; -514.000
396.546;  -94.875; -571.000; -466.000
396.674; -104.900; -850.000; -878.000
396.803;  -13.425;  -72.000;  -23.000
396.931;   67.350; -179.000; -199.000
397.059;    4.375;-1026.000; -989.000
397.187; -110.300;-1026.000; -975.000
397.315; -143.300; -884.000; -649.000
397.443; -100.950; -592.000; -443.000
397.572; -100.250; -578.000; -424.000
397.700;  -27.250; -607.000; -614.000
397.828;    7.500;  120.000;  -90.000
397.956;  -53.375; -508.000; -478.000
398.084;  -74.650; -767.000; -626.000
398.212;   17.825;  137.000;  124.000
398.340;   -6.800;  -56.000;  159.000
398.468;   17.475; -390.000; -169.000
398.596; -154.275; -993.000; -953.000
398.724; -133.350; -762.000; -767.000
398.852; -178.150;-1024.000; -976.000
398.980;  -75.250; -560.000; -560.000
399.108;  -74.675; -982.000; -735.000
399.236;   11.525;   13.000;    8.000
399.363;    3.375;  222.000;  196.000
399.491;  -66.875; -404.000; -398.000
399.619; -136.500; -829.000; -800.000
399.747; -110.700; -859.000; -771.000
399.875;   58.300;  220.000;  234.000
400.003;  -58.200; -359.000; -284.000
400.130;  -99.575; -421.000; -341.000
400.258;  -43.550;  -83.000;   38.000
400.386;  -73.425; -352.000; -168.000
400.514;  -63.175; -526.000; -587.000
400.641;  -99.225; -928.000; -802.000
400.769; -162.550; -979.000; -888.000
400.897; -142.925; -838.000; -793.000
401.025;  -29.850; -166.000; -152.000
401.152;  -24.950;  220.000;   38.000
401.280;  -78.600; -430.000; -429.000
401.408; -118.475; -712.000; -576.000
401.535; -107.475; -735.000; -758.000
401.663; -199.200;-1134.000;-1054.000
401.790;  -95.750; -514.000; -525.000
401.918;   30.400;  436.000;  405.000
402.046;  -23.600;  134.000;  122.000
402.173;  -49.500;  -18.000;    7.000
402.301;  -75.325; -519.000; -397.000
402.428;   33.450;  528.000;  383.000
402.556; -149.600;-1188.000; -913.000
402.683;  -38.900;  -20.000;   -1.000
402.811;  -30.325;  -37.000; -206.000
402.938;  -20.450;   20.000;   27.000
403.066;  182.075; -574.000; -558.000
403.193;  285.150;  299.000;  239.000
403.321;  218.625; -396.000; -574.000
403.448;  278.350;   83.000;   27.000
403.575;  113.050;  -90.000;  -46.000
403.703; -105.975; -732.000; -557.000
403.830;  -61.450; -531.000; -496.000
403.957; -151.575;-1117.000;-1023.000
404.085;   12.200;  -61.000; -172.000
404.212;   91.250;  -50.000;   63.000
404.339;  276.900; -566.000; -306.000
404.467; 5980.125; -612.000; -524.000
404.594; 3792.800; -287.000; -227.000
404.721;  830.100; -869.000; -764.000
404.848;   67.225; -113.000; -202.000
404.976; -113.125; -856.000; -783.000
405.103;  -17.450;  -14.000;  -82.000
405.230;  -10.425;  190.000;  226.000
405.357;   12.125;  117.000;   44.000
405.484;  275.050;  -49.000;    5.000
405.612;   40.800; -548.000; -563.000
405.739;  -68.875; -488.000; -243.000
405.866;   71.700;  669.000;  385.000
405.993;  -55.650; -398.000; -102.000
406.120; -142.050; -801.000; -887.000
406.247;  -61.750; -323.000; -342.000
406.374;  383.675;  540.000;  629.000
406.501;   56.625; -632.000; -702.000
406.628;  -74.625; -621.000; -589.000
406.755; -105.950; -803.000; -620.000
406.882;  -39.450; -228.000; -277.000
407.009; -131.825; -719.000; -628.000
407.136;   20.200; -480.000; -401.000
407.263;   79.250; -939.000; -829.000
407.390;  -85.675; -692.000; -614.000
407.517; -192.425;-1139.000;-1187.000
407.644;  -59.825; -332.000; -256.000
407.771;  -75.450; -249.000; -287.000
407.898;    1.675;  168.000;  328.000
408.025;  -78.275; -421.000; -313.000
408.151;  -20.375;   82.000;  153.000
408.278;  -86.175; -267.000; -216.000
408.405; -135.150; -931.000; -899.000
408.532;  -95.325; -549.000; -542.000
408.659; -130.325; -677.000; -648.000
408.785; -208.275;-1298.000;-1170.000
408.912;  -68.950; -412.000; -296.000
409.039; -128.275; -610.000; -686.000
409.166; -114.050; -591.000; -555.000
409.292; -127.000; -571.000; -534.000
409.419; -106.550; -665.000; -649.000
409.546;  -89.550; -431.000; -192.000
409.672; -119.200; -713.000; -545.000
409.799;  -33.125;  -36.000;   34.000
409.926;  -49.675; -180.000; -179.000
410.052; -191.625;-1127.000;-1091.000
410.179;  -57.975; -368.000; -392.000
410.305;  -89.750; -375.000; -493.000
410.432;  -35.400; -220.000; -333.000
410.558; -101.500; -305.000; -380.000
410.685; -119.175; -688.000; -431.000
410.812; -112.625; -409.000; -588.000
410.938; -150.150; -964.000; -808.000
411.065;  -93.125; -671.000; -645.000
411.191;  -23.700; -189.000; -174.000
411.317; -135.225; -823.000; -742.000
411.444;  -66.625; -317.000; -246.000
411.570;  -88.300; -339.000; -294.000
411.697; -132.200; -758.000; -752.000
411.823; -187.625; -989.000; -999.000
411.949;  -42.350;  -56.000;   17.000
412.076; -117.775; -539.000; -519.000
412.202; -128.800; -758.000; -757.000
412.329; -129.675; -798.000; -752.000
412.455; -114.175; -821.000; -657.000
412.581;  -19.550;  -15.000;  172.000
412.707;  -78.650; -540.000; -457.000
412.834;   -5.200;  156.000;  219.000
412.960;  -87.575; -785.000; -784.000
413.086; -117.900; -743.000; -701.000
413.212;  141.200;  604.000;  578.000
413.339;  -69.700; -685.000; -701.000
413.465;  -14.600; -364.000; -310.000
413.591; -101.150; -757.000; -474.000
413.717;  -66.175; -358.000; -366.000
413.843; -149.425; -839.000; -861.000
413.969;  -63.350;  -47.000; -292.000
414.096; -114.250; -679.000; -679.000
414.222;  -18.125;  -33.000;   85.000
414.348;  -45.275; -652.000; -385.000
414.474;   73.050;   38.000;  -52.000
414.600;  -23.525; -126.000; -144.000
414.726;  -14.775;  -96.000;  -55.000
414.852;  -71.450; -365.000; -342.000
414.978;   26.600;  104.000;  -18.000
415.104;   37.000;   38.000;   80.000
415.230;   16.575; -329.000; -330.000
415.356;   33.125; -409.000; -514.000
415.482;  195.450;   13.000;  -35.000
415.608;  265.900; -247.000; -323.000
415.734;  998.750;   67.000;   38.000
415.860;20508.075; -875.000; -767.000
415.986;14543.775; -685.000; -607.000
416.111; 1221.000; -798.000; -652.000
416.237;  256.175; -424.000; -571.000
416.363; 1209.725; -765.000; -733.000
416.489; 4345.550; -324.000; -251.000
416.615;  425.100; -707.000; -742.000
416.741;  -10.775; -677.000; -784.000
416.866; -105.350; -673.000; -736.000
416.992; -135.175; -801.000; -818.000
417.118;  -29.500;  -41.000;  -80.000
417.244;  -63.975; -798.000; -531.000
417.369;  -91.225; -801.000; -612.000
417.495;  -11.925; -325.000; -254.000
417.621; -101.675;-1015.000; -803.000
417.746;    4.050; -579.000; -572.000
417.872;   27.900; -254.000; -144.000
417.998;   51.300; -515.000; -530.000
418.123; 1122.350;-1073.000; -845.000
418.249; 5589.625; -512.000; -601.000
418.374;  734.700; -916.000; -824.000
418.500;   95.600; -383.000; -482.000
418.626;  107.250;   70.000;  -59.000
418.751;  121.000; -549.000; -448.000
418.877;  173.525; -637.000; -643.000
419.002; 1928.125; -688.000; -560.000
419.128;13061.275; -930.000; -721.000
419.253; 3063.975; -967.000; -837.000
419.379;  396.800; -391.000; -338.000
419.504;  399.975;  325.000;  415.000
419.629;  525.175; -393.000; -212.000
419.755; 3808.200; -317.000; -254.000
419.880;22114.450;  -98.000;   67.000
420.006;11929.950; -280.000; -221.000
420.131;30198.925; -662.000; -775.000
420.256; 4232.650; -315.000; -316.000
420.382;  558.575; -665.000; -687.000
420.507;   64.200; -649.000; -778.000
420.632;  104.400; -337.000; -339.000
420.758;  203.450; -251.000; -425.000
420.883; -108.775; -876.000; -672.000
421.008; -103.900; -775.000; -619.000
421.133;  -83.675; -509.000; -467.000
421.259;  -43.425; -325.000; -259.000
421.384; -135.800; -834.000; -693.000
421.509;  -55.975;-1052.000; -862.000
421.634;  974.050; -936.000; -820.000
421.759;  413.800; -359.000; -327.000
421.885;  -71.250; -717.000; -656.000
422.010;  -86.975; -673.000; -542.000
422.135; -163.700; -695.000; -727.000
422.260;   30.075;  340.000;  280.000
422.385;  -53.225;   12.000;  -98.000
422.510;  -10.225;  151.000;  -26.000
422.635;    1.600;  -87.000;  -43.000
422.760;   85.200; -766.000; -791.000
422.885;   39.600;  -57.000;  -80.000
423.010;  -35.175; -112.000; -169.000
423.135;  -98.600; -481.000; -561.000
423.260;  -21.300; -150.000; -245.000
423.385;   64.875;  476.000;  222.000
423.510;   12.150;   71.000;  -22.000
423.635;   61.000;  133.000;   45.000
423.760;   48.575;  383.000;  328.000
423.885;   45.150;  336.000;  391.000
424.010;   13.325;  -68.000;  -13.000
424.135;  -22.925;    5.000;  -33.000
424.259;  -86.175; -654.000; -457.000
424.384;  -71.350; -279.000; -272.000
424.509;  -21.825; -260.000; -186.000
424.634; -104.650; -761.000; -623.000
424.759;  -26.800; -688.000; -544.000
424.883;  -26.775; -506.000; -527.000
425.008;  166.750; -502.000; -410.000
425.133; 2066.875; -679.000; -653.000
425.258;  937.050; -517.000; -381.000
425.382;  961.200; -867.000; -774.000
425.507; 2424.200; -487.000; -543.000
425.632;  406.250; -802.000; -663.000
425.756;  472.100; -256.000; -146.000
425.881; 7045.125; -831.000; -857.000
426.006;18773.225; -604.000; -355.000
426.130; 2827.275; -696.000; -508.000
426.255;  352.775; -611.000; -491.000
426.379;  156.475; -189.000; -577.000
426.504;  378.575;  660.000;  544.000
426.629; 4127.625; -519.000; -466.000
426.753; 2785.700;   64.000;  -46.000
426.878;  319.525; -252.000; -288.000
427.002;  180.250; -651.000; -668.000
427.127; 1661.750;  -35.000; -158.000
427.251;11826.275;  372.000;  401.000
427.375; 3248.250; -191.000; -173.000
427.500; 2156.225; -616.000; -610.000
427.624;  685.975; -234.000; -400.000
427.749;   87.725; -216.000; -225.000
427.873;  -49.200; -499.000; -412.000
427.997;  -46.750; -222.000; -230.000
428.122;   79.475;  795.000;  703.000
428.246;   69.900;  433.000;  434.000
428.371; -141.325; -869.000; -773.000
428.495; -118.075; -624.000; -646.000
428.619;  -53.450; -186.000; -117.000
428.743;   26.350;   65.000;  132.000
428.868;  -16.400; -732.000; -643.000
428.992; 1289.875; -219.000; -326.000
429.116;  491.575; -329.000; -357.000
429.240;  227.175;  419.000;  426.000
429.365;  -35.525; -454.000; -574.000
429.489;  -50.100; -638.000; -647.000
429.613;    0.575; -236.000; -177.000
429.737;   38.200; -563.000; -432.000
429.861;  264.325; -247.000; -133.000
429.985; 5793.675; -425.000; -305.000
430.109; 6261.525; -770.000; -908.000
430.234;  681.150;   76.000;  -50.000
430.358;   47.525; -250.000; -160.000
430.482;  -77.750; -672.000; -564.000
430.606;  -89.000; -655.000; -375.000
430.730;   -6.050; -437.000; -388.000
430.854;   64.225; -909.000; -835.000
430.978;  -84.675; -795.000; -764.000
431.102; -101.300; -499.000; -422.000
431.226; -136.075; -874.000; -815.000
431.350;   15.325;  345.000;  422.000
431.474;  -72.100; -661.000; -373.000
431.597; -177.750;-1060.000; -848.000
431.721;  -90.700; -276.000; -267.000
431.845; -144.600; -704.000; -472.000
431.969;  -84.800; -304.000; -349.000
432.093; -100.225; -395.000; -317.000
432.217;  -18.250;   32.000;   82.000
432.341; -105.175; -523.000; -518.000
432.464;    6.850;   96.000;   40.000
432.588;  135.650; -401.000; -329.000
432.712;   84.225;  -52.000;  -52.000
432.836;   38.400;  213.000;  263.000
432.959;  -30.850; -372.000; -311.000
433.083;   90.225;   11.000;    2.000
433.207;  387.600;  285.000;  930.000
433.330; 5330.075; -391.000; -200.000
433.454; 6437.950; -654.000; -638.000
433.578; 3667.000;  583.000;  278.000
433.701;  661.800; -623.000; -675.000
433.825;  100.375; -292.000; -299.000
433.949;  136.925;   28.000;  -72.000
434.072;   16.525; -410.000; -323.000
434.196;  -25.375; -309.000; -117.000
434.319; 3705.000;25482.000;25124.000
434.443;  735.950; -656.000; -603.000
434.566; 2758.175;  281.000;   62.000
434.690;  456.075; -637.000; -383.000
434.813;   45.950; -251.000; -173.000
434.937;  -78.825; -569.000; -696.000
435.060;  -62.700; -423.000; -332.000
435.184;  235.250; -492.000; -217.000
435.307;  105.375;  159.000;  102.000
435.431;  -21.275;  -40.000;   24.000
435.554;  -87.925; -399.000; -240.000
435.677;  -93.975; -350.000; -258.000
435.801;  -59.275;  -25.000;   49.000
435.924;  -20.575;    1.000;  -67.000
436.048; -139.400;-1019.000; -732.000
436.171;  -60.500; -240.000;  -66.000
436.294;  -43.125; -248.000; -229.000
436.417;   91.450; -963.000; -849.000
436.541;  -82.250; -814.000; -840.000
436.664;  -56.550; -242.000; -316.000
436.787;  -38.300;   13.000;  113.000
436.910; -113.775; -792.000; -422.000
437.034;  -12.000;  142.000;  143.000
437.157;   18.800;  -11.000;    0.000
437.280;  -64.625; -392.000; -292.000
437.403; -109.300; -982.000; -869.000
437.526;  495.975; -903.000; -865.000
437.649; 1841.875; -505.000; -332.000
437.772;  211.400; -692.000; -540.000
437.896;   95.325;  700.000;  544.000
438.019; -111.825; -758.000; -503.000
438.142;  -90.100; -596.000; -506.000
438.265;  -33.900; -639.000; -670.000
438.388;  466.425; -520.000; -410.000
438.511;   49.975; -597.000; -394.000
438.634;  -59.225; -247.000; -125.000
438.757; -149.500; -693.000; -619.000
438.880;  -21.750;  -34.000;  -57.000
439.003;  -94.075; -417.000; -437.000
439.126;  -68.525; -287.000; -167.000
439.248;  -69.725;  -98.000; -139.000
439.371;  -69.200;    9.000;  -53.000
439.494;   28.675;  510.000;  439.000
439.617;  -45.050;   65.000;  -88.000
439.740; -185.525; -968.000; -816.000
439.863; -141.175; -755.000; -595.000
439.986; -149.975; -476.000; -431.000
440.108;  -50.725; -161.000; -112.000
440.231; -177.900; -950.000; -836.000
440.354;  -52.325;  -64.000; -150.000
440.477;   -0.225; -566.000; -542.000
440.599;  -32.725; -200.000; -225.000
440.722; -143.375; -709.000; -586.000
440.845;   62.925;  751.000;  928.000
440.968; -123.000; -415.000; -311.000
441.090;  -56.375; -199.000;  -33.000
441.213; -176.500;-1021.000; -825.000
441.336;  -54.400; -159.000;   -5.000
441.458;  -92.650; -549.000; -396.000
441.581;  -98.000; -628.000; -629.000
441.703;  -83.375; -152.000;   13.000
441.826; -118.150; -557.000; -400.000
441.948;  -61.050;   56.000;   51.000
442.071;   26.950;  555.000;  424.000
442.193; -124.375; -531.000; -485.000
442.316;   22.800;  152.000;   97.000
442.438;   34.450; -233.000;  -10.000
442.561;   59.325;  272.000;  262.000
442.683;  428.200; -809.000; -522.000
442.806;  953.325;   -8.000;   74.000
442.928;  -21.250; -859.000; -604.000
443.051;  -78.125; -577.000; -373.000
443.173; -102.475; -341.000; -339.000
443.295;  -93.350; -263.000; -371.000
443.418;  -88.675; -321.000;  -29.000
443.540;  -18.175; -106.000;   -4.000
443.662; -131.900; -563.000; -465.000
443.785;  -25.675;  335.000;  199.000
443.907;  -90.500; -362.000; -208.000
444.029; -130.825; -767.000; -494.000
444.152; -160.550; -644.000; -554.000
444.274;  -44.075;  -18.000;  -24.000
444.396; -141.300; -461.000; -221.000
444.518; -144.175; -691.000; -454.000
444.640; -112.075; -268.000; -111.000
444.763;  -22.450;  388.000;  249.000
444.885; -132.650; -432.000; -392.000
445.007;  -36.875;   35.000;   86.000
445.129; -136.025; -610.000; -515.000
445.251; -100.575; -372.000; -439.000
445.373; -145.975; -537.000; -386.000
445.495;   -1.450;  242.000;  350.000
445.617;   48.250;  853.000;  753.000
445.739;  -73.750; -215.000;  -97.000
445.861;  -49.475; -245.000; -112.000
445.984;  -30.925; -267.000; -101.000
446.105;  160.575; -418.000; -251.000
446.227;  495.675; -176.000;  -19.000
446.349;  -34.575; -358.000; -249.000
446.471;  -95.975; -615.000; -448.000
446.593;  -68.350; -316.000;   19.000
446.715;  -11.350;  -67.000;   41.000
446.837;   64.500;  697.000;  832.000
446.959;  -98.050; -457.000; -478.000
447.081; -136.800; -628.000; -518.000
447.203;   60.200;  862.000;  834.000
447.325;  -89.275; -270.000;   42.000
447.446;  -12.575;  286.000;  530.000
447.568; -171.800; -921.000; -803.000
447.690;  -92.075; -236.000; -245.000
447.812; -164.200; -798.000; -519.000
447.933;  -36.850;  155.000;  127.000
448.055;  -70.175; -306.000; -261.000
448.177;  118.500;   31.000;   79.000
448.299;   42.200; -935.000; -727.000
448.420;   20.800;  -25.000;  159.000
448.542;  -61.200;   -3.000;   33.000
448.664;  -30.600;  109.000;  322.000
448.785;  -43.700;  265.000;   83.000
448.907;  -84.625; -614.000; -353.000
449.028;  -61.925; -771.000; -471.000
449.150;   63.625;  492.000;  589.000
449.272; -188.900;-1044.000; -913.000
449.393;   21.650;  612.000;  694.000
449.515; -157.750; -634.000; -581.000
449.636;  -62.025; -264.000; -155.000
449.758;   70.925;  763.000;  622.000
449.879; -108.175; -498.000; -396.000
450.001;  -94.700; -149.000;  -49.000
450.122;  -33.800;  -95.000;  162.000
450.244;  -31.675;   37.000;  364.000
450.365; -103.625; -495.000; -301.000
450.486;  -45.950;   80.000;  268.000
450.608;   13.225;  393.000;  326.000
450.729;   65.325;  578.000;  645.000
450.850;   14.275; -574.000; -466.000
450.972;  791.775; -552.000; -389.000
451.093; 5187.250;  190.000;  588.000
451.214; 2180.225; -516.000; -337.000
451.336;  402.625;  773.000;  579.000
451.457;   66.675;  264.000;  393.000
451.578;  -47.400; -118.000;  -74.000
451.699; -120.350; -546.000; -540.000
451.821;  -55.150; -284.000;  -50.000
451.942;  -14.400;  278.000;  285.000
452.063;   33.100;  228.000;  419.000
452.184;  598.150;  -54.000;  -49.000
452.305; 1112.200;  103.000;  170.000
452.427;  136.900; -549.000; -301.000
452.548;  -19.650;   23.000;   79.000
452.669;  -72.550; -257.000;  -89.000
452.790;  -51.000;    3.000;  -18.000
452.911;  -15.125;  195.000;  259.000
453.032;  -78.300; -289.000;  -60.000
453.153;  -58.875;  -29.000;   81.000
453.274;   59.025;  737.000;  868.000
453.395;  -71.075;  -51.000;  175.000
453.516;  123.400; 1317.000; 1388.000
453.637;  -77.625; -205.000; -150.000
453.758;  -56.200;   15.000;   69.000
453.879; -138.375; -462.000; -250.000
454.000;   74.875; 1086.000;  948.000
454.121; -130.650; -554.000; -326.000
454.242; -113.950; -599.000; -383.000
454.362;  -65.800;  -99.000;  114.000
454.483;  -28.200; -309.000; -229.000
454.604;   22.325;  512.000;  580.000
454.725; -138.875; -627.000; -555.000
454.846; -132.425; -474.000; -406.000
454.967;  -34.225;  230.000;  539.000
455.087;  -56.475;  179.000;  153.000
455.208;   19.925;  554.000;  856.000
455.329;  -64.475;  -22.000;   82.000
455.450;   27.925;  473.000;  633.000
455.570;  -91.000; -234.000; -211.000
455.691;  -35.525;  201.000;  407.000
455.812; -113.150; -270.000;  -92.000
455.932;  -66.825;  107.000;  -97.000
456.053;  -94.850;   36.000;   24.000
456.173; -108.650; -433.000; -355.000
456.294; -148.875; -476.000; -303.000
456.415;  -74.050;  -73.000;   70.000
456.535;  -48.950;  297.000;  273.000
456.656;  -48.575;  132.000;  240.000
456.776;  -86.275;    3.000;  298.000
456.897;  -15.850;  308.000;  513.000
457.017;  -89.800; -153.000;   -3.000
457.138; -118.075; -402.000; -249.000
457.258;  -37.400;  263.000;  224.000
457.379;  -16.700;  509.000;  521.000
457.499;  -33.500;  443.000;  432.000
457.620; -118.175; -407.000; -231.000
457.740; -113.625; -132.000;  -11.000
457.860;  -52.425;   87.000;   44.000
457.981;  -64.075;  132.000;  124.000
458.101;  -66.775;  -89.000;   40.000
458.221;  -20.900;  336.000;  402.000
458.342;  -64.925;   -4.000;  -37.000
458.462;   16.900;  617.000;  352.000
458.582;  -36.400; -302.000; -294.000
458.703;    9.350;  303.000;  154.000
458.823;  -15.575;   22.000;  163.000
458.943;    6.525;  341.000;  467.000
459.063;  -25.525; 1124.000;  192.000
459.183;  -39.775;  328.000;  313.000
459.304;   12.575;  315.000;  517.000
459.424;  -79.550; -246.000;  -89.000
459.544;  348.875;  388.000;  764.000
459.664;  854.450;  499.000;  506.000
459.784;  307.425; 1004.000; 1175.000
459.904;   54.025;  867.000;  744.000
460.024;   46.125;  867.000;  684.000
460.144;  -18.550;  449.000;  554.000
460.264;   -3.800;  515.000;  327.000
460.385; -107.250; -145.000; -119.000
460.505;   32.750;  905.000;  858.000
460.625; -104.225;  -17.000;  -68.000
460.745;  -26.225;  396.000;  541.000
460.864;  -52.350;  153.000;  469.000
460.984;   -0.925;  499.000;  573.000
461.104;  136.850; 1656.000; 1775.000
461.224;   39.175;  657.000;  650.000
461.344;  -36.050;  431.000;  360.000
461.464;  -47.050;  258.000;  513.000
461.584;  -34.000;  283.000;  466.000
461.704;  -53.150;   58.000;  108.000
461.824;  -84.175;  238.000;  259.000
461.943;  -46.875;  191.000;  130.000
462.063;  -89.200;    2.000;  324.000
462.183;   25.825;  639.000;  717.000
462.303;  100.100; 1678.000; 1230.000
462.422;   29.200;  781.000;  840.000
462.542;  -63.175;  271.000;  391.000
462.662;   21.650;  353.000;  380.000
462.782;  244.050;  833.000;  572.000
462.901;  500.450;  545.000;  717.000
463.021;  271.200; 1702.000; 1638.000
463.141;  -18.525;  337.000;  770.000
463.260;  -28.850;  614.000;  474.000
463.380;   21.150;  902.000;  884.000
463.499;  -40.975;  342.000;  332.000
463.619;  -28.375;  581.000;  559.000
463.738;  101.950; 1644.000;  903.000
463.858;    8.400;  657.000;  811.000
463.978;  -33.350;  542.000;  396.000
464.097;   40.525;  921.000; 1114.000
464.217;  109.600; 1196.000; 1143.000
464.336;  110.425; 1068.000; 1130.000
464.455;  -56.150;  328.000;  659.000
464.575;   47.250;  597.000;  602.000
464.694;  156.175; 1204.000; 1179.000
464.814;  125.925; 1190.000; 1138.000
464.933;   67.900; 1095.000; 1027.000
465.052;   92.475; 1412.000; 1054.000
465.172;   62.225;  922.000;  799.000
465.291;  146.425; 1376.000; 1320.000
465.410;    9.775;  462.000;  735.000
465.530;   77.300; 1355.000; 1310.000
465.649;   57.875; 1209.000; 1273.000
465.768;  131.200; 1673.000; 1508.000
465.888;   40.475;  941.000; 1174.000
466.007;   83.275; 1335.000; 1440.000
466.126;  -21.375;  721.000;  641.000
466.245;   43.700; 1176.000; 1187.000
466.364;   -4.625;  950.000; 1060.000
466.484;   50.850; 1024.000; 1213.000
466.603;   32.400; 1101.000; 1222.000
466.722;  121.150; 1490.000; 1769.000
466.841;   78.025; 1151.000; 1401.000
466.960;   29.300; 1069.000;  972.000
467.079;  119.600; 1971.000; 1786.000
467.198;   41.425; 1238.000; 1181.000
467.317;   75.675; 1768.000; 1162.000
467.436;   65.400; 1709.000; 1261.000
467.555;  127.125; 1796.000; 1746.000
467.674;   73.825; 1227.000; 1329.000
467.793;   35.275; 1376.000; 1374.000
467.912;   86.350; 1658.000; 1539.000
468.031;  124.025; 2038.000; 1930.000
468.150;  135.950; 1842.000; 1837.000
468.269;  191.725; 2313.000; 2090.000
468.388;  177.500; 2168.000; 2339.000
468.507;  246.250; 2884.000; 2903.000
468.626;  229.625; 2555.000; 2541.000
468.744;  134.300; 2018.000; 2174.000
468.863;  193.850; 2312.000; 2523.000
468.982;   83.425; 1503.000; 1555.000
469.101;  236.850; 2788.000; 2692.000
469.220;  151.575; 2333.000; 2176.000
469.338;  248.850; 2935.000; 3051.000
469.457;  181.500; 2719.000; 2545.000
469.576;  341.175; 3953.000; 3784.000
469.695;  229.825; 2877.000; 3066.000
469.813;  432.275; 4148.000; 4192.000
469.932;  385.650; 4255.000; 4485.000
470.051;  429.175; 4075.000; 4161.000
470.169;  867.875; 4470.000; 4338.000
470.288; 1496.675; 4700.000; 4809.000
470.406;  870.850; 5059.000; 5194.000
470.525;  616.450; 6101.000; 5787.000
470.644;  629.075; 6847.000; 6794.000
470.762;  835.050; 8397.000; 7873.000
470.881;  920.300; 8651.000; 8464.000
470.999; 1043.950; 9685.000; 9151.000
471.118; 1097.575;11174.000;10711.000

