
Integration time [ms]: 100.000
Averaging Nr. [scans]: 40
Smoothing Nr. [pixels]: 0
Data measured with spectrometer [name]: 2101012U2
Wave   ;Sample   ;Dark     ;Reference
[nm]   ;[counts] ;[counts] ;[counts] 

197.733;   64.025;  516.000;  404.000
197.879;  -74.150; -610.000; -634.000
198.025;  -44.400; -475.000; -420.000
198.171;  -73.600; -602.000; -612.000
198.317;  -30.050; -401.000; -316.000
198.463;  -60.350; -655.000; -404.000
198.609;   21.975;  181.000; -137.000
198.755;  -80.300; -644.000; -410.000
198.901;  -62.325; -505.000; -424.000
199.047;  -61.325; -615.000; -488.000
199.193;  -43.375; -230.000; -468.000
199.339;  -41.900; -222.000; -369.000
199.485;   38.300;  330.000;  271.000
199.631;   19.750;  227.000;  310.000
199.777;  -43.925; -466.000; -398.000
199.923;  -64.425; -610.000; -424.000
200.069;    2.625; -141.000;  -58.000
200.215;   36.900;  128.000;  453.000
200.361;   46.100;  243.000;  477.000
200.507;  -71.950; -600.000; -373.000
200.653;  -24.925; -371.000; -194.000
200.798;  -36.950; -215.000; -125.000
200.944;   -9.725; -146.000;  -41.000
201.090;   25.625;   61.000;  222.000
201.236;   -3.375; -116.000; -158.000
201.382;  122.525;  874.000;  903.000
201.528;   -0.825;  -58.000;  -48.000
201.674;  -64.600; -386.000; -293.000
201.819;  -56.400; -540.000; -439.000
201.965;  -93.000; -699.000; -447.000
202.111;  -32.700; -273.000; -226.000
202.257;  -47.250; -250.000; -238.000
202.402;   17.150;   13.000;  -36.000
202.548;  -46.875; -169.000; -116.000
202.694;   74.650;  410.000; -183.000
202.840;  -85.325; -603.000; -531.000
202.985;  -73.500; -681.000; -639.000
203.131; -111.225; -832.000; -666.000
203.277;  -15.250; -199.000; -262.000
203.423;  -56.275; -434.000; -520.000
203.568;  -40.650; -462.000; -237.000
203.714;  -64.175; -535.000; -542.000
203.860;  -85.850; -682.000; -641.000
204.005;    8.450;  112.000;  167.000
204.151;   72.200;  561.000;  556.000
204.296;  -37.950; -354.000; -221.000
204.442;  -65.300; -600.000; -547.000
204.588;  -82.750; -592.000; -579.000
204.733;   16.825;  178.000;  168.000
204.879; -135.575;-1018.000; -822.000
205.025;    5.700;  -99.000;  126.000
205.170;  -12.575;  -17.000;   94.000
205.316;   81.075;  438.000;  661.000
205.461;  -79.600; -698.000; -554.000
205.607;   70.925;  609.000;  665.000
205.752;  -85.475; -626.000; -551.000
205.898;  -53.325; -501.000; -391.000
206.043;  -65.825; -578.000; -506.000
206.189;  -33.800; -243.000; -285.000
206.334;   72.325;  554.000;  606.000
206.480;   74.550;  409.000;  239.000
206.625;  -91.325; -529.000; -552.000
206.771;  -36.250; -451.000; -373.000
206.916;  -50.025; -210.000; -537.000
207.062;  -68.550; -545.000; -591.000
207.207;  -64.150; -546.000; -443.000
207.353;   47.100;  185.000;  460.000
207.498;   15.350;  196.000;   85.000
207.643;  -45.875; -501.000; -370.000
207.789; -130.000;-1069.000; -910.000
207.934;  -89.750; -665.000; -713.000
208.080;  -32.275; -154.000;   66.000
208.225;   -9.375;  -22.000;  -57.000
208.370;  -85.850; -727.000; -619.000
208.516;  -62.375; -741.000; -487.000
208.661;  -21.850; -127.000;  -69.000
208.806;  -21.525; -165.000; -171.000
208.952; -116.750;-1044.000; -731.000
209.097;   66.700;  378.000;  349.000
209.242;  -56.250; -307.000; -382.000
209.387;   58.750;  392.000;  350.000
209.533;  -52.900; -321.000; -350.000
209.678;   76.350;  472.000;  543.000
209.823;  -43.475; -408.000; -310.000
209.969;  -96.800; -860.000; -757.000
210.114; -111.175; -907.000; -719.000
210.259; -103.400; -939.000; -889.000
210.404;  -13.500; -171.000;  103.000
210.549;   10.400;  108.000;    3.000
210.695;  -15.200;   -3.000;  -95.000
210.840;   24.700;   94.000;   67.000
210.985;  -56.300; -484.000; -303.000
211.130;   65.025;  268.000;  406.000
211.275;   23.600;  207.000;  199.000
211.420;  -49.900; -300.000; -289.000
211.566;  -73.550; -536.000; -489.000
211.711;   16.675;  218.000;  157.000
211.856;  -56.025; -545.000; -519.000
212.001;   18.700;  151.000;   44.000
212.146;   12.175;  153.000;   49.000
212.291;  -27.525; -210.000; -186.000
212.436;  -25.325; -280.000;   -6.000
212.581;  -84.325; -685.000; -653.000
212.726;  -86.550; -487.000; -538.000
212.871;  -46.025; -552.000; -217.000
213.016; -151.075;-1172.000;-1029.000
213.161;   63.325;  406.000;  291.000
213.306;  -82.825; -435.000; -577.000
213.451;  -87.500; -778.000; -689.000
213.596;  -41.950; -455.000; -347.000
213.741;  -42.550; -448.000; -538.000
213.886;  -70.750; -498.000; -517.000
214.031;  -29.025; -294.000; -124.000
214.176;  -35.750; -408.000; -341.000
214.321;  -30.300; -296.000; -157.000
214.466;  -29.800; -163.000;  -43.000
214.611;  -12.725;  -61.000;  -10.000
214.756; -118.525; -948.000; -858.000
214.901;  -21.950; -388.000; -226.000
215.046; -114.625; -797.000; -825.000
215.191;   15.175;  128.000;   35.000
215.336;  -23.550; -157.000;  -19.000
215.480;  -63.675; -684.000; -505.000
215.625;  -12.025; -175.000;  -19.000
215.770;  -69.875; -757.000; -662.000
215.915;  -18.825;   -5.000;  -97.000
216.060;  -12.575; -113.000;  -21.000
216.205; -110.500; -731.000; -779.000
216.349;  -65.800; -470.000; -533.000
216.494; -128.100; -939.000; -867.000
216.639; -107.100; -823.000; -888.000
216.784;  -92.325; -577.000; -525.000
216.929;   43.400;  392.000;  281.000
217.073;  -20.450; -244.000;  -31.000
217.218;   -0.050;   78.000;  -47.000
217.363;  -89.850; -656.000; -618.000
217.507;  -72.775; -623.000; -588.000
217.652; -128.475; -845.000; -874.000
217.797;  -79.550; -708.000; -659.000
217.942; -119.125; -856.000; -720.000
218.086;   81.325;  608.000;  539.000
218.231;  -24.850; -174.000;  -26.000
218.376;  -39.125; -337.000; -229.000
218.520;   -3.250;  -41.000;   96.000
218.665;  -31.825; -338.000; -204.000
218.810;  -42.900; -275.000; -233.000
218.954;   12.150;  201.000;   35.000
219.099; -119.700; -713.000; -963.000
219.243;  -64.075; -589.000; -554.000
219.388;  -34.525; -264.000; -136.000
219.532;  -17.000; -116.000; -116.000
219.677;  -91.625; -564.000; -521.000
219.822;    4.875;   33.000;   89.000
219.966;   -4.075;   17.000;  -99.000
220.111;  -22.075; -328.000;  -40.000
220.255;  -96.700; -797.000; -750.000
220.400;  -14.550; -180.000; -146.000
220.544;  -74.800; -516.000; -450.000
220.689;  -45.100; -422.000; -451.000
220.833;  -26.825; -123.000;  -58.000
220.978;  -46.525; -393.000; -563.000
221.122;   12.850;  319.000;  307.000
221.267; -106.975; -906.000; -837.000
221.411;  -68.250; -478.000; -394.000
221.555;  -14.425; -104.000;  -23.000
221.700;  -40.025; -329.000; -222.000
221.844;   41.000;  255.000;  272.000
221.989;  -52.025; -328.000; -311.000
222.133;  -37.225; -289.000; -307.000
222.277;  -13.425;    5.000;   78.000
222.422;   11.550;  227.000;  113.000
222.566;  -41.675; -381.000; -214.000
222.711;  -59.475; -414.000; -479.000
222.855;  -77.950; -643.000; -586.000
222.999;  -78.475; -642.000; -717.000
223.144;  -30.025; -195.000; -194.000
223.288;   47.525;  423.000;  251.000
223.432;   19.025;  184.000;  230.000
223.576;   26.950;  152.000;  -21.000
223.721;   27.425;  364.000;  273.000
223.865;  -63.275; -472.000; -475.000
224.009;  225.925; 1673.000; 1631.000
224.153;  -77.950; -660.000; -671.000
224.298;  -66.300; -531.000; -489.000
224.442;  -12.875;  -74.000;  -33.000
224.586;   -8.625; -169.000; -106.000
224.730; -106.100; -858.000; -670.000
224.875; -114.100; -739.000; -688.000
225.019;   19.875;  102.000;  188.000
225.163;   53.200;  208.000;  341.000
225.307;   15.475;   97.000;  -91.000
225.451;   33.425;  360.000;  481.000
225.595;   42.350;  264.000;  176.000
225.739;  -22.450; -170.000;  -94.000
225.884;   14.475;   86.000;    5.000
226.028;  -97.050; -760.000; -626.000
226.172;  -38.625; -260.000; -273.000
226.316; -109.500; -941.000; -902.000
226.460;  -67.800; -645.000; -493.000
226.604;  -73.200; -406.000; -400.000
226.748;  -97.750; -836.000; -733.000
226.892;  -40.600; -227.000; -181.000
227.036;  -52.725; -537.000; -447.000
227.180;  -58.975; -551.000; -375.000
227.324;  -71.150; -561.000; -580.000
227.468; -115.775; -819.000; -717.000
227.612;   12.625;  242.000;  -28.000
227.756; -108.225; -845.000; -698.000
227.900;   47.525;  342.000;  441.000
228.044;  -48.575; -509.000; -290.000
228.188;   45.875;  448.000;  568.000
228.332;  -96.400; -546.000; -472.000
228.476;  -24.000; -223.000; -149.000
228.620;  -37.600; -210.000; -150.000
228.764;   50.175;  431.000;  349.000
228.908;  -37.975; -155.000;   30.000
229.052;  -54.875; -615.000; -528.000
229.195;  -29.300; -172.000;   13.000
229.339;  -17.050; -235.000; -305.000
229.483;  -36.525;    5.000; -162.000
229.627;  -13.875; -156.000;  139.000
229.771;  -49.825; -218.000; -294.000
229.915;   -5.475;  230.000;   79.000
230.059;  -93.850; -648.000; -663.000
230.202;  -43.350; -370.000; -317.000
230.346;   -8.225; -107.000;  107.000
230.490;  -60.525; -489.000; -521.000
230.634; -103.800; -736.000; -553.000
230.777;   59.775;  478.000;  509.000
230.921;  -61.275; -450.000; -359.000
231.065;  -49.175; -246.000; -286.000
231.209;   22.950;  261.000;  265.000
231.352;   16.025;   54.000;   40.000
231.496;    6.525;  568.000;  188.000
231.640;  -79.900; -693.000; -621.000
231.783;   49.175;  546.000;  525.000
231.927;  -49.850; -294.000; -365.000
232.071; -114.825; -962.000; -736.000
232.214; -105.950; -980.000; -764.000
232.358;  -92.375; -683.000; -599.000
232.502;    0.250;  -19.000;    7.000
232.645; -120.300;-1090.000; -927.000
232.789;  -29.250; -257.000; -218.000
232.933;  -47.925; -407.000; -224.000
233.076; -126.225;-1038.000; -897.000
233.220; -112.275; -752.000; -777.000
233.363;  -72.000; -669.000; -477.000
233.507;   50.000;  371.000;  129.000
233.650; -101.000; -764.000; -834.000
233.794;   36.550;  438.000;  461.000
233.938;  -72.875; -530.000; -362.000
234.081;  -18.250;  -93.000;   31.000
234.225;  -70.500; -631.000; -539.000
234.368; -114.425; -773.000; -723.000
234.512;  -53.125; -385.000; -299.000
234.655;  -90.700; -582.000; -555.000
234.798;  -63.275; -493.000; -466.000
234.942; -135.600; -884.000;-1002.000
235.085;  -65.550; -651.000; -443.000
235.229;  -80.825; -405.000; -410.000
235.372;  -46.400; -247.000; -191.000
235.516;  -62.125; -397.000; -321.000
235.659;   16.750;   92.000;  121.000
235.802;   -7.150;  -38.000;  -22.000
235.946;   25.200;  335.000;  215.000
236.089;   18.875;  126.000;  250.000
236.233;   38.000;  275.000;  298.000
236.376;  -41.975; -235.000; -378.000
236.519;  -33.750; -297.000; -319.000
236.663;  -26.875; -215.000; -117.000
236.806; -129.050;-1029.000; -999.000
236.949;   43.200;  543.000;  431.000
237.092;   52.700;  412.000;  391.000
237.236;  -90.900; -589.000; -502.000
237.379;   80.375;  352.000;  428.000
237.522; -112.300; -879.000; -768.000
237.666;  -26.150; -271.000;   18.000
237.809; -124.600; -851.000; -823.000
237.952;   40.675;  469.000;  271.000
238.095;  -80.625; -447.000; -442.000
238.238;   72.375;  688.000;  700.000
238.382;   -4.350;  166.000;  103.000
238.525;  -75.725; -598.000; -511.000
238.668; -140.675;-1060.000; -985.000
238.811;  -86.650; -638.000; -643.000
238.954;  -54.150; -483.000; -334.000
239.097;  104.100;  617.000;  664.000
239.241;   18.225;  394.000;  326.000
239.384;  -34.725; -254.000; -214.000
239.527;  -74.225; -424.000; -224.000
239.670; -133.650; -994.000;-1091.000
239.813; -117.525; -696.000; -658.000
239.956;   71.350;  579.000;  473.000
240.099; -114.350; -778.000; -725.000
240.242;   61.550;  428.000;  432.000
240.385;   35.950;  466.000;  450.000
240.528;  -74.550; -706.000; -473.000
240.671;    7.400;  189.000;  134.000
240.814;  -38.075; -441.000; -158.000
240.957;  -98.125; -767.000; -578.000
241.100;  -86.700; -779.000; -755.000
241.243; -149.375;-1234.000; -893.000
241.386;  -62.850; -508.000; -379.000
241.529; -110.625; -735.000; -547.000
241.672;  -71.025; -566.000; -495.000
241.815; -114.550; -832.000; -808.000
241.958;  -31.725; -125.000; -182.000
242.101;  -77.225; -545.000; -390.000
242.244;  -42.300; -270.000; -325.000
242.387;  -50.575; -304.000; -246.000
242.530;   42.500;  470.000;  134.000
242.673;  -56.875; -381.000; -309.000
242.815; -117.850; -925.000; -899.000
242.958;  -77.550; -482.000; -381.000
243.101;   14.800;  132.000;  187.000
243.244;  -77.000; -564.000; -521.000
243.387;  -50.800; -313.000; -316.000
243.530; -106.750; -657.000; -674.000
243.672;   -0.225;   43.000;  -92.000
243.815;  -54.050; -355.000; -283.000
243.958;    5.700;   98.000;  -26.000
244.101;  -13.175;   59.000;  -16.000
244.243;  -30.975;  -47.000;  101.000
244.386; -112.150; -761.000; -630.000
244.529;  -29.750; -132.000; -139.000
244.672; -145.975;-1154.000; -951.000
244.814; -104.225; -621.000; -794.000
244.957;  -48.800; -380.000; -304.000
245.100;  -78.475; -489.000; -489.000
245.242;  -61.950; -387.000; -374.000
245.385;   -2.575;  -59.000;  -39.000
245.528; -114.550; -871.000; -705.000
245.670;   88.600;  612.000;  634.000
245.813;  -93.125; -599.000; -547.000
245.956;  -18.750; -324.000; -275.000
246.098;  -70.200; -508.000; -650.000
246.241;   -1.900;  194.000;   48.000
246.383;  -26.500; -119.000;  -73.000
246.526;  -84.575; -454.000; -525.000
246.669; -120.700; -889.000; -780.000
246.811;   11.300;  172.000;   -1.000
246.954;  -60.500; -512.000; -426.000
247.096;  -22.175;  -84.000;   -6.000
247.239;  -74.400; -482.000; -445.000
247.381;  -71.600; -647.000; -488.000
247.524;   69.450;  645.000;  679.000
247.666;  -12.600;   58.000;   11.000
247.809; -115.400; -887.000; -691.000
247.951;  -14.250;  -75.000;  138.000
248.094;   15.150;  432.000;  308.000
248.236; -155.325;-1262.000;-1238.000
248.378;   -8.425; -356.000;  -81.000
248.521;  -36.700; -334.000; -337.000
248.663;  -44.875; -236.000; -267.000
248.806;  -25.375; -300.000; -266.000
248.948;  -97.600; -886.000; -763.000
249.090;  -58.625; -428.000; -398.000
249.233;  -55.950; -344.000; -381.000
249.375;  -61.950; -474.000; -451.000
249.518;  -25.850;  -83.000; -133.000
249.660;  -13.200; -103.000;    3.000
249.802; -166.050;-1303.000;-1189.000
249.945;  -86.075; -612.000; -540.000
250.087; -110.075; -834.000; -768.000
250.229;  -46.600; -362.000; -480.000
250.371;  -68.900; -494.000; -439.000
250.514;  -55.775; -310.000; -244.000
250.656;  -56.125;   69.000;  102.000
250.798; -119.875; -849.000; -800.000
250.940;  -72.600; -322.000; -322.000
251.083;  -32.275; -335.000; -111.000
251.225;   49.850;  338.000;  310.000
251.367;  -46.750; -274.000; -373.000
251.509;  -49.875; -265.000; -210.000
251.651;  -93.125; -731.000; -671.000
251.794;   36.700;  538.000;  632.000
251.936; -111.575; -821.000; -747.000
252.078;  -74.600; -540.000; -461.000
252.220;  -72.375; -645.000; -477.000
252.362;   59.775;  344.000;  462.000
252.504;  -60.075; -677.000; -584.000
252.646; -114.975; -875.000; -722.000
252.788;   -2.975;   14.000; -128.000
252.931;  -46.800; -257.000; -253.000
253.073;  -42.450; -376.000; -317.000
253.215;   -9.475;  141.000;  122.000
253.357;  -10.025;   82.000; -153.000
253.499;  -58.475; -374.000; -234.000
253.641;  -75.675; -749.000; -594.000
253.783;  -98.575; -609.000; -527.000
253.925;  -91.200; -586.000; -591.000
254.067; -108.575; -744.000; -667.000
254.209;  -39.275; -391.000; -259.000
254.351; -128.325; -865.000; -883.000
254.493;  -69.525; -441.000; -417.000
254.635; -112.400; -936.000; -818.000
254.777;  -87.950; -752.000; -687.000
254.918;  -72.550; -512.000; -430.000
255.060;  -54.775; -551.000; -395.000
255.202;  -59.175; -473.000; -261.000
255.344;  -74.550; -658.000; -455.000
255.486;  -73.550; -471.000; -406.000
255.628;  -97.250; -780.000; -781.000
255.770;  -99.050; -676.000; -536.000
255.912;  -63.925; -559.000; -468.000
256.053;  -97.675; -730.000; -508.000
256.195;  145.050; 1008.000;  903.000
256.337; -108.100; -861.000; -595.000
256.479;   59.700;  532.000;  416.000
256.621;  -44.425; -394.000; -212.000
256.762;  -94.775; -789.000; -742.000
256.904;   48.550;  485.000;  487.000
257.046;  -41.800; -381.000; -271.000
257.188;  -57.100; -351.000; -264.000
257.329;  -64.325; -525.000; -464.000
257.471; -121.575; -939.000; -807.000
257.613;  -67.325; -584.000; -498.000
257.755; -140.225;-1073.000; -982.000
257.896;   17.600;  286.000;  392.000
258.038;  -67.375; -403.000; -352.000
258.180;  -46.350; -354.000; -279.000
258.321;  -83.275; -581.000; -457.000
258.463;  -20.675;  -71.000;  133.000
258.605;  -93.525; -562.000; -570.000
258.746; -118.900; -886.000; -772.000
258.888; -147.050;-1026.000;-1020.000
259.029;    8.800;  121.000;   -8.000
259.171;  -87.025; -614.000; -550.000
259.313;  -17.475;  -49.000;  -47.000
259.454;  -80.775; -536.000; -414.000
259.596;  -53.050; -483.000; -390.000
259.737;  -82.475; -590.000; -474.000
259.879;   24.150;  217.000;  311.000
260.020;   70.650;  901.000;  636.000
260.162;  -30.250; -146.000; -253.000
260.303; -113.475; -768.000; -687.000
260.445;  -83.850; -609.000; -613.000
260.586;   26.775;  392.000;  157.000
260.728;  -43.550; -360.000; -248.000
260.869;  -70.550; -350.000; -343.000
261.011;   77.350;  706.000;  537.000
261.152;  -67.700; -479.000; -319.000
261.293;  -79.500; -576.000; -595.000
261.435;  -41.625; -219.000; -184.000
261.576;  -50.525; -455.000; -325.000
261.718;   40.575;  420.000;  470.000
261.859; -122.250; -940.000; -949.000
262.000; -129.325; -951.000;-1016.000
262.142;  -31.000;  -52.000;  -60.000
262.283; -111.075; -808.000; -691.000
262.424;  -83.450; -666.000; -625.000
262.566; -146.625;-1161.000; -983.000
262.707; -104.550; -840.000; -830.000
262.848; -124.600; -769.000; -726.000
262.990;  -46.850; -362.000; -345.000
263.131;   66.050;  650.000;  681.000
263.272;   -9.500;  -61.000;  -41.000
263.413;  -96.625; -589.000; -561.000
263.555;  -65.925; -669.000; -143.000
263.696;  -95.075; -550.000; -641.000
263.837;  -53.400; -449.000; -551.000
263.978;  -16.350;   -5.000;  -77.000
264.119;  -42.050; -283.000; -264.000
264.261; -113.350; -847.000; -630.000
264.402;   -2.275;   33.000;   40.000
264.543;  -89.225; -509.000; -524.000
264.684;  -14.800;   61.000;  -50.000
264.825;  -75.075; -816.000; -538.000
264.966;  -13.550;  -84.000;  -67.000
265.107; -119.550; -646.000; -670.000
265.248; -104.800; -825.000; -812.000
265.390;   -2.825;  152.000;   -9.000
265.531;  -28.900; -238.000; -107.000
265.672;  -84.575; -557.000; -630.000
265.813;   44.400;  563.000;  439.000
265.954; -140.600; -959.000; -940.000
266.095;  -26.600; -372.000; -322.000
266.236;  -98.550; -686.000; -548.000
266.377;  -47.675; -243.000; -297.000
266.518;  -76.875; -619.000; -547.000
266.659;   23.950;  170.000;  268.000
266.800;    3.925;   83.000;   85.000
266.941;  -81.150; -487.000; -478.000
267.082;    0.075;  354.000;   99.000
267.223;  -50.850; -344.000; -273.000
267.364; -108.950; -892.000; -686.000
267.504;  -16.050;    3.000;  135.000
267.645;  -24.625;  160.000;   67.000
267.786;  -30.325; -147.000;  -86.000
267.927;  -81.400; -473.000; -379.000
268.068;  -19.200; -186.000;  -61.000
268.209;  -55.050; -175.000; -413.000
268.350;  -77.150; -388.000; -532.000
268.490;  -91.775; -648.000; -521.000
268.631;   31.375;  127.000;  225.000
268.772; -118.525; -874.000; -647.000
268.913;  -62.900; -328.000; -476.000
269.054;  -14.050; -117.000;   12.000
269.194;  -53.450; -418.000; -402.000
269.335; -162.500;-1137.000;-1074.000
269.476;  -23.950;   33.000;  -35.000
269.617;  -56.525; -347.000; -392.000
269.757;  -97.775; -713.000; -646.000
269.898; -106.050; -856.000; -613.000
270.039;  -62.250; -415.000; -405.000
270.180; -143.525; -952.000; -816.000
270.320;  -34.700; -190.000; -250.000
270.461;  -32.050; -277.000; -249.000
270.602;  -31.000; -186.000; -156.000
270.742; -125.325; -868.000; -943.000
270.883;  -73.050; -442.000; -390.000
271.023;  -70.300; -358.000; -357.000
271.164;  -76.650; -607.000; -528.000
271.305; -102.525; -666.000; -654.000
271.445;  -99.775; -722.000; -683.000
271.586;  -72.375; -462.000; -283.000
271.726;  -41.500; -397.000; -322.000
271.867;  -72.625; -594.000; -534.000
272.008;  104.800; -473.000; -285.000
272.148;   82.825;  462.000;  468.000
272.289;  -13.750; -113.000; -181.000
272.429;   -4.350;   19.000;  185.000
272.570;  -86.425; -633.000; -737.000
272.710; -114.075; -825.000; -775.000
272.851;  -32.350;  113.000; -130.000
272.991; -165.400;-1173.000;-1077.000
273.131;  -63.250; -419.000; -459.000
273.272; -106.550; -683.000; -723.000
273.412;  -10.825; -143.000;  -31.000
273.553;  -61.650; -488.000; -507.000
273.693;  118.150;  913.000;  858.000
273.834; -120.325; -894.000; -692.000
273.974;  -77.725; -664.000; -615.000
274.114; -105.700; -772.000; -560.000
274.255;   57.100;  414.000;  373.000
274.395;  -19.425; -180.000; -125.000
274.535;   32.250;  199.000;  350.000
274.676;    6.925;  225.000;   94.000
274.816;  -12.800;  110.000;   34.000
274.956;  -92.850; -624.000; -690.000
275.097;  -92.150;-1014.000; -922.000
275.237; -131.225; -913.000; -803.000
275.377; -102.550; -778.000; -689.000
275.517; -162.400; -878.000; -937.000
275.658;  -60.175; -590.000; -555.000
275.798;  -83.775; -606.000; -413.000
275.938;   18.375;  215.000;  323.000
276.078; -107.125; -626.000; -395.000
276.218;   -3.550;   99.000;  104.000
276.359; -141.600;-1026.000;-1024.000
276.499;  -73.900; -605.000; -446.000
276.639;  -40.250; -305.000; -151.000
276.779;  -52.075; -475.000; -357.000
276.919; -113.550; -783.000; -624.000
277.059;  -32.500; -261.000; -212.000
277.199;  -55.550; -357.000; -259.000
277.340;   30.800;  287.000;  175.000
277.480; -105.100; -840.000; -693.000
277.620;   22.275;  192.000;   16.000
277.760; -205.225;-1533.000;-1294.000
277.900;    0.050;  113.000;   33.000
278.040;    7.300;  137.000;  159.000
278.180;   28.350;  270.000;  170.000
278.320;  -22.175;   21.000;   56.000
278.460;  -69.025; -443.000; -469.000
278.600;  -94.650; -708.000; -598.000
278.740;   29.275;  448.000;  224.000
278.880; -106.275; -768.000; -791.000
279.020;  -27.550; -194.000; -144.000
279.160;  -99.850; -672.000; -595.000
279.300; -125.950; -926.000; -873.000
279.440;  -93.325; -709.000; -622.000
279.579;  -59.700;-1014.000; -929.000
279.719;  -58.700; -410.000; -394.000
279.859;   47.050;   -4.000;   41.000
279.999;   -3.150; -208.000;  101.000
280.139;  -32.225; -435.000; -387.000
280.279;  -89.425; -708.000; -745.000
280.419;  -14.425; -229.000; -147.000
280.559;  -46.400; -259.000; -180.000
280.698;  -96.400; -790.000; -639.000
280.838; -107.725; -778.000; -800.000
280.978; -117.625; -846.000; -790.000
281.118; -115.425; -811.000; -704.000
281.257;    5.850;   24.000;    6.000
281.397; -145.425;-1094.000; -960.000
281.537; -100.350; -599.000; -712.000
281.677;  -38.400; -150.000; -101.000
281.816;  -88.225; -700.000; -630.000
281.956;  -36.600; -193.000; -257.000
282.096;  -60.925; -539.000; -396.000
282.235; -110.625; -672.000; -638.000
282.375;  -24.300; -243.000;  -98.000
282.515; -111.425; -715.000; -707.000
282.654;   19.825;   29.000;  106.000
282.794;   22.350;  388.000;  244.000
282.934;  -59.750; -530.000; -491.000
283.073; -126.650;-1030.000; -857.000
283.213;  -50.850; -460.000; -467.000
283.353;  -65.625; -408.000; -349.000
283.492;  -32.750; -264.000; -296.000
283.632;  -58.975; -254.000; -168.000
283.771;  -93.200; -859.000; -730.000
283.911;  -51.750; -369.000; -260.000
284.050; -116.850; -794.000; -748.000
284.190; -153.325;-1229.000;-1096.000
284.329; -134.700;-1055.000; -964.000
284.469; -101.250; -516.000; -591.000
284.608;  -60.100; -559.000; -598.000
284.748;  -86.000; -614.000; -570.000
284.887;   -2.575;  -87.000;  -20.000
285.027; -130.050; -844.000; -892.000
285.166;  -40.550; -192.000; -249.000
285.306;  -20.100; -116.000;  -33.000
285.445;  -46.225; -229.000; -343.000
285.584;  -98.350; -630.000; -494.000
285.724;  -45.025; -282.000; -322.000
285.863; -108.250; -857.000; -507.000
286.002;  -51.300; -366.000; -276.000
286.142; -105.525; -715.000; -622.000
286.281;  -77.975; -525.000; -493.000
286.420;  -81.825; -554.000; -417.000
286.560;   87.225;  653.000;  623.000
286.699; -134.575; -958.000; -912.000
286.838;  -91.250; -590.000; -591.000
286.978;  -90.300; -533.000; -537.000
287.117; -131.200;-1085.000; -950.000
287.256;  -49.925; -228.000; -211.000
287.395;  -47.175; -197.000; -378.000
287.535;  -67.450; -370.000; -298.000
287.674;  -76.100; -509.000; -484.000
287.813;   38.250;  661.000;  533.000
287.952; -132.100;-1010.000; -871.000
288.091; -165.200;-1049.000; -915.000
288.231;  -10.325;   13.000;   15.000
288.370; -177.875;-1217.000;-1200.000
288.509;  -91.050; -728.000; -645.000
288.648;  -80.050; -770.000; -548.000
288.787;  -34.600; -243.000;  -87.000
288.926;  -69.025; -454.000; -475.000
289.065;   88.025;  859.000;  672.000
289.204;  -61.000; -377.000; -217.000
289.344;  -91.550; -791.000; -690.000
289.483;    8.775;  416.000;  304.000
289.622;  -22.725; -291.000; -149.000
289.761;  -37.200; -309.000; -166.000
289.900; -111.900; -785.000; -626.000
290.039;  -25.325;  -12.000;  -95.000
290.178;  -44.150; -274.000; -180.000
290.317; -103.125; -618.000; -479.000
290.456;  -67.250; -463.000; -451.000
290.595; -130.500; -961.000; -833.000
290.734; -134.350; -904.000; -891.000
290.873;  -72.375; -456.000; -420.000
291.011; -101.175; -833.000; -843.000
291.150; -118.650; -770.000; -682.000
291.289;  -28.700; -343.000; -110.000
291.428; -105.075; -599.000; -480.000
291.567;  -65.675; -370.000; -442.000
291.706;  -11.875;  109.000;  154.000
291.845;  -95.500; -597.000; -505.000
291.984; -163.325;-1234.000;-1061.000
292.122;   52.300;  602.000;  582.000
292.261;   42.650;  620.000;  463.000
292.400;  -11.900; -144.000;  211.000
292.539; -133.750; -959.000; -813.000
292.678;  -56.400; -325.000; -300.000
292.816; -154.650;-1136.000; -965.000
292.955;  -87.000; -844.000; -684.000
293.094;  -38.100; -173.000; -337.000
293.233;  -63.225; -556.000; -400.000
293.371;  -36.975; -225.000;  -84.000
293.510; -108.500; -866.000; -780.000
293.649; -132.200; -959.000; -924.000
293.787;  -94.200;-1083.000;-1012.000
293.926;  -14.175; -113.000;  -32.000
294.065;  -51.350; -379.000; -290.000
294.203;   30.550;  298.000;  406.000
294.342;    8.550;   74.000;  156.000
294.481; 6288.750;51180.000; -836.000
294.619;  -31.000; -425.000; -582.000
294.758; -150.175;-1230.000;-1137.000
294.896;   28.450; -125.000;    5.000
295.035; -139.050;-1040.000;-1006.000
295.174; -129.600;-1082.000; -954.000
295.312;  -55.950; -323.000; -203.000
295.451;  -36.100; -307.000; -428.000
295.589;  -75.700; -389.000; -518.000
295.728;    7.225; -292.000; -165.000
295.866;  -22.350;  -36.000;  -51.000
296.005;  -67.075; -584.000; -341.000
296.143;  -91.650; -558.000; -596.000
296.282; -119.300; -957.000; -881.000
296.420; -101.275; -657.000; -557.000
296.559;  -88.425; -892.000; -633.000
296.697;  -24.475; -847.000; -665.000
296.835;  -29.300;-1141.000;-1002.000
296.974;   14.625;  -23.000;   39.000
297.112;   -7.625; -443.000; -504.000
297.251;  -95.200; -815.000; -755.000
297.389;   14.800; -576.000; -438.000
297.527;    4.000; -145.000;  -83.000
297.666;  -69.325; -486.000; -438.000
297.804;  -53.025; -404.000; -264.000
297.942;  -23.525; -136.000; -161.000
298.081;  -13.400; -183.000;   63.000
298.219;   23.000;  -17.000;  -19.000
298.357;    5.450; -144.000;  -71.000
298.495;  -34.375; -810.000; -812.000
298.634;   16.100;  245.000;  219.000
298.772;    5.250; -220.000; -338.000
298.910;  -61.450; -309.000; -182.000
299.048;  -20.000; -130.000; -153.000
299.187;  -41.775; -350.000; -250.000
299.325;    8.025;   52.000;  122.000
299.463;   -9.500; -389.000; -299.000
299.601;   39.600; -327.000; -271.000
299.739; -129.425; -908.000; -883.000
299.877;  -93.750; -791.000; -703.000
300.016;  -91.550;-1095.000; -935.000
300.154;   88.175;  -19.000; -161.000
300.292;   -1.400; -428.000; -348.000
300.430;   -7.750; -408.000; -291.000
300.568; -126.375; -940.000; -874.000
300.706;  -58.750; -366.000; -469.000
300.844; -117.925;-1108.000; -979.000
300.982;   71.950;  246.000;  282.000
301.120; -122.625; -965.000; -866.000
301.258;  -74.700; -812.000; -705.000
301.396;   -3.075;  104.000;  -41.000
301.534;    2.950; -218.000; -293.000
301.672;  -70.150; -664.000; -521.000
301.810;  -23.725; -613.000; -545.000
301.948;   35.075;   53.000;  149.000
302.086;  389.325; -250.000;  -32.000
302.224;  492.625; -610.000; -585.000
302.362;  -17.450; -558.000; -622.000
302.500;  -81.450; -923.000; -893.000
302.638;   56.800;  128.000;  245.000
302.776;  -36.900; -352.000; -408.000
302.913;   39.375;  447.000;  236.000
303.051;  -27.750;  -86.000;  -23.000
303.189;   24.425;   90.000;  118.000
303.327;  -51.750; -341.000; -256.000
303.465;  -82.975; -832.000; -588.000
303.603; -101.550; -805.000; -604.000
303.740;   71.125;  417.000;  241.000
303.878;  -56.825; -800.000; -759.000
304.016;  -95.150; -915.000; -790.000
304.154; -147.675;-1123.000;-1152.000
304.291;  -56.750; -505.000; -554.000
304.429;   -2.325;  102.000;   74.000
304.567; -128.500; -908.000; -893.000
304.705;  -60.550; -408.000; -515.000
304.842;   36.675; -616.000; -540.000
304.980;   12.125;  215.000;   35.000
305.118;   -6.650; -367.000; -365.000
305.255; -112.950; -945.000; -927.000
305.393;   32.350;  178.000;  239.000
305.531; -122.625;-1173.000; -956.000
305.668;  -88.550; -663.000; -582.000
305.806;   36.350; -358.000; -439.000
305.943;   22.350; -629.000; -637.000
306.081;   17.850; -378.000; -267.000
306.219; -117.250; -863.000; -748.000
306.356;   -3.375;  158.000;   27.000
306.494;   82.700;  981.000;  761.000
306.631;  -17.375;  -11.000;  -55.000
306.769;  -20.200; -613.000; -485.000
306.906;  -32.900; -284.000; -258.000
307.044;  -59.425; -473.000; -488.000
307.181;  -68.000; -410.000; -332.000
307.319;   16.000;  112.000;   87.000
307.456; -177.025;-1191.000;-1153.000
307.594; -117.500; -980.000; -727.000
307.731;  -31.100; -371.000; -164.000
307.868;  -13.475;  -15.000;   20.000
308.006; -146.725; -961.000; -847.000
308.143;  -80.025; -618.000; -330.000
308.281;   88.925;  -37.000; -254.000
308.418;  -35.700; -748.000; -640.000
308.555;  -85.675; -400.000; -250.000
308.693;  -74.475; -577.000; -573.000
308.830; -109.650; -712.000; -657.000
308.967;   -4.950; -215.000;  -95.000
309.105;  -57.050; -507.000; -396.000
309.242;    2.975; -468.000; -367.000
309.379;  152.875; -577.000; -655.000
309.517;  -92.475; -936.000; -948.000
309.654; -114.525; -910.000; -734.000
309.791;  -78.900; -662.000; -580.000
309.928; -124.200; -977.000; -914.000
310.065;  139.675;  819.000;  697.000
310.203;  -57.600; -825.000; -850.000
310.340;  -35.325; -465.000; -321.000
310.477;  -89.200; -412.000; -516.000
310.614;  -80.425; -383.000; -473.000
310.751;  -92.300; -427.000; -518.000
310.889;  -20.025;    1.000;   11.000
311.026; -144.325;-1161.000; -939.000
311.163;  -60.650; -386.000; -380.000
311.300;  -85.250; -512.000; -479.000
311.437;  -81.600; -658.000; -619.000
311.574; -168.400;-1226.000; -985.000
311.711;  -56.125; -595.000; -433.000
311.848;  -48.950; -380.000; -388.000
311.985;    3.550;  270.000;   93.000
312.122; -122.925; -932.000; -762.000
312.259; -120.650; -941.000; -994.000
312.396;  -93.575; -508.000; -551.000
312.533;  -87.850; -812.000; -790.000
312.670; -145.600;-1070.000; -898.000
312.807;  -35.150; -352.000; -367.000
312.944;  -91.675; -513.000; -611.000
313.081;  -36.925; -150.000; -415.000
313.218;  -91.100;-1111.000; -867.000
313.355;   -5.900; -531.000; -449.000
313.492;  -17.275; -455.000; -292.000
313.629;  117.950;  815.000;  735.000
313.766; -162.275;-1176.000;-1008.000
313.902;  -25.550; -186.000;   21.000
314.039;  -56.900; -372.000; -289.000
314.176;   21.075;  286.000;  192.000
314.313;  -83.325; -569.000; -473.000
314.450;  -84.000; -788.000; -684.000
314.587;  -69.000; -468.000; -480.000
314.723;    2.850;  -78.000;  130.000
314.860;   12.000;  318.000;  332.000
314.997;   23.575;  223.000;  142.000
315.134;  -45.750; -385.000; -368.000
315.270;  -41.225; -480.000; -496.000
315.407; -128.825;-1094.000; -967.000
315.544;  -55.900; -657.000; -538.000
315.681;  -66.150; -681.000; -565.000
315.817;   23.350; -133.000; -176.000
315.954;   13.725; -613.000; -392.000
316.091; -125.400;-1045.000;-1023.000
316.227;  -40.000;  -71.000; -179.000
316.364;   -5.350;   23.000;    6.000
316.500;  -45.500; -113.000; -300.000
316.637;  -43.075; -181.000; -302.000
316.774; -103.925; -625.000; -358.000
316.910;  -83.100; -598.000; -629.000
317.047;  -78.100; -487.000; -351.000
317.183;  -65.925; -435.000; -566.000
317.320;   17.125; -367.000; -321.000
317.456;  -58.975; -733.000; -805.000
317.593;  -99.175; -598.000; -641.000
317.729;    2.200;  168.000;  -67.000
317.866; -203.700;-1434.000;-1285.000
318.002;  -93.900; -708.000; -948.000
318.139; -117.900; -883.000; -867.000
318.275; -114.000;-1003.000; -738.000
318.412;  -75.300; -517.000; -336.000
318.548;  -62.025; -751.000; -720.000
318.685; -103.575; -985.000; -888.000
318.821;  -90.550; -762.000; -735.000
318.957;  -43.225;   34.000;  -23.000
319.094;   24.825;  297.000;  154.000
319.230;  -83.600; -756.000; -742.000
319.367;   41.350; -471.000; -520.000
319.503;    1.400; -538.000; -436.000
319.639; -102.750; -877.000; -793.000
319.775;  -90.375; -750.000; -685.000
319.912;  -54.925; -424.000; -519.000
320.048; -102.575;-1184.000;-1184.000
320.184;   78.825;   59.000;   70.000
320.321;  -62.275; -497.000; -467.000
320.457;   69.050;  475.000;  662.000
320.593;  -66.300; -375.000; -382.000
320.729; -104.700; -732.000; -734.000
320.866;  -80.175; -577.000; -635.000
321.002;  -95.850; -759.000; -809.000
321.138;  -37.700; -135.000; -211.000
321.274;   44.975; -148.000; -115.000
321.410;  -48.900; -585.000; -353.000
321.546;  -94.500;-1011.000; -911.000
321.683;   34.375;  400.000;  185.000
321.819;  -13.425;  -48.000; -117.000
321.955; -127.150; -743.000; -722.000
322.091;  -66.375; -585.000; -540.000
322.227;  -38.500; -382.000; -202.000
322.363;  -43.250; -320.000; -215.000
322.499;  -59.925; -343.000; -331.000
322.635;  113.425;  636.000;  443.000
322.771;  -13.425; -139.000;   12.000
322.907;   57.400;  129.000;  327.000
323.043;  -38.425; -115.000; -206.000
323.179;  -58.625; -394.000; -363.000
323.315;  -34.400; -401.000; -371.000
323.451;   31.750; -328.000; -236.000
323.587;   37.825;  -60.000;  -77.000
323.723;  -28.050; -682.000; -601.000
323.859;  -32.625; -258.000;  -76.000
323.995;  -35.675; -467.000; -409.000
324.131; -129.100; -967.000; -892.000
324.267;  -58.525; -254.000; -276.000
324.402; -138.150; -960.000; -983.000
324.538;  -28.825; -279.000; -104.000
324.674;    1.900;  164.000;   77.000
324.810;   71.650;  226.000;  308.000
324.946;  -35.050; -810.000; -658.000
325.082;  -69.625; -568.000; -475.000
325.217;  -27.225;  -62.000;   16.000
325.353;  -98.525; -764.000; -659.000
325.489;  -99.000; -540.000; -506.000
325.625;  -77.550; -579.000; -525.000
325.760;   56.125;  517.000;  376.000
325.896;  -15.500; -515.000; -702.000
326.032;  -69.050; -403.000; -352.000
326.168;  -67.725; -462.000; -369.000
326.303;  -74.650; -352.000; -461.000
326.439;  -18.350; -336.000; -276.000
326.575;  -13.250; -190.000;  -29.000
326.710;  -27.425; -156.000;  -30.000
326.846;  -24.125;  146.000;  103.000
326.982;  -90.375; -530.000; -548.000
327.117;  -89.550; -481.000; -442.000
327.253;  -89.775; -745.000; -742.000
327.388; -156.875;-1137.000;-1153.000
327.524;  -77.300; -811.000; -578.000
327.659;  -37.725;  -58.000;  -22.000
327.795;  -23.325;   69.000;   45.000
327.931;  -81.025; -723.000; -499.000
328.066;  -30.850; -417.000; -276.000
328.202;  -26.375;   12.000; -129.000
328.337;   89.100;  957.000;  713.000
328.473;    9.825;  -12.000;  -74.000
328.608;  -40.550; -256.000; -267.000
328.743; -100.550; -799.000; -664.000
328.879;    3.525;  214.000;  114.000
329.014;  -42.450; -102.000; -122.000
329.150;  -86.725; -358.000; -483.000
329.285;  -86.000; -465.000; -466.000
329.421;  -50.325; -548.000; -246.000
329.556;  -32.625;  -36.000;   85.000
329.691;  -88.350; -633.000; -615.000
329.827;  -83.075; -626.000; -480.000
329.962;  -41.850;  131.000; -301.000
330.097;  -97.425; -673.000; -585.000
330.233;  -63.775; -410.000; -223.000
330.368; -136.900; -839.000; -628.000
330.503;  -16.025;    3.000;   98.000
330.638;  -28.500;  -93.000; -125.000
330.774;  -80.425; -609.000; -530.000
330.909;  -64.375; -434.000; -244.000
331.044; -106.950; -714.000; -708.000
331.179; -180.350;-1217.000;-1109.000
331.315;   -2.250;   77.000;   20.000
331.450;   13.425;  157.000;  285.000
331.585;  -96.700; -805.000; -706.000
331.720; -106.850; -510.000; -460.000
331.855;   -8.825;  -35.000; -102.000
331.990;  324.350;   62.000;  138.000
332.126;  157.900; -110.000;   71.000
332.261;   -7.925; -379.000; -265.000
332.396;   13.150; -135.000; -242.000
332.531;  -86.650;-1074.000;-1031.000
332.666;   39.525; -519.000; -363.000
332.801;  -96.950; -726.000; -807.000
332.936;  -27.750; -192.000; -122.000
333.071; -133.675; -870.000; -817.000
333.206;    5.775;  307.000;  379.000
333.341;   33.900;  344.000;  418.000
333.476; -101.575; -627.000; -623.000
333.611;  -59.625; -251.000; -173.000
333.746;  -53.350; -381.000; -464.000
333.881; -126.450; -973.000; -935.000
334.016; -137.525; -936.000; -917.000
334.151; -134.875; -746.000; -702.000
334.286;   17.700;  152.000;  186.000
334.421;  -29.175; -125.000; -178.000
334.556;  -88.475; -611.000; -567.000
334.690;  -98.900; -631.000; -577.000
334.825;   30.625;  381.000;   83.000
334.960;  -69.000; -285.000; -413.000
335.095;    1.575;  135.000;  -91.000
335.230; -106.350; -722.000; -738.000
335.365; -147.675;-1084.000; -990.000
335.499; -147.750;-1108.000;-1037.000
335.634;    8.025;    9.000;  534.000
335.769; -125.350; -755.000; -720.000
335.904;  -79.725; -603.000; -561.000
336.038;  -62.450; -735.000; -657.000
336.173; -123.000;-1206.000;-1194.000
336.308;   -2.950; -116.000; -189.000
336.443;   27.475; -544.000; -634.000
336.577;  -70.450; -936.000; -787.000
336.712;   52.575;   -4.000;  -12.000
336.847;  -52.725; -724.000; -607.000
336.981;   42.975; -272.000; -208.000
337.116;  260.675;  615.000;  501.000
337.250;  103.275; -434.000; -421.000
337.385;  343.900; -297.000; -208.000
337.520;  170.925; -632.000; -603.000
337.654;  -53.700; -215.000; -126.000
337.789; -124.175; -989.000; -933.000
337.923;  -42.975; -104.000; -205.000
338.058; -106.750; -673.000; -738.000
338.192;  -51.675; -611.000; -488.000
338.327;  -28.500;  -18.000; -155.000
338.461;  -70.675; -299.000; -469.000
338.596;  -97.900; -780.000; -638.000
338.730; -107.675; -767.000; -803.000
338.865;  127.400;  -46.000; -140.000
338.999;  -23.225; -846.000; -702.000
339.134;  -13.425; -634.000; -536.000
339.268;   11.675; -741.000; -603.000
339.403;  458.750; -740.000; -775.000
339.537;  189.300; -894.000; -820.000
339.671; -106.800; -829.000; -813.000
339.806;  -48.050; -556.000; -512.000
339.940;   24.600; -261.000; -235.000
340.074; -111.150; -685.000; -510.000
340.209;  -50.825; -351.000; -230.000
340.343;  -92.975; -517.000; -573.000
340.477;  134.575;  998.000; 1036.000
340.612;  -18.825;-1033.000; -900.000
340.746;  175.550; -199.000; -243.000
340.880;  -92.500; -924.000; -785.000
341.014;  -17.325;  -45.000; -154.000
341.149; -135.800; -756.000; -718.000
341.283; -121.050; -839.000; -754.000
341.417; -112.475;-1124.000; -938.000
341.551;   24.750; -768.000; -708.000
341.685;  -63.825; -633.000; -611.000
341.820;  -64.500; -562.000; -493.000
341.954;  -67.275; -218.000; -349.000
342.088; -152.325;-1102.000;-1019.000
342.222;   42.925;  565.000;  618.000
342.356;  -71.950; -395.000; -335.000
342.490; -113.825; -880.000; -841.000
342.624;  -56.900; -339.000; -242.000
342.758;  -45.750; -364.000; -312.000
342.892;  -89.475; -710.000; -585.000
343.026;  -42.850;  -58.000; -116.000
343.160;  -60.400; -426.000; -376.000
343.294; -103.975; -474.000; -337.000
343.428;  -51.100; -488.000; -448.000
343.562;  -26.150; -172.000;  -23.000
343.696;  -56.850; -385.000; -314.000
343.830;  -47.425; -362.000; -356.000
343.964;  -18.825; -231.000; -168.000
344.098;  514.500;  199.000;   70.000
344.232;  419.875; -266.000; -127.000
344.366;   65.500; -567.000; -453.000
344.500;   -7.575; -665.000; -744.000
344.634;  -22.425; -324.000; -164.000
344.768;  -52.650; -531.000; -341.000
344.902;    4.875;  278.000;  256.000
345.035;  -75.975; -556.000; -496.000
345.169; -147.975; -933.000; -656.000
345.303;  -43.500; -308.000; -482.000
345.437;  -94.300; -826.000; -717.000
345.571;  -74.400; -675.000; -594.000
345.704;  -67.150; -309.000; -532.000
345.838;  -19.525; -331.000; -284.000
345.972;  -67.050; -543.000; -495.000
346.106;  197.375; -179.000; -190.000
346.239;  411.950; -312.000; -243.000
346.373;   -6.025; -343.000; -302.000
346.507; -142.450; -950.000; -962.000
346.640;   62.450;  -30.000;   13.000
346.774;  -82.375; -650.000; -797.000
346.908;  -39.050; -138.000;  -11.000
347.041; -121.050; -646.000; -593.000
347.175;   -2.775;  259.000;   27.000
347.309;  -89.425; -698.000; -628.000
347.442; -114.250; -883.000; -732.000
347.576;  158.350;  670.000;  668.000
347.709;   91.275; -123.000;  -52.000
347.843; -110.150; -933.000; -825.000
347.976;   13.425;  235.000;  294.000
348.110; -181.675;-1268.000;-1186.000
348.243; -112.850; -679.000; -772.000
348.377;  -15.225;  -26.000;   60.000
348.510;   39.500;  403.000;  540.000
348.644;  -53.450;  -37.000; -159.000
348.777;   -9.750;  180.000;  191.000
348.911;  -58.700; -142.000; -112.000
349.044;  108.800;  471.000;  448.000
349.178;   22.475;-1069.000;-1006.000
349.311;   93.350;  141.000;  255.000
349.444;   -4.425; -927.000; -813.000
349.578;  -30.425; -347.000; -200.000
349.711; -128.900; -959.000; -862.000
349.845;  -47.275; -661.000; -591.000
349.978; -159.900;-1224.000;-1137.000
350.111;  -90.625; -546.000; -612.000
350.244; -105.825; -596.000; -700.000
350.378;  -40.975; -392.000; -393.000
350.511;  -86.175; -393.000; -426.000
350.644; -113.475; -808.000; -806.000
350.778;   -2.800;  168.000;  104.000
350.911;   -2.200;  134.000;  140.000
351.044; -104.900; -685.000; -615.000
351.177;  -46.125; -321.000; -281.000
351.310;  -25.200;    3.000; -131.000
351.444; -104.500; -888.000; -788.000
351.577;   63.100;  140.000;   90.000
351.710;   69.500;  593.000;  417.000
351.843;  -70.800; -165.000;  -77.000
351.976;  -15.175;  149.000;  -79.000
352.109; -106.725; -621.000; -612.000
352.242;  -57.725; -464.000; -419.000
352.376;  -90.575; -580.000; -636.000
352.509;   69.925; -437.000; -356.000
352.642;  -70.200; -654.000; -604.000
352.775;   20.925; -141.000;  -98.000
352.908; -125.475; -933.000; -904.000
353.041; -108.950; -814.000; -824.000
353.174;  -74.550; -551.000; -424.000
353.307; -101.550; -753.000; -764.000
353.440;   44.950;  541.000;  453.000
353.573; -115.525; -957.000;-1008.000
353.706;  -59.575; -384.000; -558.000
353.839;  -37.850; -264.000; -220.000
353.971;  -91.475; -657.000; -512.000
354.104;  -92.750; -896.000; -835.000
354.237;  -81.050; -627.000; -662.000
354.370;  -95.675; -846.000; -879.000
354.503; -182.225;-1231.000;-1308.000
354.636;  -44.325; -529.000; -348.000
354.769; -139.250; -937.000; -860.000
354.902;  -19.550; -230.000; -139.000
355.034;  -41.425; -164.000; -220.000
355.167;  -23.800; -262.000; -162.000
355.300;  -83.450;-1061.000; -880.000
355.433; 1171.225;  -71.000;  -14.000
355.565; 1842.925; -402.000; -384.000
355.698;  484.875; -356.000; -296.000
355.831;  -22.450; -882.000; -801.000
355.964;   30.925; -285.000; -170.000
356.096;  -98.075; -856.000; -843.000
356.229;  -15.900; -523.000; -530.000
356.362;  388.250; -373.000; -266.000
356.494;  730.900; -229.000; -162.000
356.627;  343.675;  269.000;  377.000
356.760;  740.125;  120.000;   53.000
356.892; 1178.750; -286.000; -601.000
357.025;  451.550;  403.000;  389.000
357.157;  349.250; -167.000; -179.000
357.290;  938.375; -856.000; -713.000
357.423;  286.925; -667.000; -556.000
357.555;   98.050; -217.000; -228.000
357.688;  101.025; -483.000; -364.000
357.820;  269.600; -870.000; -877.000
357.953; 2420.000; -563.000; -589.000
358.085;  463.125; -632.000; -612.000
358.218;  479.900;-1131.000; -932.000
358.350;  108.825;  -58.000;  312.000
358.483; -151.725;-1300.000;-1187.000
358.615; -102.100;-1182.000;-1078.000
358.747; -124.125;-1187.000;-1058.000
358.880;  -42.725; -810.000; -744.000
359.012;  -15.950; -376.000; -202.000
359.145;  -70.425; -480.000; -511.000
359.277;   -4.675; -962.000; -913.000
359.409; 1977.900;  536.000;  231.000
359.542;  487.475; -738.000; -688.000
359.674;   36.700;   46.000;   13.000
359.806;  -78.950; -565.000; -438.000
359.939;  -54.850; -617.000; -516.000
360.071;    6.675; -583.000; -579.000
360.203;  -54.350; -411.000; -364.000
360.335;   34.075;  164.000;  -16.000
360.468;  134.225; -249.000; -307.000
360.600; 1766.800; -547.000; -454.000
360.732; 3463.550; -546.000; -423.000
360.864;  496.750;-1216.000;-1044.000
360.996;  134.725; -516.000; -554.000
361.129;  -19.200; -389.000; -598.000
361.261;    3.700;  110.000; -113.000
361.393;  -50.250; -252.000; -214.000
361.525;    3.125;   94.000;  244.000
361.657;  -93.350; -821.000; -703.000
361.789;  -17.525; -139.000; -155.000
361.921;   53.350; -642.000; -593.000
362.053;  153.525;  524.000;  541.000
362.185;    8.650;  288.000;   72.000
362.318; -114.625; -709.000; -705.000
362.450;   52.000;  294.000;  444.000
362.582;  -33.800; -913.000; -870.000
362.714;  -52.050; -353.000; -332.000
362.846;  -89.000; -606.000; -490.000
362.978; -160.025; -941.000; -811.000
363.109;   -3.325; -161.000; -260.000
363.241;  231.725; -739.000; -749.000
363.373;  508.375; -649.000; -564.000
363.505;  823.650; -186.000;  -91.000
363.637;  203.100; -787.000; -601.000
363.769; -147.025;-1067.000;-1080.000
363.901;  -73.450; -596.000; -654.000
364.033; -145.000;-1103.000;-1062.000
364.165;  -40.775; -283.000; -283.000
364.296;   55.375; -316.000; -177.000
364.428;  118.750;-1344.000;-1220.000
364.560;  -61.950; -679.000; -661.000
364.692;  -72.550; -738.000; -835.000
364.824;   83.425; -588.000; -456.000
364.955;  438.000; -402.000; -564.000
365.087; 1321.525;-1097.000; -852.000
365.219;   76.700; -686.000; -816.000
365.351;  -70.625; -526.000; -572.000
365.482;   38.425;  300.000;  240.000
365.614;  -66.675; -402.000; -314.000
365.746; -111.275; -729.000; -752.000
365.877;  -96.625; -706.000; -672.000
366.009;  332.100;  -35.000;  -62.000
366.141;  -63.025;-1249.000;-1134.000
366.272; -107.225; -803.000; -719.000
366.404; -126.925;-1005.000; -874.000
366.535;  -26.500; -139.000;  -12.000
366.667; -113.700; -644.000; -649.000
366.799;   21.825;  353.000;  203.000
366.930; -140.050; -862.000; -996.000
367.062;  141.725; -639.000; -613.000
367.193;  222.575; -872.000; -842.000
367.325;  -61.575; -580.000; -684.000
367.456;   -0.725; -246.000;   31.000
367.588;  197.400; -371.000; -318.000
367.719;   14.525;  -44.000;  -45.000
367.851;  -33.825; -222.000; -241.000
367.982;  -95.375; -875.000; -732.000
368.113;   30.900; -475.000; -358.000
368.245; -135.875; -960.000; -841.000
368.376;  -38.375; -254.000; -302.000
368.508;  -68.825; -188.000; -263.000
368.639; -145.575;-1166.000;-1034.000
368.770;  -64.150; -670.000; -589.000
368.902; -100.450; -836.000; -926.000
369.033; -149.600; -906.000; -855.000
369.164;  -44.375; -720.000; -653.000
369.296; -117.575; -452.000; -601.000
369.427;  -38.650; -209.000; -144.000
369.558;  -71.775; -593.000; -377.000
369.689;  -90.475; -721.000; -569.000
369.821; -139.750; -951.000; -845.000
369.952;  -39.300;   42.000; -108.000
370.083;  -57.200; -229.000; -108.000
370.214; -109.450; -735.000; -650.000
370.345;  -18.850;   65.000;   81.000
370.477; -113.550; -810.000; -790.000
370.608;   83.650; -328.000; -264.000
370.739; -112.975;-1233.000;-1292.000
370.870;  -93.125;-1102.000; -923.000
371.001;   15.850; -378.000; -467.000
371.132;  -92.650; -754.000; -735.000
371.263;  -27.525;  -42.000; -148.000
371.394; -136.525; -841.000; -748.000
371.525;   11.775;  345.000;  225.000
371.657; -115.125; -808.000; -670.000
371.788;   47.000;  103.000;  199.000
371.919;   69.325; -384.000; -304.000
372.050; 2174.700;  -91.000; -156.000
372.181;  655.275; -188.000; -294.000
372.311;  187.925;   42.000; -127.000
372.442;  -16.550; -457.000; -451.000
372.573;  -37.575; -444.000; -340.000
372.704; -143.100;-1008.000; -980.000
372.835;   12.100; -228.000; -289.000
372.966;  -80.225; -646.000; -554.000
373.097;  -88.675; -575.000; -711.000
373.228;  -82.450; -717.000; -542.000
373.359;   20.225; -824.000; -536.000
373.490;  456.800; -881.000; -727.000
373.620;  602.050;-1001.000; -803.000
373.751;  982.675; -332.000; -396.000
373.882;  435.675; -663.000; -733.000
374.013;    4.575; -449.000; -262.000
374.143;  -73.575; -581.000; -659.000
374.274; -129.275; -987.000; -908.000
374.405;   91.750; -388.000; -276.000
374.536;  209.000; -526.000; -387.000
374.666;  605.300; -759.000; -807.000
374.797;   62.600; -817.000; -868.000
374.928;  433.500; -710.000; -560.000
375.058;  435.825; -535.000; -500.000
375.189;   26.475;  -59.000;  -93.000
375.320; -118.900; -928.000;-1034.000
375.450;  -61.675; -625.000; -616.000
375.581;  -61.725; -526.000; -436.000
375.712;  -48.575; -574.000; -250.000
375.842;  121.550; -438.000; -415.000
375.973;   75.550; -554.000; -513.000
376.103;  -98.250; -665.000; -648.000
376.234;  -82.225; -531.000; -552.000
376.364;  -87.775; -944.000; -867.000
376.495;  206.925;  925.000;  529.000
376.625;  -46.650; -472.000; -485.000
376.756;  -25.000; -709.000; -678.000
376.886; -129.875;-1178.000;-1026.000
377.017;   87.075;-1048.000;-1061.000
377.147;  474.700; -786.000; -782.000
377.278;   61.400;  174.000;  228.000
377.408; -125.675; -801.000; -815.000
377.538; -108.050; -707.000; -693.000
377.669;  -85.900; -537.000; -613.000
377.799; -118.925; -645.000; -635.000
377.929;  -99.025; -610.000; -428.000
378.060; -125.500; -781.000; -847.000
378.190;  -59.050; -726.000; -531.000
378.320;  -65.625; -401.000; -406.000
378.451;  -29.450; -131.000;  -22.000
378.581;  -34.300;  -67.000; -110.000
378.711;   93.925; 1035.000;  866.000
378.841;  -56.200; -533.000; -675.000
378.972; -119.975; -871.000; -751.000
379.102;  -48.000; -652.000; -579.000
379.232;  -47.375; -126.000;  -73.000
379.362; -131.450;-1001.000; -885.000
379.492;  -52.125; -373.000; -424.000
379.623;   63.150;    0.000;  111.000
379.753; -126.300;-1107.000; -974.000
379.883;  112.300;   59.000;  156.000
380.013;  -60.650;-1081.000;-1017.000
380.143; -134.850;-1097.000;-1056.000
380.273; -126.850; -985.000; -861.000
380.403;  -13.775; -344.000; -257.000
380.533;  -58.150; -651.000; -664.000
380.663;   27.675;  173.000;  128.000
380.793; -139.675;-1027.000;-1074.000
380.923;  -41.275; -103.000;  -34.000
381.053;  -93.675; -613.000; -623.000
381.183;  -55.825; -106.000; -248.000
381.313;  -34.100; -656.000; -470.000
381.443;  -22.175; -692.000; -473.000
381.573;   59.250; -402.000; -409.000
381.703;   32.475;-1249.000;-1095.000
381.833; -169.575;-1454.000;-1336.000
381.963;   56.150; -134.000;  -87.000
382.093;  806.225; -925.000; -909.000
382.223;  225.950; -713.000; -602.000
382.353;  -72.175; -801.000; -608.000
382.482;  127.850;-1091.000; -964.000
382.612;  398.350; -872.000; -644.000
382.742;  215.850; -695.000; -622.000
382.872;   78.350; -565.000; -551.000
383.002;   21.925;  347.000; -132.000
383.131;  -47.450; -226.000; -160.000
383.261;  -50.550; -706.000; -768.000
383.391;  259.900; -552.000; -377.000
383.521; 4068.750;  451.000;  263.000
383.650; 1146.800; -947.000; -904.000
383.780;    0.950; -783.000; -656.000
383.910;   90.350;  880.000;  802.000
384.039;  -49.775; -794.000; -656.000
384.169;   20.275;-1205.000;-1017.000
384.299;  -66.325; -650.000; -662.000
384.428; -110.075; -764.000; -680.000
384.558;  -68.600; -308.000; -275.000
384.687;  -79.300; -414.000; -334.000
384.817;  -24.425;   75.000;   -2.000
384.947;  -37.400; -234.000; -141.000
385.076;  190.850;  982.000;  912.000
385.206;   73.575;  369.000;  480.000
385.335;  -60.200; -549.000; -417.000
385.465;  -98.350; -655.000; -663.000
385.594;   46.550;  -53.000;  -44.000
385.724;  178.600; -868.000; -838.000
385.853;   31.550; -296.000; -270.000
385.982;  695.800; -743.000; -787.000
386.112; 1224.775;-1052.000; -871.000
386.241;   41.175; -307.000; -312.000
386.371;  -10.825; -174.000;  -87.000
386.500;  -47.000; -825.000; -789.000
386.629;  -13.075; -874.000; -817.000
386.759;   57.750;  -43.000;   68.000
386.888;  -19.700; -170.000; -250.000
387.017;  -98.275; -648.000; -620.000
387.147; -104.550; -771.000; -798.000
387.276;  -54.250; -410.000; -397.000
387.405;  -29.450; -398.000; -342.000
387.535;  -73.325; -452.000; -361.000
387.664;  -76.025; -692.000; -620.000
387.793;    1.350; -198.000; -113.000
387.922;  294.525;  255.000;  200.000
388.052;  -49.100; -576.000; -423.000
388.181;  -50.725; -342.000; -472.000
388.310;  -94.350; -889.000; -710.000
388.439;  -95.450; -749.000; -742.000
388.568;   66.750;  365.000;  244.000
388.697;  526.825; -756.000; -653.000
388.826;   64.600; -768.000; -666.000
388.956;  -12.050; -285.000; -307.000
389.085;  -48.375; -347.000; -287.000
389.214; -115.450; -842.000; -872.000
389.343;  -82.525; -645.000; -413.000
389.472;  433.375;  126.000;  149.000
389.601;  541.925;   91.000;    0.000
389.730;  -18.475; -568.000; -687.000
389.859;   23.150;  226.000;   46.000
389.988;   73.575; -423.000; -408.000
390.117;   70.900; -168.000; -146.000
390.246;  -53.300; -331.000; -320.000
390.375;  -13.625; -673.000; -626.000
390.504;  -87.800; -703.000; -621.000
390.633; -115.550; -672.000; -726.000
390.761;  -90.475; -732.000; -645.000
390.890;  -27.325;   -4.000; -130.000
391.019;  -68.000; -421.000; -441.000
391.148; -141.575; -826.000; -855.000
391.277;  -87.375; -576.000; -493.000
391.406; -117.225; -821.000; -805.000
391.534;    5.350;  574.000; -301.000
391.663;  -95.850; -583.000; -645.000
391.792; -113.525; -673.000; -701.000
391.921;   13.950;   -3.000;   15.000
392.050;   52.175; -287.000; -228.000
392.178; -110.175;-1206.000;-1061.000
392.307;   18.825; -758.000; -712.000
392.436;  -24.175; -427.000; -641.000
392.564;   -2.875;  166.000;   -6.000
392.693; -110.725; -860.000; -682.000
392.822;   62.725; -529.000; -534.000
392.950;  -13.425; -880.000; -714.000
393.079;  157.125; -188.000; -328.000
393.208;  -22.800; -488.000; -511.000
393.336;  -31.775; -170.000; -145.000
393.465;  -63.150; -317.000; -199.000
393.593;   -0.375;   62.000;   79.000
393.722; -153.075;-1121.000; -916.000
393.850;  -45.975; -188.000;  -61.000
393.979; -146.450; -926.000; -805.000
394.107;  -77.025; -517.000; -537.000
394.236;  -55.175; -570.000; -507.000
394.364;  133.950;  383.000;  206.000
394.493;  186.425; -911.000; -767.000
394.621;  -26.925; -955.000; -916.000
394.750;  891.800; -873.000; -923.000
394.878; 3560.750; -247.000; -149.000
395.007; 5154.950; -721.000; -807.000
395.135;  418.600; -790.000; -721.000
395.263;  -84.650;-1038.000;-1040.000
395.392;    5.425;  -25.000; -107.000
395.520; -148.750; -818.000; -679.000
395.648;  -99.475; -865.000; -915.000
395.777;  -68.250; -366.000; -405.000
395.905;  -59.975; -449.000; -564.000
396.033;   -9.675;  217.000;  172.000
396.162;  313.475; -399.000; -453.000
396.290;  300.225;  -17.000;   -2.000
396.418;   13.850; -555.000; -514.000
396.546; -111.550; -571.000; -466.000
396.674; -115.950; -850.000; -878.000
396.803;  -17.725;  -72.000;  -23.000
396.931;    4.425; -179.000; -199.000
397.059;  -71.500;-1026.000; -989.000
397.187; -135.275;-1026.000; -975.000
397.315; -143.050; -884.000; -649.000
397.443; -101.075; -592.000; -443.000
397.572; -106.700; -578.000; -424.000
397.700;  -68.750; -607.000; -614.000
397.828;  -29.775;  120.000;  -90.000
397.956;  -50.275; -508.000; -478.000
398.084;  -61.250; -767.000; -626.000
398.212;    2.850;  137.000;  124.000
398.340;  -21.450;  -56.000;  159.000
398.468;  -23.750; -390.000; -169.000
398.596; -147.025; -993.000; -953.000
398.724; -137.600; -762.000; -767.000
398.852; -173.050;-1024.000; -976.000
398.980;  -96.900; -560.000; -560.000
399.108;  -90.300; -982.000; -735.000
399.236;    3.750;   13.000;    8.000
399.363;  -19.275;  222.000;  196.000
399.491;  -81.100; -404.000; -398.000
399.619; -142.075; -829.000; -800.000
399.747; -127.950; -859.000; -771.000
399.875;   49.300;  220.000;  234.000
400.003;  -56.975; -359.000; -284.000
400.130;  -98.125; -421.000; -341.000
400.258;  -50.600;  -83.000;   38.000
400.386;  -73.775; -352.000; -168.000
400.514;  -79.875; -526.000; -587.000
400.641; -134.400; -928.000; -802.000
400.769; -152.550; -979.000; -888.000
400.897; -133.100; -838.000; -793.000
401.025;  -47.700; -166.000; -152.000
401.152;  -30.725;  220.000;   38.000
401.280;  -87.475; -430.000; -429.000
401.408; -132.025; -712.000; -576.000
401.535; -117.675; -735.000; -758.000
401.663; -195.300;-1134.000;-1054.000
401.790;  -95.200; -514.000; -525.000
401.918;   16.350;  436.000;  405.000
402.046;  -35.525;  134.000;  122.000
402.173;  -49.675;  -18.000;    7.000
402.301;  -79.925; -519.000; -397.000
402.428;   24.825;  528.000;  383.000
402.556; -166.550;-1188.000; -913.000
402.683;  -41.550;  -20.000;   -1.000
402.811;  -25.725;  -37.000; -206.000
402.938;  -39.625;   20.000;   27.000
403.066;   55.275; -574.000; -558.000
403.193;  171.850;  299.000;  239.000
403.321;  126.625; -396.000; -574.000
403.448;  170.900;   83.000;   27.000
403.575;   70.900;  -90.000;  -46.000
403.703; -106.125; -732.000; -557.000
403.830;  -67.625; -531.000; -496.000
403.957; -149.025;-1117.000;-1023.000
404.085;   -9.750;  -61.000; -172.000
404.212;   79.275;  -50.000;   63.000
404.339;  327.525; -566.000; -306.000
404.467; 7141.025; -612.000; -524.000
404.594; 4513.850; -287.000; -227.000
404.721;  870.375; -869.000; -764.000
404.848;   78.150; -113.000; -202.000
404.976; -107.425; -856.000; -783.000
405.103;   -8.950;  -14.000;  -82.000
405.230;  -17.050;  190.000;  226.000
405.357;    2.800;  117.000;   44.000
405.484;  316.775;  -49.000;    5.000
405.612;   68.775; -548.000; -563.000
405.739;  -74.625; -488.000; -243.000
405.866;   81.700;  669.000;  385.000
405.993;  -48.775; -398.000; -102.000
406.120; -141.725; -801.000; -887.000
406.247;  -79.225; -323.000; -342.000
406.374;  216.275;  540.000;  629.000
406.501;  -27.050; -632.000; -702.000
406.628;  -94.150; -621.000; -589.000
406.755; -116.325; -803.000; -620.000
406.882;  -59.850; -228.000; -277.000
407.009; -113.900; -719.000; -628.000
407.136;  -31.025; -480.000; -401.000
407.263;    2.125; -939.000; -829.000
407.390;  -92.500; -692.000; -614.000
407.517; -189.900;-1139.000;-1187.000
407.644;  -69.200; -332.000; -256.000
407.771;  -82.125; -249.000; -287.000
407.898;  -11.600;  168.000;  328.000
408.025;  -83.050; -421.000; -313.000
408.151;  -25.700;   82.000;  153.000
408.278;  -91.075; -267.000; -216.000
408.405; -131.350; -931.000; -899.000
408.532;  -75.575; -549.000; -542.000
408.659; -124.350; -677.000; -648.000
408.785; -203.550;-1298.000;-1170.000
408.912;  -65.975; -412.000; -296.000
409.039; -134.825; -610.000; -686.000
409.166; -109.275; -591.000; -555.000
409.292; -118.475; -571.000; -534.000
409.419; -122.650; -665.000; -649.000
409.546;  -95.850; -431.000; -192.000
409.672; -112.925; -713.000; -545.000
409.799;  -48.500;  -36.000;   34.000
409.926;  -55.675; -180.000; -179.000
410.052; -185.625;-1127.000;-1091.000
410.179;  -83.325; -368.000; -392.000
410.305; -106.675; -375.000; -493.000
410.432;  -58.500; -220.000; -333.000
410.558;  -94.325; -305.000; -380.000
410.685; -109.125; -688.000; -431.000
410.812; -126.400; -409.000; -588.000
410.938; -151.800; -964.000; -808.000
411.065; -115.175; -671.000; -645.000
411.191;  -44.075; -189.000; -174.000
411.317; -130.375; -823.000; -742.000
411.444;  -74.150; -317.000; -246.000
411.570;  -87.600; -339.000; -294.000
411.697; -132.125; -758.000; -752.000
411.823; -192.475; -989.000; -999.000
411.949;  -41.150;  -56.000;   17.000
412.076; -132.900; -539.000; -519.000
412.202; -125.200; -758.000; -757.000
412.329; -145.925; -798.000; -752.000
412.455; -126.075; -821.000; -657.000
412.581;  -39.500;  -15.000;  172.000
412.707;  -98.750; -540.000; -457.000
412.834;  -16.400;  156.000;  219.000
412.960;  -92.150; -785.000; -784.000
413.086; -123.650; -743.000; -701.000
413.212;  113.500;  604.000;  578.000
413.339; -108.950; -685.000; -701.000
413.465;  -38.525; -364.000; -310.000
413.591; -112.600; -757.000; -474.000
413.717;  -66.850; -358.000; -366.000
413.843; -141.350; -839.000; -861.000
413.969;  -58.900;  -47.000; -292.000
414.096; -108.425; -679.000; -679.000
414.222;  -13.600;  -33.000;   85.000
414.348;  -67.775; -652.000; -385.000
414.474;   36.925;   38.000;  -52.000
414.600;  -32.525; -126.000; -144.000
414.726;   -8.975;  -96.000;  -55.000
414.852;  -60.875; -365.000; -342.000
414.978;   34.300;  104.000;  -18.000
415.104;   26.675;   38.000;   80.000
415.230;   22.950; -329.000; -330.000
415.356;   40.600; -409.000; -514.000
415.482;  194.700;   13.000;  -35.000
415.608;  304.925; -247.000; -323.000
415.734; 1085.775;   67.000;   38.000
415.860;22751.750; -875.000; -767.000
415.986;18283.875; -685.000; -607.000
416.111; 1658.500; -798.000; -652.000
416.237;  350.050; -424.000; -571.000
416.363; 1348.350; -765.000; -733.000
416.489; 5320.675; -324.000; -251.000
416.615;  692.225; -707.000; -742.000
416.741;   12.725; -677.000; -784.000
416.866;  -82.825; -673.000; -736.000
416.992; -116.425; -801.000; -818.000
417.118;  -30.975;  -41.000;  -80.000
417.244;  -96.275; -798.000; -531.000
417.369;  -88.825; -801.000; -612.000
417.495;  -24.625; -325.000; -254.000
417.621;  -90.200;-1015.000; -803.000
417.746;  -14.600; -579.000; -572.000
417.872;   34.700; -254.000; -144.000
417.998;   80.900; -515.000; -530.000
418.123; 1192.100;-1073.000; -845.000
418.249; 6804.650; -512.000; -601.000
418.374; 1101.675; -916.000; -824.000
418.500;  144.600; -383.000; -482.000
418.626;  124.400;   70.000;  -59.000
418.751;  110.625; -549.000; -448.000
418.877;  244.425; -637.000; -643.000
419.002; 2064.725; -688.000; -560.000
419.128;15529.525; -930.000; -721.000
419.253; 4327.050; -967.000; -837.000
419.379;  568.425; -391.000; -338.000
419.504;  460.200;  325.000;  415.000
419.629;  642.500; -393.000; -212.000
419.755; 4228.575; -317.000; -254.000
419.880;27315.400;  -98.000;   67.000
420.006;14128.025; -280.000; -221.000
420.131;35891.850; -662.000; -775.000
420.256; 5669.075; -315.000; -316.000
420.382;  757.475; -665.000; -687.000
420.507;  124.750; -649.000; -778.000
420.632;   49.275; -337.000; -339.000
420.758;  108.025; -251.000; -425.000
420.883; -102.700; -876.000; -672.000
421.008;  -97.725; -775.000; -619.000
421.133;  -93.475; -509.000; -467.000
421.259;  -57.975; -325.000; -259.000
421.384; -128.400; -834.000; -693.000
421.509; -110.275;-1052.000; -862.000
421.634;  476.325; -936.000; -820.000
421.759;  218.300; -359.000; -327.000
421.885; -100.950; -717.000; -656.000
422.010;  -98.650; -673.000; -542.000
422.135; -155.900; -695.000; -727.000
422.260;   20.800;  340.000;  280.000
422.385;  -51.450;   12.000;  -98.000
422.510;   -6.925;  151.000;  -26.000
422.635;  -16.100;  -87.000;  -43.000
422.760;   32.450; -766.000; -791.000
422.885;   30.525;  -57.000;  -80.000
423.010;  -45.800; -112.000; -169.000
423.135; -102.200; -481.000; -561.000
423.260;  -35.225; -150.000; -245.000
423.385;   26.300;  476.000;  222.000
423.510;    0.475;   71.000;  -22.000
423.635;   27.400;  133.000;   45.000
423.760;   50.625;  383.000;  328.000
423.885;   17.550;  336.000;  391.000
424.010;   -0.400;  -68.000;  -13.000
424.135;  -32.775;    5.000;  -33.000
424.259;  -95.025; -654.000; -457.000
424.384;  -73.250; -279.000; -272.000
424.509;  -26.025; -260.000; -186.000
424.634; -108.425; -761.000; -623.000
424.759;  -38.700; -688.000; -544.000
424.883;   -6.500; -506.000; -527.000
425.008;  165.975; -502.000; -410.000
425.133; 2346.850; -679.000; -653.000
425.258; 1243.900; -517.000; -381.000
425.382;  672.400; -867.000; -774.000
425.507; 1753.925; -487.000; -543.000
425.632;  377.000; -802.000; -663.000
425.756;  558.925; -256.000; -146.000
425.881; 7988.450; -831.000; -857.000
426.006;24106.125; -604.000; -355.000
426.130; 3958.450; -696.000; -508.000
426.255;  497.950; -611.000; -491.000
426.379;  201.675; -189.000; -577.000
426.504;  409.450;  660.000;  544.000
426.629; 4647.125; -519.000; -466.000
426.753; 3552.125;   64.000;  -46.000
426.878;  417.250; -252.000; -288.000
427.002;  223.900; -651.000; -668.000
427.127; 1717.650;  -35.000; -158.000
427.251;13907.775;  372.000;  401.000
427.375; 4457.200; -191.000; -173.000
427.500; 1612.075; -616.000; -610.000
427.624;  567.375; -234.000; -400.000
427.749;   83.425; -216.000; -225.000
427.873;  -41.550; -499.000; -412.000
427.997;  -52.825; -222.000; -230.000
428.122;   49.425;  795.000;  703.000
428.246;   37.500;  433.000;  434.000
428.371; -143.700; -869.000; -773.000
428.495; -112.950; -624.000; -646.000
428.619;  -47.275; -186.000; -117.000
428.743;   -7.550;   65.000;  132.000
428.868;  -41.075; -732.000; -643.000
428.992;  807.625; -219.000; -326.000
429.116;  327.500; -329.000; -357.000
429.240;  154.675;  419.000;  426.000
429.365;  -36.725; -454.000; -574.000
429.489;  -59.425; -638.000; -647.000
429.613;    4.650; -236.000; -177.000
429.737;   49.800; -563.000; -432.000
429.861;  290.425; -247.000; -133.000
429.985; 6400.450; -425.000; -305.000
430.109; 7971.900; -770.000; -908.000
430.234;  978.500;   76.000;  -50.000
430.358;   96.550; -250.000; -160.000
430.482;  -53.750; -672.000; -564.000
430.606;  -73.375; -655.000; -375.000
430.730;  -41.225; -437.000; -388.000
430.854;  -26.100; -909.000; -835.000
430.978;  -95.825; -795.000; -764.000
431.102;  -93.225; -499.000; -422.000
431.226; -136.600; -874.000; -815.000
431.350;    5.825;  345.000;  422.000
431.474;  -89.375; -661.000; -373.000
431.597; -159.825;-1060.000; -848.000
431.721;  -81.175; -276.000; -267.000
431.845; -142.800; -704.000; -472.000
431.969;  -91.875; -304.000; -349.000
432.093; -106.400; -395.000; -317.000
432.217;   -9.100;   32.000;   82.000
432.341;  -93.525; -523.000; -518.000
432.464;  -12.700;   96.000;   40.000
432.588;   45.000; -401.000; -329.000
432.712;   51.675;  -52.000;  -52.000
432.836;   35.200;  213.000;  263.000
432.959;   -7.950; -372.000; -311.000
433.083;   94.750;   11.000;    2.000
433.207;  453.425;  285.000;  930.000
433.330; 6039.975; -391.000; -200.000
433.454; 8237.550; -654.000; -638.000
433.578; 4602.400;  583.000;  278.000
433.701;  971.725; -623.000; -675.000
433.825;  119.550; -292.000; -299.000
433.949;   67.775;   28.000;  -72.000
434.072;    2.350; -410.000; -323.000
434.196;  -18.575; -309.000; -117.000
434.319; 3543.025;25482.000;25124.000
434.443;  743.625; -656.000; -603.000
434.566; 3296.425;  281.000;   62.000
434.690;  658.975; -637.000; -383.000
434.813;   83.125; -251.000; -173.000
434.937;  -46.075; -569.000; -696.000
435.060;  -81.350; -423.000; -332.000
435.184;   81.625; -492.000; -217.000
435.307;   64.800;  159.000;  102.000
435.431;  -24.025;  -40.000;   24.000
435.554;  -94.350; -399.000; -240.000
435.677;  -95.775; -350.000; -258.000
435.801;  -64.075;  -25.000;   49.000
435.924;  -37.900;    1.000;  -67.000
436.048; -151.425;-1019.000; -732.000
436.171;  -85.025; -240.000;  -66.000
436.294;  -23.925; -248.000; -229.000
436.417;  139.875; -963.000; -849.000
436.541;  -62.550; -814.000; -840.000
436.664;  -49.750; -242.000; -316.000
436.787;  -39.175;   13.000;  113.000
436.910; -125.050; -792.000; -422.000
437.034;  -19.850;  142.000;  143.000
437.157;    6.800;  -11.000;    0.000
437.280;  -82.950; -392.000; -292.000
437.403; -140.125; -982.000; -869.000
437.526;  152.250; -903.000; -865.000
437.649; 1034.125; -505.000; -332.000
437.772;   80.125; -692.000; -540.000
437.896;   74.725;  700.000;  544.000
438.019; -109.325; -758.000; -503.000
438.142; -108.900; -596.000; -506.000
438.265;  -91.925; -639.000; -670.000
438.388;  203.350; -520.000; -410.000
438.511;  -15.050; -597.000; -394.000
438.634;  -71.475; -247.000; -125.000
438.757; -148.850; -693.000; -619.000
438.880;  -37.275;  -34.000;  -57.000
439.003;  -99.525; -417.000; -437.000
439.126;  -74.525; -287.000; -167.000
439.248;  -75.275;  -98.000; -139.000
439.371;  -53.000;    9.000;  -53.000
439.494;    7.000;  510.000;  439.000
439.617;  -62.425;   65.000;  -88.000
439.740; -187.350; -968.000; -816.000
439.863; -143.350; -755.000; -595.000
439.986; -134.350; -476.000; -431.000
440.108;  -39.950; -161.000; -112.000
440.231; -172.250; -950.000; -836.000
440.354;  -49.300;  -64.000; -150.000
440.477;  -71.950; -566.000; -542.000
440.599;  -62.950; -200.000; -225.000
440.722; -145.900; -709.000; -586.000
440.845;   51.250;  751.000;  928.000
440.968; -126.500; -415.000; -311.000
441.090;  -77.200; -199.000;  -33.000
441.213; -183.000;-1021.000; -825.000
441.336;  -62.375; -159.000;   -5.000
441.458;  -94.650; -549.000; -396.000
441.581; -101.750; -628.000; -629.000
441.703;  -87.400; -152.000;   13.000
441.826; -118.800; -557.000; -400.000
441.948;  -49.950;   56.000;   51.000
442.071;   19.150;  555.000;  424.000
442.193; -124.875; -531.000; -485.000
442.316;    5.425;  152.000;   97.000
442.438;   50.000; -233.000;  -10.000
442.561;   58.275;  272.000;  262.000
442.683;  156.725; -809.000; -522.000
442.806;  537.125;   -8.000;   74.000
442.928;  -65.900; -859.000; -604.000
443.051;  -86.225; -577.000; -373.000
443.173; -109.800; -341.000; -339.000
443.295;  -99.375; -263.000; -371.000
443.418;  -88.750; -321.000;  -29.000
443.540;  -35.225; -106.000;   -4.000
443.662; -129.400; -563.000; -465.000
443.785;  -31.525;  335.000;  199.000
443.907; -106.200; -362.000; -208.000
444.029; -121.950; -767.000; -494.000
444.152; -149.650; -644.000; -554.000
444.274;  -50.725;  -18.000;  -24.000
444.396; -137.875; -461.000; -221.000
444.518; -128.075; -691.000; -454.000
444.640; -110.000; -268.000; -111.000
444.763;  -26.925;  388.000;  249.000
444.885; -134.675; -432.000; -392.000
445.007;  -47.400;   35.000;   86.000
445.129; -122.950; -610.000; -515.000
445.251; -117.725; -372.000; -439.000
445.373; -149.800; -537.000; -386.000
445.495;  -18.250;  242.000;  350.000
445.617;   27.725;  853.000;  753.000
445.739;  -86.325; -215.000;  -97.000
445.861;  -60.275; -245.000; -112.000
445.984;  -57.450; -267.000; -101.000
446.105;   25.975; -418.000; -251.000
446.227;  268.150; -176.000;  -19.000
446.349;  -60.475; -358.000; -249.000
446.471; -115.950; -615.000; -448.000
446.593;  -93.075; -316.000;   19.000
446.715;  -35.225;  -67.000;   41.000
446.837;   43.775;  697.000;  832.000
446.959; -108.500; -457.000; -478.000
447.081; -135.475; -628.000; -518.000
447.203;   27.700;  862.000;  834.000
447.325; -102.725; -270.000;   42.000
447.446;  -16.925;  286.000;  530.000
447.568; -165.550; -921.000; -803.000
447.690;  -97.125; -236.000; -245.000
447.812; -163.925; -798.000; -519.000
447.933;  -45.725;  155.000;  127.000
448.055;  -78.450; -306.000; -261.000
448.177;   51.075;   31.000;   79.000
448.299;  -33.850; -935.000; -727.000
448.420;  -32.950;  -25.000;  159.000
448.542;  -60.825;   -3.000;   33.000
448.664;  -26.000;  109.000;  322.000
448.785;  -48.300;  265.000;   83.000
448.907;  -99.900; -614.000; -353.000
449.028;  -91.375; -771.000; -471.000
449.150;   42.100;  492.000;  589.000
449.272; -185.025;-1044.000; -913.000
449.393;   22.175;  612.000;  694.000
449.515; -153.825; -634.000; -581.000
449.636;  -77.450; -264.000; -155.000
449.758;   51.400;  763.000;  622.000
449.879;  -98.850; -498.000; -396.000
450.001;  -98.425; -149.000;  -49.000
450.122;  -41.325;  -95.000;  162.000
450.244;  -22.400;   37.000;  364.000
450.365;  -88.825; -495.000; -301.000
450.486;  -28.750;   80.000;  268.000
450.608;   27.450;  393.000;  326.000
450.729;   78.675;  578.000;  645.000
450.850;   35.625; -574.000; -466.000
450.972;  936.025; -552.000; -389.000
451.093; 6259.125;  190.000;  588.000
451.214; 3128.150; -516.000; -337.000
451.336;  556.425;  773.000;  579.000
451.457;   85.850;  264.000;  393.000
451.578;  -32.500; -118.000;  -74.000
451.699; -124.575; -546.000; -540.000
451.821;  -64.525; -284.000;  -50.000
451.942;  -14.175;  278.000;  285.000
452.063;   39.175;  228.000;  419.000
452.184;  637.575;  -54.000;  -49.000
452.305; 1384.150;  103.000;  170.000
452.427;  245.425; -549.000; -301.000
452.548;   -2.800;   23.000;   79.000
452.669;  -64.275; -257.000;  -89.000
452.790;  -56.950;    3.000;  -18.000
452.911;  -13.350;  195.000;  259.000
453.032;  -73.675; -289.000;  -60.000
453.153;  -74.075;  -29.000;   81.000
453.274;   55.425;  737.000;  868.000
453.395;  -66.950;  -51.000;  175.000
453.516;   96.750; 1317.000; 1388.000
453.637;  -91.925; -205.000; -150.000
453.758;  -66.475;   15.000;   69.000
453.879; -122.625; -462.000; -250.000
454.000;   56.075; 1086.000;  948.000
454.121; -131.425; -554.000; -326.000
454.242; -134.875; -599.000; -383.000
454.362;  -65.050;  -99.000;  114.000
454.483;  -24.050; -309.000; -229.000
454.604;   41.425;  512.000;  580.000
454.725; -138.525; -627.000; -555.000
454.846; -125.600; -474.000; -406.000
454.967;  -45.650;  230.000;  539.000
455.087;  -54.800;  179.000;  153.000
455.208;    7.850;  554.000;  856.000
455.329;  -64.725;  -22.000;   82.000
455.450;   39.200;  473.000;  633.000
455.570;  -80.550; -234.000; -211.000
455.691;  -57.875;  201.000;  407.000
455.812; -111.025; -270.000;  -92.000
455.932;  -67.450;  107.000;  -97.000
456.053;  -89.475;   36.000;   24.000
456.173; -103.150; -433.000; -355.000
456.294; -142.400; -476.000; -303.000
456.415;  -75.300;  -73.000;   70.000
456.535;  -50.075;  297.000;  273.000
456.656;  -43.825;  132.000;  240.000
456.776;  -81.650;    3.000;  298.000
456.897;  -13.575;  308.000;  513.000
457.017;  -86.575; -153.000;   -3.000
457.138; -103.350; -402.000; -249.000
457.258;  -51.850;  263.000;  224.000
457.379;  -10.150;  509.000;  521.000
457.499;  -44.350;  443.000;  432.000
457.620; -125.650; -407.000; -231.000
457.740;  -93.475; -132.000;  -11.000
457.860;  -65.025;   87.000;   44.000
457.981;  -52.275;  132.000;  124.000
458.101;  -79.975;  -89.000;   40.000
458.221;  -29.400;  336.000;  402.000
458.342;  -57.275;   -4.000;  -37.000
458.462;   25.625;  617.000;  352.000
458.582;   -5.975; -302.000; -294.000
458.703;   38.500;  303.000;  154.000
458.823;   -7.000;   22.000;  163.000
458.943;   28.450;  341.000;  467.000
459.063;   -3.800; 1124.000;  192.000
459.183;  -32.075;  328.000;  313.000
459.304;   -2.700;  315.000;  517.000
459.424;  -63.450; -246.000;  -89.000
459.544;  376.875;  388.000;  764.000
459.664; 1023.350;  499.000;  506.000
459.784;  421.175; 1004.000; 1175.000
459.904;   61.025;  867.000;  744.000
460.024;   55.600;  867.000;  684.000
460.144;   -0.150;  449.000;  554.000
460.264;   -8.225;  515.000;  327.000
460.385;  -91.875; -145.000; -119.000
460.505;   34.450;  905.000;  858.000
460.625; -108.575;  -17.000;  -68.000
460.745;  -21.175;  396.000;  541.000
460.864;  -54.725;  153.000;  469.000
460.984;   -0.025;  499.000;  573.000
461.104;  121.200; 1656.000; 1775.000
461.224;   -2.200;  657.000;  650.000
461.344;  -43.325;  431.000;  360.000
461.464;  -38.400;  258.000;  513.000
461.584;  -29.525;  283.000;  466.000
461.704;  -57.925;   58.000;  108.000
461.824;  -73.275;  238.000;  259.000
461.943;  -37.725;  191.000;  130.000
462.063;  -87.750;    2.000;  324.000
462.183;   23.575;  639.000;  717.000
462.303;   89.900; 1678.000; 1230.000
462.422;   19.700;  781.000;  840.000
462.542;  -40.650;  271.000;  391.000
462.662;   39.075;  353.000;  380.000
462.782;  297.075;  833.000;  572.000
462.901;  607.425;  545.000;  717.000
463.021;  315.375; 1702.000; 1638.000
463.141;   -1.875;  337.000;  770.000
463.260;  -19.850;  614.000;  474.000
463.380;   -0.525;  902.000;  884.000
463.499;  -38.375;  342.000;  332.000
463.619;  -31.325;  581.000;  559.000
463.738;   99.575; 1644.000;  903.000
463.858;   12.700;  657.000;  811.000
463.978;  -34.150;  542.000;  396.000
464.097;   44.975;  921.000; 1114.000
464.217;  123.175; 1196.000; 1143.000
464.336;  126.525; 1068.000; 1130.000
464.455;  -35.575;  328.000;  659.000
464.575;   18.325;  597.000;  602.000
464.694;  123.125; 1204.000; 1179.000
464.814;  147.025; 1190.000; 1138.000
464.933;   57.725; 1095.000; 1027.000
465.052;   97.475; 1412.000; 1054.000
465.172;   69.925;  922.000;  799.000
465.291;  120.750; 1376.000; 1320.000
465.410;  -11.175;  462.000;  735.000
465.530;   79.350; 1355.000; 1310.000
465.649;   49.750; 1209.000; 1273.000
465.768;  138.475; 1673.000; 1508.000
465.888;   41.825;  941.000; 1174.000
466.007;   79.775; 1335.000; 1440.000
466.126;  -11.300;  721.000;  641.000
466.245;   29.100; 1176.000; 1187.000
466.364;    7.850;  950.000; 1060.000
466.484;   39.900; 1024.000; 1213.000
466.603;   29.725; 1101.000; 1222.000
466.722;  114.475; 1490.000; 1769.000
466.841;   56.125; 1151.000; 1401.000
466.960;   22.950; 1069.000;  972.000
467.079;  115.450; 1971.000; 1786.000
467.198;   45.675; 1238.000; 1181.000
467.317;   82.850; 1768.000; 1162.000
467.436;   58.825; 1709.000; 1261.000
467.555;  108.250; 1796.000; 1746.000
467.674;   65.375; 1227.000; 1329.000
467.793;   38.000; 1376.000; 1374.000
467.912;   88.750; 1658.000; 1539.000
468.031;  132.100; 2038.000; 1930.000
468.150;  123.000; 1842.000; 1837.000
468.269;  174.200; 2313.000; 2090.000
468.388;  184.975; 2168.000; 2339.000
468.507;  222.275; 2884.000; 2903.000
468.626;  269.100; 2555.000; 2541.000
468.744;  142.125; 2018.000; 2174.000
468.863;  186.850; 2312.000; 2523.000
468.982;   99.875; 1503.000; 1555.000
469.101;  221.525; 2788.000; 2692.000
469.220;  157.525; 2333.000; 2176.000
469.338;  234.700; 2935.000; 3051.000
469.457;  189.775; 2719.000; 2545.000
469.576;  349.200; 3953.000; 3784.000
469.695;  235.925; 2877.000; 3066.000
469.813;  417.425; 4148.000; 4192.000
469.932;  394.400; 4255.000; 4485.000
470.051;  435.450; 4075.000; 4161.000
470.169;  906.375; 4470.000; 4338.000
470.288; 1725.900; 4700.000; 4809.000
470.406; 1033.625; 5059.000; 5194.000
470.525;  651.525; 6101.000; 5787.000
470.644;  666.875; 6847.000; 6794.000
470.762;  804.825; 8397.000; 7873.000
470.881;  913.350; 8651.000; 8464.000
470.999; 1082.850; 9685.000; 9151.000
471.118; 1092.325;11174.000;10711.000

