
Integration time [ms]: 100.000
Averaging Nr. [scans]: 40
Smoothing Nr. [pixels]: 0
Data measured with spectrometer [name]: 2101012U2
Wave   ;Sample   ;Dark     ;Reference
[nm]   ;[counts] ;[counts] ;[counts] 

197.733;   60.975;  516.000;  404.000
197.879;  -83.400; -610.000; -634.000
198.025;  -42.950; -475.000; -420.000
198.171;  -73.050; -602.000; -612.000
198.317;  -43.875; -401.000; -316.000
198.463;  -54.775; -655.000; -404.000
198.609;   18.875;  181.000; -137.000
198.755;  -69.350; -644.000; -410.000
198.901;  -73.775; -505.000; -424.000
199.047;  -58.675; -615.000; -488.000
199.193;  -38.575; -230.000; -468.000
199.339;  -51.650; -222.000; -369.000
199.485;   36.475;  330.000;  271.000
199.631;   23.300;  227.000;  310.000
199.777;  -68.775; -466.000; -398.000
199.923;  -59.350; -610.000; -424.000
200.069;  -11.850; -141.000;  -58.000
200.215;   51.850;  128.000;  453.000
200.361;   26.475;  243.000;  477.000
200.507;  -57.300; -600.000; -373.000
200.653;  -33.575; -371.000; -194.000
200.798;  -37.025; -215.000; -125.000
200.944;  -17.100; -146.000;  -41.000
201.090;   42.300;   61.000;  222.000
201.236;   -8.450; -116.000; -158.000
201.382;  125.850;  874.000;  903.000
201.528;   -4.225;  -58.000;  -48.000
201.674;  -54.150; -386.000; -293.000
201.819;  -62.525; -540.000; -439.000
201.965;  -79.950; -699.000; -447.000
202.111;  -31.450; -273.000; -226.000
202.257;  -42.125; -250.000; -238.000
202.402;    0.775;   13.000;  -36.000
202.548;  -33.050; -169.000; -116.000
202.694;   71.150;  410.000; -183.000
202.840;  -71.850; -603.000; -531.000
202.985;  -97.175; -681.000; -639.000
203.131;  -99.450; -832.000; -666.000
203.277;  -31.000; -199.000; -262.000
203.423;  -55.000; -434.000; -520.000
203.568;  -52.275; -462.000; -237.000
203.714;  -65.025; -535.000; -542.000
203.860;  -91.725; -682.000; -641.000
204.005;   28.275;  112.000;  167.000
204.151;   73.050;  561.000;  556.000
204.296;  -29.750; -354.000; -221.000
204.442;  -87.275; -600.000; -547.000
204.588;  -76.775; -592.000; -579.000
204.733;   21.275;  178.000;  168.000
204.879; -123.675;-1018.000; -822.000
205.025;   -1.325;  -99.000;  126.000
205.170;    9.350;  -17.000;   94.000
205.316;   72.050;  438.000;  661.000
205.461;  -85.925; -698.000; -554.000
205.607;   75.825;  609.000;  665.000
205.752;  -74.275; -626.000; -551.000
205.898;  -62.625; -501.000; -391.000
206.043;  -55.550; -578.000; -506.000
206.189;  -58.875; -243.000; -285.000
206.334;   79.925;  554.000;  606.000
206.480;   69.550;  409.000;  239.000
206.625;  -90.900; -529.000; -552.000
206.771;  -59.675; -451.000; -373.000
206.916;  -31.300; -210.000; -537.000
207.062;  -89.175; -545.000; -591.000
207.207;  -61.375; -546.000; -443.000
207.353;   53.775;  185.000;  460.000
207.498;   19.400;  196.000;   85.000
207.643;  -56.950; -501.000; -370.000
207.789; -117.100;-1069.000; -910.000
207.934; -109.625; -665.000; -713.000
208.080;  -23.575; -154.000;   66.000
208.225;  -12.450;  -22.000;  -57.000
208.370;  -84.750; -727.000; -619.000
208.516;  -82.075; -741.000; -487.000
208.661;  -22.125; -127.000;  -69.000
208.806;  -32.925; -165.000; -171.000
208.952; -130.400;-1044.000; -731.000
209.097;   65.450;  378.000;  349.000
209.242;  -49.000; -307.000; -382.000
209.387;   67.550;  392.000;  350.000
209.533;  -51.475; -321.000; -350.000
209.678;   75.800;  472.000;  543.000
209.823;  -59.600; -408.000; -310.000
209.969; -107.300; -860.000; -757.000
210.114; -100.425; -907.000; -719.000
210.259; -109.475; -939.000; -889.000
210.404;  -19.225; -171.000;  103.000
210.549;    2.575;  108.000;    3.000
210.695;  -12.650;   -3.000;  -95.000
210.840;   35.475;   94.000;   67.000
210.985;  -67.700; -484.000; -303.000
211.130;   68.675;  268.000;  406.000
211.275;   13.250;  207.000;  199.000
211.420;  -59.550; -300.000; -289.000
211.566;  -69.000; -536.000; -489.000
211.711;   36.650;  218.000;  157.000
211.856;  -74.050; -545.000; -519.000
212.001;   -0.725;  151.000;   44.000
212.146;   44.600;  153.000;   49.000
212.291;  -33.725; -210.000; -186.000
212.436;  -25.950; -280.000;   -6.000
212.581; -105.650; -685.000; -653.000
212.726;  -77.400; -487.000; -538.000
212.871;  -57.650; -552.000; -217.000
213.016; -148.425;-1172.000;-1029.000
213.161;   56.575;  406.000;  291.000
213.306;  -75.650; -435.000; -577.000
213.451;  -95.775; -778.000; -689.000
213.596;  -46.100; -455.000; -347.000
213.741;  -61.050; -448.000; -538.000
213.886;  -73.500; -498.000; -517.000
214.031;  -27.000; -294.000; -124.000
214.176;  -50.350; -408.000; -341.000
214.321;  -15.075; -296.000; -157.000
214.466;  -20.600; -163.000;  -43.000
214.611;   -7.650;  -61.000;  -10.000
214.756; -112.450; -948.000; -858.000
214.901;  -35.550; -388.000; -226.000
215.046; -113.125; -797.000; -825.000
215.191;    9.875;  128.000;   35.000
215.336;  -10.625; -157.000;  -19.000
215.480;  -80.125; -684.000; -505.000
215.625;  -27.250; -175.000;  -19.000
215.770; -103.550; -757.000; -662.000
215.915;    4.800;   -5.000;  -97.000
216.060;   -3.100; -113.000;  -21.000
216.205; -106.200; -731.000; -779.000
216.349;  -67.075; -470.000; -533.000
216.494; -125.475; -939.000; -867.000
216.639; -127.250; -823.000; -888.000
216.784;  -88.050; -577.000; -525.000
216.929;   39.750;  392.000;  281.000
217.073;  -10.150; -244.000;  -31.000
217.218;   -7.550;   78.000;  -47.000
217.363;  -88.775; -656.000; -618.000
217.507;  -79.825; -623.000; -588.000
217.652; -130.075; -845.000; -874.000
217.797;  -93.250; -708.000; -659.000
217.942; -108.450; -856.000; -720.000
218.086;   66.700;  608.000;  539.000
218.231;  -10.200; -174.000;  -26.000
218.376;  -35.525; -337.000; -229.000
218.520;   -8.200;  -41.000;   96.000
218.665;  -36.100; -338.000; -204.000
218.810;  -47.900; -275.000; -233.000
218.954;    8.125;  201.000;   35.000
219.099; -115.700; -713.000; -963.000
219.243;  -78.600; -589.000; -554.000
219.388;  -28.575; -264.000; -136.000
219.532;  -10.925; -116.000; -116.000
219.677;  -77.950; -564.000; -521.000
219.822;   -1.900;   33.000;   89.000
219.966;   -7.700;   17.000;  -99.000
220.111;  -32.175; -328.000;  -40.000
220.255;  -95.925; -797.000; -750.000
220.400;  -23.300; -180.000; -146.000
220.544;  -86.300; -516.000; -450.000
220.689;  -44.825; -422.000; -451.000
220.833;  -18.650; -123.000;  -58.000
220.978;  -58.225; -393.000; -563.000
221.122;   10.000;  319.000;  307.000
221.267; -122.875; -906.000; -837.000
221.411;  -62.475; -478.000; -394.000
221.555;   -7.825; -104.000;  -23.000
221.700;  -45.425; -329.000; -222.000
221.844;   35.050;  255.000;  272.000
221.989;  -53.150; -328.000; -311.000
222.133;  -45.875; -289.000; -307.000
222.277;   -8.875;    5.000;   78.000
222.422;   17.300;  227.000;  113.000
222.566;  -28.675; -381.000; -214.000
222.711;  -58.175; -414.000; -479.000
222.855;  -84.475; -643.000; -586.000
222.999;  -98.625; -642.000; -717.000
223.144;  -34.250; -195.000; -194.000
223.288;   35.125;  423.000;  251.000
223.432;   33.000;  184.000;  230.000
223.576;   20.100;  152.000;  -21.000
223.721;   44.850;  364.000;  273.000
223.865;  -70.850; -472.000; -475.000
224.009;  258.225; 1673.000; 1631.000
224.153;  -80.325; -660.000; -671.000
224.298;  -73.100; -531.000; -489.000
224.442;   -4.125;  -74.000;  -33.000
224.586;  -15.725; -169.000; -106.000
224.730; -116.775; -858.000; -670.000
224.875; -121.175; -739.000; -688.000
225.019;   15.525;  102.000;  188.000
225.163;   59.050;  208.000;  341.000
225.307;   11.650;   97.000;  -91.000
225.451;   48.900;  360.000;  481.000
225.595;   25.100;  264.000;  176.000
225.739;  -21.975; -170.000;  -94.000
225.884;  -12.350;   86.000;    5.000
226.028;  -95.600; -760.000; -626.000
226.172;  -57.950; -260.000; -273.000
226.316; -124.000; -941.000; -902.000
226.460;  -71.600; -645.000; -493.000
226.604;  -48.300; -406.000; -400.000
226.748; -112.500; -836.000; -733.000
226.892;  -42.000; -227.000; -181.000
227.036;  -56.550; -537.000; -447.000
227.180;  -58.050; -551.000; -375.000
227.324;  -81.375; -561.000; -580.000
227.468; -113.775; -819.000; -717.000
227.612;    7.900;  242.000;  -28.000
227.756; -113.475; -845.000; -698.000
227.900;   40.125;  342.000;  441.000
228.044;  -60.025; -509.000; -290.000
228.188;   57.050;  448.000;  568.000
228.332;  -90.450; -546.000; -472.000
228.476;  -25.125; -223.000; -149.000
228.620;  -22.150; -210.000; -150.000
228.764;   62.350;  431.000;  349.000
228.908;  -11.950; -155.000;   30.000
229.052;  -67.300; -615.000; -528.000
229.195;  -18.925; -172.000;   13.000
229.339;  -25.825; -235.000; -305.000
229.483;  -20.675;    5.000; -162.000
229.627;   -3.350; -156.000;  139.000
229.771;  -59.975; -218.000; -294.000
229.915;    9.400;  230.000;   79.000
230.059;  -83.775; -648.000; -663.000
230.202;  -54.950; -370.000; -317.000
230.346;   -8.875; -107.000;  107.000
230.490;  -82.075; -489.000; -521.000
230.634; -100.800; -736.000; -553.000
230.777;   70.400;  478.000;  509.000
230.921;  -71.425; -450.000; -359.000
231.065;  -51.950; -246.000; -286.000
231.209;   39.750;  261.000;  265.000
231.352;    8.125;   54.000;   40.000
231.496;   16.850;  568.000;  188.000
231.640;  -82.150; -693.000; -621.000
231.783;   59.475;  546.000;  525.000
231.927;  -52.200; -294.000; -365.000
232.071; -125.700; -962.000; -736.000
232.214; -122.850; -980.000; -764.000
232.358;  -92.700; -683.000; -599.000
232.502;   -2.925;  -19.000;    7.000
232.645; -135.150;-1090.000; -927.000
232.789;  -29.675; -257.000; -218.000
232.933;  -29.975; -407.000; -224.000
233.076; -139.375;-1038.000; -897.000
233.220; -115.500; -752.000; -777.000
233.363;  -79.975; -669.000; -477.000
233.507;   64.100;  371.000;  129.000
233.650; -103.100; -764.000; -834.000
233.794;   52.375;  438.000;  461.000
233.938;  -65.425; -530.000; -362.000
234.081;  -12.625;  -93.000;   31.000
234.225;  -73.100; -631.000; -539.000
234.368; -109.575; -773.000; -723.000
234.512;  -58.300; -385.000; -299.000
234.655;  -79.725; -582.000; -555.000
234.798;  -83.300; -493.000; -466.000
234.942; -121.225; -884.000;-1002.000
235.085;  -83.050; -651.000; -443.000
235.229;  -77.675; -405.000; -410.000
235.372;  -65.375; -247.000; -191.000
235.516;  -65.575; -397.000; -321.000
235.659;   12.125;   92.000;  121.000
235.802;  -28.275;  -38.000;  -22.000
235.946;   23.625;  335.000;  215.000
236.089;   32.675;  126.000;  250.000
236.233;   47.375;  275.000;  298.000
236.376;  -51.300; -235.000; -378.000
236.519;  -44.300; -297.000; -319.000
236.663;  -25.400; -215.000; -117.000
236.806; -158.550;-1029.000; -999.000
236.949;   52.175;  543.000;  431.000
237.092;   42.675;  412.000;  391.000
237.236;  -92.950; -589.000; -502.000
237.379;   62.875;  352.000;  428.000
237.522; -124.075; -879.000; -768.000
237.666;  -21.575; -271.000;   18.000
237.809; -131.250; -851.000; -823.000
237.952;   35.175;  469.000;  271.000
238.095;  -59.900; -447.000; -442.000
238.238;   76.425;  688.000;  700.000
238.382;    5.650;  166.000;  103.000
238.525;  -74.450; -598.000; -511.000
238.668; -129.750;-1060.000; -985.000
238.811;  -86.800; -638.000; -643.000
238.954;  -55.775; -483.000; -334.000
239.097;   80.550;  617.000;  664.000
239.241;   30.425;  394.000;  326.000
239.384;  -43.400; -254.000; -214.000
239.527;  -60.450; -424.000; -224.000
239.670; -145.975; -994.000;-1091.000
239.813; -108.700; -696.000; -658.000
239.956;   75.100;  579.000;  473.000
240.099; -110.100; -778.000; -725.000
240.242;   58.025;  428.000;  432.000
240.385;   53.825;  466.000;  450.000
240.528;  -80.750; -706.000; -473.000
240.671;   17.675;  189.000;  134.000
240.814;  -43.925; -441.000; -158.000
240.957;  -90.100; -767.000; -578.000
241.100; -108.950; -779.000; -755.000
241.243; -162.550;-1234.000; -893.000
241.386;  -69.725; -508.000; -379.000
241.529;  -92.250; -735.000; -547.000
241.672;  -70.950; -566.000; -495.000
241.815; -123.050; -832.000; -808.000
241.958;  -23.450; -125.000; -182.000
242.101;  -78.650; -545.000; -390.000
242.244;  -45.050; -270.000; -325.000
242.387;  -33.650; -304.000; -246.000
242.530;   60.525;  470.000;  134.000
242.673;  -50.875; -381.000; -309.000
242.815; -124.600; -925.000; -899.000
242.958;  -75.625; -482.000; -381.000
243.101;   -2.100;  132.000;  187.000
243.244;  -83.200; -564.000; -521.000
243.387;  -56.325; -313.000; -316.000
243.530;  -91.350; -657.000; -674.000
243.672;   -4.200;   43.000;  -92.000
243.815;  -62.125; -355.000; -283.000
243.958;   -5.800;   98.000;  -26.000
244.101;   11.675;   59.000;  -16.000
244.243;  -31.475;  -47.000;  101.000
244.386; -119.950; -761.000; -630.000
244.529;  -28.425; -132.000; -139.000
244.672; -167.725;-1154.000; -951.000
244.814; -108.500; -621.000; -794.000
244.957;  -55.350; -380.000; -304.000
245.100;  -72.500; -489.000; -489.000
245.242;  -60.125; -387.000; -374.000
245.385;  -19.950;  -59.000;  -39.000
245.528; -126.975; -871.000; -705.000
245.670;   86.925;  612.000;  634.000
245.813;  -88.800; -599.000; -547.000
245.956;  -31.050; -324.000; -275.000
246.098;  -75.125; -508.000; -650.000
246.241;  -17.525;  194.000;   48.000
246.383;   -8.875; -119.000;  -73.000
246.526;  -89.500; -454.000; -525.000
246.669; -125.175; -889.000; -780.000
246.811;   14.950;  172.000;   -1.000
246.954;  -71.575; -512.000; -426.000
247.096;  -29.300;  -84.000;   -6.000
247.239;  -70.000; -482.000; -445.000
247.381;  -77.950; -647.000; -488.000
247.524;   81.075;  645.000;  679.000
247.666;  -25.850;   58.000;   11.000
247.809; -109.475; -887.000; -691.000
247.951;  -11.400;  -75.000;  138.000
248.094;   34.050;  432.000;  308.000
248.236; -171.875;-1262.000;-1238.000
248.378;   13.350; -356.000;  -81.000
248.521;  -23.800; -334.000; -337.000
248.663;  -34.050; -236.000; -267.000
248.806;  -22.450; -300.000; -266.000
248.948;  -98.375; -886.000; -763.000
249.090;  -46.225; -428.000; -398.000
249.233;  -43.325; -344.000; -381.000
249.375;  -68.875; -474.000; -451.000
249.518;  -24.650;  -83.000; -133.000
249.660;    0.925; -103.000;    3.000
249.802; -173.225;-1303.000;-1189.000
249.945;  -79.875; -612.000; -540.000
250.087; -117.300; -834.000; -768.000
250.229;  -60.175; -362.000; -480.000
250.371;  -84.875; -494.000; -439.000
250.514;  -66.275; -310.000; -244.000
250.656;  -42.650;   69.000;  102.000
250.798; -137.100; -849.000; -800.000
250.940;  -60.750; -322.000; -322.000
251.083;  -48.625; -335.000; -111.000
251.225;   72.475;  338.000;  310.000
251.367;  -55.250; -274.000; -373.000
251.509;  -31.175; -265.000; -210.000
251.651;  -94.750; -731.000; -671.000
251.794;   52.000;  538.000;  632.000
251.936; -126.400; -821.000; -747.000
252.078;  -73.300; -540.000; -461.000
252.220;  -91.525; -645.000; -477.000
252.362;   85.000;  344.000;  462.000
252.504;  -72.650; -677.000; -584.000
252.646; -109.150; -875.000; -722.000
252.788;  -11.300;   14.000; -128.000
252.931;  -38.425; -257.000; -253.000
253.073;  -45.025; -376.000; -317.000
253.215;   -4.700;  141.000;  122.000
253.357;  -26.400;   82.000; -153.000
253.499;  -40.725; -374.000; -234.000
253.641; -104.625; -749.000; -594.000
253.783;  -92.600; -609.000; -527.000
253.925;  -88.875; -586.000; -591.000
254.067; -110.550; -744.000; -667.000
254.209;  -38.175; -391.000; -259.000
254.351; -140.700; -865.000; -883.000
254.493;  -70.950; -441.000; -417.000
254.635; -118.525; -936.000; -818.000
254.777; -113.225; -752.000; -687.000
254.918;  -63.475; -512.000; -430.000
255.060;  -67.925; -551.000; -395.000
255.202;  -68.325; -473.000; -261.000
255.344;  -87.575; -658.000; -455.000
255.486;  -69.525; -471.000; -406.000
255.628; -135.200; -780.000; -781.000
255.770;  -97.900; -676.000; -536.000
255.912;  -75.100; -559.000; -468.000
256.053; -100.400; -730.000; -508.000
256.195;  136.175; 1008.000;  903.000
256.337; -115.775; -861.000; -595.000
256.479;   51.575;  532.000;  416.000
256.621;  -46.975; -394.000; -212.000
256.762; -109.425; -789.000; -742.000
256.904;   49.975;  485.000;  487.000
257.046;  -51.950; -381.000; -271.000
257.188;  -32.750; -351.000; -264.000
257.329;  -82.025; -525.000; -464.000
257.471; -123.850; -939.000; -807.000
257.613;  -74.000; -584.000; -498.000
257.755; -154.725;-1073.000; -982.000
257.896;   30.225;  286.000;  392.000
258.038;  -76.100; -403.000; -352.000
258.180;  -51.850; -354.000; -279.000
258.321;  -79.625; -581.000; -457.000
258.463;    0.600;  -71.000;  133.000
258.605;  -94.675; -562.000; -570.000
258.746; -121.975; -886.000; -772.000
258.888; -147.200;-1026.000;-1020.000
259.029;    6.175;  121.000;   -8.000
259.171;  -83.975; -614.000; -550.000
259.313;  -10.525;  -49.000;  -47.000
259.454;  -68.250; -536.000; -414.000
259.596;  -68.825; -483.000; -390.000
259.737;  -75.325; -590.000; -474.000
259.879;   31.300;  217.000;  311.000
260.020;   88.525;  901.000;  636.000
260.162;  -50.675; -146.000; -253.000
260.303; -113.700; -768.000; -687.000
260.445;  -87.900; -609.000; -613.000
260.586;   26.625;  392.000;  157.000
260.728;  -56.300; -360.000; -248.000
260.869; -107.725; -350.000; -343.000
261.011;   78.475;  706.000;  537.000
261.152;  -57.975; -479.000; -319.000
261.293;  -82.925; -576.000; -595.000
261.435;  -36.525; -219.000; -184.000
261.576;  -54.700; -455.000; -325.000
261.718;   35.050;  420.000;  470.000
261.859; -139.900; -940.000; -949.000
262.000; -134.275; -951.000;-1016.000
262.142;  -39.300;  -52.000;  -60.000
262.283; -118.875; -808.000; -691.000
262.424; -104.425; -666.000; -625.000
262.566; -152.650;-1161.000; -983.000
262.707; -119.200; -840.000; -830.000
262.848; -123.325; -769.000; -726.000
262.990;  -48.450; -362.000; -345.000
263.131;   83.925;  650.000;  681.000
263.272;   -5.550;  -61.000;  -41.000
263.413;  -93.925; -589.000; -561.000
263.555;  -69.125; -669.000; -143.000
263.696;  -75.075; -550.000; -641.000
263.837;  -69.700; -449.000; -551.000
263.978;    4.950;   -5.000;  -77.000
264.119;  -59.850; -283.000; -264.000
264.261; -112.800; -847.000; -630.000
264.402;  -19.250;   33.000;   40.000
264.543;  -84.175; -509.000; -524.000
264.684;  -12.675;   61.000;  -50.000
264.825;  -69.300; -816.000; -538.000
264.966;  -16.325;  -84.000;  -67.000
265.107; -120.800; -646.000; -670.000
265.248; -129.200; -825.000; -812.000
265.390;  -14.400;  152.000;   -9.000
265.531;  -22.150; -238.000; -107.000
265.672;  -94.125; -557.000; -630.000
265.813;   51.725;  563.000;  439.000
265.954; -139.525; -959.000; -940.000
266.095;  -36.400; -372.000; -322.000
266.236;  -99.350; -686.000; -548.000
266.377;  -44.775; -243.000; -297.000
266.518;  -74.800; -619.000; -547.000
266.659;   18.000;  170.000;  268.000
266.800;    3.000;   83.000;   85.000
266.941;  -95.675; -487.000; -478.000
267.082;   21.450;  354.000;   99.000
267.223;  -57.125; -344.000; -273.000
267.364; -117.975; -892.000; -686.000
267.504;  -38.150;    3.000;  135.000
267.645;   -6.700;  160.000;   67.000
267.786;  -39.625; -147.000;  -86.000
267.927;  -73.875; -473.000; -379.000
268.068;  -18.500; -186.000;  -61.000
268.209;  -42.500; -175.000; -413.000
268.350;  -77.350; -388.000; -532.000
268.490;  -88.850; -648.000; -521.000
268.631;   16.100;  127.000;  225.000
268.772; -110.500; -874.000; -647.000
268.913;  -55.975; -328.000; -476.000
269.054;  -11.000; -117.000;   12.000
269.194;  -52.875; -418.000; -402.000
269.335; -148.250;-1137.000;-1074.000
269.476;  -29.300;   33.000;  -35.000
269.617;  -52.925; -347.000; -392.000
269.757; -101.300; -713.000; -646.000
269.898; -103.850; -856.000; -613.000
270.039;  -78.325; -415.000; -405.000
270.180; -128.375; -952.000; -816.000
270.320;  -25.425; -190.000; -250.000
270.461;  -46.875; -277.000; -249.000
270.602;  -33.050; -186.000; -156.000
270.742; -135.150; -868.000; -943.000
270.883;  -64.000; -442.000; -390.000
271.023;  -65.900; -358.000; -357.000
271.164;  -91.400; -607.000; -528.000
271.305;  -96.000; -666.000; -654.000
271.445; -101.775; -722.000; -683.000
271.586;  -73.775; -462.000; -283.000
271.726;  -54.350; -397.000; -322.000
271.867;  -49.025; -594.000; -534.000
272.008;  176.775; -473.000; -285.000
272.148;  139.575;  462.000;  468.000
272.289;    8.725; -113.000; -181.000
272.429;   21.600;   19.000;  185.000
272.570; -107.400; -633.000; -737.000
272.710;  -97.975; -825.000; -775.000
272.851;  -46.500;  113.000; -130.000
272.991; -156.525;-1173.000;-1077.000
273.131;  -80.250; -419.000; -459.000
273.272; -101.300; -683.000; -723.000
273.412;    1.375; -143.000;  -31.000
273.553;  -59.075; -488.000; -507.000
273.693;  137.625;  913.000;  858.000
273.834;  -86.250; -894.000; -692.000
273.974;  -82.475; -664.000; -615.000
274.114;  -87.225; -772.000; -560.000
274.255;   65.750;  414.000;  373.000
274.395;   15.475; -180.000; -125.000
274.535;   31.025;  199.000;  350.000
274.676;   36.200;  225.000;   94.000
274.816;    4.900;  110.000;   34.000
274.956;  -87.225; -624.000; -690.000
275.097;  -85.550;-1014.000; -922.000
275.237; -101.800; -913.000; -803.000
275.377; -107.100; -778.000; -689.000
275.517; -140.650; -878.000; -937.000
275.658;  -65.125; -590.000; -555.000
275.798;  -79.525; -606.000; -413.000
275.938;   14.550;  215.000;  323.000
276.078; -101.200; -626.000; -395.000
276.218;   -0.775;   99.000;  104.000
276.359; -127.775;-1026.000;-1024.000
276.499;  -80.100; -605.000; -446.000
276.639;  -41.900; -305.000; -151.000
276.779;  -62.325; -475.000; -357.000
276.919; -107.400; -783.000; -624.000
277.059;  -33.950; -261.000; -212.000
277.199;  -49.625; -357.000; -259.000
277.340;   28.050;  287.000;  175.000
277.480; -113.525; -840.000; -693.000
277.620;    7.950;  192.000;   16.000
277.760; -192.925;-1533.000;-1294.000
277.900;    5.625;  113.000;   33.000
278.040;   26.975;  137.000;  159.000
278.180;   41.650;  270.000;  170.000
278.320;  -13.825;   21.000;   56.000
278.460;  -70.275; -443.000; -469.000
278.600;  -89.775; -708.000; -598.000
278.740;   48.725;  448.000;  224.000
278.880;  -48.000; -768.000; -791.000
279.020;  -16.700; -194.000; -144.000
279.160;  -94.500; -672.000; -595.000
279.300; -109.400; -926.000; -873.000
279.440;  -91.500; -709.000; -622.000
279.579;   -3.350;-1014.000; -929.000
279.719;  -35.900; -410.000; -394.000
279.859;   70.250;   -4.000;   41.000
279.999;   41.825; -208.000;  101.000
280.139;  -25.800; -435.000; -387.000
280.279;  -57.725; -708.000; -745.000
280.419;  -23.700; -229.000; -147.000
280.559;  -36.350; -259.000; -180.000
280.698;  -96.075; -790.000; -639.000
280.838;  -87.350; -778.000; -800.000
280.978; -119.200; -846.000; -790.000
281.118; -118.950; -811.000; -704.000
281.257;    2.925;   24.000;    6.000
281.397; -115.925;-1094.000; -960.000
281.537;  -79.350; -599.000; -712.000
281.677;  -22.600; -150.000; -101.000
281.816; -102.800; -700.000; -630.000
281.956;  -42.950; -193.000; -257.000
282.096;  -72.275; -539.000; -396.000
282.235; -101.800; -672.000; -638.000
282.375;  -25.600; -243.000;  -98.000
282.515;  -91.075; -715.000; -707.000
282.654;   17.500;   29.000;  106.000
282.794;   23.475;  388.000;  244.000
282.934;  -61.350; -530.000; -491.000
283.073; -139.250;-1030.000; -857.000
283.213;  -65.400; -460.000; -467.000
283.353;  -31.250; -408.000; -349.000
283.492;  -34.525; -264.000; -296.000
283.632;  -53.675; -254.000; -168.000
283.771; -105.400; -859.000; -730.000
283.911;  -51.825; -369.000; -260.000
284.050; -118.550; -794.000; -748.000
284.190; -151.250;-1229.000;-1096.000
284.329; -151.125;-1055.000; -964.000
284.469;  -53.150; -516.000; -591.000
284.608;  -64.300; -559.000; -598.000
284.748;  -84.000; -614.000; -570.000
284.887;  -13.425;  -87.000;  -20.000
285.027; -114.775; -844.000; -892.000
285.166;  -40.125; -192.000; -249.000
285.306;    2.625; -116.000;  -33.000
285.445;  -49.050; -229.000; -343.000
285.584;  -86.025; -630.000; -494.000
285.724;  -56.000; -282.000; -322.000
285.863; -115.250; -857.000; -507.000
286.002;  -68.825; -366.000; -276.000
286.142; -115.625; -715.000; -622.000
286.281;  -74.775; -525.000; -493.000
286.420;  -80.525; -554.000; -417.000
286.560;  107.375;  653.000;  623.000
286.699; -136.250; -958.000; -912.000
286.838;  -93.200; -590.000; -591.000
286.978;  -78.125; -533.000; -537.000
287.117; -152.175;-1085.000; -950.000
287.256;  -37.975; -228.000; -211.000
287.395;  -64.200; -197.000; -378.000
287.535;  -48.875; -370.000; -298.000
287.674;  -77.100; -509.000; -484.000
287.813;   61.500;  661.000;  533.000
287.952; -148.025;-1010.000; -871.000
288.091; -148.200;-1049.000; -915.000
288.231;   12.725;   13.000;   15.000
288.370; -172.725;-1217.000;-1200.000
288.509; -101.375; -728.000; -645.000
288.648;  -93.875; -770.000; -548.000
288.787;  -36.075; -243.000;  -87.000
288.926;  -60.725; -454.000; -475.000
289.065;  112.200;  859.000;  672.000
289.204;  -44.350; -377.000; -217.000
289.344; -104.225; -791.000; -690.000
289.483;   13.675;  416.000;  304.000
289.622;  -23.300; -291.000; -149.000
289.761;   -6.250; -309.000; -166.000
289.900; -114.225; -785.000; -626.000
290.039;  -21.475;  -12.000;  -95.000
290.178;  -51.925; -274.000; -180.000
290.317;  -92.000; -618.000; -479.000
290.456;  -69.325; -463.000; -451.000
290.595; -152.475; -961.000; -833.000
290.734; -152.425; -904.000; -891.000
290.873;  -69.775; -456.000; -420.000
291.011; -118.600; -833.000; -843.000
291.150; -106.975; -770.000; -682.000
291.289;  -27.675; -343.000; -110.000
291.428;  -91.325; -599.000; -480.000
291.567;  -73.625; -370.000; -442.000
291.706;   -5.725;  109.000;  154.000
291.845;  -95.000; -597.000; -505.000
291.984; -156.675;-1234.000;-1061.000
292.122;   78.175;  602.000;  582.000
292.261;   47.750;  620.000;  463.000
292.400;    3.750; -144.000;  211.000
292.539; -123.900; -959.000; -813.000
292.678;  -47.950; -325.000; -300.000
292.816; -165.350;-1136.000; -965.000
292.955;  -96.100; -844.000; -684.000
293.094;  -26.300; -173.000; -337.000
293.233;  -62.875; -556.000; -400.000
293.371;  -41.050; -225.000;  -84.000
293.510; -114.150; -866.000; -780.000
293.649; -124.325; -959.000; -924.000
293.787;  -55.475;-1083.000;-1012.000
293.926;   -7.375; -113.000;  -32.000
294.065;  -62.225; -379.000; -290.000
294.203;   58.325;  298.000;  406.000
294.342;   22.350;   74.000;  156.000
294.481; 5715.250;51180.000; -836.000
294.619;  -38.600; -425.000; -582.000
294.758; -140.375;-1230.000;-1137.000
294.896;   67.125; -125.000;    5.000
295.035; -113.775;-1040.000;-1006.000
295.174; -124.750;-1082.000; -954.000
295.312;  -31.075; -323.000; -203.000
295.451;  -10.725; -307.000; -428.000
295.589;  -53.250; -389.000; -518.000
295.728;   13.750; -292.000; -165.000
295.866;   -7.125;  -36.000;  -51.000
296.005;  -66.300; -584.000; -341.000
296.143;  -62.275; -558.000; -596.000
296.282; -104.525; -957.000; -881.000
296.420;  -84.075; -657.000; -557.000
296.559;  -79.650; -892.000; -633.000
296.697;   37.075; -847.000; -665.000
296.835;   67.775;-1141.000;-1002.000
296.974;   56.550;  -23.000;   39.000
297.112;   -6.700; -443.000; -504.000
297.251;  -76.525; -815.000; -755.000
297.389;  105.425; -576.000; -438.000
297.527;   38.250; -145.000;  -83.000
297.666;  -44.275; -486.000; -438.000
297.804;  -52.800; -404.000; -264.000
297.942;  -30.425; -136.000; -161.000
298.081;   -3.050; -183.000;   63.000
298.219;   64.575;  -17.000;  -19.000
298.357;   57.875; -144.000;  -71.000
298.495;   43.250; -810.000; -812.000
298.634;   95.775;  245.000;  219.000
298.772;   76.375; -220.000; -338.000
298.910;  -24.525; -309.000; -182.000
299.048;  -16.850; -130.000; -153.000
299.187;  -32.350; -350.000; -250.000
299.325;   14.650;   52.000;  122.000
299.463;   68.300; -389.000; -299.000
299.601;  126.325; -327.000; -271.000
299.739;  -94.425; -908.000; -883.000
299.877;  -91.650; -791.000; -703.000
300.016;  -55.725;-1095.000; -935.000
300.154;  164.075;  -19.000; -161.000
300.292;   68.075; -428.000; -348.000
300.430;   30.425; -408.000; -291.000
300.568; -112.075; -940.000; -874.000
300.706;  -58.400; -366.000; -469.000
300.844;  -75.800;-1108.000; -979.000
300.982;  111.325;  246.000;  282.000
301.120; -108.650; -965.000; -866.000
301.258;  -61.425; -812.000; -705.000
301.396;   39.325;  104.000;  -41.000
301.534;   89.800; -218.000; -293.000
301.672;    2.675; -664.000; -521.000
301.810;   23.950; -613.000; -545.000
301.948;  114.250;   53.000;  149.000
302.086;  628.875; -250.000;  -32.000
302.224; 1036.100; -610.000; -585.000
302.362;   45.025; -558.000; -622.000
302.500;  -10.575; -923.000; -893.000
302.638;  113.175;  128.000;  245.000
302.776;    1.950; -352.000; -408.000
302.913;   46.200;  447.000;  236.000
303.051;   10.075;  -86.000;  -23.000
303.189;   41.700;   90.000;  118.000
303.327;  -30.650; -341.000; -256.000
303.465;  -91.000; -832.000; -588.000
303.603;  -85.975; -805.000; -604.000
303.740;   85.525;  417.000;  241.000
303.878;   26.650; -800.000; -759.000
304.016; -100.600; -915.000; -790.000
304.154; -130.625;-1123.000;-1152.000
304.291;  -37.275; -505.000; -554.000
304.429;   10.225;  102.000;   74.000
304.567; -142.400; -908.000; -893.000
304.705;  -55.575; -408.000; -515.000
304.842;  102.425; -616.000; -540.000
304.980;   63.375;  215.000;   35.000
305.118;   42.650; -367.000; -365.000
305.255;  -59.825; -945.000; -927.000
305.393;   47.575;  178.000;  239.000
305.531;  -91.075;-1173.000; -956.000
305.668;  -82.675; -663.000; -582.000
305.806;  111.950; -358.000; -439.000
305.943;  106.925; -629.000; -637.000
306.081;   77.725; -378.000; -267.000
306.219; -106.250; -863.000; -748.000
306.356;    5.825;  158.000;   27.000
306.494;  113.325;  981.000;  761.000
306.631;    6.850;  -11.000;  -55.000
306.769;   -9.775; -613.000; -485.000
306.906;  -16.625; -284.000; -258.000
307.044;  -64.625; -473.000; -488.000
307.181;  -82.025; -410.000; -332.000
307.319;   18.025;  112.000;   87.000
307.456; -158.900;-1191.000;-1153.000
307.594; -103.525; -980.000; -727.000
307.731;   -3.425; -371.000; -164.000
307.868;  -11.500;  -15.000;   20.000
308.006; -128.950; -961.000; -847.000
308.143;  -68.725; -618.000; -330.000
308.281;  145.075;  -37.000; -254.000
308.418;  -28.600; -748.000; -640.000
308.555;  -82.000; -400.000; -250.000
308.693;  -79.150; -577.000; -573.000
308.830; -100.800; -712.000; -657.000
308.967;  -20.500; -215.000;  -95.000
309.105;  -53.025; -507.000; -396.000
309.242;   27.600; -468.000; -367.000
309.379;  258.025; -577.000; -655.000
309.517;  -78.750; -936.000; -948.000
309.654; -102.425; -910.000; -734.000
309.791;  -85.100; -662.000; -580.000
309.928; -131.775; -977.000; -914.000
310.065;  181.475;  819.000;  697.000
310.203;   -3.875; -825.000; -850.000
310.340;  -12.350; -465.000; -321.000
310.477;  -74.600; -412.000; -516.000
310.614;  -70.250; -383.000; -473.000
310.751;  -67.075; -427.000; -518.000
310.889;  -31.150;    1.000;   11.000
311.026; -145.700;-1161.000; -939.000
311.163;  -59.950; -386.000; -380.000
311.300;  -66.000; -512.000; -479.000
311.437;  -86.550; -658.000; -619.000
311.574; -162.450;-1226.000; -985.000
311.711;  -52.975; -595.000; -433.000
311.848;  -40.425; -380.000; -388.000
311.985;   -3.900;  270.000;   93.000
312.122; -107.400; -932.000; -762.000
312.259; -136.050; -941.000; -994.000
312.396;  -84.250; -508.000; -551.000
312.533;  -94.775; -812.000; -790.000
312.670; -145.550;-1070.000; -898.000
312.807;  -40.325; -352.000; -367.000
312.944;  -76.850; -513.000; -611.000
313.081;  -41.800; -150.000; -415.000
313.218; -105.950;-1111.000; -867.000
313.355;    6.575; -531.000; -449.000
313.492;   18.950; -455.000; -292.000
313.629;  130.325;  815.000;  735.000
313.766; -152.150;-1176.000;-1008.000
313.902;  -17.100; -186.000;   21.000
314.039;  -45.925; -372.000; -289.000
314.176;   18.975;  286.000;  192.000
314.313;  -76.925; -569.000; -473.000
314.450;  -76.300; -788.000; -684.000
314.587;  -62.575; -468.000; -480.000
314.723;   -3.625;  -78.000;  130.000
314.860;   36.250;  318.000;  332.000
314.997;   24.450;  223.000;  142.000
315.134;  -26.500; -385.000; -368.000
315.270;  -27.975; -480.000; -496.000
315.407; -124.375;-1094.000; -967.000
315.544;  -62.825; -657.000; -538.000
315.681;  -70.125; -681.000; -565.000
315.817;   13.825; -133.000; -176.000
315.954;   15.550; -613.000; -392.000
316.091; -131.500;-1045.000;-1023.000
316.227;  -23.100;  -71.000; -179.000
316.364;  -10.525;   23.000;    6.000
316.500;  -50.375; -113.000; -300.000
316.637;  -50.025; -181.000; -302.000
316.774;  -85.400; -625.000; -358.000
316.910; -109.750; -598.000; -629.000
317.047;  -70.775; -487.000; -351.000
317.183;  -47.375; -435.000; -566.000
317.320;  -19.350; -367.000; -321.000
317.456;  -90.225; -733.000; -805.000
317.593;  -80.775; -598.000; -641.000
317.729;    3.000;  168.000;  -67.000
317.866; -200.075;-1434.000;-1285.000
318.002;  -96.775; -708.000; -948.000
318.139;  -86.900; -883.000; -867.000
318.275; -109.225;-1003.000; -738.000
318.412;  -71.550; -517.000; -336.000
318.548;  -40.125; -751.000; -720.000
318.685;  -86.925; -985.000; -888.000
318.821; -111.850; -762.000; -735.000
318.957;  -20.700;   34.000;  -23.000
319.094;   22.775;  297.000;  154.000
319.230;  -56.700; -756.000; -742.000
319.367;  118.675; -471.000; -520.000
319.503;   67.900; -538.000; -436.000
319.639; -103.025; -877.000; -793.000
319.775;  -69.950; -750.000; -685.000
319.912;  -57.125; -424.000; -519.000
320.048;  -87.975;-1184.000;-1184.000
320.184;   80.825;   59.000;   70.000
320.321;  -62.375; -497.000; -467.000
320.457;   48.100;  475.000;  662.000
320.593;  -67.775; -375.000; -382.000
320.729; -118.500; -732.000; -734.000
320.866;  -86.675; -577.000; -635.000
321.002;  -78.700; -759.000; -809.000
321.138;  -20.925; -135.000; -211.000
321.274;   66.100; -148.000; -115.000
321.410;  -26.850; -585.000; -353.000
321.546;  -46.825;-1011.000; -911.000
321.683;   59.225;  400.000;  185.000
321.819;   -4.400;  -48.000; -117.000
321.955; -103.900; -743.000; -722.000
322.091;  -51.650; -585.000; -540.000
322.227;   -1.075; -382.000; -202.000
322.363;  -26.975; -320.000; -215.000
322.499;  -46.000; -343.000; -331.000
322.635;  156.325;  636.000;  443.000
322.771;   23.900; -139.000;   12.000
322.907;   90.275;  129.000;  327.000
323.043;  -19.875; -115.000; -206.000
323.179;  -44.975; -394.000; -363.000
323.315;   33.325; -401.000; -371.000
323.451;   89.825; -328.000; -236.000
323.587;   73.525;  -60.000;  -77.000
323.723;   24.625; -682.000; -601.000
323.859;  -18.250; -258.000;  -76.000
323.995;  -39.375; -467.000; -409.000
324.131; -122.700; -967.000; -892.000
324.267;  -59.425; -254.000; -276.000
324.402; -132.725; -960.000; -983.000
324.538;  -18.500; -279.000; -104.000
324.674;   25.150;  164.000;   77.000
324.810;  134.750;  226.000;  308.000
324.946;   22.350; -810.000; -658.000
325.082;  -80.975; -568.000; -475.000
325.217;   -8.650;  -62.000;   16.000
325.353; -106.475; -764.000; -659.000
325.489;  -81.475; -540.000; -506.000
325.625;  -81.100; -579.000; -525.000
325.760;   63.300;  517.000;  376.000
325.896;  -34.175; -515.000; -702.000
326.032;  -54.125; -403.000; -352.000
326.168;  -70.375; -462.000; -369.000
326.303;  -60.125; -352.000; -461.000
326.439;  -35.150; -336.000; -276.000
326.575;   14.875; -190.000;  -29.000
326.710;  -20.350; -156.000;  -30.000
326.846;   -7.000;  146.000;  103.000
326.982;  -98.100; -530.000; -548.000
327.117;  -74.950; -481.000; -442.000
327.253; -108.475; -745.000; -742.000
327.388; -151.425;-1137.000;-1153.000
327.524;  -56.250; -811.000; -578.000
327.659;  -24.050;  -58.000;  -22.000
327.795;  -10.325;   69.000;   45.000
327.931;  -89.575; -723.000; -499.000
328.066;  -36.725; -417.000; -276.000
328.202;  -10.875;   12.000; -129.000
328.337;  104.275;  957.000;  713.000
328.473;   46.325;  -12.000;  -74.000
328.608;  -33.850; -256.000; -267.000
328.743;  -97.300; -799.000; -664.000
328.879;    5.850;  214.000;  114.000
329.014;  -45.800; -102.000; -122.000
329.150;  -92.975; -358.000; -483.000
329.285;  -75.375; -465.000; -466.000
329.421;  -68.325; -548.000; -246.000
329.556;  -27.875;  -36.000;   85.000
329.691; -107.875; -633.000; -615.000
329.827;  -97.475; -626.000; -480.000
329.962;  -49.325;  131.000; -301.000
330.097;  -97.125; -673.000; -585.000
330.233;  -59.175; -410.000; -223.000
330.368; -123.000; -839.000; -628.000
330.503;  -20.350;    3.000;   98.000
330.638;    3.250;  -93.000; -125.000
330.774;  -80.750; -609.000; -530.000
330.909;  -41.300; -434.000; -244.000
331.044; -101.675; -714.000; -708.000
331.179; -178.575;-1217.000;-1109.000
331.315;   -3.200;   77.000;   20.000
331.450;   15.475;  157.000;  285.000
331.585;  -82.575; -805.000; -706.000
331.720;  -93.750; -510.000; -460.000
331.855;  -15.825;  -35.000; -102.000
331.990;  221.925;   62.000;  138.000
332.126;  113.525; -110.000;   71.000
332.261;  -18.300; -379.000; -265.000
332.396;   -0.425; -135.000; -242.000
332.531; -114.325;-1074.000;-1031.000
332.666;   13.600; -519.000; -363.000
332.801; -103.675; -726.000; -807.000
332.936;  -38.350; -192.000; -122.000
333.071; -128.525; -870.000; -817.000
333.206;    8.350;  307.000;  379.000
333.341;   32.150;  344.000;  418.000
333.476;  -95.175; -627.000; -623.000
333.611;  -36.750; -251.000; -173.000
333.746;  -41.550; -381.000; -464.000
333.881; -119.575; -973.000; -935.000
334.016; -141.975; -936.000; -917.000
334.151; -123.800; -746.000; -702.000
334.286;   37.550;  152.000;  186.000
334.421;   -7.075; -125.000; -178.000
334.556;  -79.550; -611.000; -567.000
334.690;  -86.675; -631.000; -577.000
334.825;   58.000;  381.000;   83.000
334.960;  -62.375; -285.000; -413.000
335.095;    1.475;  135.000;  -91.000
335.230; -109.050; -722.000; -738.000
335.365; -142.800;-1084.000; -990.000
335.499; -134.825;-1108.000;-1037.000
335.634;   26.500;    9.000;  534.000
335.769;  -87.575; -755.000; -720.000
335.904;  -73.025; -603.000; -561.000
336.038;  -61.550; -735.000; -657.000
336.173; -130.475;-1206.000;-1194.000
336.308;   20.075; -116.000; -189.000
336.443;    4.300; -544.000; -634.000
336.577;  -75.375; -936.000; -787.000
336.712;   57.150;   -4.000;  -12.000
336.847;  -33.975; -724.000; -607.000
336.981;   82.925; -272.000; -208.000
337.116;  297.775;  615.000;  501.000
337.250;  162.525; -434.000; -421.000
337.385;  234.525; -297.000; -208.000
337.520;   59.750; -632.000; -603.000
337.654;  -38.850; -215.000; -126.000
337.789; -144.625; -989.000; -933.000
337.923;  -28.200; -104.000; -205.000
338.058; -104.200; -673.000; -738.000
338.192;  -31.625; -611.000; -488.000
338.327;  -15.825;  -18.000; -155.000
338.461;  -61.725; -299.000; -469.000
338.596;  -89.750; -780.000; -638.000
338.730; -107.700; -767.000; -803.000
338.865;   66.400;  -46.000; -140.000
338.999;  -56.775; -846.000; -702.000
339.134;  -35.850; -634.000; -536.000
339.268;   10.425; -741.000; -603.000
339.403;  337.050; -740.000; -775.000
339.537;   93.175; -894.000; -820.000
339.671; -127.375; -829.000; -813.000
339.806;  -59.550; -556.000; -512.000
339.940;    0.450; -261.000; -235.000
340.074;  -95.650; -685.000; -510.000
340.209;  -59.900; -351.000; -230.000
340.343;  -93.025; -517.000; -573.000
340.477;  144.225;  998.000; 1036.000
340.612;  -66.650;-1033.000; -900.000
340.746;  116.250; -199.000; -243.000
340.880;  -71.075; -924.000; -785.000
341.014;  -25.550;  -45.000; -154.000
341.149; -123.175; -756.000; -718.000
341.283; -120.625; -839.000; -754.000
341.417;  -82.150;-1124.000; -938.000
341.551;  149.275; -768.000; -708.000
341.685;  -26.100; -633.000; -611.000
341.820;  -68.525; -562.000; -493.000
341.954;  -38.900; -218.000; -349.000
342.088; -166.150;-1102.000;-1019.000
342.222;   65.000;  565.000;  618.000
342.356;  -66.025; -395.000; -335.000
342.490;  -77.400; -880.000; -841.000
342.624;  -42.200; -339.000; -242.000
342.758;    9.925; -364.000; -312.000
342.892;  -76.675; -710.000; -585.000
343.026;  -23.100;  -58.000; -116.000
343.160;  -73.000; -426.000; -376.000
343.294;  -80.800; -474.000; -337.000
343.428;  -31.075; -488.000; -448.000
343.562;   -4.625; -172.000;  -23.000
343.696;  -27.925; -385.000; -314.000
343.830;  -25.225; -362.000; -356.000
343.964;   13.100; -231.000; -168.000
344.098;  990.850;  199.000;   70.000
344.232;  821.050; -266.000; -127.000
344.366;   84.425; -567.000; -453.000
344.500;   41.000; -665.000; -744.000
344.634;   30.450; -324.000; -164.000
344.768;  -10.375; -531.000; -341.000
344.902;   22.550;  278.000;  256.000
345.035;  -87.600; -556.000; -496.000
345.169; -129.900; -933.000; -656.000
345.303;  -34.875; -308.000; -482.000
345.437;  -81.225; -826.000; -717.000
345.571; -100.850; -675.000; -594.000
345.704;  -64.375; -309.000; -532.000
345.838;  -27.525; -331.000; -284.000
345.972;  -45.275; -543.000; -495.000
346.106;  143.325; -179.000; -190.000
346.239;  435.900; -312.000; -243.000
346.373;   -2.975; -343.000; -302.000
346.507; -146.150; -950.000; -962.000
346.640;  154.225;  -30.000;   13.000
346.774;  -42.775; -650.000; -797.000
346.908;  -32.525; -138.000;  -11.000
347.041;  -94.550; -646.000; -593.000
347.175;   -5.825;  259.000;   27.000
347.309;  -75.400; -698.000; -628.000
347.442; -103.950; -883.000; -732.000
347.576;  299.025;  670.000;  668.000
347.709;  213.450; -123.000;  -52.000
347.843;  -80.975; -933.000; -825.000
347.976;   20.750;  235.000;  294.000
348.110; -180.150;-1268.000;-1186.000
348.243; -113.125; -679.000; -772.000
348.377;    5.000;  -26.000;   60.000
348.510;   46.300;  403.000;  540.000
348.644;  -40.125;  -37.000; -159.000
348.777;   -8.100;  180.000;  191.000
348.911;  -54.050; -142.000; -112.000
349.044;  170.400;  471.000;  448.000
349.178;  179.800;-1069.000;-1006.000
349.311;  102.600;  141.000;  255.000
349.444;  -17.700; -927.000; -813.000
349.578;  -25.325; -347.000; -200.000
349.711;  -93.875; -959.000; -862.000
349.845;   -8.225; -661.000; -591.000
349.978; -156.400;-1224.000;-1137.000
350.111;  -90.200; -546.000; -612.000
350.244;  -72.000; -596.000; -700.000
350.378;   -6.050; -392.000; -393.000
350.511;  -72.225; -393.000; -426.000
350.644; -120.700; -808.000; -806.000
350.778;    7.250;  168.000;  104.000
350.911;  -15.275;  134.000;  140.000
351.044; -106.675; -685.000; -615.000
351.177;  -37.500; -321.000; -281.000
351.310;   -5.475;    3.000; -131.000
351.444;  -76.050; -888.000; -788.000
351.577;  123.625;  140.000;   90.000
351.710;   94.450;  593.000;  417.000
351.843;  -37.825; -165.000;  -77.000
351.976;  -11.975;  149.000;  -79.000
352.109;  -83.675; -621.000; -612.000
352.242;  -24.250; -464.000; -419.000
352.376;  -53.225; -580.000; -636.000
352.509;  195.975; -437.000; -356.000
352.642;   32.400; -654.000; -604.000
352.775;   60.075; -141.000;  -98.000
352.908; -117.800; -933.000; -904.000
353.041; -128.175; -814.000; -824.000
353.174;  -68.850; -551.000; -424.000
353.307;  -80.850; -753.000; -764.000
353.440;   72.200;  541.000;  453.000
353.573; -115.550; -957.000;-1008.000
353.706;  -59.025; -384.000; -558.000
353.839;  -20.650; -264.000; -220.000
353.971; -105.150; -657.000; -512.000
354.104;  -89.750; -896.000; -835.000
354.237;  -39.025; -627.000; -662.000
354.370;  -91.525; -846.000; -879.000
354.503; -181.950;-1231.000;-1308.000
354.636;  -31.825; -529.000; -348.000
354.769; -121.450; -937.000; -860.000
354.902;  -19.350; -230.000; -139.000
355.034;  -11.100; -164.000; -220.000
355.167;  -28.975; -262.000; -162.000
355.300;  -91.325;-1061.000; -880.000
355.433;  937.500;  -71.000;  -14.000
355.565; 1418.025; -402.000; -384.000
355.698;  369.150; -356.000; -296.000
355.831;    1.650; -882.000; -801.000
355.964;   93.625; -285.000; -170.000
356.096;  -85.100; -856.000; -843.000
356.229;  -18.400; -523.000; -530.000
356.362;  292.850; -373.000; -266.000
356.494;  560.150; -229.000; -162.000
356.627;  511.100;  269.000;  377.000
356.760;  636.450;  120.000;   53.000
356.892;  891.825; -286.000; -601.000
357.025;  701.375;  403.000;  389.000
357.157;  652.650; -167.000; -179.000
357.290;  620.775; -856.000; -713.000
357.423;  169.625; -667.000; -556.000
357.555;  110.200; -217.000; -228.000
357.688;  143.600; -483.000; -364.000
357.820;  491.300; -870.000; -877.000
357.953; 3871.150; -563.000; -589.000
358.085;  860.875; -632.000; -612.000
358.218; 1268.850;-1131.000; -932.000
358.350;  232.950;  -58.000;  312.000
358.483; -119.175;-1300.000;-1187.000
358.615;  -18.775;-1182.000;-1078.000
358.747;  -46.975;-1187.000;-1058.000
358.880;   28.400; -810.000; -744.000
359.012;    7.775; -376.000; -202.000
359.145;  -52.450; -480.000; -511.000
359.277;   78.500; -962.000; -913.000
359.409; 3238.000;  536.000;  231.000
359.542;  809.975; -738.000; -688.000
359.674;   62.900;   46.000;   13.000
359.806;  -65.050; -565.000; -438.000
359.939;  -53.425; -617.000; -516.000
360.071;  -18.175; -583.000; -579.000
360.203;  -30.850; -411.000; -364.000
360.335;   47.125;  164.000;  -16.000
360.468;  193.800; -249.000; -307.000
360.600; 2591.250; -547.000; -454.000
360.732; 2664.325; -546.000; -423.000
360.864;  354.925;-1216.000;-1044.000
360.996;  306.975; -516.000; -554.000
361.129;   45.025; -389.000; -598.000
361.261;   15.300;  110.000; -113.000
361.393;  -31.825; -252.000; -214.000
361.525;   27.925;   94.000;  244.000
361.657;  -37.050; -821.000; -703.000
361.789;    8.225; -139.000; -155.000
361.921;  260.475; -642.000; -593.000
362.053;  262.625;  524.000;  541.000
362.185;   61.325;  288.000;   72.000
362.318;  -85.425; -709.000; -705.000
362.450;  129.350;  294.000;  444.000
362.582;  147.250; -913.000; -870.000
362.714;  -38.125; -353.000; -332.000
362.846;  -96.650; -606.000; -490.000
362.978; -144.400; -941.000; -811.000
363.109;   53.200; -161.000; -260.000
363.241;  481.725; -739.000; -749.000
363.373;  413.225; -649.000; -564.000
363.505;  637.175; -186.000;  -91.000
363.637;  140.950; -787.000; -601.000
363.769; -123.100;-1067.000;-1080.000
363.901;  -74.675; -596.000; -654.000
364.033; -108.925;-1103.000;-1062.000
364.165;   -6.525; -283.000; -283.000
364.296;   70.725; -316.000; -177.000
364.428;   54.850;-1344.000;-1220.000
364.560;  -72.875; -679.000; -661.000
364.692;  -61.100; -738.000; -835.000
364.824;  305.675; -588.000; -456.000
364.955;  424.025; -402.000; -564.000
365.087;  826.725;-1097.000; -852.000
365.219;    7.800; -686.000; -816.000
365.351;  -71.350; -526.000; -572.000
365.482;   40.425;  300.000;  240.000
365.614;  -51.475; -402.000; -314.000
365.746; -108.450; -729.000; -752.000
365.877;  -98.275; -706.000; -672.000
366.009;  214.725;  -35.000;  -62.000
366.141;  -97.100;-1249.000;-1134.000
366.272; -122.575; -803.000; -719.000
366.404; -113.700;-1005.000; -874.000
366.535;  -28.125; -139.000;  -12.000
366.667; -107.400; -644.000; -649.000
366.799;   16.300;  353.000;  203.000
366.930; -112.500; -862.000; -996.000
367.062;  118.375; -639.000; -613.000
367.193;  132.175; -872.000; -842.000
367.325;  -61.275; -580.000; -684.000
367.456;   77.025; -246.000;   31.000
367.588;  146.575; -371.000; -318.000
367.719;   22.000;  -44.000;  -45.000
367.851;  -23.000; -222.000; -241.000
367.982;  -51.600; -875.000; -732.000
368.113;  110.025; -475.000; -358.000
368.245; -119.750; -960.000; -841.000
368.376;  -28.200; -254.000; -302.000
368.508;  -39.650; -188.000; -263.000
368.639; -137.050;-1166.000;-1034.000
368.770;   -7.675; -670.000; -589.000
368.902;  -67.500; -836.000; -926.000
369.033; -114.125; -906.000; -855.000
369.164;  -62.600; -720.000; -653.000
369.296;  -87.100; -452.000; -601.000
369.427;   -8.375; -209.000; -144.000
369.558;  -52.050; -593.000; -377.000
369.689;  -96.300; -721.000; -569.000
369.821; -136.500; -951.000; -845.000
369.952;  -15.725;   42.000; -108.000
370.083;  -41.050; -229.000; -108.000
370.214;  -82.375; -735.000; -650.000
370.345;   -1.975;   65.000;   81.000
370.477;  -97.000; -810.000; -790.000
370.608;  260.250; -328.000; -264.000
370.739;  -57.325;-1233.000;-1292.000
370.870;  -27.700;-1102.000; -923.000
371.001;   95.525; -378.000; -467.000
371.132;  -78.075; -754.000; -735.000
371.263;  -28.250;  -42.000; -148.000
371.394; -136.500; -841.000; -748.000
371.525;   18.250;  345.000;  225.000
371.657;  -84.650; -808.000; -670.000
371.788;   75.100;  103.000;  199.000
371.919;  200.450; -384.000; -304.000
372.050; 3915.625;  -91.000; -156.000
372.181; 1132.675; -188.000; -294.000
372.311;  385.350;   42.000; -127.000
372.442;   50.725; -457.000; -451.000
372.573;  -32.500; -444.000; -340.000
372.704; -117.300;-1008.000; -980.000
372.835;   90.075; -228.000; -289.000
372.966;  -69.275; -646.000; -554.000
373.097;  -77.125; -575.000; -711.000
373.228;  -39.725; -717.000; -542.000
373.359;  153.550; -824.000; -536.000
373.490; 1015.600; -881.000; -727.000
373.620; 1255.900;-1001.000; -803.000
373.751; 1979.475; -332.000; -396.000
373.882;  841.725; -663.000; -733.000
374.013;   75.625; -449.000; -262.000
374.143;  -45.150; -581.000; -659.000
374.274;  -95.900; -987.000; -908.000
374.405;  190.475; -388.000; -276.000
374.536;  492.675; -526.000; -387.000
374.666; 1235.600; -759.000; -807.000
374.797;  252.275; -817.000; -868.000
374.928;  968.425; -710.000; -560.000
375.058;  982.700; -535.000; -500.000
375.189;   92.450;  -59.000;  -93.000
375.320; -101.775; -928.000;-1034.000
375.450;  -52.525; -625.000; -616.000
375.581;  -43.225; -526.000; -436.000
375.712;  -31.450; -574.000; -250.000
375.842;  346.550; -438.000; -415.000
375.973;  251.875; -554.000; -513.000
376.103;  -39.725; -665.000; -648.000
376.234;  -97.225; -531.000; -552.000
376.364;  -38.150; -944.000; -867.000
376.495;  340.825;  925.000;  529.000
376.625;   -9.200; -472.000; -485.000
376.756;   71.925; -709.000; -678.000
376.886;  -69.350;-1178.000;-1026.000
377.017;   31.675;-1048.000;-1061.000
377.147;  310.750; -786.000; -782.000
377.278;   58.400;  174.000;  228.000
377.408; -131.800; -801.000; -815.000
377.538; -112.800; -707.000; -693.000
377.669;  -79.425; -537.000; -613.000
377.799; -102.700; -645.000; -635.000
377.929;  -54.725; -610.000; -428.000
378.060; -138.875; -781.000; -847.000
378.190;  -61.025; -726.000; -531.000
378.320;  -72.125; -401.000; -406.000
378.451;   -6.400; -131.000;  -22.000
378.581;   -9.275;  -67.000; -110.000
378.711;  156.350; 1035.000;  866.000
378.841;  -19.950; -533.000; -675.000
378.972;  -74.350; -871.000; -751.000
379.102;   -1.075; -652.000; -579.000
379.232;  -19.000; -126.000;  -73.000
379.362; -104.700;-1001.000; -885.000
379.492;   24.150; -373.000; -424.000
379.623;  108.075;    0.000;  111.000
379.753;  -90.650;-1107.000; -974.000
379.883;  205.825;   59.000;  156.000
380.013;   13.700;-1081.000;-1017.000
380.143; -111.650;-1097.000;-1056.000
380.273; -118.800; -985.000; -861.000
380.403;   -2.850; -344.000; -257.000
380.533;  -21.950; -651.000; -664.000
380.663;   79.750;  173.000;  128.000
380.793;  -81.050;-1027.000;-1074.000
380.923;  -23.300; -103.000;  -34.000
381.053;  -85.250; -613.000; -623.000
381.183;  -41.450; -106.000; -248.000
381.313;   47.950; -656.000; -470.000
381.443;   43.950; -692.000; -473.000
381.573;  237.750; -402.000; -409.000
381.703;  291.350;-1249.000;-1095.000
381.833; -126.350;-1454.000;-1336.000
381.963;  122.975; -134.000;  -87.000
382.093; 1492.375; -925.000; -909.000
382.223;  462.950; -713.000; -602.000
382.353;  -10.850; -801.000; -608.000
382.482;  425.775;-1091.000; -964.000
382.612;  830.925; -872.000; -644.000
382.742;  456.975; -695.000; -622.000
382.872;  313.400; -565.000; -551.000
383.002;   56.800;  347.000; -132.000
383.131;   -9.350; -226.000; -160.000
383.261;  -43.950; -706.000; -768.000
383.391;  288.475; -552.000; -377.000
383.521; 3041.200;  451.000;  263.000
383.650;  674.975; -947.000; -904.000
383.780;  -29.400; -783.000; -656.000
383.910;  105.825;  880.000;  802.000
384.039;   20.750; -794.000; -656.000
384.169;  249.225;-1205.000;-1017.000
384.299;  -24.550; -650.000; -662.000
384.428;  -87.225; -764.000; -680.000
384.558;  -52.400; -308.000; -275.000
384.687;  -35.875; -414.000; -334.000
384.817;    9.375;   75.000;   -2.000
384.947;   37.650; -234.000; -141.000
385.076;  289.850;  982.000;  912.000
385.206;  116.700;  369.000;  480.000
385.335;  -36.350; -549.000; -417.000
385.465;  -83.900; -655.000; -663.000
385.594;  162.225;  -53.000;  -44.000
385.724;  486.400; -868.000; -838.000
385.853;  118.425; -296.000; -270.000
385.982; 1533.200; -743.000; -787.000
386.112; 2312.800;-1052.000; -871.000
386.241;  159.550; -307.000; -312.000
386.371;    7.300; -174.000;  -87.000
386.500;    9.050; -825.000; -789.000
386.629;   31.475; -874.000; -817.000
386.759;   69.500;  -43.000;   68.000
386.888;   -6.475; -170.000; -250.000
387.017;  -74.150; -648.000; -620.000
387.147;  -84.875; -771.000; -798.000
387.276;    0.650; -410.000; -397.000
387.405;   15.125; -398.000; -342.000
387.535;  -47.550; -452.000; -361.000
387.664;  -68.200; -692.000; -620.000
387.793;   76.525; -198.000; -113.000
387.922;  575.525;  255.000;  200.000
388.052;   36.350; -576.000; -423.000
388.181;   24.150; -342.000; -472.000
388.310;   19.175; -889.000; -710.000
388.439;  -41.725; -749.000; -742.000
388.568;  228.675;  365.000;  244.000
388.697; 1152.025; -756.000; -653.000
388.826;  221.050; -768.000; -666.000
388.956;   72.850; -285.000; -307.000
389.085;  -42.400; -347.000; -287.000
389.214; -118.000; -842.000; -872.000
389.343;  -73.175; -645.000; -413.000
389.472;  373.525;  126.000;  149.000
389.601;  533.475;   91.000;    0.000
389.730;   16.125; -568.000; -687.000
389.859;   81.950;  226.000;   46.000
389.988;  196.325; -423.000; -408.000
390.117;  138.550; -168.000; -146.000
390.246;  -15.975; -331.000; -320.000
390.375;  135.050; -673.000; -626.000
390.504;  -69.600; -703.000; -621.000
390.633;  -90.475; -672.000; -726.000
390.761;  -71.425; -732.000; -645.000
390.890;   35.525;   -4.000; -130.000
391.019;  -36.075; -421.000; -441.000
391.148; -135.025; -826.000; -855.000
391.277;  -71.925; -576.000; -493.000
391.406;  -78.350; -821.000; -805.000
391.534;   12.350;  574.000; -301.000
391.663;  -71.850; -583.000; -645.000
391.792;  -91.675; -673.000; -701.000
391.921;  117.800;   -3.000;   15.000
392.050;  203.350; -287.000; -228.000
392.178;  -42.750;-1206.000;-1061.000
392.307;  153.075; -758.000; -712.000
392.436;   78.850; -427.000; -641.000
392.564;    8.350;  166.000;   -6.000
392.693;  -98.300; -860.000; -682.000
392.822;  223.000; -529.000; -534.000
392.950;  117.750; -880.000; -714.000
393.079;  366.075; -188.000; -328.000
393.208;   28.800; -488.000; -511.000
393.336;  -21.550; -170.000; -145.000
393.465;  -52.525; -317.000; -199.000
393.593;   -7.325;   62.000;   79.000
393.722; -160.250;-1121.000; -916.000
393.850;  -38.500; -188.000;  -61.000
393.979; -154.075; -926.000; -805.000
394.107;  -76.250; -517.000; -537.000
394.236;  -27.950; -570.000; -507.000
394.364;  184.675;  383.000;  206.000
394.493;  269.050; -911.000; -767.000
394.621;  -33.375; -955.000; -916.000
394.750;  689.175; -873.000; -923.000
394.878; 2873.150; -247.000; -149.000
395.007; 3777.200; -721.000; -807.000
395.135;  266.875; -790.000; -721.000
395.263;  -89.075;-1038.000;-1040.000
395.392;   -3.250;  -25.000; -107.000
395.520; -157.050; -818.000; -679.000
395.648;  -98.200; -865.000; -915.000
395.777;  -11.825; -366.000; -405.000
395.905;  -58.975; -449.000; -564.000
396.033;    9.525;  217.000;  172.000
396.162;  468.200; -399.000; -453.000
396.290;  421.225;  -17.000;   -2.000
396.418;  109.775; -555.000; -514.000
396.546;  -72.925; -571.000; -466.000
396.674; -107.225; -850.000; -878.000
396.803;   23.775;  -72.000;  -23.000
396.931;   96.050; -179.000; -199.000
397.059;   63.625;-1026.000; -989.000
397.187; -117.800;-1026.000; -975.000
397.315; -142.075; -884.000; -649.000
397.443; -107.225; -592.000; -443.000
397.572;  -90.575; -578.000; -424.000
397.700;  -24.350; -607.000; -614.000
397.828;   26.500;  120.000;  -90.000
397.956;  -68.750; -508.000; -478.000
398.084;  -69.650; -767.000; -626.000
398.212;   22.800;  137.000;  124.000
398.340;   -2.500;  -56.000;  159.000
398.468;   19.375; -390.000; -169.000
398.596; -141.400; -993.000; -953.000
398.724; -126.925; -762.000; -767.000
398.852; -172.450;-1024.000; -976.000
398.980;  -70.525; -560.000; -560.000
399.108;  -45.375; -982.000; -735.000
399.236;   23.750;   13.000;    8.000
399.363;   10.600;  222.000;  196.000
399.491;  -78.150; -404.000; -398.000
399.619; -126.575; -829.000; -800.000
399.747; -106.075; -859.000; -771.000
399.875;   79.075;  220.000;  234.000
400.003;  -68.925; -359.000; -284.000
400.130;  -94.000; -421.000; -341.000
400.258;  -37.650;  -83.000;   38.000
400.386;  -60.100; -352.000; -168.000
400.514;  -35.825; -526.000; -587.000
400.641;  -92.150; -928.000; -802.000
400.769; -155.775; -979.000; -888.000
400.897; -119.725; -838.000; -793.000
401.025;  -20.150; -166.000; -152.000
401.152;   -0.475;  220.000;   38.000
401.280; -104.125; -430.000; -429.000
401.408; -123.625; -712.000; -576.000
401.535; -111.375; -735.000; -758.000
401.663; -193.850;-1134.000;-1054.000
401.790; -100.425; -514.000; -525.000
401.918;   49.675;  436.000;  405.000
402.046;  -17.350;  134.000;  122.000
402.173;  -25.750;  -18.000;    7.000
402.301;  -83.075; -519.000; -397.000
402.428;   38.700;  528.000;  383.000
402.556; -150.175;-1188.000; -913.000
402.683;  -36.000;  -20.000;   -1.000
402.811;  -35.800;  -37.000; -206.000
402.938;   -6.150;   20.000;   27.000
403.066;  220.975; -574.000; -558.000
403.193;  356.400;  299.000;  239.000
403.321;  301.175; -396.000; -574.000
403.448;  365.875;   83.000;   27.000
403.575;  163.325;  -90.000;  -46.000
403.703; -100.725; -732.000; -557.000
403.830;  -83.500; -531.000; -496.000
403.957; -150.375;-1117.000;-1023.000
404.085;   -2.200;  -61.000; -172.000
404.212;  108.250;  -50.000;   63.000
404.339;  250.450; -566.000; -306.000
404.467; 5621.900; -612.000; -524.000
404.594; 3717.500; -287.000; -227.000
404.721;  902.825; -869.000; -764.000
404.848;   76.650; -113.000; -202.000
404.976; -113.700; -856.000; -783.000
405.103;  -25.300;  -14.000;  -82.000
405.230;   -8.375;  190.000;  226.000
405.357;    8.875;  117.000;   44.000
405.484;  258.300;  -49.000;    5.000
405.612;   23.750; -548.000; -563.000
405.739;  -85.150; -488.000; -243.000
405.866;   85.575;  669.000;  385.000
405.993;  -48.125; -398.000; -102.000
406.120; -144.475; -801.000; -887.000
406.247;  -51.875; -323.000; -342.000
406.374;  463.975;  540.000;  629.000
406.501;  111.075; -632.000; -702.000
406.628;  -88.125; -621.000; -589.000
406.755;  -93.425; -803.000; -620.000
406.882;  -50.575; -228.000; -277.000
407.009; -108.775; -719.000; -628.000
407.136;   69.875; -480.000; -401.000
407.263;  157.575; -939.000; -829.000
407.390;  -87.600; -692.000; -614.000
407.517; -183.100;-1139.000;-1187.000
407.644;  -64.150; -332.000; -256.000
407.771;  -66.975; -249.000; -287.000
407.898;   17.375;  168.000;  328.000
408.025;  -69.700; -421.000; -313.000
408.151;  -23.075;   82.000;  153.000
408.278;  -75.625; -267.000; -216.000
408.405; -133.075; -931.000; -899.000
408.532;  -66.850; -549.000; -542.000
408.659; -131.525; -677.000; -648.000
408.785; -198.650;-1298.000;-1170.000
408.912;  -84.575; -412.000; -296.000
409.039; -118.025; -610.000; -686.000
409.166; -114.800; -591.000; -555.000
409.292; -116.475; -571.000; -534.000
409.419; -136.450; -665.000; -649.000
409.546;  -80.125; -431.000; -192.000
409.672; -114.700; -713.000; -545.000
409.799;  -24.925;  -36.000;   34.000
409.926;  -48.550; -180.000; -179.000
410.052; -180.775;-1127.000;-1091.000
410.179;  -67.675; -368.000; -392.000
410.305;  -92.200; -375.000; -493.000
410.432;  -60.375; -220.000; -333.000
410.558;  -96.900; -305.000; -380.000
410.685; -117.075; -688.000; -431.000
410.812; -100.525; -409.000; -588.000
410.938; -152.600; -964.000; -808.000
411.065;  -95.275; -671.000; -645.000
411.191;  -31.525; -189.000; -174.000
411.317; -120.850; -823.000; -742.000
411.444;  -81.850; -317.000; -246.000
411.570;  -81.800; -339.000; -294.000
411.697; -146.125; -758.000; -752.000
411.823; -171.375; -989.000; -999.000
411.949;  -42.350;  -56.000;   17.000
412.076; -110.525; -539.000; -519.000
412.202; -120.525; -758.000; -757.000
412.329; -130.550; -798.000; -752.000
412.455; -131.775; -821.000; -657.000
412.581;  -21.650;  -15.000;  172.000
412.707;  -70.925; -540.000; -457.000
412.834;   15.350;  156.000;  219.000
412.960;  -93.900; -785.000; -784.000
413.086; -114.775; -743.000; -701.000
413.212;  144.150;  604.000;  578.000
413.339;  -76.800; -685.000; -701.000
413.465;    3.175; -364.000; -310.000
413.591;  -93.075; -757.000; -474.000
413.717;  -69.000; -358.000; -366.000
413.843; -152.575; -839.000; -861.000
413.969;  -76.850;  -47.000; -292.000
414.096; -106.475; -679.000; -679.000
414.222;  -21.025;  -33.000;   85.000
414.348;  -17.600; -652.000; -385.000
414.474;   93.375;   38.000;  -52.000
414.600;  -11.000; -126.000; -144.000
414.726;  -40.350;  -96.000;  -55.000
414.852;  -67.575; -365.000; -342.000
414.978;   21.900;  104.000;  -18.000
415.104;   43.975;   38.000;   80.000
415.230;   10.150; -329.000; -330.000
415.356;   45.100; -409.000; -514.000
415.482;  189.925;   13.000;  -35.000
415.608;  261.050; -247.000; -323.000
415.734;  958.700;   67.000;   38.000
415.860;19833.475; -875.000; -767.000
415.986;13861.750; -685.000; -607.000
416.111; 1199.975; -798.000; -652.000
416.237;  257.150; -424.000; -571.000
416.363; 1091.550; -765.000; -733.000
416.489; 3992.450; -324.000; -251.000
416.615;  408.075; -707.000; -742.000
416.741;  -52.225; -677.000; -784.000
416.866;  -96.750; -673.000; -736.000
416.992; -138.950; -801.000; -818.000
417.118;  -36.025;  -41.000;  -80.000
417.244;  -90.850; -798.000; -531.000
417.369;  -76.050; -801.000; -612.000
417.495;  -25.050; -325.000; -254.000
417.621;  -89.925;-1015.000; -803.000
417.746;   -8.900; -579.000; -572.000
417.872;   42.500; -254.000; -144.000
417.998;   43.675; -515.000; -530.000
418.123; 1052.525;-1073.000; -845.000
418.249; 5188.550; -512.000; -601.000
418.374;  693.025; -916.000; -824.000
418.500;   83.050; -383.000; -482.000
418.626;  107.125;   70.000;  -59.000
418.751;  109.400; -549.000; -448.000
418.877;  192.000; -637.000; -643.000
419.002; 1773.375; -688.000; -560.000
419.128;12194.375; -930.000; -721.000
419.253; 2869.175; -967.000; -837.000
419.379;  388.650; -391.000; -338.000
419.504;  378.775;  325.000;  415.000
419.629;  482.675; -393.000; -212.000
419.755; 3473.675; -317.000; -254.000
419.880;20048.575;  -98.000;   67.000
420.006;11079.850; -280.000; -221.000
420.131;28468.975; -662.000; -775.000
420.256; 3963.775; -315.000; -316.000
420.382;  523.000; -665.000; -687.000
420.507;   43.100; -649.000; -778.000
420.632;  155.525; -337.000; -339.000
420.758;  275.650; -251.000; -425.000
420.883;  -84.800; -876.000; -672.000
421.008; -109.750; -775.000; -619.000
421.133;  -78.575; -509.000; -467.000
421.259;  -52.675; -325.000; -259.000
421.384; -117.950; -834.000; -693.000
421.509;  -42.075;-1052.000; -862.000
421.634; 1326.625; -936.000; -820.000
421.759;  552.750; -359.000; -327.000
421.885;  -56.250; -717.000; -656.000
422.010;  -85.225; -673.000; -542.000
422.135; -162.800; -695.000; -727.000
422.260;   20.800;  340.000;  280.000
422.385;  -59.575;   12.000;  -98.000
422.510;   -3.925;  151.000;  -26.000
422.635;    4.125;  -87.000;  -43.000
422.760;   88.025; -766.000; -791.000
422.885;   47.575;  -57.000;  -80.000
423.010;  -42.550; -112.000; -169.000
423.135; -109.925; -481.000; -561.000
423.260;  -20.925; -150.000; -245.000
423.385;   80.625;  476.000;  222.000
423.510;   28.900;   71.000;  -22.000
423.635;   94.825;  133.000;   45.000
423.760;   46.025;  383.000;  328.000
423.885;   44.200;  336.000;  391.000
424.010;    1.025;  -68.000;  -13.000
424.135;  -35.525;    5.000;  -33.000
424.259; -107.300; -654.000; -457.000
424.384;  -75.875; -279.000; -272.000
424.509;  -47.300; -260.000; -186.000
424.634; -108.150; -761.000; -623.000
424.759;  -40.400; -688.000; -544.000
424.883;  -16.625; -506.000; -527.000
425.008;  164.450; -502.000; -410.000
425.133; 1943.725; -679.000; -653.000
425.258;  896.825; -517.000; -381.000
425.382; 1115.050; -867.000; -774.000
425.507; 2792.250; -487.000; -543.000
425.632;  433.625; -802.000; -663.000
425.756;  434.225; -256.000; -146.000
425.881; 6361.225; -831.000; -857.000
426.006;16476.350; -604.000; -355.000
426.130; 2541.100; -696.000; -508.000
426.255;  320.525; -611.000; -491.000
426.379;  144.525; -189.000; -577.000
426.504;  359.100;  660.000;  544.000
426.629; 4044.875; -519.000; -466.000
426.753; 2649.600;   64.000;  -46.000
426.878;  287.125; -252.000; -288.000
427.002;  167.950; -651.000; -668.000
427.127; 1593.825;  -35.000; -158.000
427.251;10991.425;  372.000;  401.000
427.375; 3071.375; -191.000; -173.000
427.500; 2427.575; -616.000; -610.000
427.624;  786.800; -234.000; -400.000
427.749;   94.650; -216.000; -225.000
427.873;  -31.400; -499.000; -412.000
427.997;  -52.200; -222.000; -230.000
428.122;   74.975;  795.000;  703.000
428.246;   85.475;  433.000;  434.000
428.371; -128.175; -869.000; -773.000
428.495; -131.025; -624.000; -646.000
428.619;  -21.500; -186.000; -117.000
428.743;   27.525;   65.000;  132.000
428.868;   29.050; -732.000; -643.000
428.992; 1509.750; -219.000; -326.000
429.116;  599.600; -329.000; -357.000
429.240;  283.200;  419.000;  426.000
429.365;  -26.925; -454.000; -574.000
429.489;  -50.675; -638.000; -647.000
429.613;   23.550; -236.000; -177.000
429.737;   32.825; -563.000; -432.000
429.861;  259.750; -247.000; -133.000
429.985; 5474.200; -425.000; -305.000
430.109; 5814.200; -770.000; -908.000
430.234;  637.300;   76.000;  -50.000
430.358;   68.450; -250.000; -160.000
430.482;  -72.675; -672.000; -564.000
430.606;  -58.550; -655.000; -375.000
430.730;    6.600; -437.000; -388.000
430.854;  138.950; -909.000; -835.000
430.978;  -67.075; -795.000; -764.000
431.102;  -82.900; -499.000; -422.000
431.226; -124.450; -874.000; -815.000
431.350;   23.700;  345.000;  422.000
431.474;  -82.850; -661.000; -373.000
431.597; -159.400;-1060.000; -848.000
431.721; -104.000; -276.000; -267.000
431.845; -144.500; -704.000; -472.000
431.969;  -88.250; -304.000; -349.000
432.093;  -91.550; -395.000; -317.000
432.217;  -25.075;   32.000;   82.000
432.341;  -98.475; -523.000; -518.000
432.464;   -4.750;   96.000;   40.000
432.588;  245.400; -401.000; -329.000
432.712;   95.000;  -52.000;  -52.000
432.836;   52.700;  213.000;  263.000
432.959;  -30.800; -372.000; -311.000
433.083;   84.625;   11.000;    2.000
433.207;  377.075;  285.000;  930.000
433.330; 4960.525; -391.000; -200.000
433.454; 5928.100; -654.000; -638.000
433.578; 3457.200;  583.000;  278.000
433.701;  609.975; -623.000; -675.000
433.825;  157.275; -292.000; -299.000
433.949;  194.050;   28.000;  -72.000
434.072;   57.550; -410.000; -323.000
434.196;  -16.600; -309.000; -117.000
434.319; 3765.125;25482.000;25124.000
434.443;  738.750; -656.000; -603.000
434.566; 2537.125;  281.000;   62.000
434.690;  381.900; -637.000; -383.000
434.813;   45.375; -251.000; -173.000
434.937;  -93.925; -569.000; -696.000
435.060;  -28.900; -423.000; -332.000
435.184;  360.500; -492.000; -217.000
435.307;  188.100;  159.000;  102.000
435.431;  -17.625;  -40.000;   24.000
435.554;  -84.175; -399.000; -240.000
435.677;  -98.750; -350.000; -258.000
435.801;  -40.250;  -25.000;   49.000
435.924;  -19.725;    1.000;  -67.000
436.048; -111.950;-1019.000; -732.000
436.171;  -80.825; -240.000;  -66.000
436.294;  -42.100; -248.000; -229.000
436.417;   86.700; -963.000; -849.000
436.541;  -95.500; -814.000; -840.000
436.664;  -60.250; -242.000; -316.000
436.787;  -33.400;   13.000;  113.000
436.910; -128.925; -792.000; -422.000
437.034;   15.800;  142.000;  143.000
437.157;   68.550;  -11.000;    0.000
437.280;  -52.550; -392.000; -292.000
437.403;  -96.075; -982.000; -869.000
437.526;  754.750; -903.000; -865.000
437.649; 2582.250; -505.000; -332.000
437.772;  376.075; -692.000; -540.000
437.896;  113.075;  700.000;  544.000
438.019; -108.800; -758.000; -503.000
438.142;  -95.975; -596.000; -506.000
438.265;   -9.250; -639.000; -670.000
438.388;  632.450; -520.000; -410.000
438.511;  117.700; -597.000; -394.000
438.634;  -54.400; -247.000; -125.000
438.757; -141.775; -693.000; -619.000
438.880;  -37.825;  -34.000;  -57.000
439.003;  -68.500; -417.000; -437.000
439.126;  -77.950; -287.000; -167.000
439.248;  -70.550;  -98.000; -139.000
439.371;  -63.500;    9.000;  -53.000
439.494;   38.325;  510.000;  439.000
439.617;  -60.525;   65.000;  -88.000
439.740; -179.525; -968.000; -816.000
439.863; -158.850; -755.000; -595.000
439.986; -132.850; -476.000; -431.000
440.108;  -44.075; -161.000; -112.000
440.231; -150.975; -950.000; -836.000
440.354;  -51.400;  -64.000; -150.000
440.477;   43.075; -566.000; -542.000
440.599;   -8.275; -200.000; -225.000
440.722; -113.125; -709.000; -586.000
440.845;   56.200;  751.000;  928.000
440.968; -114.600; -415.000; -311.000
441.090;  -66.650; -199.000;  -33.000
441.213; -164.100;-1021.000; -825.000
441.336;  -68.450; -159.000;   -5.000
441.458;  -79.150; -549.000; -396.000
441.581;  -94.525; -628.000; -629.000
441.703;  -75.975; -152.000;   13.000
441.826; -129.025; -557.000; -400.000
441.948;  -57.850;   56.000;   51.000
442.071;   18.550;  555.000;  424.000
442.193; -122.400; -531.000; -485.000
442.316;   12.475;  152.000;   97.000
442.438;   22.200; -233.000;  -10.000
442.561;   83.175;  272.000;  262.000
442.683;  634.350; -809.000; -522.000
442.806; 1295.000;   -8.000;   74.000
442.928;   39.300; -859.000; -604.000
443.051;  -82.800; -577.000; -373.000
443.173;  -94.825; -341.000; -339.000
443.295;  -95.800; -263.000; -371.000
443.418;  -76.200; -321.000;  -29.000
443.540;   -7.725; -106.000;   -4.000
443.662; -115.750; -563.000; -465.000
443.785;  -16.275;  335.000;  199.000
443.907; -100.775; -362.000; -208.000
444.029; -134.750; -767.000; -494.000
444.152; -144.325; -644.000; -554.000
444.274;  -49.825;  -18.000;  -24.000
444.396; -121.650; -461.000; -221.000
444.518; -137.025; -691.000; -454.000
444.640; -108.700; -268.000; -111.000
444.763;  -19.425;  388.000;  249.000
444.885; -132.600; -432.000; -392.000
445.007;  -37.175;   35.000;   86.000
445.129; -110.575; -610.000; -515.000
445.251; -126.025; -372.000; -439.000
445.373; -126.350; -537.000; -386.000
445.495;   -7.100;  242.000;  350.000
445.617;   52.500;  853.000;  753.000
445.739;  -71.000; -215.000;  -97.000
445.861;  -34.000; -245.000; -112.000
445.984;  -34.000; -267.000; -101.000
446.105;  227.425; -418.000; -251.000
446.227;  690.200; -176.000;  -19.000
446.349;   -0.175; -358.000; -249.000
446.471; -116.825; -615.000; -448.000
446.593;  -73.125; -316.000;   19.000
446.715;   -6.000;  -67.000;   41.000
446.837;   71.475;  697.000;  832.000
446.959; -106.850; -457.000; -478.000
447.081; -138.725; -628.000; -518.000
447.203;   48.050;  862.000;  834.000
447.325;  -93.950; -270.000;   42.000
447.446;  -11.675;  286.000;  530.000
447.568; -154.850; -921.000; -803.000
447.690;  -75.725; -236.000; -245.000
447.812; -154.025; -798.000; -519.000
447.933;  -45.175;  155.000;  127.000
448.055;  -72.900; -306.000; -261.000
448.177;  148.075;   31.000;   79.000
448.299;  111.650; -935.000; -727.000
448.420;   14.100;  -25.000;  159.000
448.542;  -57.575;   -3.000;   33.000
448.664;  -35.850;  109.000;  322.000
448.785;  -49.100;  265.000;   83.000
448.907;  -87.900; -614.000; -353.000
449.028;  -39.950; -771.000; -471.000
449.150;   54.050;  492.000;  589.000
449.272; -177.500;-1044.000; -913.000
449.393;   29.075;  612.000;  694.000
449.515; -150.575; -634.000; -581.000
449.636;  -65.725; -264.000; -155.000
449.758;   93.500;  763.000;  622.000
449.879;  -97.525; -498.000; -396.000
450.001;  -66.525; -149.000;  -49.000
450.122;  -45.450;  -95.000;  162.000
450.244;  -19.425;   37.000;  364.000
450.365; -109.825; -495.000; -301.000
450.486;  -39.025;   80.000;  268.000
450.608;  -20.375;  393.000;  326.000
450.729;   64.350;  578.000;  645.000
450.850;  -11.500; -574.000; -466.000
450.972;  727.050; -552.000; -389.000
451.093; 4690.400;  190.000;  588.000
451.214; 1970.125; -516.000; -337.000
451.336;  352.650;  773.000;  579.000
451.457;   73.175;  264.000;  393.000
451.578;  -46.675; -118.000;  -74.000
451.699; -134.925; -546.000; -540.000
451.821;  -72.650; -284.000;  -50.000
451.942;   12.925;  278.000;  285.000
452.063;   14.925;  228.000;  419.000
452.184;  547.650;  -54.000;  -49.000
452.305; 1004.675;  103.000;  170.000
452.427;   97.850; -549.000; -301.000
452.548;  -38.250;   23.000;   79.000
452.669;  -43.825; -257.000;  -89.000
452.790;  -46.450;    3.000;  -18.000
452.911;   -7.175;  195.000;  259.000
453.032;  -68.600; -289.000;  -60.000
453.153;  -43.000;  -29.000;   81.000
453.274;   52.300;  737.000;  868.000
453.395;  -57.550;  -51.000;  175.000
453.516;  118.275; 1317.000; 1388.000
453.637;  -71.300; -205.000; -150.000
453.758;  -68.450;   15.000;   69.000
453.879; -129.900; -462.000; -250.000
454.000;   64.800; 1086.000;  948.000
454.121; -121.650; -554.000; -326.000
454.242; -116.750; -599.000; -383.000
454.362;  -58.450;  -99.000;  114.000
454.483;  -62.525; -309.000; -229.000
454.604;   63.375;  512.000;  580.000
454.725; -148.450; -627.000; -555.000
454.846; -132.725; -474.000; -406.000
454.967;  -37.750;  230.000;  539.000
455.087;  -51.750;  179.000;  153.000
455.208;   19.800;  554.000;  856.000
455.329;  -80.975;  -22.000;   82.000
455.450;    9.300;  473.000;  633.000
455.570;  -77.650; -234.000; -211.000
455.691;  -50.225;  201.000;  407.000
455.812; -109.775; -270.000;  -92.000
455.932;  -72.225;  107.000;  -97.000
456.053; -102.575;   36.000;   24.000
456.173; -137.775; -433.000; -355.000
456.294; -140.875; -476.000; -303.000
456.415;  -86.450;  -73.000;   70.000
456.535;  -54.850;  297.000;  273.000
456.656;  -53.900;  132.000;  240.000
456.776;  -70.925;    3.000;  298.000
456.897;   -6.350;  308.000;  513.000
457.017;  -78.125; -153.000;   -3.000
457.138; -133.275; -402.000; -249.000
457.258;  -23.250;  263.000;  224.000
457.379;  -21.650;  509.000;  521.000
457.499;  -41.625;  443.000;  432.000
457.620; -143.625; -407.000; -231.000
457.740; -107.525; -132.000;  -11.000
457.860;  -65.125;   87.000;   44.000
457.981;  -50.000;  132.000;  124.000
458.101;  -90.100;  -89.000;   40.000
458.221;  -25.875;  336.000;  402.000
458.342;  -76.000;   -4.000;  -37.000
458.462;   21.700;  617.000;  352.000
458.582;  -64.075; -302.000; -294.000
458.703;  -15.425;  303.000;  154.000
458.823;  -40.600;   22.000;  163.000
458.943;   11.175;  341.000;  467.000
459.063;  -27.225; 1124.000;  192.000
459.183;  -35.450;  328.000;  313.000
459.304;  -14.575;  315.000;  517.000
459.424;  -75.800; -246.000;  -89.000
459.544;  306.800;  388.000;  764.000
459.664;  777.950;  499.000;  506.000
459.784;  274.950; 1004.000; 1175.000
459.904;   65.275;  867.000;  744.000
460.024;   50.775;  867.000;  684.000
460.144;   18.475;  449.000;  554.000
460.264;  -15.475;  515.000;  327.000
460.385; -100.300; -145.000; -119.000
460.505;   13.350;  905.000;  858.000
460.625; -102.200;  -17.000;  -68.000
460.745;  -35.725;  396.000;  541.000
460.864;  -58.175;  153.000;  469.000
460.984;   -1.850;  499.000;  573.000
461.104;  125.475; 1656.000; 1775.000
461.224;   -0.100;  657.000;  650.000
461.344;  -14.000;  431.000;  360.000
461.464;  -52.700;  258.000;  513.000
461.584;  -25.475;  283.000;  466.000
461.704;  -56.450;   58.000;  108.000
461.824;  -62.975;  238.000;  259.000
461.943;  -54.200;  191.000;  130.000
462.063;  -74.750;    2.000;  324.000
462.183;   19.200;  639.000;  717.000
462.303;  106.450; 1678.000; 1230.000
462.422;    8.100;  781.000;  840.000
462.542;  -43.000;  271.000;  391.000
462.662;   16.025;  353.000;  380.000
462.782;  251.350;  833.000;  572.000
462.901;  455.250;  545.000;  717.000
463.021;  277.550; 1702.000; 1638.000
463.141;  -27.725;  337.000;  770.000
463.260;  -15.450;  614.000;  474.000
463.380;   -6.775;  902.000;  884.000
463.499;  -46.200;  342.000;  332.000
463.619;  -59.300;  581.000;  559.000
463.738;  113.375; 1644.000;  903.000
463.858;   10.625;  657.000;  811.000
463.978;  -39.975;  542.000;  396.000
464.097;   43.025;  921.000; 1114.000
464.217;  106.600; 1196.000; 1143.000
464.336;   90.250; 1068.000; 1130.000
464.455;  -39.000;  328.000;  659.000
464.575;   37.075;  597.000;  602.000
464.694;  179.725; 1204.000; 1179.000
464.814;  112.875; 1190.000; 1138.000
464.933;   73.775; 1095.000; 1027.000
465.052;   92.450; 1412.000; 1054.000
465.172;   66.675;  922.000;  799.000
465.291;  134.275; 1376.000; 1320.000
465.410;    1.625;  462.000;  735.000
465.530;   76.600; 1355.000; 1310.000
465.649;   67.250; 1209.000; 1273.000
465.768;  116.575; 1673.000; 1508.000
465.888;   45.475;  941.000; 1174.000
466.007;   91.425; 1335.000; 1440.000
466.126;  -11.200;  721.000;  641.000
466.245;   27.700; 1176.000; 1187.000
466.364;   18.075;  950.000; 1060.000
466.484;   49.075; 1024.000; 1213.000
466.603;   35.850; 1101.000; 1222.000
466.722;  121.900; 1490.000; 1769.000
466.841;   85.200; 1151.000; 1401.000
466.960;   36.925; 1069.000;  972.000
467.079;  136.850; 1971.000; 1786.000
467.198;   25.525; 1238.000; 1181.000
467.317;   64.250; 1768.000; 1162.000
467.436;   68.175; 1709.000; 1261.000
467.555;  106.875; 1796.000; 1746.000
467.674;   60.125; 1227.000; 1329.000
467.793;   33.825; 1376.000; 1374.000
467.912;   68.750; 1658.000; 1539.000
468.031;  129.300; 2038.000; 1930.000
468.150;  114.325; 1842.000; 1837.000
468.269;  202.700; 2313.000; 2090.000
468.388;  189.100; 2168.000; 2339.000
468.507;  256.300; 2884.000; 2903.000
468.626;  217.575; 2555.000; 2541.000
468.744;  145.500; 2018.000; 2174.000
468.863;  185.175; 2312.000; 2523.000
468.982;   92.975; 1503.000; 1555.000
469.101;  221.175; 2788.000; 2692.000
469.220;  146.975; 2333.000; 2176.000
469.338;  233.475; 2935.000; 3051.000
469.457;  191.200; 2719.000; 2545.000
469.576;  349.225; 3953.000; 3784.000
469.695;  228.025; 2877.000; 3066.000
469.813;  417.025; 4148.000; 4192.000
469.932;  417.900; 4255.000; 4485.000
470.051;  409.375; 4075.000; 4161.000
470.169;  839.725; 4470.000; 4338.000
470.288; 1454.775; 4700.000; 4809.000
470.406;  860.875; 5059.000; 5194.000
470.525;  626.125; 6101.000; 5787.000
470.644;  649.350; 6847.000; 6794.000
470.762;  811.450; 8397.000; 7873.000
470.881;  886.175; 8651.000; 8464.000
470.999; 1040.800; 9685.000; 9151.000
471.118; 1120.600;11174.000;10711.000

