
Integration time [ms]: 200.000
Averaging Nr. [scans]: 10
Smoothing Nr. [pixels]: 0
Data measured with spectrometer [name]: 2101012U2
Wave   ;Sample   ;Dark     ;Reference
[nm]   ;[counts] ;[counts] ;[counts] 

197.733;  138.400;  516.000;  404.000
197.879; -156.500; -610.000; -634.000
198.025; -106.800; -475.000; -420.000
198.171; -172.700; -602.000; -612.000
198.317;  -93.500; -401.000; -316.000
198.463; -148.800; -655.000; -404.000
198.609;   58.400;  181.000; -137.000
198.755; -177.100; -644.000; -410.000
198.901; -125.600; -505.000; -424.000
199.047; -135.100; -615.000; -488.000
199.193;  -77.900; -230.000; -468.000
199.339; -104.600; -222.000; -369.000
199.485;   84.900;  330.000;  271.000
199.631;   70.000;  227.000;  310.000
199.777; -111.700; -466.000; -398.000
199.923; -105.500; -610.000; -424.000
200.069;    1.600; -141.000;  -58.000
200.215;  106.700;  128.000;  453.000
200.361;   90.700;  243.000;  477.000
200.507; -143.200; -600.000; -373.000
200.653;  -69.700; -371.000; -194.000
200.798;  -57.800; -215.000; -125.000
200.944;  -12.000; -146.000;  -41.000
201.090;   51.800;   61.000;  222.000
201.236;   13.300; -116.000; -158.000
201.382;  313.600;  874.000;  903.000
201.528;    6.300;  -58.000;  -48.000
201.674; -117.300; -386.000; -293.000
201.819; -149.800; -540.000; -439.000
201.965; -172.500; -699.000; -447.000
202.111;  -45.300; -273.000; -226.000
202.257;  -93.800; -250.000; -238.000
202.402;    0.500;   13.000;  -36.000
202.548;  -46.900; -169.000; -116.000
202.694;  169.900;  410.000; -183.000
202.840; -140.400; -603.000; -531.000
202.985; -165.000; -681.000; -639.000
203.131; -233.900; -832.000; -666.000
203.277;  -60.500; -199.000; -262.000
203.423;  -81.500; -434.000; -520.000
203.568;  -71.100; -462.000; -237.000
203.714; -113.700; -535.000; -542.000
203.860; -156.100; -682.000; -641.000
204.005;   49.200;  112.000;  167.000
204.151;  173.300;  561.000;  556.000
204.296; -128.600; -354.000; -221.000
204.442; -156.400; -600.000; -547.000
204.588; -150.100; -592.000; -579.000
204.733;   13.000;  178.000;  168.000
204.879; -267.300;-1018.000; -822.000
205.025;   32.300;  -99.000;  126.000
205.170;   -2.500;  -17.000;   94.000
205.316;  190.500;  438.000;  661.000
205.461; -151.500; -698.000; -554.000
205.607;  176.500;  609.000;  665.000
205.752; -170.500; -626.000; -551.000
205.898; -105.800; -501.000; -391.000
206.043; -114.000; -578.000; -506.000
206.189;  -84.200; -243.000; -285.000
206.334;  190.700;  554.000;  606.000
206.480;  141.800;  409.000;  239.000
206.625; -161.000; -529.000; -552.000
206.771;  -88.700; -451.000; -373.000
206.916;  -58.900; -210.000; -537.000
207.062; -180.100; -545.000; -591.000
207.207; -120.400; -546.000; -443.000
207.353;  104.300;  185.000;  460.000
207.498;   33.000;  196.000;   85.000
207.643;  -82.700; -501.000; -370.000
207.789; -259.500;-1069.000; -910.000
207.934; -206.900; -665.000; -713.000
208.080;  -46.400; -154.000;   66.000
208.225;   -6.100;  -22.000;  -57.000
208.370; -159.200; -727.000; -619.000
208.516; -162.100; -741.000; -487.000
208.661;  -42.300; -127.000;  -69.000
208.806;  -53.900; -165.000; -171.000
208.952; -253.500;-1044.000; -731.000
209.097;  142.800;  378.000;  349.000
209.242; -111.000; -307.000; -382.000
209.387;  130.000;  392.000;  350.000
209.533; -123.400; -321.000; -350.000
209.678;  190.900;  472.000;  543.000
209.823; -101.500; -408.000; -310.000
209.969; -213.900; -860.000; -757.000
210.114; -203.000; -907.000; -719.000
210.259; -246.200; -939.000; -889.000
210.404;   -8.200; -171.000;  103.000
210.549;   32.100;  108.000;    3.000
210.695;  -20.600;   -3.000;  -95.000
210.840;   83.800;   94.000;   67.000
210.985; -114.500; -484.000; -303.000
211.130;  165.800;  268.000;  406.000
211.275;   60.400;  207.000;  199.000
211.420; -103.500; -300.000; -289.000
211.566; -145.600; -536.000; -489.000
211.711;   59.800;  218.000;  157.000
211.856; -129.300; -545.000; -519.000
212.001;   36.200;  151.000;   44.000
212.146;   12.700;  153.000;   49.000
212.291;  -61.400; -210.000; -186.000
212.436;  -29.000; -280.000;   -6.000
212.581; -155.200; -685.000; -653.000
212.726; -163.300; -487.000; -538.000
212.871;  -74.000; -552.000; -217.000
213.016; -307.800;-1172.000;-1029.000
213.161;  149.000;  406.000;  291.000
213.306; -133.000; -435.000; -577.000
213.451; -210.800; -778.000; -689.000
213.596; -120.200; -455.000; -347.000
213.741; -125.000; -448.000; -538.000
213.886; -184.700; -498.000; -517.000
214.031;  -23.700; -294.000; -124.000
214.176;  -87.500; -408.000; -341.000
214.321;  -28.700; -296.000; -157.000
214.466;  -26.500; -163.000;  -43.000
214.611;    4.700;  -61.000;  -10.000
214.756; -213.100; -948.000; -858.000
214.901;  -34.300; -388.000; -226.000
215.046; -238.700; -797.000; -825.000
215.191;   44.700;  128.000;   35.000
215.336;  -45.400; -157.000;  -19.000
215.480; -145.400; -684.000; -505.000
215.625;  -14.300; -175.000;  -19.000
215.770; -166.400; -757.000; -662.000
215.915;  -25.400;   -5.000;  -97.000
216.060;   -9.100; -113.000;  -21.000
216.205; -222.100; -731.000; -779.000
216.349; -141.800; -470.000; -533.000
216.494; -277.300; -939.000; -867.000
216.639; -237.300; -823.000; -888.000
216.784; -198.700; -577.000; -525.000
216.929;   97.700;  392.000;  281.000
217.073;  -17.800; -244.000;  -31.000
217.218;   24.000;   78.000;  -47.000
217.363; -174.200; -656.000; -618.000
217.507; -165.700; -623.000; -588.000
217.652; -259.100; -845.000; -874.000
217.797; -210.300; -708.000; -659.000
217.942; -228.500; -856.000; -720.000
218.086;  150.900;  608.000;  539.000
218.231;  -38.100; -174.000;  -26.000
218.376;  -64.300; -337.000; -229.000
218.520;   14.200;  -41.000;   96.000
218.665;  -52.800; -338.000; -204.000
218.810;  -65.300; -275.000; -233.000
218.954;    8.500;  201.000;   35.000
219.099; -204.100; -713.000; -963.000
219.243; -153.900; -589.000; -554.000
219.388;  -64.600; -264.000; -136.000
219.532;  -12.900; -116.000; -116.000
219.677; -171.700; -564.000; -521.000
219.822;    4.300;   33.000;   89.000
219.966;   31.600;   17.000;  -99.000
220.111;  -77.900; -328.000;  -40.000
220.255; -181.400; -797.000; -750.000
220.400;  -57.400; -180.000; -146.000
220.544; -137.600; -516.000; -450.000
220.689; -108.200; -422.000; -451.000
220.833;    2.000; -123.000;  -58.000
220.978;  -74.000; -393.000; -563.000
221.122;   39.100;  319.000;  307.000
221.267; -242.100; -906.000; -837.000
221.411; -122.700; -478.000; -394.000
221.555;  -16.900; -104.000;  -23.000
221.700;  -86.000; -329.000; -222.000
221.844;   61.800;  255.000;  272.000
221.989;  -95.900; -328.000; -311.000
222.133;  -78.200; -289.000; -307.000
222.277;   22.800;    5.000;   78.000
222.422;   49.900;  227.000;  113.000
222.566;  -39.000; -381.000; -214.000
222.711; -110.700; -414.000; -479.000
222.855; -163.500; -643.000; -586.000
222.999; -170.400; -642.000; -717.000
223.144;  -45.400; -195.000; -194.000
223.288;  106.100;  423.000;  251.000
223.432;   57.600;  184.000;  230.000
223.576;   45.900;  152.000;  -21.000
223.721;  101.800;  364.000;  273.000
223.865; -109.500; -472.000; -475.000
224.009;  578.500; 1673.000; 1631.000
224.153; -183.300; -660.000; -671.000
224.298; -143.200; -531.000; -489.000
224.442;  -36.200;  -74.000;  -33.000
224.586;  -13.600; -169.000; -106.000
224.730; -222.700; -858.000; -670.000
224.875; -222.800; -739.000; -688.000
225.019;   10.000;  102.000;  188.000
225.163;  140.100;  208.000;  341.000
225.307;   51.700;   97.000;  -91.000
225.451;  124.700;  360.000;  481.000
225.595;   59.900;  264.000;  176.000
225.739;  -45.100; -170.000;  -94.000
225.884;   19.800;   86.000;    5.000
226.028; -183.700; -760.000; -626.000
226.172;  -97.100; -260.000; -273.000
226.316; -216.200; -941.000; -902.000
226.460; -151.300; -645.000; -493.000
226.604;  -84.700; -406.000; -400.000
226.748; -192.600; -836.000; -733.000
226.892;  -57.400; -227.000; -181.000
227.036; -107.400; -537.000; -447.000
227.180;  -66.700; -551.000; -375.000
227.324; -130.000; -561.000; -580.000
227.468; -258.800; -819.000; -717.000
227.612;   17.400;  242.000;  -28.000
227.756; -202.200; -845.000; -698.000
227.900;  114.400;  342.000;  441.000
228.044;  -98.700; -509.000; -290.000
228.188;  126.500;  448.000;  568.000
228.332; -174.900; -546.000; -472.000
228.476;  -64.200; -223.000; -149.000
228.620;  -41.200; -210.000; -150.000
228.764;  142.700;  431.000;  349.000
228.908;  -18.300; -155.000;   30.000
229.052; -154.200; -615.000; -528.000
229.195;  -16.900; -172.000;   13.000
229.339;  -45.300; -235.000; -305.000
229.483;  -37.700;    5.000; -162.000
229.627;   -2.300; -156.000;  139.000
229.771;  -74.100; -218.000; -294.000
229.915;   22.500;  230.000;   79.000
230.059; -170.600; -648.000; -663.000
230.202;  -58.200; -370.000; -317.000
230.346;   23.800; -107.000;  107.000
230.490; -124.900; -489.000; -521.000
230.634; -184.700; -736.000; -553.000
230.777;  156.200;  478.000;  509.000
230.921;  -86.500; -450.000; -359.000
231.065;  -93.500; -246.000; -286.000
231.209;   46.400;  261.000;  265.000
231.352;   58.200;   54.000;   40.000
231.496;   49.200;  568.000;  188.000
231.640; -157.000; -693.000; -621.000
231.783;  201.600;  546.000;  525.000
231.927; -105.300; -294.000; -365.000
232.071; -247.000; -962.000; -736.000
232.214; -254.500; -980.000; -764.000
232.358; -225.900; -683.000; -599.000
232.502;   35.500;  -19.000;    7.000
232.645; -270.600;-1090.000; -927.000
232.789;  -42.700; -257.000; -218.000
232.933;  -70.300; -407.000; -224.000
233.076; -252.900;-1038.000; -897.000
233.220; -220.400; -752.000; -777.000
233.363; -168.000; -669.000; -477.000
233.507;  128.800;  371.000;  129.000
233.650; -194.400; -764.000; -834.000
233.794;  109.600;  438.000;  461.000
233.938; -118.900; -530.000; -362.000
234.081;  -36.300;  -93.000;   31.000
234.225; -116.100; -631.000; -539.000
234.368; -188.500; -773.000; -723.000
234.512;  -93.200; -385.000; -299.000
234.655; -181.000; -582.000; -555.000
234.798; -132.500; -493.000; -466.000
234.942; -240.300; -884.000;-1002.000
235.085; -169.000; -651.000; -443.000
235.229; -131.700; -405.000; -410.000
235.372;  -78.800; -247.000; -191.000
235.516; -114.700; -397.000; -321.000
235.659;   49.800;   92.000;  121.000
235.802;    0.400;  -38.000;  -22.000
235.946;   62.700;  335.000;  215.000
236.089;   90.700;  126.000;  250.000
236.233;  108.000;  275.000;  298.000
236.376;  -89.800; -235.000; -378.000
236.519;  -77.800; -297.000; -319.000
236.663;   -9.800; -215.000; -117.000
236.806; -284.700;-1029.000; -999.000
236.949;  149.300;  543.000;  431.000
237.092;  114.400;  412.000;  391.000
237.236; -174.400; -589.000; -502.000
237.379;  142.400;  352.000;  428.000
237.522; -236.700; -879.000; -768.000
237.666;  -31.200; -271.000;   18.000
237.809; -234.800; -851.000; -823.000
237.952;   59.500;  469.000;  271.000
238.095;  -83.400; -447.000; -442.000
238.238;  181.500;  688.000;  700.000
238.382;   25.900;  166.000;  103.000
238.525; -111.600; -598.000; -511.000
238.668; -276.600;-1060.000; -985.000
238.811; -185.800; -638.000; -643.000
238.954; -114.300; -483.000; -334.000
239.097;  197.300;  617.000;  664.000
239.241;   63.000;  394.000;  326.000
239.384;  -57.300; -254.000; -214.000
239.527;  -92.200; -424.000; -224.000
239.670; -322.600; -994.000;-1091.000
239.813; -212.700; -696.000; -658.000
239.956;  155.800;  579.000;  473.000
240.099; -209.200; -778.000; -725.000
240.242;  125.100;  428.000;  432.000
240.385;  119.200;  466.000;  450.000
240.528; -184.800; -706.000; -473.000
240.671;   27.400;  189.000;  134.000
240.814;  -86.100; -441.000; -158.000
240.957; -183.700; -767.000; -578.000
241.100; -199.900; -779.000; -755.000
241.243; -303.100;-1234.000; -893.000
241.386; -129.800; -508.000; -379.000
241.529; -158.300; -735.000; -547.000
241.672; -134.500; -566.000; -495.000
241.815; -246.000; -832.000; -808.000
241.958;  -44.400; -125.000; -182.000
242.101; -162.200; -545.000; -390.000
242.244;  -67.600; -270.000; -325.000
242.387;  -54.700; -304.000; -246.000
242.530;  131.300;  470.000;  134.000
242.673;  -82.800; -381.000; -309.000
242.815; -244.700; -925.000; -899.000
242.958; -133.900; -482.000; -381.000
243.101;   43.100;  132.000;  187.000
243.244; -169.100; -564.000; -521.000
243.387; -117.300; -313.000; -316.000
243.530; -220.900; -657.000; -674.000
243.672;   -6.900;   43.000;  -92.000
243.815; -103.600; -355.000; -283.000
243.958;   34.800;   98.000;  -26.000
244.101;   65.000;   59.000;  -16.000
244.243;  -17.800;  -47.000;  101.000
244.386; -205.900; -761.000; -630.000
244.529;  -42.800; -132.000; -139.000
244.672; -306.700;-1154.000; -951.000
244.814; -220.500; -621.000; -794.000
244.957;  -97.500; -380.000; -304.000
245.100; -164.400; -489.000; -489.000
245.242; -112.000; -387.000; -374.000
245.385;   19.300;  -59.000;  -39.000
245.528; -239.200; -871.000; -705.000
245.670;  188.600;  612.000;  634.000
245.813; -165.300; -599.000; -547.000
245.956;  -52.900; -324.000; -275.000
246.098; -109.700; -508.000; -650.000
246.241;   47.800;  194.000;   48.000
246.383;    3.700; -119.000;  -73.000
246.526; -136.300; -454.000; -525.000
246.669; -217.300; -889.000; -780.000
246.811;   36.900;  172.000;   -1.000
246.954; -129.600; -512.000; -426.000
247.096;  -27.400;  -84.000;   -6.000
247.239; -160.400; -482.000; -445.000
247.381; -148.100; -647.000; -488.000
247.524;  236.800;  645.000;  679.000
247.666;   -0.500;   58.000;   11.000
247.809; -227.600; -887.000; -691.000
247.951;   -9.100;  -75.000;  138.000
248.094;   96.600;  432.000;  308.000
248.236; -308.800;-1262.000;-1238.000
248.378;    6.200; -356.000;  -81.000
248.521;  -38.500; -334.000; -337.000
248.663;  -57.500; -236.000; -267.000
248.806;  -58.700; -300.000; -266.000
248.948; -196.700; -886.000; -763.000
249.090;  -87.400; -428.000; -398.000
249.233;  -75.200; -344.000; -381.000
249.375; -160.000; -474.000; -451.000
249.518;  -35.300;  -83.000; -133.000
249.660;   30.300; -103.000;    3.000
249.802; -334.400;-1303.000;-1189.000
249.945; -141.300; -612.000; -540.000
250.087; -233.600; -834.000; -768.000
250.229; -106.200; -362.000; -480.000
250.371; -132.200; -494.000; -439.000
250.514; -104.800; -310.000; -244.000
250.656; -107.100;   69.000;  102.000
250.798; -229.200; -849.000; -800.000
250.940;  -88.000; -322.000; -322.000
251.083;  -57.200; -335.000; -111.000
251.225;  147.600;  338.000;  310.000
251.367;  -94.900; -274.000; -373.000
251.509;  -55.400; -265.000; -210.000
251.651; -197.000; -731.000; -671.000
251.794;  142.600;  538.000;  632.000
251.936; -234.600; -821.000; -747.000
252.078; -128.500; -540.000; -461.000
252.220; -131.200; -645.000; -477.000
252.362;  188.600;  344.000;  462.000
252.504; -157.400; -677.000; -584.000
252.646; -189.600; -875.000; -722.000
252.788;   -0.600;   14.000; -128.000
252.931;  -47.300; -257.000; -253.000
253.073;  -69.700; -376.000; -317.000
253.215;   18.200;  141.000;  122.000
253.357;  -23.900;   82.000; -153.000
253.499;  -89.800; -374.000; -234.000
253.641; -147.500; -749.000; -594.000
253.783; -173.000; -609.000; -527.000
253.925; -167.500; -586.000; -591.000
254.067; -194.100; -744.000; -667.000
254.209;  -63.800; -391.000; -259.000
254.351; -266.300; -865.000; -883.000
254.493; -135.600; -441.000; -417.000
254.635; -168.900; -936.000; -818.000
254.777; -198.100; -752.000; -687.000
254.918; -141.800; -512.000; -430.000
255.060; -119.100; -551.000; -395.000
255.202;  -97.200; -473.000; -261.000
255.344; -147.300; -658.000; -455.000
255.486; -109.300; -471.000; -406.000
255.628; -213.000; -780.000; -781.000
255.770; -175.900; -676.000; -536.000
255.912; -104.100; -559.000; -468.000
256.053; -157.000; -730.000; -508.000
256.195;  300.800; 1008.000;  903.000
256.337; -184.300; -861.000; -595.000
256.479;  126.300;  532.000;  416.000
256.621;  -72.600; -394.000; -212.000
256.762; -178.000; -789.000; -742.000
256.904;  159.600;  485.000;  487.000
257.046;  -75.800; -381.000; -271.000
257.188;  -82.700; -351.000; -264.000
257.329; -150.700; -525.000; -464.000
257.471; -240.100; -939.000; -807.000
257.613; -106.000; -584.000; -498.000
257.755; -274.600;-1073.000; -982.000
257.896;  100.300;  286.000;  392.000
258.038; -131.700; -403.000; -352.000
258.180;  -61.900; -354.000; -279.000
258.321; -135.600; -581.000; -457.000
258.463;   13.800;  -71.000;  133.000
258.605; -184.700; -562.000; -570.000
258.746; -211.700; -886.000; -772.000
258.888; -312.900;-1026.000;-1020.000
259.029;   42.500;  121.000;   -8.000
259.171; -157.500; -614.000; -550.000
259.313;  -12.400;  -49.000;  -47.000
259.454; -142.100; -536.000; -414.000
259.596; -126.000; -483.000; -390.000
259.737; -106.500; -590.000; -474.000
259.879;  100.000;  217.000;  311.000
260.020;  216.800;  901.000;  636.000
260.162;  -32.100; -146.000; -253.000
260.303; -202.400; -768.000; -687.000
260.445; -161.200; -609.000; -613.000
260.586;  100.400;  392.000;  157.000
260.728;  -58.000; -360.000; -248.000
260.869; -116.800; -350.000; -343.000
261.011;  170.100;  706.000;  537.000
261.152; -122.600; -479.000; -319.000
261.293; -191.400; -576.000; -595.000
261.435;  -27.200; -219.000; -184.000
261.576; -103.000; -455.000; -325.000
261.718;  151.700;  420.000;  470.000
261.859; -255.800; -940.000; -949.000
262.000; -258.600; -951.000;-1016.000
262.142;  -36.300;  -52.000;  -60.000
262.283; -230.500; -808.000; -691.000
262.424; -170.200; -666.000; -625.000
262.566; -290.100;-1161.000; -983.000
262.707; -217.400; -840.000; -830.000
262.848; -224.000; -769.000; -726.000
262.990;  -84.600; -362.000; -345.000
263.131;  173.700;  650.000;  681.000
263.272;    9.100;  -61.000;  -41.000
263.413; -186.500; -589.000; -561.000
263.555; -139.300; -669.000; -143.000
263.696; -152.800; -550.000; -641.000
263.837; -104.700; -449.000; -551.000
263.978;   -2.700;   -5.000;  -77.000
264.119;  -94.800; -283.000; -264.000
264.261; -215.100; -847.000; -630.000
264.402;   25.700;   33.000;   40.000
264.543; -145.400; -509.000; -524.000
264.684;   16.300;   61.000;  -50.000
264.825; -126.800; -816.000; -538.000
264.966;  -29.300;  -84.000;  -67.000
265.107; -205.700; -646.000; -670.000
265.248; -252.300; -825.000; -812.000
265.390;  -12.600;  152.000;   -9.000
265.531;  -15.500; -238.000; -107.000
265.672; -147.700; -557.000; -630.000
265.813;  183.400;  563.000;  439.000
265.954; -254.100; -959.000; -940.000
266.095;  -15.400; -372.000; -322.000
266.236; -171.600; -686.000; -548.000
266.377;  -91.800; -243.000; -297.000
266.518; -123.600; -619.000; -547.000
266.659;   61.100;  170.000;  268.000
266.800;   46.000;   83.000;   85.000
266.941; -147.500; -487.000; -478.000
267.082;  101.300;  354.000;   99.000
267.223;  -96.700; -344.000; -273.000
267.364; -198.300; -892.000; -686.000
267.504;   -9.300;    3.000;  135.000
267.645;   31.300;  160.000;   67.000
267.786;  -59.900; -147.000;  -86.000
267.927; -132.800; -473.000; -379.000
268.068;  -31.000; -186.000;  -61.000
268.209;  -86.300; -175.000; -413.000
268.350; -114.200; -388.000; -532.000
268.490; -182.200; -648.000; -521.000
268.631;   88.700;  127.000;  225.000
268.772; -223.900; -874.000; -647.000
268.913;  -55.700; -328.000; -476.000
269.054;  -15.700; -117.000;   12.000
269.194;  -77.000; -418.000; -402.000
269.335; -307.300;-1137.000;-1074.000
269.476;  -20.400;   33.000;  -35.000
269.617;  -58.500; -347.000; -392.000
269.757; -178.400; -713.000; -646.000
269.898; -165.900; -856.000; -613.000
270.039; -135.200; -415.000; -405.000
270.180; -254.500; -952.000; -816.000
270.320;  -29.600; -190.000; -250.000
270.461;  -47.300; -277.000; -249.000
270.602;   -0.500; -186.000; -156.000
270.742; -239.700; -868.000; -943.000
270.883; -120.500; -442.000; -390.000
271.023; -104.600; -358.000; -357.000
271.164; -148.400; -607.000; -528.000
271.305; -175.900; -666.000; -654.000
271.445; -193.300; -722.000; -683.000
271.586; -107.500; -462.000; -283.000
271.726;  -79.900; -397.000; -322.000
271.867;  -92.200; -594.000; -534.000
272.008;  341.800; -473.000; -285.000
272.148;  294.300;  462.000;  468.000
272.289;   28.000; -113.000; -181.000
272.429;   35.300;   19.000;  185.000
272.570; -183.800; -633.000; -737.000
272.710; -187.000; -825.000; -775.000
272.851;  -42.400;  113.000; -130.000
272.991; -319.600;-1173.000;-1077.000
273.131; -106.800; -419.000; -459.000
273.272; -176.000; -683.000; -723.000
273.412;   14.600; -143.000;  -31.000
273.553;  -91.000; -488.000; -507.000
273.693;  299.300;  913.000;  858.000
273.834; -137.600; -894.000; -692.000
273.974; -169.100; -664.000; -615.000
274.114; -197.600; -772.000; -560.000
274.255;  152.800;  414.000;  373.000
274.395;   46.500; -180.000; -125.000
274.535;   74.000;  199.000;  350.000
274.676;   82.800;  225.000;   94.000
274.816;   20.900;  110.000;   34.000
274.956; -169.400; -624.000; -690.000
275.097; -142.400;-1014.000; -922.000
275.237; -215.700; -913.000; -803.000
275.377; -188.300; -778.000; -689.000
275.517; -267.200; -878.000; -937.000
275.658; -127.600; -590.000; -555.000
275.798; -124.500; -606.000; -413.000
275.938;   64.800;  215.000;  323.000
276.078; -171.500; -626.000; -395.000
276.218;   -0.300;   99.000;  104.000
276.359; -259.100;-1026.000;-1024.000
276.499; -126.100; -605.000; -446.000
276.639;  -26.900; -305.000; -151.000
276.779;  -86.200; -475.000; -357.000
276.919; -189.900; -783.000; -624.000
277.059;  -17.200; -261.000; -212.000
277.199;  -56.400; -357.000; -259.000
277.340;  149.100;  287.000;  175.000
277.480; -227.500; -840.000; -693.000
277.620;   95.100;  192.000;   16.000
277.760; -404.500;-1533.000;-1294.000
277.900;   35.100;  113.000;   33.000
278.040;   39.100;  137.000;  159.000
278.180;   84.100;  270.000;  170.000
278.320;   27.900;   21.000;   56.000
278.460; -115.000; -443.000; -469.000
278.600; -174.100; -708.000; -598.000
278.740;  136.600;  448.000;  224.000
278.880; -121.900; -768.000; -791.000
279.020;   66.300; -194.000; -144.000
279.160; -160.600; -672.000; -595.000
279.300; -245.300; -926.000; -873.000
279.440; -133.400; -709.000; -622.000
279.579;  -47.500;-1014.000; -929.000
279.719;  -82.100; -410.000; -394.000
279.859;  149.200;   -4.000;   41.000
279.999;   77.300; -208.000;  101.000
280.139;  -43.400; -435.000; -387.000
280.279; -112.700; -708.000; -745.000
280.419;  -10.100; -229.000; -147.000
280.559;  -51.400; -259.000; -180.000
280.698; -160.000; -790.000; -639.000
280.838; -177.100; -778.000; -800.000
280.978; -191.300; -846.000; -790.000
281.118; -210.700; -811.000; -704.000
281.257;   10.300;   24.000;    6.000
281.397; -206.700;-1094.000; -960.000
281.537; -182.600; -599.000; -712.000
281.677;   -6.700; -150.000; -101.000
281.816; -160.600; -700.000; -630.000
281.956;  -20.600; -193.000; -257.000
282.096; -129.500; -539.000; -396.000
282.235; -165.300; -672.000; -638.000
282.375;  -31.300; -243.000;  -98.000
282.515; -181.200; -715.000; -707.000
282.654;   66.800;   29.000;  106.000
282.794;  102.300;  388.000;  244.000
282.934; -110.100; -530.000; -491.000
283.073; -238.900;-1030.000; -857.000
283.213;  -63.600; -460.000; -467.000
283.353;  -52.000; -408.000; -349.000
283.492;  -45.700; -264.000; -296.000
283.632;  -60.100; -254.000; -168.000
283.771; -197.800; -859.000; -730.000
283.911; -104.300; -369.000; -260.000
284.050; -195.600; -794.000; -748.000
284.190; -329.000;-1229.000;-1096.000
284.329; -294.700;-1055.000; -964.000
284.469; -131.100; -516.000; -591.000
284.608; -105.200; -559.000; -598.000
284.748; -122.700; -614.000; -570.000
284.887;   51.600;  -87.000;  -20.000
285.027; -254.300; -844.000; -892.000
285.166;  -53.300; -192.000; -249.000
285.306;   39.400; -116.000;  -33.000
285.445;  -71.800; -229.000; -343.000
285.584; -188.600; -630.000; -494.000
285.724;  -90.000; -282.000; -322.000
285.863; -193.100; -857.000; -507.000
286.002;  -93.000; -366.000; -276.000
286.142; -198.400; -715.000; -622.000
286.281; -135.600; -525.000; -493.000
286.420;  -99.400; -554.000; -417.000
286.560;  241.500;  653.000;  623.000
286.699; -288.400; -958.000; -912.000
286.838; -172.700; -590.000; -591.000
286.978; -170.500; -533.000; -537.000
287.117; -280.000;-1085.000; -950.000
287.256;  -24.300; -228.000; -211.000
287.395; -107.300; -197.000; -378.000
287.535;  -86.000; -370.000; -298.000
287.674; -136.300; -509.000; -484.000
287.813;  119.500;  661.000;  533.000
287.952; -250.000;-1010.000; -871.000
288.091; -262.800;-1049.000; -915.000
288.231;   48.900;   13.000;   15.000
288.370; -330.700;-1217.000;-1200.000
288.509; -165.800; -728.000; -645.000
288.648; -159.600; -770.000; -548.000
288.787;  -41.500; -243.000;  -87.000
288.926; -145.600; -454.000; -475.000
289.065;  272.700;  859.000;  672.000
289.204;  -72.100; -377.000; -217.000
289.344; -166.400; -791.000; -690.000
289.483;   67.300;  416.000;  304.000
289.622;  -24.800; -291.000; -149.000
289.761;  -38.300; -309.000; -166.000
289.900; -198.400; -785.000; -626.000
290.039;   16.500;  -12.000;  -95.000
290.178;  -73.700; -274.000; -180.000
290.317; -149.100; -618.000; -479.000
290.456; -106.100; -463.000; -451.000
290.595; -284.300; -961.000; -833.000
290.734; -270.900; -904.000; -891.000
290.873; -142.500; -456.000; -420.000
291.011; -218.900; -833.000; -843.000
291.150; -195.000; -770.000; -682.000
291.289;  -48.500; -343.000; -110.000
291.428; -160.400; -599.000; -480.000
291.567; -107.500; -370.000; -442.000
291.706;   14.200;  109.000;  154.000
291.845; -166.500; -597.000; -505.000
291.984; -325.500;-1234.000;-1061.000
292.122;  151.000;  602.000;  582.000
292.261;  134.100;  620.000;  463.000
292.400;   24.900; -144.000;  211.000
292.539; -255.700; -959.000; -813.000
292.678;  -53.200; -325.000; -300.000
292.816; -295.800;-1136.000; -965.000
292.955; -171.000; -844.000; -684.000
293.094;  -19.400; -173.000; -337.000
293.233;  -77.100; -556.000; -400.000
293.371;  -65.200; -225.000;  -84.000
293.510; -230.100; -866.000; -780.000
293.649; -241.700; -959.000; -924.000
293.787; -101.900;-1083.000;-1012.000
293.926;   16.900; -113.000;  -32.000
294.065;  -77.500; -379.000; -290.000
294.203;  138.000;  298.000;  406.000
294.342;  127.500;   74.000;  156.000
294.481;13309.200;51180.000; -836.000
294.619;  -25.400; -425.000; -582.000
294.758; -280.800;-1230.000;-1137.000
294.896;  127.000; -125.000;    5.000
295.035; -214.900;-1040.000;-1006.000
295.174; -254.100;-1082.000; -954.000
295.312;  -69.700; -323.000; -203.000
295.451;    1.900; -307.000; -428.000
295.589; -103.400; -389.000; -518.000
295.728;   31.400; -292.000; -165.000
295.866;   28.000;  -36.000;  -51.000
296.005; -120.600; -584.000; -341.000
296.143;  -96.500; -558.000; -596.000
296.282; -218.400; -957.000; -881.000
296.420; -152.900; -657.000; -557.000
296.559; -156.800; -892.000; -633.000
296.697;   11.900; -847.000; -665.000
296.835;  120.600;-1141.000;-1002.000
296.974;  130.500;  -23.000;   39.000
297.112;   30.900; -443.000; -504.000
297.251; -131.400; -815.000; -755.000
297.389;  141.300; -576.000; -438.000
297.527;  132.000; -145.000;  -83.000
297.666; -107.100; -486.000; -438.000
297.804;  -68.400; -404.000; -264.000
297.942;   23.900; -136.000; -161.000
298.081;   25.200; -183.000;   63.000
298.219;  157.200;  -17.000;  -19.000
298.357;   98.800; -144.000;  -71.000
298.495;   81.900; -810.000; -812.000
298.634;  197.200;  245.000;  219.000
298.772;   94.000; -220.000; -338.000
298.910;  -27.000; -309.000; -182.000
299.048;    2.100; -130.000; -153.000
299.187;  -26.800; -350.000; -250.000
299.325;   42.700;   52.000;  122.000
299.463;   94.200; -389.000; -299.000
299.601;  198.200; -327.000; -271.000
299.739; -210.600; -908.000; -883.000
299.877; -136.600; -791.000; -703.000
300.016;  -77.400;-1095.000; -935.000
300.154;  317.700;  -19.000; -161.000
300.292;  113.700; -428.000; -348.000
300.430;   61.100; -408.000; -291.000
300.568; -207.200; -940.000; -874.000
300.706;  -70.600; -366.000; -469.000
300.844; -147.800;-1108.000; -979.000
300.982;  249.200;  246.000;  282.000
301.120; -200.000; -965.000; -866.000
301.258; -119.100; -812.000; -705.000
301.396;  119.800;  104.000;  -41.000
301.534;  151.200; -218.000; -293.000
301.672;  -17.100; -664.000; -521.000
301.810;    9.500; -613.000; -545.000
301.948;  278.200;   53.000;  149.000
302.086; 1111.600; -250.000;  -32.000
302.224; 1743.100; -610.000; -585.000
302.362;   80.400; -558.000; -622.000
302.500;  -46.200; -923.000; -893.000
302.638;  209.100;  128.000;  245.000
302.776;   44.400; -352.000; -408.000
302.913;  130.300;  447.000;  236.000
303.051;   25.700;  -86.000;  -23.000
303.189;  147.400;   90.000;  118.000
303.327;  -24.400; -341.000; -256.000
303.465; -161.400; -832.000; -588.000
303.603; -170.200; -805.000; -604.000
303.740;  262.800;  417.000;  241.000
303.878;   38.000; -800.000; -759.000
304.016; -166.300; -915.000; -790.000
304.154; -253.700;-1123.000;-1152.000
304.291;  -60.800; -505.000; -554.000
304.429;   53.300;  102.000;   74.000
304.567; -250.700; -908.000; -893.000
304.705; -111.500; -408.000; -515.000
304.842;  164.600; -616.000; -540.000
304.980;  137.700;  215.000;   35.000
305.118;  105.200; -367.000; -365.000
305.255; -146.700; -945.000; -927.000
305.393;  108.500;  178.000;  239.000
305.531; -190.500;-1173.000; -956.000
305.668; -126.700; -663.000; -582.000
305.806;  205.900; -358.000; -439.000
305.943;  178.400; -629.000; -637.000
306.081;  136.100; -378.000; -267.000
306.219; -185.500; -863.000; -748.000
306.356;   53.400;  158.000;   27.000
306.494;  284.400;  981.000;  761.000
306.631;   74.100;  -11.000;  -55.000
306.769;    9.700; -613.000; -485.000
306.906;    8.300; -284.000; -258.000
307.044; -106.800; -473.000; -488.000
307.181;  -83.400; -410.000; -332.000
307.319;  114.500;  112.000;   87.000
307.456; -305.100;-1191.000;-1153.000
307.594; -190.700; -980.000; -727.000
307.731;    5.600; -371.000; -164.000
307.868;   39.600;  -15.000;   20.000
308.006; -249.100; -961.000; -847.000
308.143; -130.000; -618.000; -330.000
308.281;  464.800;  -37.000; -254.000
308.418;   49.300; -748.000; -640.000
308.555; -116.800; -400.000; -250.000
308.693; -130.100; -577.000; -573.000
308.830; -179.100; -712.000; -657.000
308.967;   24.400; -215.000;  -95.000
309.105;  -55.900; -507.000; -396.000
309.242;  116.100; -468.000; -367.000
309.379;  864.900; -577.000; -655.000
309.517;  -69.600; -936.000; -948.000
309.654; -207.100; -910.000; -734.000
309.791; -112.000; -662.000; -580.000
309.928; -205.800; -977.000; -914.000
310.065;  390.600;  819.000;  697.000
310.203;   -7.000; -825.000; -850.000
310.340;   34.300; -465.000; -321.000
310.477; -143.400; -412.000; -516.000
310.614; -113.800; -383.000; -473.000
310.751; -127.600; -427.000; -518.000
310.889;  -25.200;    1.000;   11.000
311.026; -260.500;-1161.000; -939.000
311.163;  -44.500; -386.000; -380.000
311.300; -127.100; -512.000; -479.000
311.437; -140.900; -658.000; -619.000
311.574; -299.300;-1226.000; -985.000
311.711; -126.200; -595.000; -433.000
311.848;  -68.100; -380.000; -388.000
311.985;   51.900;  270.000;   93.000
312.122; -205.500; -932.000; -762.000
312.259; -219.500; -941.000; -994.000
312.396; -114.400; -508.000; -551.000
312.533; -151.800; -812.000; -790.000
312.670; -231.700;-1070.000; -898.000
312.807;  -62.000; -352.000; -367.000
312.944; -129.300; -513.000; -611.000
313.081;  -54.200; -150.000; -415.000
313.218; -165.500;-1111.000; -867.000
313.355;   66.200; -531.000; -449.000
313.492;   43.100; -455.000; -292.000
313.629;  326.700;  815.000;  735.000
313.766; -275.000;-1176.000;-1008.000
313.902;  -25.900; -186.000;   21.000
314.039;  -51.000; -372.000; -289.000
314.176;   77.200;  286.000;  192.000
314.313;  -88.600; -569.000; -473.000
314.450; -126.900; -788.000; -684.000
314.587;  -73.900; -468.000; -480.000
314.723;   33.800;  -78.000;  130.000
314.860;  122.100;  318.000;  332.000
314.997;   70.300;  223.000;  142.000
315.134;  -68.800; -385.000; -368.000
315.270;  -32.700; -480.000; -496.000
315.407; -227.200;-1094.000; -967.000
315.544;  -85.600; -657.000; -538.000
315.681; -100.300; -681.000; -565.000
315.817;   57.900; -133.000; -176.000
315.954;   58.400; -613.000; -392.000
316.091; -231.800;-1045.000;-1023.000
316.227;  -15.200;  -71.000; -179.000
316.364;   41.000;   23.000;    6.000
316.500;  -45.200; -113.000; -300.000
316.637;  -40.500; -181.000; -302.000
316.774; -140.900; -625.000; -358.000
316.910; -150.100; -598.000; -629.000
317.047; -100.200; -487.000; -351.000
317.183;  -88.500; -435.000; -566.000
317.320;   34.400; -367.000; -321.000
317.456; -117.400; -733.000; -805.000
317.593; -142.400; -598.000; -641.000
317.729;   23.300;  168.000;  -67.000
317.866; -392.500;-1434.000;-1285.000
318.002; -177.300; -708.000; -948.000
318.139; -190.300; -883.000; -867.000
318.275; -205.100;-1003.000; -738.000
318.412; -107.000; -517.000; -336.000
318.548;  -33.300; -751.000; -720.000
318.685; -174.100; -985.000; -888.000
318.821; -157.000; -762.000; -735.000
318.957;   -5.700;   34.000;  -23.000
319.094;  130.400;  297.000;  154.000
319.230;  -99.800; -756.000; -742.000
319.367;  238.100; -471.000; -520.000
319.503;  154.100; -538.000; -436.000
319.639; -166.000; -877.000; -793.000
319.775;  -94.800; -750.000; -685.000
319.912;  -77.000; -424.000; -519.000
320.048; -136.600;-1184.000;-1184.000
320.184;  196.300;   59.000;   70.000
320.321;  -69.600; -497.000; -467.000
320.457;  159.700;  475.000;  662.000
320.593;  -51.800; -375.000; -382.000
320.729; -177.400; -732.000; -734.000
320.866; -122.400; -577.000; -635.000
321.002; -124.600; -759.000; -809.000
321.138;   13.700; -135.000; -211.000
321.274;  179.700; -148.000; -115.000
321.410;  -62.400; -585.000; -353.000
321.546;  -55.500;-1011.000; -911.000
321.683;  151.900;  400.000;  185.000
321.819;   61.700;  -48.000; -117.000
321.955; -175.700; -743.000; -722.000
322.091;  -57.000; -585.000; -540.000
322.227;   14.500; -382.000; -202.000
322.363;    9.300; -320.000; -215.000
322.499;  -69.200; -343.000; -331.000
322.635;  343.300;  636.000;  443.000
322.771;  142.800; -139.000;   12.000
322.907;  197.000;  129.000;  327.000
323.043;   15.900; -115.000; -206.000
323.179;  -67.000; -394.000; -363.000
323.315;   44.500; -401.000; -371.000
323.451;  170.000; -328.000; -236.000
323.587;  169.200;  -60.000;  -77.000
323.723;    1.300; -682.000; -601.000
323.859;    0.800; -258.000;  -76.000
323.995;  -17.500; -467.000; -409.000
324.131; -223.000; -967.000; -892.000
324.267;  -42.600; -254.000; -276.000
324.402; -264.100; -960.000; -983.000
324.538;  -28.700; -279.000; -104.000
324.674;   73.100;  164.000;   77.000
324.810;  284.000;  226.000;  308.000
324.946;   42.700; -810.000; -658.000
325.082;  -98.000; -568.000; -475.000
325.217;   22.700;  -62.000;   16.000
325.353; -167.900; -764.000; -659.000
325.489; -137.500; -540.000; -506.000
325.625; -142.100; -579.000; -525.000
325.760;  208.600;  517.000;  376.000
325.896;  -28.100; -515.000; -702.000
326.032;  -40.900; -403.000; -352.000
326.168; -124.300; -462.000; -369.000
326.303;  -64.000; -352.000; -461.000
326.439;    3.800; -336.000; -276.000
326.575;   43.300; -190.000;  -29.000
326.710;   15.500; -156.000;  -30.000
326.846;   34.500;  146.000;  103.000
326.982; -156.000; -530.000; -548.000
327.117;  -88.600; -481.000; -442.000
327.253; -195.700; -745.000; -742.000
327.388; -252.900;-1137.000;-1153.000
327.524;  -95.200; -811.000; -578.000
327.659;  -11.600;  -58.000;  -22.000
327.795;   -1.400;   69.000;   45.000
327.931; -152.700; -723.000; -499.000
328.066;  -32.000; -417.000; -276.000
328.202;   15.800;   12.000; -129.000
328.337;  263.300;  957.000;  713.000
328.473;   24.000;  -12.000;  -74.000
328.608;  -15.700; -256.000; -267.000
328.743; -155.000; -799.000; -664.000
328.879;   87.500;  214.000;  114.000
329.014;  -69.900; -102.000; -122.000
329.150; -152.200; -358.000; -483.000
329.285; -111.200; -465.000; -466.000
329.421;  -85.000; -548.000; -246.000
329.556;    8.300;  -36.000;   85.000
329.691; -184.000; -633.000; -615.000
329.827; -135.800; -626.000; -480.000
329.962;  -51.400;  131.000; -301.000
330.097; -142.200; -673.000; -585.000
330.233;  -79.300; -410.000; -223.000
330.368; -205.800; -839.000; -628.000
330.503;   14.300;    3.000;   98.000
330.638;   50.400;  -93.000; -125.000
330.774;  -99.400; -609.000; -530.000
330.909;  -78.200; -434.000; -244.000
331.044; -168.100; -714.000; -708.000
331.179; -303.100;-1217.000;-1109.000
331.315;   32.300;   77.000;   20.000
331.450;   83.900;  157.000;  285.000
331.585; -164.400; -805.000; -706.000
331.720; -142.600; -510.000; -460.000
331.855;   10.400;  -35.000; -102.000
331.990;  541.300;   62.000;  138.000
332.126;  283.700; -110.000;   71.000
332.261;   -6.000; -379.000; -265.000
332.396;   24.200; -135.000; -242.000
332.531; -166.400;-1074.000;-1031.000
332.666;   82.300; -519.000; -363.000
332.801; -176.900; -726.000; -807.000
332.936;   -6.000; -192.000; -122.000
333.071; -254.500; -870.000; -817.000
333.206;   88.200;  307.000;  379.000
333.341;  135.300;  344.000;  418.000
333.476; -179.200; -627.000; -623.000
333.611;  -35.600; -251.000; -173.000
333.746;  -61.500; -381.000; -464.000
333.881; -186.200; -973.000; -935.000
334.016; -261.600; -936.000; -917.000
334.151; -215.400; -746.000; -702.000
334.286;  115.600;  152.000;  186.000
334.421;   15.700; -125.000; -178.000
334.556; -142.400; -611.000; -567.000
334.690; -153.400; -631.000; -577.000
334.825;  133.600;  381.000;   83.000
334.960; -100.200; -285.000; -413.000
335.095;   32.600;  135.000;  -91.000
335.230; -173.100; -722.000; -738.000
335.365; -279.400;-1084.000; -990.000
335.499; -229.200;-1108.000;-1037.000
335.634;   63.400;    9.000;  534.000
335.769; -162.000; -755.000; -720.000
335.904; -100.900; -603.000; -561.000
336.038;  -69.500; -735.000; -657.000
336.173; -246.600;-1206.000;-1194.000
336.308;   45.600; -116.000; -189.000
336.443;   53.000; -544.000; -634.000
336.577; -144.100; -936.000; -787.000
336.712;  129.900;   -4.000;  -12.000
336.847;  -66.700; -724.000; -607.000
336.981;  137.700; -272.000; -208.000
337.116;  571.600;  615.000;  501.000
337.250;  285.700; -434.000; -421.000
337.385;  540.800; -297.000; -208.000
337.520;  227.500; -632.000; -603.000
337.654;  -23.300; -215.000; -126.000
337.789; -246.000; -989.000; -933.000
337.923;    1.900; -104.000; -205.000
338.058; -150.700; -673.000; -738.000
338.192;  -28.600; -611.000; -488.000
338.327;  -15.100;  -18.000; -155.000
338.461;  -61.500; -299.000; -469.000
338.596; -165.800; -780.000; -638.000
338.730; -143.500; -767.000; -803.000
338.865;  233.200;  -46.000; -140.000
338.999;  -52.000; -846.000; -702.000
339.134;  -23.700; -634.000; -536.000
339.268;   36.800; -741.000; -603.000
339.403;  717.200; -740.000; -775.000
339.537;  249.000; -894.000; -820.000
339.671; -184.800; -829.000; -813.000
339.806;  -75.400; -556.000; -512.000
339.940;   59.300; -261.000; -235.000
340.074; -166.800; -685.000; -510.000
340.209;  -30.700; -351.000; -230.000
340.343; -151.400; -517.000; -573.000
340.477;  345.800;  998.000; 1036.000
340.612;  -71.100;-1033.000; -900.000
340.746;  311.100; -199.000; -243.000
340.880; -137.700; -924.000; -785.000
341.014;   -5.300;  -45.000; -154.000
341.149; -190.500; -756.000; -718.000
341.283; -221.300; -839.000; -754.000
341.417; -174.700;-1124.000; -938.000
341.551;  188.700; -768.000; -708.000
341.685;  -40.300; -633.000; -611.000
341.820;  -66.600; -562.000; -493.000
341.954;  -78.100; -218.000; -349.000
342.088; -280.300;-1102.000;-1019.000
342.222;  136.100;  565.000;  618.000
342.356;  -86.900; -395.000; -335.000
342.490; -180.000; -880.000; -841.000
342.624;  -65.100; -339.000; -242.000
342.758;   -6.300; -364.000; -312.000
342.892;  -95.600; -710.000; -585.000
343.026;  -46.500;  -58.000; -116.000
343.160;  -98.400; -426.000; -376.000
343.294; -118.400; -474.000; -337.000
343.428;  -21.900; -488.000; -448.000
343.562;   13.300; -172.000;  -23.000
343.696;   -2.600; -385.000; -314.000
343.830;    2.800; -362.000; -356.000
343.964;   49.100; -231.000; -168.000
344.098; 1653.500;  199.000;   70.000
344.232; 1438.500; -266.000; -127.000
344.366;  200.700; -567.000; -453.000
344.500;  122.500; -665.000; -744.000
344.634;   87.900; -324.000; -164.000
344.768;  -13.600; -531.000; -341.000
344.902;   86.500;  278.000;  256.000
345.035; -102.700; -556.000; -496.000
345.169; -231.600; -933.000; -656.000
345.303;  -12.700; -308.000; -482.000
345.437; -126.000; -826.000; -717.000
345.571; -125.100; -675.000; -594.000
345.704;  -86.700; -309.000; -532.000
345.838;   -9.300; -331.000; -284.000
345.972;  -83.700; -543.000; -495.000
346.106;  359.000; -179.000; -190.000
346.239;  871.100; -312.000; -243.000
346.373;   42.900; -343.000; -302.000
346.507; -231.800; -950.000; -962.000
346.640;  254.300;  -30.000;   13.000
346.774;  -27.200; -650.000; -797.000
346.908;   -8.500; -138.000;  -11.000
347.041; -136.800; -646.000; -593.000
347.175;   33.600;  259.000;   27.000
347.309; -126.700; -698.000; -628.000
347.442; -190.300; -883.000; -732.000
347.576;  558.100;  670.000;  668.000
347.709;  357.000; -123.000;  -52.000
347.843; -147.100; -933.000; -825.000
347.976;  130.500;  235.000;  294.000
348.110; -327.700;-1268.000;-1186.000
348.243; -172.100; -679.000; -772.000
348.377;   46.600;  -26.000;   60.000
348.510;  153.200;  403.000;  540.000
348.644;  -28.100;  -37.000; -159.000
348.777;   31.200;  180.000;  191.000
348.911;  -28.900; -142.000; -112.000
349.044;  359.600;  471.000;  448.000
349.178;  263.100;-1069.000;-1006.000
349.311;  284.300;  141.000;  255.000
349.444;    8.300; -927.000; -813.000
349.578;  -12.900; -347.000; -200.000
349.711; -171.200; -959.000; -862.000
349.845;   -1.200; -661.000; -591.000
349.978; -285.800;-1224.000;-1137.000
350.111; -164.700; -546.000; -612.000
350.244;  -85.100; -596.000; -700.000
350.378;   29.200; -392.000; -393.000
350.511;  -69.000; -393.000; -426.000
350.644; -176.400; -808.000; -806.000
350.778;   80.300;  168.000;  104.000
350.911;   36.100;  134.000;  140.000
351.044; -136.400; -685.000; -615.000
351.177;  -48.100; -321.000; -281.000
351.310;   27.000;    3.000; -131.000
351.444; -122.600; -888.000; -788.000
351.577;  306.900;  140.000;   90.000
351.710;  240.500;  593.000;  417.000
351.843;  -20.000; -165.000;  -77.000
351.976;   26.400;  149.000;  -79.000
352.109; -140.800; -621.000; -612.000
352.242;  -33.700; -464.000; -419.000
352.376; -110.200; -580.000; -636.000
352.509;  315.100; -437.000; -356.000
352.642;   20.600; -654.000; -604.000
352.775;  144.800; -141.000;  -98.000
352.908; -217.600; -933.000; -904.000
353.041; -178.000; -814.000; -824.000
353.174;  -70.600; -551.000; -424.000
353.307; -152.700; -753.000; -764.000
353.440;  199.000;  541.000;  453.000
353.573; -213.000; -957.000;-1008.000
353.706;  -63.800; -384.000; -558.000
353.839;  -16.800; -264.000; -220.000
353.971; -155.700; -657.000; -512.000
354.104; -173.300; -896.000; -835.000
354.237;  -39.800; -627.000; -662.000
354.370; -145.300; -846.000; -879.000
354.503; -343.900;-1231.000;-1308.000
354.636;  -79.400; -529.000; -348.000
354.769; -234.700; -937.000; -860.000
354.902;   -7.000; -230.000; -139.000
355.034;   -0.600; -164.000; -220.000
355.167;   19.600; -262.000; -162.000
355.300; -118.500;-1061.000; -880.000
355.433; 1918.000;  -71.000;  -14.000
355.565; 3038.400; -402.000; -384.000
355.698;  781.300; -356.000; -296.000
355.831;   28.600; -882.000; -801.000
355.964;  163.900; -285.000; -170.000
356.096; -134.100; -856.000; -843.000
356.229;   -5.200; -523.000; -530.000
356.362;  675.100; -373.000; -266.000
356.494; 1224.100; -229.000; -162.000
356.627;  933.200;  269.000;  377.000
356.760; 1300.700;  120.000;   53.000
356.892; 1939.600; -286.000; -601.000
357.025; 1216.000;  403.000;  389.000
357.157; 1129.500; -167.000; -179.000
357.290; 1313.500; -856.000; -713.000
357.423;  410.100; -667.000; -556.000
357.555;  236.700; -217.000; -228.000
357.688;  293.500; -483.000; -364.000
357.820;  831.000; -870.000; -877.000
357.953; 6746.100; -563.000; -589.000
358.085; 1405.200; -632.000; -612.000
358.218; 1979.800;-1131.000; -932.000
358.350;  467.500;  -58.000;  312.000
358.483; -221.700;-1300.000;-1187.000
358.615;  -32.300;-1182.000;-1078.000
358.747; -124.700;-1187.000;-1058.000
358.880;   37.800; -810.000; -744.000
359.012;   17.700; -376.000; -202.000
359.145;  -53.100; -480.000; -511.000
359.277;  118.100; -962.000; -913.000
359.409; 5513.700;  536.000;  231.000
359.542; 1411.500; -738.000; -688.000
359.674;  210.500;   46.000;   13.000
359.806;  -80.400; -565.000; -438.000
359.939;  -11.500; -617.000; -516.000
360.071;   21.300; -583.000; -579.000
360.203;  -12.200; -411.000; -364.000
360.335;  142.000;  164.000;  -16.000
360.468;  359.100; -249.000; -307.000
360.600; 4542.900; -547.000; -454.000
360.732; 5622.800; -546.000; -423.000
360.864;  739.700;-1216.000;-1044.000
360.996;  575.400; -516.000; -554.000
361.129;   92.500; -389.000; -598.000
361.261;   87.500;  110.000; -113.000
361.393;  -16.400; -252.000; -214.000
361.525;  118.000;   94.000;  244.000
361.657;  -56.500; -821.000; -703.000
361.789;   65.600; -139.000; -155.000
361.921;  431.700; -642.000; -593.000
362.053;  549.700;  524.000;  541.000
362.185;  135.400;  288.000;   72.000
362.318; -120.100; -709.000; -705.000
362.450;  300.900;  294.000;  444.000
362.582;  150.700; -913.000; -870.000
362.714;  -39.000; -353.000; -332.000
362.846; -147.500; -606.000; -490.000
362.978; -242.100; -941.000; -811.000
363.109;  127.300; -161.000; -260.000
363.241;  804.600; -739.000; -749.000
363.373;  853.500; -649.000; -564.000
363.505; 1357.200; -186.000;  -91.000
363.637;  358.700; -787.000; -601.000
363.769; -234.500;-1067.000;-1080.000
363.901; -120.200; -596.000; -654.000
364.033; -217.200;-1103.000;-1062.000
364.165;  -14.700; -283.000; -283.000
364.296;  219.100; -316.000; -177.000
364.428;  162.200;-1344.000;-1220.000
364.560;  -68.900; -679.000; -661.000
364.692;  -94.500; -738.000; -835.000
364.824;  528.000; -588.000; -456.000
364.955;  858.900; -402.000; -564.000
365.087; 1879.500;-1097.000; -852.000
365.219;   67.500; -686.000; -816.000
365.351;  -87.700; -526.000; -572.000
365.482;  195.200;  300.000;  240.000
365.614;  -42.200; -402.000; -314.000
365.746; -167.300; -729.000; -752.000
365.877; -140.500; -706.000; -672.000
366.009;  573.600;  -35.000;  -62.000
366.141; -153.800;-1249.000;-1134.000
366.272; -190.900; -803.000; -719.000
366.404; -184.800;-1005.000; -874.000
366.535;  -11.800; -139.000;  -12.000
366.667; -153.300; -644.000; -649.000
366.799;  148.500;  353.000;  203.000
366.930; -188.000; -862.000; -996.000
367.062;  283.500; -639.000; -613.000
367.193;  349.600; -872.000; -842.000
367.325; -123.100; -580.000; -684.000
367.456;  114.100; -246.000;   31.000
367.588;  342.900; -371.000; -318.000
367.719;   87.900;  -44.000;  -45.000
367.851;  -24.300; -222.000; -241.000
367.982;  -75.500; -875.000; -732.000
368.113;  191.800; -475.000; -358.000
368.245; -177.500; -960.000; -841.000
368.376;    7.600; -254.000; -302.000
368.508;  -29.600; -188.000; -263.000
368.639; -247.500;-1166.000;-1034.000
368.770;   -5.200; -670.000; -589.000
368.902; -103.900; -836.000; -926.000
369.033; -189.600; -906.000; -855.000
369.164;  -68.700; -720.000; -653.000
369.296; -150.300; -452.000; -601.000
369.427;   15.900; -209.000; -144.000
369.558;  -66.900; -593.000; -377.000
369.689; -135.000; -721.000; -569.000
369.821; -229.900; -951.000; -845.000
369.952;    9.300;   42.000; -108.000
370.083;  -44.400; -229.000; -108.000
370.214; -137.600; -735.000; -650.000
370.345;   49.700;   65.000;   81.000
370.477; -136.400; -810.000; -790.000
370.608;  476.100; -328.000; -264.000
370.739;  -96.500;-1233.000;-1292.000
370.870;  -57.300;-1102.000; -923.000
371.001;  186.600; -378.000; -467.000
371.132; -109.500; -754.000; -735.000
371.263;   30.000;  -42.000; -148.000
371.394; -254.100; -841.000; -748.000
371.525;   98.900;  345.000;  225.000
371.657; -134.300; -808.000; -670.000
371.788;  191.600;  103.000;  199.000
371.919;  328.800; -384.000; -304.000
372.050; 6609.400;  -91.000; -156.000
372.181; 1915.100; -188.000; -294.000
372.311;  692.600;   42.000; -127.000
372.442;  101.300; -457.000; -451.000
372.573;  -10.200; -444.000; -340.000
372.704; -220.100;-1008.000; -980.000
372.835;  162.300; -228.000; -289.000
372.966;  -67.900; -646.000; -554.000
373.097; -115.400; -575.000; -711.000
373.228;  -51.900; -717.000; -542.000
373.359;  239.500; -824.000; -536.000
373.490; 1749.200; -881.000; -727.000
373.620; 2041.700;-1001.000; -803.000
373.751; 3257.600; -332.000; -396.000
373.882; 1353.400; -663.000; -733.000
374.013;  156.700; -449.000; -262.000
374.143;  -35.000; -581.000; -659.000
374.274; -156.800; -987.000; -908.000
374.405;  348.300; -388.000; -276.000
374.536;  784.800; -526.000; -387.000
374.666; 1994.600; -759.000; -807.000
374.797;  416.000; -817.000; -868.000
374.928; 1572.400; -710.000; -560.000
375.058; 1585.400; -535.000; -500.000
375.189;  171.500;  -59.000;  -93.000
375.320; -144.000; -928.000;-1034.000
375.450;  -47.000; -625.000; -616.000
375.581;  -46.600; -526.000; -436.000
375.712;   -2.500; -574.000; -250.000
375.842;  614.400; -438.000; -415.000
375.973;  405.400; -554.000; -513.000
376.103;  -36.700; -665.000; -648.000
376.234; -127.300; -531.000; -552.000
376.364;  -67.500; -944.000; -867.000
376.495;  678.700;  925.000;  529.000
376.625;   24.000; -472.000; -485.000
376.756;  141.300; -709.000; -678.000
376.886; -125.100;-1178.000;-1026.000
377.017;  118.300;-1048.000;-1061.000
377.147;  745.500; -786.000; -782.000
377.278;  176.700;  174.000;  228.000
377.408; -200.700; -801.000; -815.000
377.538; -152.100; -707.000; -693.000
377.669;  -97.400; -537.000; -613.000
377.799; -174.700; -645.000; -635.000
377.929;  -99.500; -610.000; -428.000
378.060; -197.600; -781.000; -847.000
378.190;  -60.300; -726.000; -531.000
378.320;  -59.700; -401.000; -406.000
378.451;   28.200; -131.000;  -22.000
378.581;   -1.600;  -67.000; -110.000
378.711;  377.900; 1035.000;  866.000
378.841;    9.500; -533.000; -675.000
378.972; -120.900; -871.000; -751.000
379.102;    3.000; -652.000; -579.000
379.232;    9.000; -126.000;  -73.000
379.362; -196.300;-1001.000; -885.000
379.492;   33.200; -373.000; -424.000
379.623;  246.500;    0.000;  111.000
379.753; -183.100;-1107.000; -974.000
379.883;  390.600;   59.000;  156.000
380.013;   18.700;-1081.000;-1017.000
380.143; -169.100;-1097.000;-1056.000
380.273; -162.100; -985.000; -861.000
380.403;   33.500; -344.000; -257.000
380.533;    7.600; -651.000; -664.000
380.663;  152.700;  173.000;  128.000
380.793; -166.700;-1027.000;-1074.000
380.923;    1.700; -103.000;  -34.000
381.053; -149.900; -613.000; -623.000
381.183;  -39.100; -106.000; -248.000
381.313;   89.100; -656.000; -470.000
381.443;   91.000; -692.000; -473.000
381.573;  427.900; -402.000; -409.000
381.703;  452.400;-1249.000;-1095.000
381.833; -241.800;-1454.000;-1336.000
381.963;  233.000; -134.000;  -87.000
382.093; 2605.600; -925.000; -909.000
382.223;  740.100; -713.000; -602.000
382.353;  -23.700; -801.000; -608.000
382.482;  681.000;-1091.000; -964.000
382.612; 1417.900; -872.000; -644.000
382.742;  756.100; -695.000; -622.000
382.872;  515.100; -565.000; -551.000
383.002;  184.700;  347.000; -132.000
383.131;   39.000; -226.000; -160.000
383.261;  -48.500; -706.000; -768.000
383.391;  633.000; -552.000; -377.000
383.521; 6527.700;  451.000;  263.000
383.650; 1441.700; -947.000; -904.000
383.780;   25.800; -783.000; -656.000
383.910;  292.700;  880.000;  802.000
384.039;   85.300; -794.000; -656.000
384.169;  390.700;-1205.000;-1017.000
384.299;   -6.400; -650.000; -662.000
384.428; -113.100; -764.000; -680.000
384.558;  -48.800; -308.000; -275.000
384.687;   -7.500; -414.000; -334.000
384.817;   78.800;   75.000;   -2.000
384.947;   78.700; -234.000; -141.000
385.076;  583.000;  982.000;  912.000
385.206;  250.800;  369.000;  480.000
385.335;  -47.500; -549.000; -417.000
385.465; -110.100; -655.000; -663.000
385.594;  289.100;  -53.000;  -44.000
385.724;  776.600; -868.000; -838.000
385.853;  217.500; -296.000; -270.000
385.982; 2556.200; -743.000; -787.000
386.112; 3681.100;-1052.000; -871.000
386.241;  263.600; -307.000; -312.000
386.371;   95.200; -174.000;  -87.000
386.500;    6.900; -825.000; -789.000
386.629;   54.900; -874.000; -817.000
386.759;  177.300;  -43.000;   68.000
386.888;   57.500; -170.000; -250.000
387.017; -103.600; -648.000; -620.000
387.147; -132.000; -771.000; -798.000
387.276;   36.900; -410.000; -397.000
387.405;   76.000; -398.000; -342.000
387.535;  -70.600; -452.000; -361.000
387.664;  -93.400; -692.000; -620.000
387.793;  146.600; -198.000; -113.000
387.922;  991.600;  255.000;  200.000
388.052;   68.700; -576.000; -423.000
388.181;   55.300; -342.000; -472.000
388.310;   10.400; -889.000; -710.000
388.439;  -85.600; -749.000; -742.000
388.568;  423.800;  365.000;  244.000
388.697; 1914.300; -756.000; -653.000
388.826;  361.000; -768.000; -666.000
388.956;   96.000; -285.000; -307.000
389.085;  -21.600; -347.000; -287.000
389.214; -196.900; -842.000; -872.000
389.343;  -81.700; -645.000; -413.000
389.472;  900.800;  126.000;  149.000
389.601; 1031.200;   91.000;    0.000
389.730;   58.900; -568.000; -687.000
389.859;  168.200;  226.000;   46.000
389.988;  385.800; -423.000; -408.000
390.117;  296.500; -168.000; -146.000
390.246;   21.100; -331.000; -320.000
390.375;  227.500; -673.000; -626.000
390.504;  -78.000; -703.000; -621.000
390.633; -130.100; -672.000; -726.000
390.761;  -69.100; -732.000; -645.000
390.890;   55.400;   -4.000; -130.000
391.019;  -41.600; -421.000; -441.000
391.148; -189.700; -826.000; -855.000
391.277;  -62.800; -576.000; -493.000
391.406;  -99.800; -821.000; -805.000
391.534;  102.200;  574.000; -301.000
391.663;  -91.100; -583.000; -645.000
391.792; -151.900; -673.000; -701.000
391.921;  250.200;   -3.000;   15.000
392.050;  353.800; -287.000; -228.000
392.178;  -91.400;-1206.000;-1061.000
392.307;  273.100; -758.000; -712.000
392.436;  128.400; -427.000; -641.000
392.564;  110.100;  166.000;   -6.000
392.693; -143.700; -860.000; -682.000
392.822;  388.900; -529.000; -534.000
392.950;  209.500; -880.000; -714.000
393.079;  625.200; -188.000; -328.000
393.208;   22.800; -488.000; -511.000
393.336;   56.400; -170.000; -145.000
393.465;  -36.500; -317.000; -199.000
393.593;   24.300;   62.000;   79.000
393.722; -257.300;-1121.000; -916.000
393.850;   -8.200; -188.000;  -61.000
393.979; -257.900; -926.000; -805.000
394.107;  -70.300; -517.000; -537.000
394.236;  -35.500; -570.000; -507.000
394.364;  619.800;  383.000;  206.000
394.493;  976.600; -911.000; -767.000
394.621;   29.800; -955.000; -916.000
394.750; 1535.700; -873.000; -923.000
394.878; 6201.800; -247.000; -149.000
395.007; 7865.200; -721.000; -807.000
395.135;  572.600; -790.000; -721.000
395.263; -196.900;-1038.000;-1040.000
395.392;   61.600;  -25.000; -107.000
395.520; -231.100; -818.000; -679.000
395.648; -176.800; -865.000; -915.000
395.777;   -9.500; -366.000; -405.000
395.905;  -41.400; -449.000; -564.000
396.033;  125.800;  217.000;  172.000
396.162; 1647.000; -399.000; -453.000
396.290; 1376.000;  -17.000;   -2.000
396.418;  247.400; -555.000; -514.000
396.546; -135.000; -571.000; -466.000
396.674; -156.000; -850.000; -878.000
396.803;   54.700;  -72.000;  -23.000
396.931;  225.900; -179.000; -199.000
397.059;   73.000;-1026.000; -989.000
397.187; -202.800;-1026.000; -975.000
397.315; -243.400; -884.000; -649.000
397.443; -143.000; -592.000; -443.000
397.572; -128.600; -578.000; -424.000
397.700;  -14.900; -607.000; -614.000
397.828;   53.300;  120.000;  -90.000
397.956;  -71.600; -508.000; -478.000
398.084;  -78.200; -767.000; -626.000
398.212;  138.100;  137.000;  124.000
398.340;   79.800;  -56.000;  159.000
398.468;   66.000; -390.000; -169.000
398.596; -199.600; -993.000; -953.000
398.724; -239.600; -762.000; -767.000
398.852; -267.900;-1024.000; -976.000
398.980;  -95.200; -560.000; -560.000
399.108;  -55.700; -982.000; -735.000
399.236;  107.700;   13.000;    8.000
399.363;   54.500;  222.000;  196.000
399.491; -102.900; -404.000; -398.000
399.619; -188.600; -829.000; -800.000
399.747; -176.600; -859.000; -771.000
399.875;  221.500;  220.000;  234.000
400.003;  -43.200; -359.000; -284.000
400.130; -143.200; -421.000; -341.000
400.258;   -1.900;  -83.000;   38.000
400.386;  -58.700; -352.000; -168.000
400.514;  -69.800; -526.000; -587.000
400.641; -134.200; -928.000; -802.000
400.769; -250.700; -979.000; -888.000
400.897; -149.000; -838.000; -793.000
401.025;   11.300; -166.000; -152.000
401.152;   45.100;  220.000;   38.000
401.280; -120.900; -430.000; -429.000
401.408; -190.400; -712.000; -576.000
401.535; -167.500; -735.000; -758.000
401.663; -312.000;-1134.000;-1054.000
401.790; -107.300; -514.000; -525.000
401.918;  156.400;  436.000;  405.000
402.046;   26.700;  134.000;  122.000
402.173;    6.800;  -18.000;    7.000
402.301;  -96.700; -519.000; -397.000
402.428;  111.000;  528.000;  383.000
402.556; -261.200;-1188.000; -913.000
402.683;   -6.500;  -20.000;   -1.000
402.811;   26.300;  -37.000; -206.000
402.938;   26.300;   20.000;   27.000
403.066;  363.900; -574.000; -558.000
403.193;  602.400;  299.000;  239.000
403.321;  487.300; -396.000; -574.000
403.448;  630.000;   83.000;   27.000
403.575;  268.500;  -90.000;  -46.000
403.703; -172.100; -732.000; -557.000
403.830;  -33.600; -531.000; -496.000
403.957; -238.500;-1117.000;-1023.000
404.085;   55.000;  -61.000; -172.000
404.212;  255.600;  -50.000;   63.000
404.339;  613.500; -566.000; -306.000
404.467;12072.800; -612.000; -524.000
404.594; 7322.000; -287.000; -227.000
404.721; 1642.400; -869.000; -764.000
404.848;  185.600; -113.000; -202.000
404.976; -160.400; -856.000; -783.000
405.103;   54.600;  -14.000;  -82.000
405.230;   72.600;  190.000;  226.000
405.357;   98.500;  117.000;   44.000
405.484;  669.700;  -49.000;    5.000
405.612;  132.200; -548.000; -563.000
405.739;  -68.200; -488.000; -243.000
405.866;  212.700;  669.000;  385.000
405.993;  -33.800; -398.000; -102.000
406.120; -217.700; -801.000; -887.000
406.247;  -53.000; -323.000; -342.000
406.374;  863.000;  540.000;  629.000
406.501;  189.500; -632.000; -702.000
406.628; -122.700; -621.000; -589.000
406.755; -170.100; -803.000; -620.000
406.882;  -34.200; -228.000; -277.000
407.009; -157.900; -719.000; -628.000
407.136;  159.900; -480.000; -401.000
407.263;  288.100; -939.000; -829.000
407.390; -104.900; -692.000; -614.000
407.517; -272.400;-1139.000;-1187.000
407.644;  -85.300; -332.000; -256.000
407.771;  -61.300; -249.000; -287.000
407.898;   71.700;  168.000;  328.000
408.025;  -45.700; -421.000; -313.000
408.151;   52.600;   82.000;  153.000
408.278;  -55.400; -267.000; -216.000
408.405; -182.700; -931.000; -899.000
408.532;  -77.600; -549.000; -542.000
408.659; -203.700; -677.000; -648.000
408.785; -348.100;-1298.000;-1170.000
408.912;  -69.200; -412.000; -296.000
409.039; -155.400; -610.000; -686.000
409.166; -137.700; -591.000; -555.000
409.292; -174.300; -571.000; -534.000
409.419; -173.200; -665.000; -649.000
409.546;  -93.600; -431.000; -192.000
409.672; -157.600; -713.000; -545.000
409.799;   55.900;  -36.000;   34.000
409.926;  -29.100; -180.000; -179.000
410.052; -293.400;-1127.000;-1091.000
410.179;  -58.700; -368.000; -392.000
410.305;  -81.800; -375.000; -493.000
410.432;  -61.500; -220.000; -333.000
410.558; -143.100; -305.000; -380.000
410.685; -163.200; -688.000; -431.000
410.812; -141.700; -409.000; -588.000
410.938; -238.600; -964.000; -808.000
411.065; -139.400; -671.000; -645.000
411.191;   12.300; -189.000; -174.000
411.317; -151.100; -823.000; -742.000
411.444;  -90.400; -317.000; -246.000
411.570; -103.900; -339.000; -294.000
411.697; -185.500; -758.000; -752.000
411.823; -284.400; -989.000; -999.000
411.949;  -27.900;  -56.000;   17.000
412.076; -170.600; -539.000; -519.000
412.202; -179.300; -758.000; -757.000
412.329; -224.800; -798.000; -752.000
412.455; -182.000; -821.000; -657.000
412.581;   23.600;  -15.000;  172.000
412.707; -100.800; -540.000; -457.000
412.834;  103.500;  156.000;  219.000
412.960; -139.500; -785.000; -784.000
413.086; -144.000; -743.000; -701.000
413.212;  393.800;  604.000;  578.000
413.339;  -85.700; -685.000; -701.000
413.465;   11.300; -364.000; -310.000
413.591; -149.900; -757.000; -474.000
413.717;  -44.600; -358.000; -366.000
413.843; -231.100; -839.000; -861.000
413.969;  -59.700;  -47.000; -292.000
414.096; -151.800; -679.000; -679.000
414.222;   52.100;  -33.000;   85.000
414.348;   -4.900; -652.000; -385.000
414.474;  210.300;   38.000;  -52.000
414.600;   34.100; -126.000; -144.000
414.726;   36.900;  -96.000;  -55.000
414.852;  -37.000; -365.000; -342.000
414.978;  150.400;  104.000;  -18.000
415.104;  160.200;   38.000;   80.000
415.230;   74.700; -329.000; -330.000
415.356;  177.200; -409.000; -514.000
415.482;  396.100;   13.000;  -35.000
415.608;  612.600; -247.000; -323.000
415.734; 2106.800;   67.000;   38.000
415.860;42068.500; -875.000; -767.000
415.986;27315.000; -685.000; -607.000
416.111; 2245.700; -798.000; -652.000
416.237;  530.400; -424.000; -571.000
416.363; 2543.000; -765.000; -733.000
416.489; 8369.200; -324.000; -251.000
416.615;  863.300; -707.000; -742.000
416.741;  -14.700; -677.000; -784.000
416.866; -127.300; -673.000; -736.000
416.992; -189.700; -801.000; -818.000
417.118;   53.100;  -41.000;  -80.000
417.244;  -63.000; -798.000; -531.000
417.369; -127.100; -801.000; -612.000
417.495;   33.700; -325.000; -254.000
417.621; -114.800;-1015.000; -803.000
417.746;   47.000; -579.000; -572.000
417.872;  153.400; -254.000; -144.000
417.998;  181.200; -515.000; -530.000
418.123; 2438.500;-1073.000; -845.000
418.249;10892.200; -512.000; -601.000
418.374; 1408.200; -916.000; -824.000
418.500;  266.700; -383.000; -482.000
418.626;  298.700;   70.000;  -59.000
418.751;  288.500; -549.000; -448.000
418.877;  423.200; -637.000; -643.000
419.002; 4186.200; -688.000; -560.000
419.128;25874.700; -930.000; -721.000
419.253; 5583.600; -967.000; -837.000
419.379;  807.200; -391.000; -338.000
419.504;  866.200;  325.000;  415.000
419.629; 1119.800; -393.000; -212.000
419.755; 8119.300; -317.000; -254.000
419.880;42929.700;  -98.000;   67.000
420.006;23927.200; -280.000; -221.000
420.131;56680.300; -662.000; -775.000
420.256; 7302.500; -315.000; -316.000
420.382; 1044.300; -665.000; -687.000
420.507;  125.800; -649.000; -778.000
420.632;  292.000; -337.000; -339.000
420.758;  442.100; -251.000; -425.000
420.883;  -93.800; -876.000; -672.000
421.008; -176.300; -775.000; -619.000
421.133; -113.100; -509.000; -467.000
421.259;  -31.900; -325.000; -259.000
421.384; -174.000; -834.000; -693.000
421.509;  -70.600;-1052.000; -862.000
421.634; 2038.000; -936.000; -820.000
421.759;  721.000; -359.000; -327.000
421.885;  -74.700; -717.000; -656.000
422.010; -121.700; -673.000; -542.000
422.135; -244.500; -695.000; -727.000
422.260;  138.600;  340.000;  280.000
422.385;    0.100;   12.000;  -98.000
422.510;   58.200;  151.000;  -26.000
422.635;  136.600;  -87.000;  -43.000
422.760;  249.100; -766.000; -791.000
422.885;  198.700;  -57.000;  -80.000
423.010;   -6.100; -112.000; -169.000
423.135; -117.800; -481.000; -561.000
423.260;   45.600; -150.000; -245.000
423.385;  188.400;  476.000;  222.000
423.510;  117.100;   71.000;  -22.000
423.635;  203.100;  133.000;   45.000
423.760;  166.000;  383.000;  328.000
423.885;  195.300;  336.000;  391.000
424.010;   63.800;  -68.000;  -13.000
424.135;   11.000;    5.000;  -33.000
424.259; -119.600; -654.000; -457.000
424.384;  -70.000; -279.000; -272.000
424.509;    9.900; -260.000; -186.000
424.634; -154.200; -761.000; -623.000
424.759;   26.000; -688.000; -544.000
424.883;   12.000; -506.000; -527.000
425.008;  461.800; -502.000; -410.000
425.133; 4137.300; -679.000; -653.000
425.258; 1764.600; -517.000; -381.000
425.382; 2033.100; -867.000; -774.000
425.507; 4630.300; -487.000; -543.000
425.632;  816.800; -802.000; -663.000
425.756;  971.200; -256.000; -146.000
425.881;14894.400; -831.000; -857.000
426.006;35475.200; -604.000; -355.000
426.130; 5056.200; -696.000; -508.000
426.255;  729.200; -611.000; -491.000
426.379;  431.400; -189.000; -577.000
426.504;  856.900;  660.000;  544.000
426.629; 8662.100; -519.000; -466.000
426.753; 5168.800;   64.000;  -46.000
426.878;  637.300; -252.000; -288.000
427.002;  438.400; -651.000; -668.000
427.127; 3627.500;  -35.000; -158.000
427.251;23524.800;  372.000;  401.000
427.375; 5817.700; -191.000; -173.000
427.500; 4211.300; -616.000; -610.000
427.624; 1327.800; -234.000; -400.000
427.749;  246.300; -216.000; -225.000
427.873;  -41.200; -499.000; -412.000
427.997;  -19.300; -222.000; -230.000
428.122;  213.800;  795.000;  703.000
428.246;  204.300;  433.000;  434.000
428.371; -185.500; -869.000; -773.000
428.495; -132.200; -624.000; -646.000
428.619;   13.200; -186.000; -117.000
428.743;  105.500;   65.000;  132.000
428.868;   72.100; -732.000; -643.000
428.992; 2628.700; -219.000; -326.000
429.116;  958.300; -329.000; -357.000
429.240;  511.800;  419.000;  426.000
429.365;   -8.800; -454.000; -574.000
429.489;  -34.700; -638.000; -647.000
429.613;  107.300; -236.000; -177.000
429.737;  151.800; -563.000; -432.000
429.861;  620.200; -247.000; -133.000
429.985;12080.800; -425.000; -305.000
430.109;11734.600; -770.000; -908.000
430.234; 1320.300;   76.000;  -50.000
430.358;  156.300; -250.000; -160.000
430.482;  -82.900; -672.000; -564.000
430.606;  -21.800; -655.000; -375.000
430.730;  106.600; -437.000; -388.000
430.854;  251.000; -909.000; -835.000
430.978; -121.800; -795.000; -764.000
431.102;  -59.100; -499.000; -422.000
431.226; -180.700; -874.000; -815.000
431.350;  131.800;  345.000;  422.000
431.474;  -88.500; -661.000; -373.000
431.597; -275.000;-1060.000; -848.000
431.721; -108.800; -276.000; -267.000
431.845; -220.900; -704.000; -472.000
431.969; -101.400; -304.000; -349.000
432.093; -132.600; -395.000; -317.000
432.217;   46.100;   32.000;   82.000
432.341; -135.000; -523.000; -518.000
432.464;   70.900;   96.000;   40.000
432.588;  411.600; -401.000; -329.000
432.712;  214.200;  -52.000;  -52.000
432.836;  140.100;  213.000;  263.000
432.959;   27.000; -372.000; -311.000
433.083;  251.200;   11.000;    2.000
433.207;  829.200;  285.000;  930.000
433.330;11213.600; -391.000; -200.000
433.454;12268.200; -654.000; -638.000
433.578; 7305.200;  583.000;  278.000
433.701; 1252.300; -623.000; -675.000
433.825;  297.000; -292.000; -299.000
433.949;  372.800;   28.000;  -72.000
434.072;  104.700; -410.000; -323.000
434.196;   26.700; -309.000; -117.000
434.319; 8093.600;25482.000;25124.000
434.443; 1619.900; -656.000; -603.000
434.566; 5516.100;  281.000;   62.000
434.690;  800.300; -637.000; -383.000
434.813;  154.700; -251.000; -173.000
434.937;  -89.700; -569.000; -696.000
435.060;  -16.300; -423.000; -332.000
435.184;  536.800; -492.000; -217.000
435.307;  317.400;  159.000;  102.000
435.431;   32.300;  -40.000;   24.000
435.554;  -98.700; -399.000; -240.000
435.677;  -95.100; -350.000; -258.000
435.801;   -0.900;  -25.000;   49.000
435.924;   51.000;    1.000;  -67.000
436.048; -196.900;-1019.000; -732.000
436.171;  -59.100; -240.000;  -66.000
436.294;   34.900; -248.000; -229.000
436.417;  231.000; -963.000; -849.000
436.541; -105.300; -814.000; -840.000
436.664;  -59.700; -242.000; -316.000
436.787;   25.700;   13.000;  113.000
436.910; -184.800; -792.000; -422.000
437.034;  104.500;  142.000;  143.000
437.157;  168.900;  -11.000;    0.000
437.280;  -73.100; -392.000; -292.000
437.403; -159.000; -982.000; -869.000
437.526; 1188.500; -903.000; -865.000
437.649; 3738.300; -505.000; -332.000
437.772;  463.300; -692.000; -540.000
437.896;  269.400;  700.000;  544.000
438.019; -169.000; -758.000; -503.000
438.142; -133.700; -596.000; -506.000
438.265;   37.000; -639.000; -670.000
438.388; 1077.600; -520.000; -410.000
438.511;  159.900; -597.000; -394.000
438.634;  -81.600; -247.000; -125.000
438.757; -186.100; -693.000; -619.000
438.880;   24.300;  -34.000;  -57.000
439.003;  -97.000; -417.000; -437.000
439.126;  -90.400; -287.000; -167.000
439.248;  -78.500;  -98.000; -139.000
439.371;   10.700;    9.000;  -53.000
439.494;  139.000;  510.000;  439.000
439.617;  -41.000;   65.000;  -88.000
439.740; -302.700; -968.000; -816.000
439.863; -204.100; -755.000; -595.000
439.986; -175.000; -476.000; -431.000
440.108;  -34.600; -161.000; -112.000
440.231; -279.300; -950.000; -836.000
440.354;  -19.900;  -64.000; -150.000
440.477;   93.800; -566.000; -542.000
440.599;    4.400; -200.000; -225.000
440.722; -169.200; -709.000; -586.000
440.845;  226.300;  751.000;  928.000
440.968; -151.700; -415.000; -311.000
441.090;  -64.100; -199.000;  -33.000
441.213; -283.500;-1021.000; -825.000
441.336;  -41.700; -159.000;   -5.000
441.458;  -99.600; -549.000; -396.000
441.581; -112.900; -628.000; -629.000
441.703;  -71.700; -152.000;   13.000
441.826; -178.400; -557.000; -400.000
441.948;   -1.900;   56.000;   51.000
442.071;  127.400;  555.000;  424.000
442.193; -152.300; -531.000; -485.000
442.316;  138.800;  152.000;   97.000
442.438;  139.100; -233.000;  -10.000
442.561;  207.200;  272.000;  262.000
442.683; 1037.700; -809.000; -522.000
442.806; 1942.400;   -8.000;   74.000
442.928;   42.700; -859.000; -604.000
443.051;  -69.400; -577.000; -373.000
443.173; -106.100; -341.000; -339.000
443.295;  -89.800; -263.000; -371.000
443.418;  -70.800; -321.000;  -29.000
443.540;   28.000; -106.000;   -4.000
443.662; -191.000; -563.000; -465.000
443.785;   31.400;  335.000;  199.000
443.907; -152.100; -362.000; -208.000
444.029; -227.100; -767.000; -494.000
444.152; -221.800; -644.000; -554.000
444.274;    7.500;  -18.000;  -24.000
444.396; -161.300; -461.000; -221.000
444.518; -229.100; -691.000; -454.000
444.640; -128.300; -268.000; -111.000
444.763;   50.200;  388.000;  249.000
444.885; -188.800; -432.000; -392.000
445.007;  -23.800;   35.000;   86.000
445.129; -179.200; -610.000; -515.000
445.251; -130.200; -372.000; -439.000
445.373; -204.400; -537.000; -386.000
445.495;   93.600;  242.000;  350.000
445.617;  232.800;  853.000;  753.000
445.739;  -99.400; -215.000;  -97.000
445.861;   18.000; -245.000; -112.000
445.984;  -48.400; -267.000; -101.000
446.105;  455.700; -418.000; -251.000
446.227; 1037.400; -176.000;  -19.000
446.349;    7.300; -358.000; -249.000
446.471; -171.700; -615.000; -448.000
446.593;  -76.200; -316.000;   19.000
446.715;   52.800;  -67.000;   41.000
446.837;  231.100;  697.000;  832.000
446.959; -165.100; -457.000; -478.000
447.081; -193.300; -628.000; -518.000
447.203;  188.400;  862.000;  834.000
447.325; -102.300; -270.000;   42.000
447.446;   48.200;  286.000;  530.000
447.568; -254.400; -921.000; -803.000
447.690; -108.800; -236.000; -245.000
447.812; -249.500; -798.000; -519.000
447.933;   12.300;  155.000;  127.000
448.055;  -79.700; -306.000; -261.000
448.177;  323.300;   31.000;   79.000
448.299;  138.500; -935.000; -727.000
448.420;   82.700;  -25.000;  159.000
448.542;  -29.500;   -3.000;   33.000
448.664;   56.300;  109.000;  322.000
448.785;  -19.400;  265.000;   83.000
448.907; -102.700; -614.000; -353.000
449.028;  -20.200; -771.000; -471.000
449.150;  183.700;  492.000;  589.000
449.272; -273.100;-1044.000; -913.000
449.393;  153.000;  612.000;  694.000
449.515; -227.300; -634.000; -581.000
449.636;  -69.000; -264.000; -155.000
449.758;  232.000;  763.000;  622.000
449.879; -134.400; -498.000; -396.000
450.001;  -95.500; -149.000;  -49.000
450.122;   -8.800;  -95.000;  162.000
450.244;   48.500;   37.000;  364.000
450.365; -112.200; -495.000; -301.000
450.486;    2.000;   80.000;  268.000
450.608;   34.400;  393.000;  326.000
450.729;  215.000;  578.000;  645.000
450.850;   93.300; -574.000; -466.000
450.972; 1755.100; -552.000; -389.000
451.093;10670.500;  190.000;  588.000
451.214; 3941.300; -516.000; -337.000
451.336;  814.700;  773.000;  579.000
451.457;  184.400;  264.000;  393.000
451.578;  -19.700; -118.000;  -74.000
451.699; -159.000; -546.000; -540.000
451.821;  -75.400; -284.000;  -50.000
451.942;   71.900;  278.000;  285.000
452.063;  162.500;  228.000;  419.000
452.184; 1352.300;  -54.000;  -49.000
452.305; 2255.000;  103.000;  170.000
452.427;  284.700; -549.000; -301.000
452.548;   18.400;   23.000;   79.000
452.669;  -24.800; -257.000;  -89.000
452.790;  -32.300;    3.000;  -18.000
452.911;   67.000;  195.000;  259.000
453.032;  -75.400; -289.000;  -60.000
453.153;  -31.100;  -29.000;   81.000
453.274;  184.400;  737.000;  868.000
453.395;  -21.900;  -51.000;  175.000
453.516;  161.800; 1317.000; 1388.000
453.637;  -61.200; -205.000; -150.000
453.758;  -66.200;   15.000;   69.000
453.879; -169.100; -462.000; -250.000
454.000;  234.500; 1086.000;  948.000
454.121; -175.200; -554.000; -326.000
454.242; -166.100; -599.000; -383.000
454.362;  -33.200;  -99.000;  114.000
454.483;   -8.100; -309.000; -229.000
454.604;  188.300;  512.000;  580.000
454.725; -192.800; -627.000; -555.000
454.846; -177.200; -474.000; -406.000
454.967;    5.600;  230.000;  539.000
455.087;  -21.100;  179.000;  153.000
455.208;  121.600;  554.000;  856.000
455.329;  -70.500;  -22.000;   82.000
455.450;  159.300;  473.000;  633.000
455.570; -114.300; -234.000; -211.000
455.691;    4.300;  201.000;  407.000
455.812; -153.700; -270.000;  -92.000
455.932;  -66.100;  107.000;  -97.000
456.053;  -73.400;   36.000;   24.000
456.173; -167.400; -433.000; -355.000
456.294; -217.500; -476.000; -303.000
456.415;  -32.000;  -73.000;   70.000
456.535;  -17.200;  297.000;  273.000
456.656;   -4.600;  132.000;  240.000
456.776;  -34.500;    3.000;  298.000
456.897;   63.100;  308.000;  513.000
457.017;  -90.600; -153.000;   -3.000
457.138; -149.800; -402.000; -249.000
457.258;    8.300;  263.000;  224.000
457.379;   67.500;  509.000;  521.000
457.499;   40.200;  443.000;  432.000
457.620; -199.800; -407.000; -231.000
457.740; -128.400; -132.000;  -11.000
457.860; -110.500;   87.000;   44.000
457.981;  -25.200;  132.000;  124.000
458.101;  -74.300;  -89.000;   40.000
458.221;   42.400;  336.000;  402.000
458.342;  -60.700;   -4.000;  -37.000
458.462;  121.300;  617.000;  352.000
458.582;  -34.100; -302.000; -294.000
458.703;  119.200;  303.000;  154.000
458.823;   26.200;   22.000;  163.000
458.943;  139.900;  341.000;  467.000
459.063;    6.700; 1124.000;  192.000
459.183;   28.900;  328.000;  313.000
459.304;   63.400;  315.000;  517.000
459.424;  -33.600; -246.000;  -89.000
459.544;  802.000;  388.000;  764.000
459.664; 1782.900;  499.000;  506.000
459.784;  624.400; 1004.000; 1175.000
459.904;  177.500;  867.000;  744.000
460.024;  249.400;  867.000;  684.000
460.144;   75.500;  449.000;  554.000
460.264;   84.400;  515.000;  327.000
460.385; -142.000; -145.000; -119.000
460.505;  136.000;  905.000;  858.000
460.625; -103.900;  -17.000;  -68.000
460.745;   19.800;  396.000;  541.000
460.864;    7.000;  153.000;  469.000
460.984;  101.200;  499.000;  573.000
461.104;  356.700; 1656.000; 1775.000
461.224;  128.600;  657.000;  650.000
461.344;   35.600;  431.000;  360.000
461.464;  -23.600;  258.000;  513.000
461.584;   62.100;  283.000;  466.000
461.704;  -70.800;   58.000;  108.000
461.824;  -46.800;  238.000;  259.000
461.943;  -26.800;  191.000;  130.000
462.063;  -89.800;    2.000;  324.000
462.183;  153.200;  639.000;  717.000
462.303;  263.200; 1678.000; 1230.000
462.422;  151.300;  781.000;  840.000
462.542;   -1.000;  271.000;  391.000
462.662;  151.200;  353.000;  380.000
462.782;  621.200;  833.000;  572.000
462.901; 1050.600;  545.000;  717.000
463.021;  597.700; 1702.000; 1638.000
463.141;   29.600;  337.000;  770.000
463.260;   34.600;  614.000;  474.000
463.380;   70.700;  902.000;  884.000
463.499;    4.500;  342.000;  332.000
463.619;    0.400;  581.000;  559.000
463.738;  316.800; 1644.000;  903.000
463.858;  101.900;  657.000;  811.000
463.978;   23.100;  542.000;  396.000
464.097;  179.600;  921.000; 1114.000
464.217;  353.200; 1196.000; 1143.000
464.336;  302.700; 1068.000; 1130.000
464.455;   24.100;  328.000;  659.000
464.575;  125.800;  597.000;  602.000
464.694;  428.700; 1204.000; 1179.000
464.814;  305.100; 1190.000; 1138.000
464.933;  210.300; 1095.000; 1027.000
465.052;  253.800; 1412.000; 1054.000
465.172;  265.500;  922.000;  799.000
465.291;  311.300; 1376.000; 1320.000
465.410;  113.000;  462.000;  735.000
465.530;  252.500; 1355.000; 1310.000
465.649;  236.800; 1209.000; 1273.000
465.768;  335.100; 1673.000; 1508.000
465.888;  171.900;  941.000; 1174.000
466.007;  241.500; 1335.000; 1440.000
466.126;  117.400;  721.000;  641.000
466.245;  158.500; 1176.000; 1187.000
466.364;  147.600;  950.000; 1060.000
466.484;  174.500; 1024.000; 1213.000
466.603;  176.000; 1101.000; 1222.000
466.722;  292.900; 1490.000; 1769.000
466.841;  232.600; 1151.000; 1401.000
466.960;  157.100; 1069.000;  972.000
467.079;  331.400; 1971.000; 1786.000
467.198;  173.100; 1238.000; 1181.000
467.317;  292.300; 1768.000; 1162.000
467.436;  201.700; 1709.000; 1261.000
467.555;  363.200; 1796.000; 1746.000
467.674;  183.400; 1227.000; 1329.000
467.793;  197.700; 1376.000; 1374.000
467.912;  234.900; 1658.000; 1539.000
468.031;  335.100; 2038.000; 1930.000
468.150;  342.500; 1842.000; 1837.000
468.269;  466.200; 2313.000; 2090.000
468.388;  462.400; 2168.000; 2339.000
468.507;  591.500; 2884.000; 2903.000
468.626;  650.000; 2555.000; 2541.000
468.744;  386.000; 2018.000; 2174.000
468.863;  494.700; 2312.000; 2523.000
468.982;  219.000; 1503.000; 1555.000
469.101;  514.400; 2788.000; 2692.000
469.220;  383.400; 2333.000; 2176.000
469.338;  578.000; 2935.000; 3051.000
469.457;  507.000; 2719.000; 2545.000
469.576;  793.400; 3953.000; 3784.000
469.695;  551.400; 2877.000; 3066.000
469.813;  962.600; 4148.000; 4192.000
469.932;  909.300; 4255.000; 4485.000
470.051;  920.000; 4075.000; 4161.000
470.169; 1898.000; 4470.000; 4338.000
470.288; 3070.600; 4700.000; 4809.000
470.406; 1717.300; 5059.000; 5194.000
470.525; 1361.800; 6101.000; 5787.000
470.644; 1414.600; 6847.000; 6794.000
470.762; 1742.500; 8397.000; 7873.000
470.881; 1882.400; 8651.000; 8464.000
470.999; 2176.000; 9685.000; 9151.000
471.118; 2329.700;11174.000;10711.000

