
Integration time [ms]: 100.000
Averaging Nr. [scans]: 40
Smoothing Nr. [pixels]: 0
Data measured with spectrometer [name]: 2101012U2
Wave   ;Sample   ;Dark     ;Reference
[nm]   ;[counts] ;[counts] ;[counts] 

197.733;   49.325;  516.000;  404.000
197.879;  -74.975; -610.000; -634.000
198.025;  -60.800; -475.000; -420.000
198.171;  -64.850; -602.000; -612.000
198.317;  -29.950; -401.000; -316.000
198.463;  -56.475; -655.000; -404.000
198.609;   26.100;  181.000; -137.000
198.755;  -81.400; -644.000; -410.000
198.901;  -49.425; -505.000; -424.000
199.047;  -58.950; -615.000; -488.000
199.193;  -36.725; -230.000; -468.000
199.339;  -36.975; -222.000; -369.000
199.485;   29.425;  330.000;  271.000
199.631;    5.200;  227.000;  310.000
199.777;  -51.900; -466.000; -398.000
199.923;  -67.275; -610.000; -424.000
200.069;   -9.500; -141.000;  -58.000
200.215;   50.025;  128.000;  453.000
200.361;   40.075;  243.000;  477.000
200.507;  -63.175; -600.000; -373.000
200.653;  -27.725; -371.000; -194.000
200.798;  -34.225; -215.000; -125.000
200.944;  -14.900; -146.000;  -41.000
201.090;   23.175;   61.000;  222.000
201.236;  -15.925; -116.000; -158.000
201.382;  124.075;  874.000;  903.000
201.528;    0.000;  -58.000;  -48.000
201.674;  -63.325; -386.000; -293.000
201.819;  -69.925; -540.000; -439.000
201.965;  -83.200; -699.000; -447.000
202.111;  -33.425; -273.000; -226.000
202.257;  -31.350; -250.000; -238.000
202.402;    9.400;   13.000;  -36.000
202.548;  -27.900; -169.000; -116.000
202.694;   79.400;  410.000; -183.000
202.840;  -70.975; -603.000; -531.000
202.985;  -84.600; -681.000; -639.000
203.131; -105.650; -832.000; -666.000
203.277;  -25.325; -199.000; -262.000
203.423;  -48.975; -434.000; -520.000
203.568;  -48.425; -462.000; -237.000
203.714;  -55.275; -535.000; -542.000
203.860;  -81.125; -682.000; -641.000
204.005;   10.700;  112.000;  167.000
204.151;   67.450;  561.000;  556.000
204.296;  -55.400; -354.000; -221.000
204.442;  -67.925; -600.000; -547.000
204.588;  -69.525; -592.000; -579.000
204.733;   12.400;  178.000;  168.000
204.879; -128.800;-1018.000; -822.000
205.025;    1.225;  -99.000;  126.000
205.170;   -4.800;  -17.000;   94.000
205.316;   75.975;  438.000;  661.000
205.461;  -82.275; -698.000; -554.000
205.607;   73.725;  609.000;  665.000
205.752;  -83.475; -626.000; -551.000
205.898;  -47.825; -501.000; -391.000
206.043;  -61.975; -578.000; -506.000
206.189;  -53.275; -243.000; -285.000
206.334;   67.550;  554.000;  606.000
206.480;   57.175;  409.000;  239.000
206.625;  -77.675; -529.000; -552.000
206.771;  -50.850; -451.000; -373.000
206.916;  -32.850; -210.000; -537.000
207.062;  -89.925; -545.000; -591.000
207.207;  -54.325; -546.000; -443.000
207.353;   41.250;  185.000;  460.000
207.498;    7.375;  196.000;   85.000
207.643;  -52.400; -501.000; -370.000
207.789; -117.425;-1069.000; -910.000
207.934; -106.225; -665.000; -713.000
208.080;  -30.775; -154.000;   66.000
208.225;   -8.925;  -22.000;  -57.000
208.370;  -83.500; -727.000; -619.000
208.516;  -83.550; -741.000; -487.000
208.661;  -35.150; -127.000;  -69.000
208.806;  -24.950; -165.000; -171.000
208.952; -111.200;-1044.000; -731.000
209.097;   58.475;  378.000;  349.000
209.242;  -55.750; -307.000; -382.000
209.387;   74.125;  392.000;  350.000
209.533;  -52.575; -321.000; -350.000
209.678;   56.475;  472.000;  543.000
209.823;  -58.450; -408.000; -310.000
209.969; -106.275; -860.000; -757.000
210.114; -114.675; -907.000; -719.000
210.259; -117.075; -939.000; -889.000
210.404;   -5.775; -171.000;  103.000
210.549;   -1.375;  108.000;    3.000
210.695;  -17.300;   -3.000;  -95.000
210.840;   33.500;   94.000;   67.000
210.985;  -56.975; -484.000; -303.000
211.130;   63.575;  268.000;  406.000
211.275;   19.275;  207.000;  199.000
211.420;  -56.925; -300.000; -289.000
211.566;  -82.625; -536.000; -489.000
211.711;   10.450;  218.000;  157.000
211.856;  -68.425; -545.000; -519.000
212.001;   13.375;  151.000;   44.000
212.146;   25.050;  153.000;   49.000
212.291;  -36.650; -210.000; -186.000
212.436;  -34.100; -280.000;   -6.000
212.581;  -89.250; -685.000; -653.000
212.726;  -65.800; -487.000; -538.000
212.871;  -50.750; -552.000; -217.000
213.016; -132.375;-1172.000;-1029.000
213.161;   66.825;  406.000;  291.000
213.306;  -61.500; -435.000; -577.000
213.451;  -92.450; -778.000; -689.000
213.596;  -47.250; -455.000; -347.000
213.741;  -66.075; -448.000; -538.000
213.886;  -68.875; -498.000; -517.000
214.031;  -22.050; -294.000; -124.000
214.176;  -44.300; -408.000; -341.000
214.321;  -19.600; -296.000; -157.000
214.466;  -21.225; -163.000;  -43.000
214.611;  -14.625;  -61.000;  -10.000
214.756; -124.300; -948.000; -858.000
214.901;  -24.700; -388.000; -226.000
215.046; -116.600; -797.000; -825.000
215.191;   16.375;  128.000;   35.000
215.336;  -13.450; -157.000;  -19.000
215.480;  -76.700; -684.000; -505.000
215.625;  -11.375; -175.000;  -19.000
215.770;  -78.325; -757.000; -662.000
215.915;  -12.350;   -5.000;  -97.000
216.060;   -8.325; -113.000;  -21.000
216.205; -114.875; -731.000; -779.000
216.349;  -71.000; -470.000; -533.000
216.494; -124.650; -939.000; -867.000
216.639; -108.050; -823.000; -888.000
216.784;  -77.325; -577.000; -525.000
216.929;   51.200;  392.000;  281.000
217.073;  -19.625; -244.000;  -31.000
217.218;   17.025;   78.000;  -47.000
217.363;  -82.125; -656.000; -618.000
217.507;  -75.200; -623.000; -588.000
217.652; -124.975; -845.000; -874.000
217.797;  -86.750; -708.000; -659.000
217.942; -108.900; -856.000; -720.000
218.086;   68.050;  608.000;  539.000
218.231;  -22.175; -174.000;  -26.000
218.376;  -40.550; -337.000; -229.000
218.520;   -2.500;  -41.000;   96.000
218.665;  -46.575; -338.000; -204.000
218.810;  -53.200; -275.000; -233.000
218.954;   10.650;  201.000;   35.000
219.099; -104.150; -713.000; -963.000
219.243;  -71.225; -589.000; -554.000
219.388;  -32.650; -264.000; -136.000
219.532;   -8.775; -116.000; -116.000
219.677;  -85.875; -564.000; -521.000
219.822;   -2.800;   33.000;   89.000
219.966;    0.125;   17.000;  -99.000
220.111;  -42.225; -328.000;  -40.000
220.255;  -85.525; -797.000; -750.000
220.400;  -39.475; -180.000; -146.000
220.544;  -70.725; -516.000; -450.000
220.689;  -39.350; -422.000; -451.000
220.833;  -18.300; -123.000;  -58.000
220.978;  -48.700; -393.000; -563.000
221.122;   18.250;  319.000;  307.000
221.267; -101.050; -906.000; -837.000
221.411;  -64.575; -478.000; -394.000
221.555;  -15.175; -104.000;  -23.000
221.700;  -39.250; -329.000; -222.000
221.844;   22.575;  255.000;  272.000
221.989;  -56.700; -328.000; -311.000
222.133;  -35.975; -289.000; -307.000
222.277;  -12.975;    5.000;   78.000
222.422;    8.950;  227.000;  113.000
222.566;  -41.950; -381.000; -214.000
222.711;  -62.450; -414.000; -479.000
222.855;  -79.500; -643.000; -586.000
222.999;  -80.475; -642.000; -717.000
223.144;  -37.100; -195.000; -194.000
223.288;   30.075;  423.000;  251.000
223.432;   17.125;  184.000;  230.000
223.576;   10.225;  152.000;  -21.000
223.721;   34.800;  364.000;  273.000
223.865;  -55.300; -472.000; -475.000
224.009;  207.825; 1673.000; 1631.000
224.153;  -90.100; -660.000; -671.000
224.298;  -65.050; -531.000; -489.000
224.442;  -38.075;  -74.000;  -33.000
224.586;  -26.725; -169.000; -106.000
224.730;  -86.800; -858.000; -670.000
224.875;  -99.350; -739.000; -688.000
225.019;    8.775;  102.000;  188.000
225.163;   31.575;  208.000;  341.000
225.307;    7.800;   97.000;  -91.000
225.451;   42.350;  360.000;  481.000
225.595;   26.975;  264.000;  176.000
225.739;  -21.425; -170.000;  -94.000
225.884;   -0.750;   86.000;    5.000
226.028; -106.400; -760.000; -626.000
226.172;  -27.800; -260.000; -273.000
226.316; -110.050; -941.000; -902.000
226.460;  -71.250; -645.000; -493.000
226.604;  -63.650; -406.000; -400.000
226.748; -104.250; -836.000; -733.000
226.892;  -30.225; -227.000; -181.000
227.036;  -58.250; -537.000; -447.000
227.180;  -51.250; -551.000; -375.000
227.324;  -78.125; -561.000; -580.000
227.468; -104.650; -819.000; -717.000
227.612;   12.325;  242.000;  -28.000
227.756; -100.875; -845.000; -698.000
227.900;   47.625;  342.000;  441.000
228.044;  -58.425; -509.000; -290.000
228.188;   44.575;  448.000;  568.000
228.332;  -86.225; -546.000; -472.000
228.476;  -24.375; -223.000; -149.000
228.620;  -39.275; -210.000; -150.000
228.764;   64.925;  431.000;  349.000
228.908;  -25.425; -155.000;   30.000
229.052;  -62.875; -615.000; -528.000
229.195;  -16.475; -172.000;   13.000
229.339;  -40.950; -235.000; -305.000
229.483;  -27.650;    5.000; -162.000
229.627;  -16.275; -156.000;  139.000
229.771;  -45.850; -218.000; -294.000
229.915;   -5.075;  230.000;   79.000
230.059; -104.275; -648.000; -663.000
230.202;  -54.625; -370.000; -317.000
230.346;  -22.600; -107.000;  107.000
230.490;  -69.275; -489.000; -521.000
230.634; -102.750; -736.000; -553.000
230.777;   64.200;  478.000;  509.000
230.921;  -61.500; -450.000; -359.000
231.065;  -45.950; -246.000; -286.000
231.209;    7.100;  261.000;  265.000
231.352;   12.125;   54.000;   40.000
231.496;   15.250;  568.000;  188.000
231.640;  -91.075; -693.000; -621.000
231.783;   41.550;  546.000;  525.000
231.927;  -42.425; -294.000; -365.000
232.071; -120.950; -962.000; -736.000
232.214; -113.175; -980.000; -764.000
232.358;  -94.200; -683.000; -599.000
232.502;  -13.650;  -19.000;    7.000
232.645; -130.925;-1090.000; -927.000
232.789;  -28.575; -257.000; -218.000
232.933;  -43.350; -407.000; -224.000
233.076; -106.800;-1038.000; -897.000
233.220;  -96.150; -752.000; -777.000
233.363;  -79.150; -669.000; -477.000
233.507;   50.675;  371.000;  129.000
233.650; -108.225; -764.000; -834.000
233.794;   41.525;  438.000;  461.000
233.938;  -65.925; -530.000; -362.000
234.081;  -22.375;  -93.000;   31.000
234.225;  -78.425; -631.000; -539.000
234.368; -108.350; -773.000; -723.000
234.512;  -46.450; -385.000; -299.000
234.655;  -83.850; -582.000; -555.000
234.798;  -66.050; -493.000; -466.000
234.942; -125.725; -884.000;-1002.000
235.085;  -79.300; -651.000; -443.000
235.229;  -76.525; -405.000; -410.000
235.372;  -52.050; -247.000; -191.000
235.516;  -60.625; -397.000; -321.000
235.659;    5.425;   92.000;  121.000
235.802;   -7.300;  -38.000;  -22.000
235.946;   29.800;  335.000;  215.000
236.089;   25.800;  126.000;  250.000
236.233;   31.500;  275.000;  298.000
236.376;  -48.675; -235.000; -378.000
236.519;  -48.025; -297.000; -319.000
236.663;  -28.775; -215.000; -117.000
236.806; -136.150;-1029.000; -999.000
236.949;   54.275;  543.000;  431.000
237.092;   48.425;  412.000;  391.000
237.236;  -73.100; -589.000; -502.000
237.379;   58.575;  352.000;  428.000
237.522; -111.325; -879.000; -768.000
237.666;  -23.400; -271.000;   18.000
237.809; -124.425; -851.000; -823.000
237.952;   29.075;  469.000;  271.000
238.095;  -58.475; -447.000; -442.000
238.238;   59.875;  688.000;  700.000
238.382;  -12.625;  166.000;  103.000
238.525;  -53.600; -598.000; -511.000
238.668; -136.125;-1060.000; -985.000
238.811;  -76.575; -638.000; -643.000
238.954;  -63.400; -483.000; -334.000
239.097;   78.150;  617.000;  664.000
239.241;   21.025;  394.000;  326.000
239.384;  -38.125; -254.000; -214.000
239.527;  -64.775; -424.000; -224.000
239.670; -137.650; -994.000;-1091.000
239.813; -105.475; -696.000; -658.000
239.956;   47.650;  579.000;  473.000
240.099; -116.300; -778.000; -725.000
240.242;   47.575;  428.000;  432.000
240.385;   41.950;  466.000;  450.000
240.528;  -88.875; -706.000; -473.000
240.671;    1.750;  189.000;  134.000
240.814;  -47.825; -441.000; -158.000
240.957; -100.450; -767.000; -578.000
241.100;  -94.675; -779.000; -755.000
241.243; -146.275;-1234.000; -893.000
241.386;  -71.825; -508.000; -379.000
241.529;  -85.850; -735.000; -547.000
241.672;  -59.650; -566.000; -495.000
241.815; -116.300; -832.000; -808.000
241.958;  -31.125; -125.000; -182.000
242.101;  -79.900; -545.000; -390.000
242.244;  -42.100; -270.000; -325.000
242.387;  -45.100; -304.000; -246.000
242.530;   45.050;  470.000;  134.000
242.673;  -50.825; -381.000; -309.000
242.815; -123.300; -925.000; -899.000
242.958;  -62.700; -482.000; -381.000
243.101;    0.450;  132.000;  187.000
243.244;  -83.250; -564.000; -521.000
243.387;  -49.675; -313.000; -316.000
243.530;  -92.900; -657.000; -674.000
243.672;  -14.600;   43.000;  -92.000
243.815;  -48.475; -355.000; -283.000
243.958;  -28.950;   98.000;  -26.000
244.101;    8.375;   59.000;  -16.000
244.243;  -17.300;  -47.000;  101.000
244.386; -114.100; -761.000; -630.000
244.529;  -41.800; -132.000; -139.000
244.672; -150.625;-1154.000; -951.000
244.814;  -98.400; -621.000; -794.000
244.957;  -51.025; -380.000; -304.000
245.100;  -87.250; -489.000; -489.000
245.242;  -62.150; -387.000; -374.000
245.385;  -14.275;  -59.000;  -39.000
245.528; -125.675; -871.000; -705.000
245.670;   68.525;  612.000;  634.000
245.813;  -91.325; -599.000; -547.000
245.956;  -51.275; -324.000; -275.000
246.098;  -71.000; -508.000; -650.000
246.241;   -0.400;  194.000;   48.000
246.383;   -1.400; -119.000;  -73.000
246.526;  -80.050; -454.000; -525.000
246.669; -117.350; -889.000; -780.000
246.811;  -10.625;  172.000;   -1.000
246.954;  -65.400; -512.000; -426.000
247.096;  -24.275;  -84.000;   -6.000
247.239;  -77.225; -482.000; -445.000
247.381;  -78.700; -647.000; -488.000
247.524;   69.700;  645.000;  679.000
247.666;  -23.500;   58.000;   11.000
247.809; -100.875; -887.000; -691.000
247.951;  -12.125;  -75.000;  138.000
248.094;   15.425;  432.000;  308.000
248.236; -151.950;-1262.000;-1238.000
248.378;  -22.700; -356.000;  -81.000
248.521;  -43.575; -334.000; -337.000
248.663;  -43.825; -236.000; -267.000
248.806;  -32.350; -300.000; -266.000
248.948; -107.250; -886.000; -763.000
249.090;  -72.925; -428.000; -398.000
249.233;  -65.975; -344.000; -381.000
249.375;  -64.200; -474.000; -451.000
249.518;  -26.675;  -83.000; -133.000
249.660;   -9.625; -103.000;    3.000
249.802; -176.400;-1303.000;-1189.000
249.945;  -87.100; -612.000; -540.000
250.087; -109.500; -834.000; -768.000
250.229;  -59.850; -362.000; -480.000
250.371;  -73.200; -494.000; -439.000
250.514;  -63.575; -310.000; -244.000
250.656;  -22.325;   69.000;  102.000
250.798; -114.950; -849.000; -800.000
250.940;  -61.375; -322.000; -322.000
251.083;  -40.250; -335.000; -111.000
251.225;   45.825;  338.000;  310.000
251.367;  -47.050; -274.000; -373.000
251.509;  -44.775; -265.000; -210.000
251.651; -114.775; -731.000; -671.000
251.794;   48.575;  538.000;  632.000
251.936; -115.525; -821.000; -747.000
252.078;  -71.525; -540.000; -461.000
252.220;  -80.475; -645.000; -477.000
252.362;   45.475;  344.000;  462.000
252.504;  -75.125; -677.000; -584.000
252.646; -117.450; -875.000; -722.000
252.788;  -15.475;   14.000; -128.000
252.931;  -43.100; -257.000; -253.000
253.073;  -50.300; -376.000; -317.000
253.215;  -31.425;  141.000;  122.000
253.357;  -31.525;   82.000; -153.000
253.499;  -52.450; -374.000; -234.000
253.641;  -99.500; -749.000; -594.000
253.783;  -97.725; -609.000; -527.000
253.925;  -91.575; -586.000; -591.000
254.067; -102.100; -744.000; -667.000
254.209;  -34.750; -391.000; -259.000
254.351; -139.625; -865.000; -883.000
254.493;  -65.750; -441.000; -417.000
254.635; -126.625; -936.000; -818.000
254.777;  -95.625; -752.000; -687.000
254.918;  -72.025; -512.000; -430.000
255.060;  -77.425; -551.000; -395.000
255.202;  -56.550; -473.000; -261.000
255.344;  -86.525; -658.000; -455.000
255.486;  -74.300; -471.000; -406.000
255.628;  -99.425; -780.000; -781.000
255.770;  -83.825; -676.000; -536.000
255.912;  -64.475; -559.000; -468.000
256.053;  -93.275; -730.000; -508.000
256.195;  138.225; 1008.000;  903.000
256.337; -106.150; -861.000; -595.000
256.479;   45.050;  532.000;  416.000
256.621;  -54.400; -394.000; -212.000
256.762;  -98.800; -789.000; -742.000
256.904;   54.300;  485.000;  487.000
257.046;  -59.450; -381.000; -271.000
257.188;  -44.200; -351.000; -264.000
257.329;  -66.250; -525.000; -464.000
257.471; -118.700; -939.000; -807.000
257.613;  -73.425; -584.000; -498.000
257.755; -128.525;-1073.000; -982.000
257.896;   17.875;  286.000;  392.000
258.038;  -71.725; -403.000; -352.000
258.180;  -50.975; -354.000; -279.000
258.321;  -72.225; -581.000; -457.000
258.463;   -8.275;  -71.000;  133.000
258.605;  -98.075; -562.000; -570.000
258.746; -108.600; -886.000; -772.000
258.888; -135.050;-1026.000;-1020.000
259.029;    7.300;  121.000;   -8.000
259.171;  -94.150; -614.000; -550.000
259.313;  -21.375;  -49.000;  -47.000
259.454;  -68.325; -536.000; -414.000
259.596;  -68.550; -483.000; -390.000
259.737;  -77.075; -590.000; -474.000
259.879;   22.825;  217.000;  311.000
260.020;   68.050;  901.000;  636.000
260.162;  -33.575; -146.000; -253.000
260.303; -115.150; -768.000; -687.000
260.445;  -88.225; -609.000; -613.000
260.586;   33.550;  392.000;  157.000
260.728;  -56.400; -360.000; -248.000
260.869;  -81.325; -350.000; -343.000
261.011;   57.750;  706.000;  537.000
261.152;  -49.050; -479.000; -319.000
261.293;  -85.925; -576.000; -595.000
261.435;  -44.650; -219.000; -184.000
261.576;  -61.175; -455.000; -325.000
261.718;   36.250;  420.000;  470.000
261.859; -120.600; -940.000; -949.000
262.000; -128.025; -951.000;-1016.000
262.142;  -31.200;  -52.000;  -60.000
262.283; -113.700; -808.000; -691.000
262.424;  -95.300; -666.000; -625.000
262.566; -150.525;-1161.000; -983.000
262.707; -118.475; -840.000; -830.000
262.848; -120.700; -769.000; -726.000
262.990;  -57.875; -362.000; -345.000
263.131;   57.400;  650.000;  681.000
263.272;  -24.725;  -61.000;  -41.000
263.413;  -98.275; -589.000; -561.000
263.555;  -70.150; -669.000; -143.000
263.696;  -92.275; -550.000; -641.000
263.837;  -58.125; -449.000; -551.000
263.978;  -15.800;   -5.000;  -77.000
264.119;  -51.325; -283.000; -264.000
264.261; -126.400; -847.000; -630.000
264.402;  -12.625;   33.000;   40.000
264.543;  -73.000; -509.000; -524.000
264.684;  -15.800;   61.000;  -50.000
264.825;  -91.025; -816.000; -538.000
264.966;   -6.925;  -84.000;  -67.000
265.107; -113.300; -646.000; -670.000
265.248; -111.525; -825.000; -812.000
265.390;  -17.300;  152.000;   -9.000
265.531;  -40.050; -238.000; -107.000
265.672;  -87.325; -557.000; -630.000
265.813;   50.800;  563.000;  439.000
265.954; -138.500; -959.000; -940.000
266.095;  -26.375; -372.000; -322.000
266.236; -103.725; -686.000; -548.000
266.377;  -53.950; -243.000; -297.000
266.518;  -69.000; -619.000; -547.000
266.659;    6.175;  170.000;  268.000
266.800;  -14.750;   83.000;   85.000
266.941;  -78.425; -487.000; -478.000
267.082;   10.550;  354.000;   99.000
267.223;  -68.525; -344.000; -273.000
267.364; -113.625; -892.000; -686.000
267.504;  -17.800;    3.000;  135.000
267.645;  -10.725;  160.000;   67.000
267.786;  -42.975; -147.000;  -86.000
267.927;  -75.750; -473.000; -379.000
268.068;  -17.450; -186.000;  -61.000
268.209;  -41.900; -175.000; -413.000
268.350;  -71.175; -388.000; -532.000
268.490;  -87.775; -648.000; -521.000
268.631;   22.175;  127.000;  225.000
268.772; -105.350; -874.000; -647.000
268.913;  -58.875; -328.000; -476.000
269.054;  -23.000; -117.000;   12.000
269.194;  -48.975; -418.000; -402.000
269.335; -146.625;-1137.000;-1074.000
269.476;  -23.925;   33.000;  -35.000
269.617;  -50.025; -347.000; -392.000
269.757;  -98.525; -713.000; -646.000
269.898; -102.750; -856.000; -613.000
270.039;  -67.350; -415.000; -405.000
270.180; -134.975; -952.000; -816.000
270.320;  -36.100; -190.000; -250.000
270.461;  -39.150; -277.000; -249.000
270.602;  -33.375; -186.000; -156.000
270.742; -121.950; -868.000; -943.000
270.883;  -69.675; -442.000; -390.000
271.023;  -60.150; -358.000; -357.000
271.164;  -72.600; -607.000; -528.000
271.305; -101.775; -666.000; -654.000
271.445; -104.450; -722.000; -683.000
271.586;  -68.725; -462.000; -283.000
271.726;  -51.050; -397.000; -322.000
271.867;  -72.375; -594.000; -534.000
272.008;   47.125; -473.000; -285.000
272.148;   80.425;  462.000;  468.000
272.289;  -14.300; -113.000; -181.000
272.429;   -7.500;   19.000;  185.000
272.570;  -98.000; -633.000; -737.000
272.710; -102.650; -825.000; -775.000
272.851;  -30.925;  113.000; -130.000
272.991; -147.025;-1173.000;-1077.000
273.131;  -70.750; -419.000; -459.000
273.272; -101.000; -683.000; -723.000
273.412;  -22.925; -143.000;  -31.000
273.553;  -65.750; -488.000; -507.000
273.693;  104.575;  913.000;  858.000
273.834; -122.750; -894.000; -692.000
273.974;  -89.050; -664.000; -615.000
274.114; -100.625; -772.000; -560.000
274.255;   47.575;  414.000;  373.000
274.395;  -21.500; -180.000; -125.000
274.535;   13.525;  199.000;  350.000
274.676;   12.425;  225.000;   94.000
274.816;   -7.950;  110.000;   34.000
274.956;  -92.725; -624.000; -690.000
275.097; -109.325;-1014.000; -922.000
275.237; -111.875; -913.000; -803.000
275.377; -108.650; -778.000; -689.000
275.517; -136.925; -878.000; -937.000
275.658;  -70.700; -590.000; -555.000
275.798;  -78.550; -606.000; -413.000
275.938;    6.450;  215.000;  323.000
276.078;  -73.125; -626.000; -395.000
276.218;    2.425;   99.000;  104.000
276.359; -134.975;-1026.000;-1024.000
276.499;  -74.575; -605.000; -446.000
276.639;  -19.250; -305.000; -151.000
276.779;  -49.400; -475.000; -357.000
276.919;  -98.525; -783.000; -624.000
277.059;  -33.875; -261.000; -212.000
277.199;  -58.150; -357.000; -259.000
277.340;   25.800;  287.000;  175.000
277.480; -101.250; -840.000; -693.000
277.620;    3.525;  192.000;   16.000
277.760; -191.500;-1533.000;-1294.000
277.900;    2.025;  113.000;   33.000
278.040;   -3.300;  137.000;  159.000
278.180;   15.125;  270.000;  170.000
278.320;  -16.725;   21.000;   56.000
278.460;  -82.200; -443.000; -469.000
278.600;  -91.550; -708.000; -598.000
278.740;   38.000;  448.000;  224.000
278.880;  -98.500; -768.000; -791.000
279.020;  -27.550; -194.000; -144.000
279.160;  -77.525; -672.000; -595.000
279.300; -131.700; -926.000; -873.000
279.440;  -89.275; -709.000; -622.000
279.579;  -83.675;-1014.000; -929.000
279.719;  -62.125; -410.000; -394.000
279.859;   29.850;   -4.000;   41.000
279.999;  -20.700; -208.000;  101.000
280.139;  -52.200; -435.000; -387.000
280.279;  -98.050; -708.000; -745.000
280.419;  -30.000; -229.000; -147.000
280.559;  -44.675; -259.000; -180.000
280.698; -107.500; -790.000; -639.000
280.838; -104.900; -778.000; -800.000
280.978; -101.750; -846.000; -790.000
281.118; -108.725; -811.000; -704.000
281.257;   13.500;   24.000;    6.000
281.397; -127.900;-1094.000; -960.000
281.537;  -94.275; -599.000; -712.000
281.677;  -19.925; -150.000; -101.000
281.816;  -81.500; -700.000; -630.000
281.956;  -36.600; -193.000; -257.000
282.096;  -61.225; -539.000; -396.000
282.235;  -87.375; -672.000; -638.000
282.375;  -29.575; -243.000;  -98.000
282.515; -102.075; -715.000; -707.000
282.654;   18.475;   29.000;  106.000
282.794;   37.175;  388.000;  244.000
282.934;  -63.250; -530.000; -491.000
283.073; -119.575;-1030.000; -857.000
283.213;  -55.950; -460.000; -467.000
283.353;  -54.400; -408.000; -349.000
283.492;  -33.625; -264.000; -296.000
283.632;  -41.925; -254.000; -168.000
283.771; -105.025; -859.000; -730.000
283.911;  -58.950; -369.000; -260.000
284.050;  -94.350; -794.000; -748.000
284.190; -158.325;-1229.000;-1096.000
284.329; -137.125;-1055.000; -964.000
284.469;  -77.450; -516.000; -591.000
284.608;  -62.225; -559.000; -598.000
284.748;  -72.275; -614.000; -570.000
284.887;  -23.675;  -87.000;  -20.000
285.027; -134.375; -844.000; -892.000
285.166;  -44.925; -192.000; -249.000
285.306;  -23.125; -116.000;  -33.000
285.445;  -41.500; -229.000; -343.000
285.584;  -84.550; -630.000; -494.000
285.724;  -52.225; -282.000; -322.000
285.863; -104.700; -857.000; -507.000
286.002;  -53.200; -366.000; -276.000
286.142;  -98.600; -715.000; -622.000
286.281;  -69.750; -525.000; -493.000
286.420;  -89.450; -554.000; -417.000
286.560;   93.475;  653.000;  623.000
286.699; -130.825; -958.000; -912.000
286.838;  -83.300; -590.000; -591.000
286.978;  -86.925; -533.000; -537.000
287.117; -136.400;-1085.000; -950.000
287.256;  -41.100; -228.000; -211.000
287.395;  -48.850; -197.000; -378.000
287.535;  -44.600; -370.000; -298.000
287.674;  -74.025; -509.000; -484.000
287.813;   40.050;  661.000;  533.000
287.952; -127.900;-1010.000; -871.000
288.091; -137.050;-1049.000; -915.000
288.231;    8.325;   13.000;   15.000
288.370; -167.650;-1217.000;-1200.000
288.509; -100.700; -728.000; -645.000
288.648;  -89.825; -770.000; -548.000
288.787;  -40.925; -243.000;  -87.000
288.926;  -66.300; -454.000; -475.000
289.065;   75.725;  859.000;  672.000
289.204;  -42.725; -377.000; -217.000
289.344;  -99.125; -791.000; -690.000
289.483;   12.150;  416.000;  304.000
289.622;  -32.950; -291.000; -149.000
289.761;  -18.825; -309.000; -166.000
289.900; -108.825; -785.000; -626.000
290.039;  -19.650;  -12.000;  -95.000
290.178;  -44.850; -274.000; -180.000
290.317;  -78.800; -618.000; -479.000
290.456;  -66.000; -463.000; -451.000
290.595; -112.300; -961.000; -833.000
290.734; -120.850; -904.000; -891.000
290.873;  -60.500; -456.000; -420.000
291.011; -113.175; -833.000; -843.000
291.150; -105.425; -770.000; -682.000
291.289;  -39.200; -343.000; -110.000
291.428;  -90.100; -599.000; -480.000
291.567;  -58.725; -370.000; -442.000
291.706;   -2.150;  109.000;  154.000
291.845; -101.900; -597.000; -505.000
291.984; -166.000;-1234.000;-1061.000
292.122;   58.425;  602.000;  582.000
292.261;   23.750;  620.000;  463.000
292.400;   -6.100; -144.000;  211.000
292.539; -119.675; -959.000; -813.000
292.678;  -37.800; -325.000; -300.000
292.816; -146.750;-1136.000; -965.000
292.955;  -98.400; -844.000; -684.000
293.094;  -38.750; -173.000; -337.000
293.233;  -50.400; -556.000; -400.000
293.371;  -38.075; -225.000;  -84.000
293.510; -101.425; -866.000; -780.000
293.649; -142.550; -959.000; -924.000
293.787; -117.125;-1083.000;-1012.000
293.926;  -26.300; -113.000;  -32.000
294.065;  -49.500; -379.000; -290.000
294.203;   29.375;  298.000;  406.000
294.342;   32.675;   74.000;  156.000
294.481; 4997.975;51180.000; -836.000
294.619;  -46.425; -425.000; -582.000
294.758; -135.950;-1230.000;-1137.000
294.896;    9.625; -125.000;    5.000
295.035; -124.625;-1040.000;-1006.000
295.174; -108.400;-1082.000; -954.000
295.312;  -42.000; -323.000; -203.000
295.451;  -41.925; -307.000; -428.000
295.589;  -76.300; -389.000; -518.000
295.728;    3.775; -292.000; -165.000
295.866;   -9.850;  -36.000;  -51.000
296.005;  -62.500; -584.000; -341.000
296.143;  -78.700; -558.000; -596.000
296.282; -104.325; -957.000; -881.000
296.420;  -93.525; -657.000; -557.000
296.559;  -83.200; -892.000; -633.000
296.697;  -55.100; -847.000; -665.000
296.835;  -69.325;-1141.000;-1002.000
296.974;   28.575;  -23.000;   39.000
297.112;  -31.075; -443.000; -504.000
297.251;  -76.950; -815.000; -755.000
297.389;   -9.350; -576.000; -438.000
297.527;    7.175; -145.000;  -83.000
297.666;  -61.925; -486.000; -438.000
297.804;  -45.475; -404.000; -264.000
297.942;   -6.475; -136.000; -161.000
298.081;   -2.300; -183.000;   63.000
298.219;   11.275;  -17.000;  -19.000
298.357;  -16.875; -144.000;  -71.000
298.495;  -64.875; -810.000; -812.000
298.634;    7.150;  245.000;  219.000
298.772;  -25.050; -220.000; -338.000
298.910;  -49.525; -309.000; -182.000
299.048;  -26.975; -130.000; -153.000
299.187;  -38.425; -350.000; -250.000
299.325;  -10.500;   52.000;  122.000
299.463;   -8.175; -389.000; -299.000
299.601;   10.525; -327.000; -271.000
299.739; -130.825; -908.000; -883.000
299.877; -100.675; -791.000; -703.000
300.016; -117.425;-1095.000; -935.000
300.154;   39.850;  -19.000; -161.000
300.292;  -41.675; -428.000; -348.000
300.430;  -35.800; -408.000; -291.000
300.568; -131.200; -940.000; -874.000
300.706;  -73.000; -366.000; -469.000
300.844; -128.125;-1108.000; -979.000
300.982;   59.625;  246.000;  282.000
301.120; -117.975; -965.000; -866.000
301.258;  -82.375; -812.000; -705.000
301.396;    3.600;  104.000;  -41.000
301.534;  -34.600; -218.000; -293.000
301.672;  -65.475; -664.000; -521.000
301.810;  -60.250; -613.000; -545.000
301.948;   47.100;   53.000;  149.000
302.086;  209.650; -250.000;  -32.000
302.224;  232.925; -610.000; -585.000
302.362;  -70.300; -558.000; -622.000
302.500;  -93.850; -923.000; -893.000
302.638;   40.175;  128.000;  245.000
302.776;  -33.775; -352.000; -408.000
302.913;   31.075;  447.000;  236.000
303.051;  -23.950;  -86.000;  -23.000
303.189;    6.450;   90.000;  118.000
303.327;  -43.450; -341.000; -256.000
303.465;  -78.100; -832.000; -588.000
303.603; -103.000; -805.000; -604.000
303.740;   69.200;  417.000;  241.000
303.878;  -68.175; -800.000; -759.000
304.016;  -96.050; -915.000; -790.000
304.154; -151.325;-1123.000;-1152.000
304.291;  -71.725; -505.000; -554.000
304.429;   -2.075;  102.000;   74.000
304.567; -127.850; -908.000; -893.000
304.705;  -63.250; -408.000; -515.000
304.842;  -35.225; -616.000; -540.000
304.980;   29.350;  215.000;   35.000
305.118;  -28.750; -367.000; -365.000
305.255; -120.425; -945.000; -927.000
305.393;   37.225;  178.000;  239.000
305.531; -129.400;-1173.000; -956.000
305.668;  -94.425; -663.000; -582.000
305.806;   12.075; -358.000; -439.000
305.943;  -19.250; -629.000; -637.000
306.081;  -17.875; -378.000; -267.000
306.219; -108.250; -863.000; -748.000
306.356;   10.175;  158.000;   27.000
306.494;  123.575;  981.000;  761.000
306.631;    5.450;  -11.000;  -55.000
306.769;    2.325; -613.000; -485.000
306.906;   -3.425; -284.000; -258.000
307.044;  -50.875; -473.000; -488.000
307.181;  -40.925; -410.000; -332.000
307.319;   10.725;  112.000;   87.000
307.456; -161.525;-1191.000;-1153.000
307.594; -112.400; -980.000; -727.000
307.731;  -28.075; -371.000; -164.000
307.868;  -12.725;  -15.000;   20.000
308.006; -122.700; -961.000; -847.000
308.143;  -65.675; -618.000; -330.000
308.281;   43.150;  -37.000; -254.000
308.418;  -50.400; -748.000; -640.000
308.555;  -59.100; -400.000; -250.000
308.693;  -60.825; -577.000; -573.000
308.830;  -85.550; -712.000; -657.000
308.967;   -9.125; -215.000;  -95.000
309.105;  -23.400; -507.000; -396.000
309.242;    5.100; -468.000; -367.000
309.379;   57.125; -577.000; -655.000
309.517;  -93.975; -936.000; -948.000
309.654;  -76.050; -910.000; -734.000
309.791;  -58.575; -662.000; -580.000
309.928;  -98.450; -977.000; -914.000
310.065;  134.500;  819.000;  697.000
310.203;  -58.500; -825.000; -850.000
310.340;  -36.675; -465.000; -321.000
310.477;  -73.250; -412.000; -516.000
310.614;  -50.450; -383.000; -473.000
310.751;  -44.450; -427.000; -518.000
310.889;  -26.625;    1.000;   11.000
311.026; -142.100;-1161.000; -939.000
311.163;  -36.725; -386.000; -380.000
311.300;  -55.575; -512.000; -479.000
311.437;  -71.375; -658.000; -619.000
311.574; -135.275;-1226.000; -985.000
311.711;  -48.750; -595.000; -433.000
311.848;  -26.400; -380.000; -388.000
311.985;   16.300;  270.000;   93.000
312.122; -101.675; -932.000; -762.000
312.259; -102.525; -941.000; -994.000
312.396;  -42.050; -508.000; -551.000
312.533;  -67.450; -812.000; -790.000
312.670; -125.800;-1070.000; -898.000
312.807;   -7.975; -352.000; -367.000
312.944;  -41.175; -513.000; -611.000
313.081;   -7.875; -150.000; -415.000
313.218;  -72.775;-1111.000; -867.000
313.355;  -17.250; -531.000; -449.000
313.492;   -0.750; -455.000; -292.000
313.629;  138.075;  815.000;  735.000
313.766; -132.175;-1176.000;-1008.000
313.902;    4.100; -186.000;   21.000
314.039;  -39.100; -372.000; -289.000
314.176;   30.250;  286.000;  192.000
314.313;  -47.600; -569.000; -473.000
314.450;  -57.400; -788.000; -684.000
314.587;  -42.500; -468.000; -480.000
314.723;   10.200;  -78.000;  130.000
314.860;   49.975;  318.000;  332.000
314.997;   47.450;  223.000;  142.000
315.134;  -24.325; -385.000; -368.000
315.270;   -9.400; -480.000; -496.000
315.407; -112.750;-1094.000; -967.000
315.544;  -36.050; -657.000; -538.000
315.681;  -50.025; -681.000; -565.000
315.817;   30.450; -133.000; -176.000
315.954;   67.525; -613.000; -392.000
316.091; -102.950;-1045.000;-1023.000
316.227;  -21.450;  -71.000; -179.000
316.364;   -7.000;   23.000;    6.000
316.500;  -40.175; -113.000; -300.000
316.637;  -33.575; -181.000; -302.000
316.774;  -81.375; -625.000; -358.000
316.910;  -80.975; -598.000; -629.000
317.047;  -54.075; -487.000; -351.000
317.183;  -58.350; -435.000; -566.000
317.320;   32.550; -367.000; -321.000
317.456;  -33.925; -733.000; -805.000
317.593;  -70.050; -598.000; -641.000
317.729;   -5.425;  168.000;  -67.000
317.866; -189.475;-1434.000;-1285.000
318.002;  -82.625; -708.000; -948.000
318.139; -112.525; -883.000; -867.000
318.275; -103.700;-1003.000; -738.000
318.412;  -67.550; -517.000; -336.000
318.548;  -87.150; -751.000; -720.000
318.685; -102.025; -985.000; -888.000
318.821;  -86.575; -762.000; -735.000
318.957;  -29.275;   34.000;  -23.000
319.094;   31.650;  297.000;  154.000
319.230;  -95.350; -756.000; -742.000
319.367;    9.250; -471.000; -520.000
319.503;  -28.825; -538.000; -436.000
319.639; -105.200; -877.000; -793.000
319.775;  -84.425; -750.000; -685.000
319.912;  -60.025; -424.000; -519.000
320.048;  -96.350;-1184.000;-1184.000
320.184;   71.500;   59.000;   70.000
320.321;  -55.025; -497.000; -467.000
320.457;   81.625;  475.000;  662.000
320.593;  -60.750; -375.000; -382.000
320.729;  -95.600; -732.000; -734.000
320.866;  -72.000; -577.000; -635.000
321.002;  -99.250; -759.000; -809.000
321.138;  -31.600; -135.000; -211.000
321.274;    9.150; -148.000; -115.000
321.410;  -48.225; -585.000; -353.000
321.546; -103.750;-1011.000; -911.000
321.683;   33.175;  400.000;  185.000
321.819;  -19.300;  -48.000; -117.000
321.955; -113.125; -743.000; -722.000
322.091;  -69.600; -585.000; -540.000
322.227;  -53.925; -382.000; -202.000
322.363;  -42.550; -320.000; -215.000
322.499;  -56.475; -343.000; -331.000
322.635;   88.525;  636.000;  443.000
322.771;  -11.375; -139.000;   12.000
322.907;   34.775;  129.000;  327.000
323.043;  -44.200; -115.000; -206.000
323.179;  -51.000; -394.000; -363.000
323.315;  -37.700; -401.000; -371.000
323.451;   29.100; -328.000; -236.000
323.587;   52.650;  -60.000;  -77.000
323.723;  -47.600; -682.000; -601.000
323.859;  -27.075; -258.000;  -76.000
323.995;  -55.825; -467.000; -409.000
324.131; -130.350; -967.000; -892.000
324.267;  -41.325; -254.000; -276.000
324.402; -129.025; -960.000; -983.000
324.538;  -55.025; -279.000; -104.000
324.674;    6.175;  164.000;   77.000
324.810;   51.800;  226.000;  308.000
324.946;  -53.675; -810.000; -658.000
325.082;  -68.100; -568.000; -475.000
325.217;  -20.775;  -62.000;   16.000
325.353; -100.850; -764.000; -659.000
325.489;  -93.775; -540.000; -506.000
325.625;  -70.375; -579.000; -525.000
325.760;   90.675;  517.000;  376.000
325.896;   18.825; -515.000; -702.000
326.032;  -47.975; -403.000; -352.000
326.168;  -62.500; -462.000; -369.000
326.303;  -55.825; -352.000; -461.000
326.439;   -6.525; -336.000; -276.000
326.575;  -10.550; -190.000;  -29.000
326.710;  -28.525; -156.000;  -30.000
326.846;   -9.575;  146.000;  103.000
326.982;  -95.950; -530.000; -548.000
327.117;  -67.700; -481.000; -442.000
327.253;  -75.725; -745.000; -742.000
327.388; -135.700;-1137.000;-1153.000
327.524;  -89.800; -811.000; -578.000
327.659;  -19.200;  -58.000;  -22.000
327.795;  -30.900;   69.000;   45.000
327.931;  -74.100; -723.000; -499.000
328.066;  -16.900; -417.000; -276.000
328.202;  -37.025;   12.000; -129.000
328.337;   85.150;  957.000;  713.000
328.473;   24.475;  -12.000;  -74.000
328.608;  -15.825; -256.000; -267.000
328.743;  -99.575; -799.000; -664.000
328.879;    7.075;  214.000;  114.000
329.014;  -42.250; -102.000; -122.000
329.150;  -81.450; -358.000; -483.000
329.285;  -67.950; -465.000; -466.000
329.421;  -47.925; -548.000; -246.000
329.556;  -27.100;  -36.000;   85.000
329.691; -100.675; -633.000; -615.000
329.827;  -78.600; -626.000; -480.000
329.962;  -53.075;  131.000; -301.000
330.097;  -73.525; -673.000; -585.000
330.233;  -45.675; -410.000; -223.000
330.368; -116.500; -839.000; -628.000
330.503;  -13.625;    3.000;   98.000
330.638;   -3.775;  -93.000; -125.000
330.774;  -72.775; -609.000; -530.000
330.909;  -49.650; -434.000; -244.000
331.044;  -89.525; -714.000; -708.000
331.179; -164.725;-1217.000;-1109.000
331.315;   -3.275;   77.000;   20.000
331.450;   10.275;  157.000;  285.000
331.585;  -91.625; -805.000; -706.000
331.720;  -73.225; -510.000; -460.000
331.855;  -15.975;  -35.000; -102.000
331.990;  412.125;   62.000;  138.000
332.126;  217.950; -110.000;   71.000
332.261;   13.125; -379.000; -265.000
332.396;   21.200; -135.000; -242.000
332.531;  -38.850;-1074.000;-1031.000
332.666;   81.500; -519.000; -363.000
332.801;  -88.925; -726.000; -807.000
332.936;  -18.000; -192.000; -122.000
333.071; -117.350; -870.000; -817.000
333.206;   10.850;  307.000;  379.000
333.341;   10.925;  344.000;  418.000
333.476;  -94.075; -627.000; -623.000
333.611;  -34.150; -251.000; -173.000
333.746;  -48.150; -381.000; -464.000
333.881; -107.775; -973.000; -935.000
334.016; -121.625; -936.000; -917.000
334.151; -119.450; -746.000; -702.000
334.286;   23.150;  152.000;  186.000
334.421;  -20.100; -125.000; -178.000
334.556;  -64.725; -611.000; -567.000
334.690;  -88.050; -631.000; -577.000
334.825;   46.025;  381.000;   83.000
334.960;  -43.800; -285.000; -413.000
335.095;    5.750;  135.000;  -91.000
335.230;  -76.050; -722.000; -738.000
335.365; -131.550;-1084.000; -990.000
335.499; -128.300;-1108.000;-1037.000
335.634;   27.750;    9.000;  534.000
335.769;  -77.875; -755.000; -720.000
335.904;  -55.525; -603.000; -561.000
336.038;  -33.800; -735.000; -657.000
336.173; -100.100;-1206.000;-1194.000
336.308;   25.725; -116.000; -189.000
336.443;   73.650; -544.000; -634.000
336.577;  -39.050; -936.000; -787.000
336.712;   94.550;   -4.000;  -12.000
336.847;  -11.300; -724.000; -607.000
336.981;   87.050; -272.000; -208.000
337.116;  330.200;  615.000;  501.000
337.250;  126.200; -434.000; -421.000
337.385;  448.425; -297.000; -208.000
337.520;  225.450; -632.000; -603.000
337.654;  -21.550; -215.000; -126.000
337.789; -130.900; -989.000; -933.000
337.923;  -37.525; -104.000; -205.000
338.058; -108.325; -673.000; -738.000
338.192;  -71.575; -611.000; -488.000
338.327;  -18.225;  -18.000; -155.000
338.461;  -69.750; -299.000; -469.000
338.596; -100.125; -780.000; -638.000
338.730;  -86.475; -767.000; -803.000
338.865;  156.200;  -46.000; -140.000
338.999;    6.950; -846.000; -702.000
339.134;    7.200; -634.000; -536.000
339.268;   38.300; -741.000; -603.000
339.403;  560.275; -740.000; -775.000
339.537;  255.100; -894.000; -820.000
339.671;  -92.700; -829.000; -813.000
339.806;  -39.500; -556.000; -512.000
339.940;   51.125; -261.000; -235.000
340.074;  -91.650; -685.000; -510.000
340.209;  -49.625; -351.000; -230.000
340.343;  -93.675; -517.000; -573.000
340.477;  129.775;  998.000; 1036.000
340.612;    5.100;-1033.000; -900.000
340.746;  221.900; -199.000; -243.000
340.880;  -95.825; -924.000; -785.000
341.014;  -34.550;  -45.000; -154.000
341.149; -114.625; -756.000; -718.000
341.283; -122.225; -839.000; -754.000
341.417; -128.325;-1124.000; -938.000
341.551;  -34.025; -768.000; -708.000
341.685;  -62.200; -633.000; -611.000
341.820;  -50.525; -562.000; -493.000
341.954;  -43.175; -218.000; -349.000
342.088; -150.850;-1102.000;-1019.000
342.222;   39.750;  565.000;  618.000
342.356;  -64.100; -395.000; -335.000
342.490; -120.050; -880.000; -841.000
342.624;  -55.675; -339.000; -242.000
342.758;  -60.375; -364.000; -312.000
342.892;  -95.950; -710.000; -585.000
343.026;  -36.850;  -58.000; -116.000
343.160;  -62.150; -426.000; -376.000
343.294;  -92.150; -474.000; -337.000
343.428;  -60.150; -488.000; -448.000
343.562;  -35.075; -172.000;  -23.000
343.696;  -55.600; -385.000; -314.000
343.830;  -59.400; -362.000; -356.000
343.964;  -30.375; -231.000; -168.000
344.098;  317.225;  199.000;   70.000
344.232;  267.725; -266.000; -127.000
344.366;   77.075; -567.000; -453.000
344.500;  -39.775; -665.000; -744.000
344.634;  -36.125; -324.000; -164.000
344.768;  -56.425; -531.000; -341.000
344.902;   11.250;  278.000;  256.000
345.035;  -84.875; -556.000; -496.000
345.169; -127.925; -933.000; -656.000
345.303;  -52.800; -308.000; -482.000
345.437; -110.400; -826.000; -717.000
345.571;  -69.850; -675.000; -594.000
345.704;  -75.575; -309.000; -532.000
345.838;  -27.875; -331.000; -284.000
345.972;  -76.575; -543.000; -495.000
346.106;  248.900; -179.000; -190.000
346.239;  473.250; -312.000; -243.000
346.373;  -15.975; -343.000; -302.000
346.507; -134.775; -950.000; -962.000
346.640;   47.375;  -30.000;   13.000
346.774;  -94.600; -650.000; -797.000
346.908;  -24.025; -138.000;  -11.000
347.041; -103.925; -646.000; -593.000
347.175;   -7.850;  259.000;   27.000
347.309;  -97.000; -698.000; -628.000
347.442; -105.675; -883.000; -732.000
347.576;  127.200;  670.000;  668.000
347.709;   44.075; -123.000;  -52.000
347.843; -103.875; -933.000; -825.000
347.976;   36.775;  235.000;  294.000
348.110; -166.550;-1268.000;-1186.000
348.243;  -95.775; -679.000; -772.000
348.377;    4.575;  -26.000;   60.000
348.510;   51.600;  403.000;  540.000
348.644;  -52.925;  -37.000; -159.000
348.777;    3.050;  180.000;  191.000
348.911;  -42.925; -142.000; -112.000
349.044;   83.300;  471.000;  448.000
349.178;  -19.875;-1069.000;-1006.000
349.311;  112.175;  141.000;  255.000
349.444;   39.075; -927.000; -813.000
349.578;  -35.550; -347.000; -200.000
349.711; -109.275; -959.000; -862.000
349.845;  -67.625; -661.000; -591.000
349.978; -167.050;-1224.000;-1137.000
350.111;  -98.125; -546.000; -612.000
350.244;  -95.475; -596.000; -700.000
350.378;  -44.875; -392.000; -393.000
350.511;  -74.250; -393.000; -426.000
350.644; -104.700; -808.000; -806.000
350.778;    8.850;  168.000;  104.000
350.911;   -5.400;  134.000;  140.000
351.044; -102.575; -685.000; -615.000
351.177;  -55.825; -321.000; -281.000
351.310;  -20.800;    3.000; -131.000
351.444; -105.875; -888.000; -788.000
351.577;   47.300;  140.000;   90.000
351.710;   79.250;  593.000;  417.000
351.843;  -44.275; -165.000;  -77.000
351.976;  -20.300;  149.000;  -79.000
352.109; -103.325; -621.000; -612.000
352.242;  -40.675; -464.000; -419.000
352.376;  -85.575; -580.000; -636.000
352.509;    9.950; -437.000; -356.000
352.642;  -86.950; -654.000; -604.000
352.775;   -1.425; -141.000;  -98.000
352.908; -121.200; -933.000; -904.000
353.041; -108.275; -814.000; -824.000
353.174;  -71.500; -551.000; -424.000
353.307;  -80.850; -753.000; -764.000
353.440;   62.675;  541.000;  453.000
353.573; -112.450; -957.000;-1008.000
353.706;  -43.525; -384.000; -558.000
353.839;  -24.325; -264.000; -220.000
353.971;  -86.075; -657.000; -512.000
354.104; -104.200; -896.000; -835.000
354.237;  -72.650; -627.000; -662.000
354.370;  -86.075; -846.000; -879.000
354.503; -161.875;-1231.000;-1308.000
354.636;  -25.375; -529.000; -348.000
354.769; -112.950; -937.000; -860.000
354.902;  -22.675; -230.000; -139.000
355.034;  -12.125; -164.000; -220.000
355.167;    1.125; -262.000; -162.000
355.300;  -51.125;-1061.000; -880.000
355.433; 1446.500;  -71.000;  -14.000
355.565; 2306.775; -402.000; -384.000
355.698;  588.775; -356.000; -296.000
355.831;    8.700; -882.000; -801.000
355.964;   45.000; -285.000; -170.000
356.096;  -66.975; -856.000; -843.000
356.229;    7.875; -523.000; -530.000
356.362;  533.600; -373.000; -266.000
356.494;  929.425; -229.000; -162.000
356.627;  337.275;  269.000;  377.000
356.760;  892.325;  120.000;   53.000
356.892; 1512.775; -286.000; -601.000
357.025;  364.250;  403.000;  389.000
357.157;  253.175; -167.000; -179.000
357.290; 1123.275; -856.000; -713.000
357.423;  349.125; -667.000; -556.000
357.555;  106.800; -217.000; -228.000
357.688;  136.625; -483.000; -364.000
357.820;  188.925; -870.000; -877.000
357.953; 1527.100; -563.000; -589.000
358.085;  261.550; -632.000; -612.000
358.218;  151.900;-1131.000; -932.000
358.350;   49.050;  -58.000;  312.000
358.483; -157.100;-1300.000;-1187.000
358.615; -121.525;-1182.000;-1078.000
358.747; -147.000;-1187.000;-1058.000
358.880;  -36.950; -810.000; -744.000
359.012;  -32.000; -376.000; -202.000
359.145;  -55.850; -480.000; -511.000
359.277;  -47.100; -962.000; -913.000
359.409; 1263.975;  536.000;  231.000
359.542;  269.300; -738.000; -688.000
359.674;   35.050;   46.000;   13.000
359.806;  -74.600; -565.000; -438.000
359.939;  -50.850; -617.000; -516.000
360.071;   44.000; -583.000; -579.000
360.203;  -33.475; -411.000; -364.000
360.335;   27.875;  164.000;  -16.000
360.468;   89.100; -249.000; -307.000
360.600; 1334.850; -547.000; -454.000
360.732; 4065.975; -546.000; -423.000
360.864;  635.100;-1216.000;-1044.000
360.996;   90.750; -516.000; -554.000
361.129;  -30.075; -389.000; -598.000
361.261;  -10.775;  110.000; -113.000
361.393;  -52.150; -252.000; -214.000
361.525;  -12.850;   94.000;  244.000
361.657; -101.000; -821.000; -703.000
361.789;  -29.975; -139.000; -155.000
361.921;  -28.425; -642.000; -593.000
362.053;   81.475;  524.000;  541.000
362.185;   14.500;  288.000;   72.000
362.318; -102.850; -709.000; -705.000
362.450;   40.500;  294.000;  444.000
362.582;  -78.425; -913.000; -870.000
362.714;  -66.525; -353.000; -332.000
362.846;  -85.125; -606.000; -490.000
362.978; -124.850; -941.000; -811.000
363.109;  -36.700; -161.000; -260.000
363.241;  164.125; -739.000; -749.000
363.373;  634.575; -649.000; -564.000
363.505; 1035.875; -186.000;  -91.000
363.637;  232.525; -787.000; -601.000
363.769; -113.250;-1067.000;-1080.000
363.901;  -77.675; -596.000; -654.000
364.033; -153.750;-1103.000;-1062.000
364.165;  -36.350; -283.000; -283.000
364.296;   85.700; -316.000; -177.000
364.428;  179.250;-1344.000;-1220.000
364.560;  -48.275; -679.000; -661.000
364.692;  -78.900; -738.000; -835.000
364.824;   -1.575; -588.000; -456.000
364.955;  488.850; -402.000; -564.000
365.087; 1630.475;-1097.000; -852.000
365.219;  110.400; -686.000; -816.000
365.351;  -56.225; -526.000; -572.000
365.482;   24.400;  300.000;  240.000
365.614;  -64.525; -402.000; -314.000
365.746;  -99.050; -729.000; -752.000
365.877;  -83.275; -706.000; -672.000
366.009;  421.100;  -35.000;  -62.000
366.141;  -14.800;-1249.000;-1134.000
366.272; -111.750; -803.000; -719.000
366.404; -111.825;-1005.000; -874.000
366.535;  -21.025; -139.000;  -12.000
366.667; -112.375; -644.000; -649.000
366.799;    1.875;  353.000;  203.000
366.930; -131.325; -862.000; -996.000
367.062;  189.925; -639.000; -613.000
367.193;  347.475; -872.000; -842.000
367.325;  -48.975; -580.000; -684.000
367.456;   -1.725; -246.000;   31.000
367.588;  253.625; -371.000; -318.000
367.719;   52.175;  -44.000;  -45.000
367.851;  -45.850; -222.000; -241.000
367.982; -106.875; -875.000; -732.000
368.113;  -18.750; -475.000; -358.000
368.245; -144.875; -960.000; -841.000
368.376;  -62.800; -254.000; -302.000
368.508;  -60.925; -188.000; -263.000
368.639; -166.900;-1166.000;-1034.000
368.770;  -92.525; -670.000; -589.000
368.902; -112.900; -836.000; -926.000
369.033; -128.450; -906.000; -855.000
369.164;  -39.150; -720.000; -653.000
369.296; -106.725; -452.000; -601.000
369.427;  -36.250; -209.000; -144.000
369.558;  -71.325; -593.000; -377.000
369.689;  -91.025; -721.000; -569.000
369.821; -121.200; -951.000; -845.000
369.952;  -24.775;   42.000; -108.000
370.083;  -50.850; -229.000; -108.000
370.214;  -91.525; -735.000; -650.000
370.345;  -14.250;   65.000;   81.000
370.477;  -99.775; -810.000; -790.000
370.608;   45.150; -328.000; -264.000
370.739; -120.750;-1233.000;-1292.000
370.870; -102.850;-1102.000; -923.000
371.001;  -23.850; -378.000; -467.000
371.132;  -90.475; -754.000; -735.000
371.263;  -39.250;  -42.000; -148.000
371.394; -139.225; -841.000; -748.000
371.525;   16.500;  345.000;  225.000
371.657; -108.975; -808.000; -670.000
371.788;   20.000;  103.000;  199.000
371.919;   13.100; -384.000; -304.000
372.050; 1317.350;  -91.000; -156.000
372.181;  411.625; -188.000; -294.000
372.311;  101.375;   42.000; -127.000
372.442;  -41.075; -457.000; -451.000
372.573;  -43.475; -444.000; -340.000
372.704; -147.800;-1008.000; -980.000
372.835;  -11.625; -228.000; -289.000
372.966;  -71.025; -646.000; -554.000
373.097;  -98.300; -575.000; -711.000
373.228;  -91.675; -717.000; -542.000
373.359;  -31.350; -824.000; -536.000
373.490;  193.725; -881.000; -727.000
373.620;  279.175;-1001.000; -803.000
373.751;  595.775; -332.000; -396.000
373.882;  244.275; -663.000; -733.000
374.013;  -20.925; -449.000; -262.000
374.143;  -72.875; -581.000; -659.000
374.274; -121.625; -987.000; -908.000
374.405;   50.000; -388.000; -276.000
374.536;  117.775; -526.000; -387.000
374.666;  336.300; -759.000; -807.000
374.797;    4.800; -817.000; -868.000
374.928;  211.300; -710.000; -560.000
375.058;  221.575; -535.000; -500.000
375.189;   -2.600;  -59.000;  -93.000
375.320; -126.975; -928.000;-1034.000
375.450;  -51.325; -625.000; -616.000
375.581;  -30.025; -526.000; -436.000
375.712;  -52.875; -574.000; -250.000
375.842;   28.900; -438.000; -415.000
375.973;   -3.375; -554.000; -513.000
376.103;  -94.850; -665.000; -648.000
376.234;  -85.850; -531.000; -552.000
376.364; -122.225; -944.000; -867.000
376.495;  140.025;  925.000;  529.000
376.625;  -66.825; -472.000; -485.000
376.756;  -49.475; -709.000; -678.000
376.886; -123.950;-1178.000;-1026.000
377.017;  133.975;-1048.000;-1061.000
377.147;  643.900; -786.000; -782.000
377.278;   80.850;  174.000;  228.000
377.408; -117.700; -801.000; -815.000
377.538;  -86.150; -707.000; -693.000
377.669;  -79.600; -537.000; -613.000
377.799; -107.700; -645.000; -635.000
377.929;  -78.475; -610.000; -428.000
378.060; -124.175; -781.000; -847.000
378.190;  -33.875; -726.000; -531.000
378.320;  -37.425; -401.000; -406.000
378.451;   -7.975; -131.000;  -22.000
378.581;  -27.675;  -67.000; -110.000
378.711;   93.575; 1035.000;  866.000
378.841;  -70.875; -533.000; -675.000
378.972;  -94.075; -871.000; -751.000
379.102;  -57.475; -652.000; -579.000
379.232;  -51.450; -126.000;  -73.000
379.362; -118.750;-1001.000; -885.000
379.492;  -47.825; -373.000; -424.000
379.623;   35.025;    0.000;  111.000
379.753; -111.275;-1107.000; -974.000
379.883;   87.925;   59.000;  156.000
380.013;  -85.275;-1081.000;-1017.000
380.143; -110.875;-1097.000;-1056.000
380.273; -104.425; -985.000; -861.000
380.403;   12.325; -344.000; -257.000
380.533;  -36.950; -651.000; -664.000
380.663;   21.725;  173.000;  128.000
380.793; -139.875;-1027.000;-1074.000
380.923;  -42.950; -103.000;  -34.000
381.053; -106.075; -613.000; -623.000
381.183;  -41.225; -106.000; -248.000
381.313;  -47.550; -656.000; -470.000
381.443;  -51.975; -692.000; -473.000
381.573;  -10.200; -402.000; -409.000
381.703;  -67.875;-1249.000;-1095.000
381.833; -181.000;-1454.000;-1336.000
381.963;   38.725; -134.000;  -87.000
382.093;  406.675; -925.000; -909.000
382.223;   98.600; -713.000; -602.000
382.353;  -94.200; -801.000; -608.000
382.482;   20.650;-1091.000; -964.000
382.612;  186.375; -872.000; -644.000
382.742;   94.825; -695.000; -622.000
382.872;   -6.850; -565.000; -551.000
383.002;   24.325;  347.000; -132.000
383.131;  -26.300; -226.000; -160.000
383.261;  -33.025; -706.000; -768.000
383.391;  325.475; -552.000; -377.000
383.521; 4874.625;  451.000;  263.000
383.650; 1481.350; -947.000; -904.000
383.780;   34.775; -783.000; -656.000
383.910;   87.950;  880.000;  802.000
384.039;  -74.875; -794.000; -656.000
384.169;  -74.450;-1205.000;-1017.000
384.299;  -91.525; -650.000; -662.000
384.428; -109.975; -764.000; -680.000
384.558;  -46.400; -308.000; -275.000
384.687;  -61.925; -414.000; -334.000
384.817;  -15.300;   75.000;   -2.000
384.947;  -24.300; -234.000; -141.000
385.076;  171.625;  982.000;  912.000
385.206;   62.775;  369.000;  480.000
385.335;  -67.000; -549.000; -417.000
385.465; -101.925; -655.000; -663.000
385.594;   32.150;  -53.000;  -44.000
385.724;   66.600; -868.000; -838.000
385.853;    3.925; -296.000; -270.000
385.982;  370.125; -743.000; -787.000
386.112;  733.000;-1052.000; -871.000
386.241;   22.500; -307.000; -312.000
386.371;  -18.650; -174.000;  -87.000
386.500;  -40.275; -825.000; -789.000
386.629;    0.425; -874.000; -817.000
386.759;   62.625;  -43.000;   68.000
386.888;  -14.600; -170.000; -250.000
387.017;  -81.475; -648.000; -620.000
387.147; -103.950; -771.000; -798.000
387.276;  -61.750; -410.000; -397.000
387.405;  -29.625; -398.000; -342.000
387.535;  -78.250; -452.000; -361.000
387.664;  -62.250; -692.000; -620.000
387.793;   -8.700; -198.000; -113.000
387.922;  160.375;  255.000;  200.000
388.052;  -54.475; -576.000; -423.000
388.181;  -54.375; -342.000; -472.000
388.310;  -76.450; -889.000; -710.000
388.439; -102.100; -749.000; -742.000
388.568;   42.250;  365.000;  244.000
388.697;  303.725; -756.000; -653.000
388.826;   -1.275; -768.000; -666.000
388.956;  -22.325; -285.000; -307.000
389.085;  -55.225; -347.000; -287.000
389.214; -108.400; -842.000; -872.000
389.343;  -60.425; -645.000; -413.000
389.472;  540.800;  126.000;  149.000
389.601;  648.075;   91.000;    0.000
389.730;  -20.350; -568.000; -687.000
389.859;   14.600;  226.000;   46.000
389.988;   33.300; -423.000; -408.000
390.117;   41.700; -168.000; -146.000
390.246;  -40.475; -331.000; -320.000
390.375;  -51.150; -673.000; -626.000
390.504; -106.475; -703.000; -621.000
390.633; -118.725; -672.000; -726.000
390.761; -101.550; -732.000; -645.000
390.890;  -22.625;   -4.000; -130.000
391.019;  -81.200; -421.000; -441.000
391.148; -131.675; -826.000; -855.000
391.277;  -78.100; -576.000; -493.000
391.406; -111.075; -821.000; -805.000
391.534;    3.200;  574.000; -301.000
391.663;  -78.725; -583.000; -645.000
391.792; -111.900; -673.000; -701.000
391.921;    2.600;   -3.000;   15.000
392.050;   -6.250; -287.000; -228.000
392.178; -119.750;-1206.000;-1061.000
392.307;  -35.800; -758.000; -712.000
392.436;  -27.075; -427.000; -641.000
392.564;    2.600;  166.000;   -6.000
392.693; -114.200; -860.000; -682.000
392.822;   -4.950; -529.000; -534.000
392.950;  -27.550; -880.000; -714.000
393.079;   64.350; -188.000; -328.000
393.208;  -34.250; -488.000; -511.000
393.336;   -8.350; -170.000; -145.000
393.465;  -54.750; -317.000; -199.000
393.593;  -10.075;   62.000;   79.000
393.722; -135.200;-1121.000; -916.000
393.850;  -27.500; -188.000;  -61.000
393.979; -154.575; -926.000; -805.000
394.107;  -66.350; -517.000; -537.000
394.236;  -49.375; -570.000; -507.000
394.364;  113.050;  383.000;  206.000
394.493;   77.775; -911.000; -767.000
394.621;    4.650; -955.000; -916.000
394.750; 1147.500; -873.000; -923.000
394.878; 4477.800; -247.000; -149.000
395.007; 6642.000; -721.000; -807.000
395.135;  605.275; -790.000; -721.000
395.263;  -41.325;-1038.000;-1040.000
395.392;    2.425;  -25.000; -107.000
395.520; -111.800; -818.000; -679.000
395.648; -127.750; -865.000; -915.000
395.777;  -73.000; -366.000; -405.000
395.905;  -81.125; -449.000; -564.000
396.033;   -2.200;  217.000;  172.000
396.162;  123.975; -399.000; -453.000
396.290;  138.600;  -17.000;   -2.000
396.418;  -43.950; -555.000; -514.000
396.546;  -91.050; -571.000; -466.000
396.674; -127.975; -850.000; -878.000
396.803;  -31.050;  -72.000;  -23.000
396.931;  -23.075; -179.000; -199.000
397.059; -131.575;-1026.000; -989.000
397.187; -138.850;-1026.000; -975.000
397.315; -134.275; -884.000; -649.000
397.443; -103.250; -592.000; -443.000
397.572;  -96.950; -578.000; -424.000
397.700;  -96.700; -607.000; -614.000
397.828;  -32.350;  120.000;  -90.000
397.956;  -39.600; -508.000; -478.000
398.084;  -23.925; -767.000; -626.000
398.212;    2.850;  137.000;  124.000
398.340;  -16.575;  -56.000;  159.000
398.468;  -47.650; -390.000; -169.000
398.596; -139.225; -993.000; -953.000
398.724; -138.150; -762.000; -767.000
398.852; -156.950;-1024.000; -976.000
398.980;  -88.850; -560.000; -560.000
399.108;  -95.475; -982.000; -735.000
399.236;  -12.575;   13.000;    8.000
399.363;    5.375;  222.000;  196.000
399.491;  -60.150; -404.000; -398.000
399.619; -114.300; -829.000; -800.000
399.747; -108.050; -859.000; -771.000
399.875;   37.600;  220.000;  234.000
400.003;  -76.125; -359.000; -284.000
400.130;  -91.000; -421.000; -341.000
400.258;  -46.650;  -83.000;   38.000
400.386;  -79.350; -352.000; -168.000
400.514;  -98.500; -526.000; -587.000
400.641; -146.700; -928.000; -802.000
400.769; -155.325; -979.000; -888.000
400.897; -116.175; -838.000; -793.000
401.025;  -43.025; -166.000; -152.000
401.152;  -11.775;  220.000;   38.000
401.280;  -85.250; -430.000; -429.000
401.408; -118.425; -712.000; -576.000
401.535; -104.050; -735.000; -758.000
401.663; -170.650;-1134.000;-1054.000
401.790; -104.300; -514.000; -525.000
401.918;   21.075;  436.000;  405.000
402.046;  -12.250;  134.000;  122.000
402.173;  -53.675;  -18.000;    7.000
402.301;  -74.800; -519.000; -397.000
402.428;   36.025;  528.000;  383.000
402.556; -147.500;-1188.000; -913.000
402.683;  -34.600;  -20.000;   -1.000
402.811;  -20.550;  -37.000; -206.000
402.938;  -10.400;   20.000;   27.000
403.066;   10.475; -574.000; -558.000
403.193;  131.825;  299.000;  239.000
403.321;   64.825; -396.000; -574.000
403.448;  127.750;   83.000;   27.000
403.575;   43.850;  -90.000;  -46.000
403.703;  -97.525; -732.000; -557.000
403.830;  -57.400; -531.000; -496.000
403.957; -120.800;-1117.000;-1023.000
404.085;   20.550;  -61.000; -172.000
404.212;  120.750;  -50.000;   63.000
404.339;  449.600; -566.000; -306.000
404.467; 9020.450; -612.000; -524.000
404.594; 5654.950; -287.000; -227.000
404.721;  989.275; -869.000; -764.000
404.848;  118.375; -113.000; -202.000
404.976;  -86.325; -856.000; -783.000
405.103;    2.700;  -14.000;  -82.000
405.230;   -8.225;  190.000;  226.000
405.357;   60.350;  117.000;   44.000
405.484;  411.700;  -49.000;    5.000
405.612;  116.350; -548.000; -563.000
405.739;  -43.000; -488.000; -243.000
405.866;   71.100;  669.000;  385.000
405.993;  -46.575; -398.000; -102.000
406.120; -130.750; -801.000; -887.000
406.247;  -69.225; -323.000; -342.000
406.374;  123.200;  540.000;  629.000
406.501;  -68.150; -632.000; -702.000
406.628;  -97.325; -621.000; -589.000
406.755; -112.800; -803.000; -620.000
406.882;  -65.250; -228.000; -277.000
407.009; -111.850; -719.000; -628.000
407.136;  -41.575; -480.000; -401.000
407.263;  -47.950; -939.000; -829.000
407.390; -100.325; -692.000; -614.000
407.517; -184.275;-1139.000;-1187.000
407.644;  -77.850; -332.000; -256.000
407.771; -137.125; -249.000; -287.000
407.898;    1.100;  168.000;  328.000
408.025;  -73.450; -421.000; -313.000
408.151;  -18.100;   82.000;  153.000
408.278;  -69.200; -267.000; -216.000
408.405; -125.850; -931.000; -899.000
408.532;  -98.900; -549.000; -542.000
408.659; -124.325; -677.000; -648.000
408.785; -182.475;-1298.000;-1170.000
408.912;  -67.525; -412.000; -296.000
409.039; -111.875; -610.000; -686.000
409.166; -105.100; -591.000; -555.000
409.292;  -96.850; -571.000; -534.000
409.419; -128.925; -665.000; -649.000
409.546;  -79.050; -431.000; -192.000
409.672; -109.625; -713.000; -545.000
409.799;  -35.225;  -36.000;   34.000
409.926;  -54.700; -180.000; -179.000
410.052; -184.500;-1127.000;-1091.000
410.179;  -74.850; -368.000; -392.000
410.305;  -87.050; -375.000; -493.000
410.432;  -37.925; -220.000; -333.000
410.558;  -77.950; -305.000; -380.000
410.685; -104.750; -688.000; -431.000
410.812;  -94.350; -409.000; -588.000
410.938; -136.350; -964.000; -808.000
411.065; -101.800; -671.000; -645.000
411.191;  -48.375; -189.000; -174.000
411.317; -132.750; -823.000; -742.000
411.444;  -78.600; -317.000; -246.000
411.570;  -78.025; -339.000; -294.000
411.697; -121.600; -758.000; -752.000
411.823; -165.100; -989.000; -999.000
411.949;  -51.750;  -56.000;   17.000
412.076; -116.575; -539.000; -519.000
412.202; -123.175; -758.000; -757.000
412.329; -131.450; -798.000; -752.000
412.455; -119.200; -821.000; -657.000
412.581;  -34.400;  -15.000;  172.000
412.707;  -94.175; -540.000; -457.000
412.834;  -16.825;  156.000;  219.000
412.960; -105.000; -785.000; -784.000
413.086; -102.000; -743.000; -701.000
413.212;  107.400;  604.000;  578.000
413.339;  -99.750; -685.000; -701.000
413.465;  -43.125; -364.000; -310.000
413.591; -110.675; -757.000; -474.000
413.717;  -54.825; -358.000; -366.000
413.843; -134.700; -839.000; -861.000
413.969;  -62.450;  -47.000; -292.000
414.096;  -92.400; -679.000; -679.000
414.222;  -20.225;  -33.000;   85.000
414.348;  -71.800; -652.000; -385.000
414.474;   -0.775;   38.000;  -52.000
414.600;  -26.250; -126.000; -144.000
414.726;  -17.100;  -96.000;  -55.000
414.852;  -47.475; -365.000; -342.000
414.978;   40.550;  104.000;  -18.000
415.104;   63.250;   38.000;   80.000
415.230;   48.750; -329.000; -330.000
415.356;   67.075; -409.000; -514.000
415.482;  248.300;   13.000;  -35.000
415.608;  424.375; -247.000; -323.000
415.734; 1389.275;   67.000;   38.000
415.860;28176.625; -875.000; -767.000
415.986;23650.150; -685.000; -607.000
416.111; 2230.650; -798.000; -652.000
416.237;  467.600; -424.000; -571.000
416.363; 1672.575; -765.000; -733.000
416.489; 6839.550; -324.000; -251.000
416.615;  958.325; -707.000; -742.000
416.741;   56.700; -677.000; -784.000
416.866;  -62.875; -673.000; -736.000
416.992;  -94.050; -801.000; -818.000
417.118;  -25.150;  -41.000;  -80.000
417.244;  -84.000; -798.000; -531.000
417.369;  -84.275; -801.000; -612.000
417.495;  -18.925; -325.000; -254.000
417.621;  -71.600;-1015.000; -803.000
417.746;    5.425; -579.000; -572.000
417.872;   76.850; -254.000; -144.000
417.998;  122.550; -515.000; -530.000
418.123; 1571.475;-1073.000; -845.000
418.249; 8709.625; -512.000; -601.000
418.374; 1555.575; -916.000; -824.000
418.500;  242.775; -383.000; -482.000
418.626;  181.275;   70.000;  -59.000
418.751;  180.500; -549.000; -448.000
418.877;  330.025; -637.000; -643.000
419.002; 2578.900; -688.000; -560.000
419.128;19666.175; -930.000; -721.000
419.253; 5649.625; -967.000; -837.000
419.379;  754.925; -391.000; -338.000
419.504;  585.350;  325.000;  415.000
419.629;  843.625; -393.000; -212.000
419.755; 5270.600; -317.000; -254.000
419.880;34691.800;  -98.000;   67.000
420.006;17598.850; -280.000; -221.000
420.131;44137.075; -662.000; -775.000
420.256; 7250.650; -315.000; -316.000
420.382;  988.800; -665.000; -687.000
420.507;  180.275; -649.000; -778.000
420.632;   68.225; -337.000; -339.000
420.758;   62.275; -251.000; -425.000
420.883;  -94.350; -876.000; -672.000
421.008; -114.050; -775.000; -619.000
421.133;  -82.525; -509.000; -467.000
421.259;  -53.425; -325.000; -259.000
421.384; -135.600; -834.000; -693.000
421.509; -114.950;-1052.000; -862.000
421.634;  233.400; -936.000; -820.000
421.759;  124.850; -359.000; -327.000
421.885;  -79.025; -717.000; -656.000
422.010;  -91.575; -673.000; -542.000
422.135; -138.275; -695.000; -727.000
422.260;   15.750;  340.000;  280.000
422.385;  -37.150;   12.000;  -98.000
422.510;  -17.950;  151.000;  -26.000
422.635;  -19.500;  -87.000;  -43.000
422.760;  -18.450; -766.000; -791.000
422.885;   28.575;  -57.000;  -80.000
423.010;  -24.425; -112.000; -169.000
423.135;  -91.600; -481.000; -561.000
423.260;  -41.275; -150.000; -245.000
423.385;   27.025;  476.000;  222.000
423.510;    8.650;   71.000;  -22.000
423.635;    6.075;  133.000;   45.000
423.760;   49.250;  383.000;  328.000
423.885;   28.400;  336.000;  391.000
424.010;    1.800;  -68.000;  -13.000
424.135;  -14.850;    5.000;  -33.000
424.259;  -76.550; -654.000; -457.000
424.384;  -45.575; -279.000; -272.000
424.509;  -25.375; -260.000; -186.000
424.634;  -88.175; -761.000; -623.000
424.759;  -32.000; -688.000; -544.000
424.883;   -0.625; -506.000; -527.000
425.008;  196.450; -502.000; -410.000
425.133; 2904.925; -679.000; -653.000
425.258; 1576.500; -517.000; -381.000
425.382;  501.150; -867.000; -774.000
425.507; 1199.975; -487.000; -543.000
425.632;  389.375; -802.000; -663.000
425.756;  676.000; -256.000; -146.000
425.881; 9792.950; -831.000; -857.000
426.006;30494.325; -604.000; -355.000
426.130; 5139.800; -696.000; -508.000
426.255;  690.975; -611.000; -491.000
426.379;  278.300; -189.000; -577.000
426.504;  514.700;  660.000;  544.000
426.629; 5885.100; -519.000; -466.000
426.753; 4664.000;   64.000;  -46.000
426.878;  589.300; -252.000; -288.000
427.002;  286.525; -651.000; -668.000
427.127; 2069.225;  -35.000; -158.000
427.251;17363.250;  372.000;  401.000
427.375; 5787.025; -191.000; -173.000
427.500; 1352.300; -616.000; -610.000
427.624;  445.550; -234.000; -400.000
427.749;   92.750; -216.000; -225.000
427.873;   -1.875; -499.000; -412.000
427.997;  -37.600; -222.000; -230.000
428.122;   63.800;  795.000;  703.000
428.246;   20.675;  433.000;  434.000
428.371; -123.925; -869.000; -773.000
428.495; -115.325; -624.000; -646.000
428.619;  -35.975; -186.000; -117.000
428.743;   13.725;   65.000;  132.000
428.868;  -75.100; -732.000; -643.000
428.992;  491.650; -219.000; -326.000
429.116;  189.475; -329.000; -357.000
429.240;  130.725;  419.000;  426.000
429.365;  -36.325; -454.000; -574.000
429.489;  -62.175; -638.000; -647.000
429.613;   51.550; -236.000; -177.000
429.737;   99.450; -563.000; -432.000
429.861;  394.675; -247.000; -133.000
429.985; 8036.075; -425.000; -305.000
430.109;10428.700; -770.000; -908.000
430.234; 1279.750;   76.000;  -50.000
430.358;  169.450; -250.000; -160.000
430.482;  -45.550; -672.000; -564.000
430.606;  -65.775; -655.000; -375.000
430.730;  -49.825; -437.000; -388.000
430.854;  -77.250; -909.000; -835.000
430.978;  -72.325; -795.000; -764.000
431.102;  -86.625; -499.000; -422.000
431.226; -103.950; -874.000; -815.000
431.350;   30.850;  345.000;  422.000
431.474;  -87.025; -661.000; -373.000
431.597; -161.575;-1060.000; -848.000
431.721;  -77.500; -276.000; -267.000
431.845; -133.050; -704.000; -472.000
431.969;  -86.200; -304.000; -349.000
432.093;  -77.675; -395.000; -317.000
432.217;   -6.575;   32.000;   82.000
432.341;  -81.775; -523.000; -518.000
432.464;   -7.050;   96.000;   40.000
432.588;  -11.350; -401.000; -329.000
432.712;   10.750;  -52.000;  -52.000
432.836;   64.450;  213.000;  263.000
432.959;   27.250; -372.000; -311.000
433.083;  158.825;   11.000;    2.000
433.207;  550.925;  285.000;  930.000
433.330; 7648.375; -391.000; -200.000
433.454;10782.450; -654.000; -638.000
433.578; 5959.300;  583.000;  278.000
433.701; 1296.525; -623.000; -675.000
433.825;  155.800; -292.000; -299.000
433.949;   40.075;   28.000;  -72.000
434.072;   -8.225; -410.000; -323.000
434.196;    9.675; -309.000; -117.000
434.319; 3436.075;25482.000;25124.000
434.443;  870.325; -656.000; -603.000
434.566; 4140.575;  281.000;   62.000
434.690;  899.150; -637.000; -383.000
434.813;  159.375; -251.000; -173.000
434.937;  -35.300; -569.000; -696.000
435.060;  -68.475; -423.000; -332.000
435.184;   18.600; -492.000; -217.000
435.307;   16.625;  159.000;  102.000
435.431;  -42.400;  -40.000;   24.000
435.554;  -73.750; -399.000; -240.000
435.677;  -87.225; -350.000; -258.000
435.801;  -39.075;  -25.000;   49.000
435.924;  -31.050;    1.000;  -67.000
436.048; -134.525;-1019.000; -732.000
436.171;  -83.750; -240.000;  -66.000
436.294;  -10.375; -248.000; -229.000
436.417;  224.725; -963.000; -849.000
436.541;  -20.300; -814.000; -840.000
436.664;  -55.350; -242.000; -316.000
436.787;  -30.050;   13.000;  113.000
436.910; -115.550; -792.000; -422.000
437.034;  -23.000;  142.000;  143.000
437.157;    7.075;  -11.000;    0.000
437.280;  -80.050; -392.000; -292.000
437.403; -142.750; -982.000; -869.000
437.526;   38.900; -903.000; -865.000
437.649;  608.150; -505.000; -332.000
437.772;   28.275; -692.000; -540.000
437.896;   77.350;  700.000;  544.000
438.019;  -98.025; -758.000; -503.000
438.142; -111.500; -596.000; -506.000
438.265; -108.300; -639.000; -670.000
438.388;   33.875; -520.000; -410.000
438.511;  -53.975; -597.000; -394.000
438.634;  -82.475; -247.000; -125.000
438.757; -144.850; -693.000; -619.000
438.880;  -45.750;  -34.000;  -57.000
439.003;  -95.025; -417.000; -437.000
439.126;  -77.875; -287.000; -167.000
439.248;  -56.850;  -98.000; -139.000
439.371;  -52.700;    9.000;  -53.000
439.494;    9.425;  510.000;  439.000
439.617;  -51.425;   65.000;  -88.000
439.740; -172.550; -968.000; -816.000
439.863; -146.450; -755.000; -595.000
439.986; -120.000; -476.000; -431.000
440.108;  -49.025; -161.000; -112.000
440.231; -167.625; -950.000; -836.000
440.354;  -68.125;  -64.000; -150.000
440.477; -108.425; -566.000; -542.000
440.599; -106.175; -200.000; -225.000
440.722; -123.775; -709.000; -586.000
440.845;   51.150;  751.000;  928.000
440.968; -110.650; -415.000; -311.000
441.090;  -78.525; -199.000;  -33.000
441.213; -163.825;-1021.000; -825.000
441.336;  -62.400; -159.000;   -5.000
441.458;  -94.975; -549.000; -396.000
441.581; -127.600; -628.000; -629.000
441.703;  -76.350; -152.000;   13.000
441.826; -121.500; -557.000; -400.000
441.948;  -70.300;   56.000;   51.000
442.071;   27.300;  555.000;  424.000
442.193; -123.850; -531.000; -485.000
442.316;   13.750;  152.000;   97.000
442.438;   81.000; -233.000;  -10.000
442.561;   64.100;  272.000;  262.000
442.683;   73.375; -809.000; -522.000
442.806;  319.850;   -8.000;   74.000
442.928;  -85.575; -859.000; -604.000
443.051;  -81.500; -577.000; -373.000
443.173;  -90.600; -341.000; -339.000
443.295;  -93.175; -263.000; -371.000
443.418;  -69.350; -321.000;  -29.000
443.540;  -51.300; -106.000;   -4.000
443.662; -131.175; -563.000; -465.000
443.785;  -25.875;  335.000;  199.000
443.907;  -94.025; -362.000; -208.000
444.029; -118.875; -767.000; -494.000
444.152; -151.050; -644.000; -554.000
444.274;  -54.850;  -18.000;  -24.000
444.396; -128.800; -461.000; -221.000
444.518; -125.550; -691.000; -454.000
444.640; -102.100; -268.000; -111.000
444.763;  -37.925;  388.000;  249.000
444.885; -115.800; -432.000; -392.000
445.007;  -55.875;   35.000;   86.000
445.129; -130.700; -610.000; -515.000
445.251; -112.625; -372.000; -439.000
445.373; -137.725; -537.000; -386.000
445.495;  -32.825;  242.000;  350.000
445.617;   43.325;  853.000;  753.000
445.739;  -82.950; -215.000;  -97.000
445.861;  -77.550; -245.000; -112.000
445.984;  -61.175; -267.000; -101.000
446.105;   -7.650; -418.000; -251.000
446.227;  136.775; -176.000;  -19.000
446.349;  -82.250; -358.000; -249.000
446.471; -122.300; -615.000; -448.000
446.593;  -86.775; -316.000;   19.000
446.715;  -50.925;  -67.000;   41.000
446.837;   35.775;  697.000;  832.000
446.959; -110.100; -457.000; -478.000
447.081; -138.075; -628.000; -518.000
447.203;   30.775;  862.000;  834.000
447.325;  -92.800; -270.000;   42.000
447.446;  -14.600;  286.000;  530.000
447.568; -154.000; -921.000; -803.000
447.690;  -98.350; -236.000; -245.000
447.812; -143.725; -798.000; -519.000
447.933;  -39.750;  155.000;  127.000
448.055;  -82.850; -306.000; -261.000
448.177;   25.050;   31.000;   79.000
448.299;  -87.800; -935.000; -727.000
448.420;  -17.950;  -25.000;  159.000
448.542;  -61.675;   -3.000;   33.000
448.664;  -39.825;  109.000;  322.000
448.785;  -40.000;  265.000;   83.000
448.907; -110.750; -614.000; -353.000
449.028;  -95.775; -771.000; -471.000
449.150;   38.825;  492.000;  589.000
449.272; -171.050;-1044.000; -913.000
449.393;   18.350;  612.000;  694.000
449.515; -145.525; -634.000; -581.000
449.636;  -76.050; -264.000; -155.000
449.758;   59.950;  763.000;  622.000
449.879;  -93.525; -498.000; -396.000
450.001;  -72.550; -149.000;  -49.000
450.122;  -37.300;  -95.000;  162.000
450.244;  -11.625;   37.000;  364.000
450.365;  -69.975; -495.000; -301.000
450.486;   -3.125;   80.000;  268.000
450.608;   45.025;  393.000;  326.000
450.729;  101.650;  578.000;  645.000
450.850;  103.700; -574.000; -466.000
450.972; 1201.200; -552.000; -389.000
451.093; 7875.025;  190.000;  588.000
451.214; 4140.425; -516.000; -337.000
451.336;  689.550;  773.000;  579.000
451.457;  111.300;  264.000;  393.000
451.578;  -15.100; -118.000;  -74.000
451.699; -108.600; -546.000; -540.000
451.821;  -56.950; -284.000;  -50.000
451.942;   12.800;  278.000;  285.000
452.063;   51.000;  228.000;  419.000
452.184;  790.050;  -54.000;  -49.000
452.305; 1754.075;  103.000;  170.000
452.427;  367.700; -549.000; -301.000
452.548;    2.025;   23.000;   79.000
452.669;  -69.900; -257.000;  -89.000
452.790;  -53.925;    3.000;  -18.000
452.911;  -31.000;  195.000;  259.000
453.032;  -71.000; -289.000;  -60.000
453.153;  -57.125;  -29.000;   81.000
453.274;   38.775;  737.000;  868.000
453.395;  -69.425;  -51.000;  175.000
453.516;   50.600; 1317.000; 1388.000
453.637;  -96.325; -205.000; -150.000
453.758;  -67.050;   15.000;   69.000
453.879; -108.675; -462.000; -250.000
454.000;   68.475; 1086.000;  948.000
454.121; -122.025; -554.000; -326.000
454.242; -115.550; -599.000; -383.000
454.362;  -60.000;  -99.000;  114.000
454.483;   -9.025; -309.000; -229.000
454.604;   76.000;  512.000;  580.000
454.725; -119.125; -627.000; -555.000
454.846; -117.950; -474.000; -406.000
454.967;  -39.650;  230.000;  539.000
455.087;  -58.800;  179.000;  153.000
455.208;   20.700;  554.000;  856.000
455.329;  -60.175;  -22.000;   82.000
455.450;   32.750;  473.000;  633.000
455.570;  -58.125; -234.000; -211.000
455.691;  -36.225;  201.000;  407.000
455.812;  -95.300; -270.000;  -92.000
455.932;  -71.550;  107.000;  -97.000
456.053;  -87.575;   36.000;   24.000
456.173; -113.300; -433.000; -355.000
456.294; -118.800; -476.000; -303.000
456.415;  -68.200;  -73.000;   70.000
456.535;  -33.525;  297.000;  273.000
456.656;  -57.825;  132.000;  240.000
456.776;  -82.175;    3.000;  298.000
456.897;  -11.400;  308.000;  513.000
457.017;  -73.125; -153.000;   -3.000
457.138; -112.225; -402.000; -249.000
457.258;  -33.600;  263.000;  224.000
457.379;  -20.600;  509.000;  521.000
457.499;  -25.275;  443.000;  432.000
457.620; -126.525; -407.000; -231.000
457.740;  -98.475; -132.000;  -11.000
457.860;  -48.425;   87.000;   44.000
457.981;  -38.325;  132.000;  124.000
458.101;  -63.025;  -89.000;   40.000
458.221;  -11.425;  336.000;  402.000
458.342;  -53.825;   -4.000;  -37.000
458.462;   43.800;  617.000;  352.000
458.582;    1.900; -302.000; -294.000
458.703;   51.200;  303.000;  154.000
458.823;   16.975;   22.000;  163.000
458.943;   63.550;  341.000;  467.000
459.063;   19.600; 1124.000;  192.000
459.183;  -23.425;  328.000;  313.000
459.304;    0.200;  315.000;  517.000
459.424;  -43.975; -246.000;  -89.000
459.544;  448.950;  388.000;  764.000
459.664; 1326.750;  499.000;  506.000
459.784;  517.475; 1004.000; 1175.000
459.904;   74.900;  867.000;  744.000
460.024;   53.900;  867.000;  684.000
460.144;  -22.700;  449.000;  554.000
460.264;  -17.950;  515.000;  327.000
460.385;  -97.675; -145.000; -119.000
460.505;   35.625;  905.000;  858.000
460.625;  -87.350;  -17.000;  -68.000
460.745;  -20.575;  396.000;  541.000
460.864;  -36.100;  153.000;  469.000
460.984;   39.325;  499.000;  573.000
461.104;  153.975; 1656.000; 1775.000
461.224;    8.700;  657.000;  650.000
461.344;  -30.525;  431.000;  360.000
461.464;  -52.150;  258.000;  513.000
461.584;  -41.450;  283.000;  466.000
461.704;  -67.425;   58.000;  108.000
461.824;  -62.050;  238.000;  259.000
461.943;  -58.025;  191.000;  130.000
462.063;  -72.075;    2.000;  324.000
462.183;    4.000;  639.000;  717.000
462.303;   84.100; 1678.000; 1230.000
462.422;   15.025;  781.000;  840.000
462.542;  -38.350;  271.000;  391.000
462.662;   34.925;  353.000;  380.000
462.782;  347.925;  833.000;  572.000
462.901;  759.125;  545.000;  717.000
463.021;  414.825; 1702.000; 1638.000
463.141;    5.100;  337.000;  770.000
463.260;  -22.250;  614.000;  474.000
463.380;   22.825;  902.000;  884.000
463.499;  -39.175;  342.000;  332.000
463.619;  -47.950;  581.000;  559.000
463.738;   92.550; 1644.000;  903.000
463.858;    7.775;  657.000;  811.000
463.978;  -37.700;  542.000;  396.000
464.097;   37.250;  921.000; 1114.000
464.217;  129.450; 1196.000; 1143.000
464.336;  151.625; 1068.000; 1130.000
464.455;  -25.350;  328.000;  659.000
464.575;   12.300;  597.000;  602.000
464.694;  118.000; 1204.000; 1179.000
464.814;  152.575; 1190.000; 1138.000
464.933;   81.125; 1095.000; 1027.000
465.052;   82.925; 1412.000; 1054.000
465.172;   66.050;  922.000;  799.000
465.291;  119.350; 1376.000; 1320.000
465.410;   -2.300;  462.000;  735.000
465.530;   78.100; 1355.000; 1310.000
465.649;   68.950; 1209.000; 1273.000
465.768;  148.600; 1673.000; 1508.000
465.888;   61.625;  941.000; 1174.000
466.007;   95.475; 1335.000; 1440.000
466.126;  -13.975;  721.000;  641.000
466.245;   49.725; 1176.000; 1187.000
466.364;    7.025;  950.000; 1060.000
466.484;   57.775; 1024.000; 1213.000
466.603;   20.550; 1101.000; 1222.000
466.722;   84.375; 1490.000; 1769.000
466.841;   80.275; 1151.000; 1401.000
466.960;   38.700; 1069.000;  972.000
467.079;  119.200; 1971.000; 1786.000
467.198;   48.225; 1238.000; 1181.000
467.317;   87.575; 1768.000; 1162.000
467.436;   65.100; 1709.000; 1261.000
467.555;  128.475; 1796.000; 1746.000
467.674;   54.000; 1227.000; 1329.000
467.793;   52.875; 1376.000; 1374.000
467.912;   61.650; 1658.000; 1539.000
468.031;  127.475; 2038.000; 1930.000
468.150;  113.475; 1842.000; 1837.000
468.269;  178.450; 2313.000; 2090.000
468.388;  179.725; 2168.000; 2339.000
468.507;  246.975; 2884.000; 2903.000
468.626;  228.300; 2555.000; 2541.000
468.744;  130.725; 2018.000; 2174.000
468.863;  193.925; 2312.000; 2523.000
468.982;   82.750; 1503.000; 1555.000
469.101;  210.725; 2788.000; 2692.000
469.220;  149.725; 2333.000; 2176.000
469.338;  256.875; 2935.000; 3051.000
469.457;  190.000; 2719.000; 2545.000
469.576;  334.575; 3953.000; 3784.000
469.695;  247.775; 2877.000; 3066.000
469.813;  418.325; 4148.000; 4192.000
469.932;  402.875; 4255.000; 4485.000
470.051;  421.825; 4075.000; 4161.000
470.169; 1034.000; 4470.000; 4338.000
470.288; 2037.450; 4700.000; 4809.000
470.406; 1218.425; 5059.000; 5194.000
470.525;  655.050; 6101.000; 5787.000
470.644;  644.675; 6847.000; 6794.000
470.762;  801.675; 8397.000; 7873.000
470.881;  905.400; 8651.000; 8464.000
470.999; 1073.375; 9685.000; 9151.000
471.118; 1114.250;11174.000;10711.000

