
Integration time [ms]: 100.000
Averaging Nr. [scans]: 40
Smoothing Nr. [pixels]: 0
Data measured with spectrometer [name]: 2101012U2
Wave   ;Sample   ;Dark     ;Reference
[nm]   ;[counts] ;[counts] ;[counts] 

197.733;   56.025;  516.000;  404.000
197.879;  -88.075; -610.000; -634.000
198.025;  -32.150; -475.000; -420.000
198.171;  -72.500; -602.000; -612.000
198.317;  -29.600; -401.000; -316.000
198.463;  -59.050; -655.000; -404.000
198.609;   30.850;  181.000; -137.000
198.755;  -89.700; -644.000; -410.000
198.901;  -66.650; -505.000; -424.000
199.047;  -69.700; -615.000; -488.000
199.193;  -45.225; -230.000; -468.000
199.339;  -41.900; -222.000; -369.000
199.485;   30.100;  330.000;  271.000
199.631;   11.025;  227.000;  310.000
199.777;  -57.500; -466.000; -398.000
199.923;  -59.150; -610.000; -424.000
200.069;    2.225; -141.000;  -58.000
200.215;   48.500;  128.000;  453.000
200.361;   45.000;  243.000;  477.000
200.507;  -58.150; -600.000; -373.000
200.653;  -28.950; -371.000; -194.000
200.798;  -39.925; -215.000; -125.000
200.944;  -20.875; -146.000;  -41.000
201.090;   27.800;   61.000;  222.000
201.236;   -1.625; -116.000; -158.000
201.382;  129.600;  874.000;  903.000
201.528;    3.150;  -58.000;  -48.000
201.674;  -38.025; -386.000; -293.000
201.819;  -70.925; -540.000; -439.000
201.965;  -81.325; -699.000; -447.000
202.111;  -22.275; -273.000; -226.000
202.257;  -50.325; -250.000; -238.000
202.402;   -3.750;   13.000;  -36.000
202.548;  -28.975; -169.000; -116.000
202.694;   73.925;  410.000; -183.000
202.840;  -77.875; -603.000; -531.000
202.985;  -67.675; -681.000; -639.000
203.131; -105.175; -832.000; -666.000
203.277;  -35.675; -199.000; -262.000
203.423;  -56.825; -434.000; -520.000
203.568;  -31.125; -462.000; -237.000
203.714;  -57.700; -535.000; -542.000
203.860;  -78.575; -682.000; -641.000
204.005;   17.250;  112.000;  167.000
204.151;   77.300;  561.000;  556.000
204.296;  -51.325; -354.000; -221.000
204.442;  -68.075; -600.000; -547.000
204.588;  -72.450; -592.000; -579.000
204.733;   22.925;  178.000;  168.000
204.879; -134.275;-1018.000; -822.000
205.025;   16.250;  -99.000;  126.000
205.170;   -4.600;  -17.000;   94.000
205.316;   81.675;  438.000;  661.000
205.461;  -79.775; -698.000; -554.000
205.607;   89.300;  609.000;  665.000
205.752;  -75.725; -626.000; -551.000
205.898;  -44.425; -501.000; -391.000
206.043;  -60.250; -578.000; -506.000
206.189;  -41.075; -243.000; -285.000
206.334;   75.325;  554.000;  606.000
206.480;   78.525;  409.000;  239.000
206.625;  -73.325; -529.000; -552.000
206.771;  -51.125; -451.000; -373.000
206.916;  -32.100; -210.000; -537.000
207.062;  -75.475; -545.000; -591.000
207.207;  -61.350; -546.000; -443.000
207.353;   49.475;  185.000;  460.000
207.498;    4.775;  196.000;   85.000
207.643;  -53.200; -501.000; -370.000
207.789; -126.275;-1069.000; -910.000
207.934;  -99.775; -665.000; -713.000
208.080;  -15.175; -154.000;   66.000
208.225;    1.275;  -22.000;  -57.000
208.370;  -91.050; -727.000; -619.000
208.516;  -74.275; -741.000; -487.000
208.661;  -20.050; -127.000;  -69.000
208.806;  -26.425; -165.000; -171.000
208.952; -131.425;-1044.000; -731.000
209.097;   68.925;  378.000;  349.000
209.242;  -55.725; -307.000; -382.000
209.387;   58.675;  392.000;  350.000
209.533;  -51.225; -321.000; -350.000
209.678;   76.800;  472.000;  543.000
209.823;  -53.975; -408.000; -310.000
209.969; -100.675; -860.000; -757.000
210.114;  -94.700; -907.000; -719.000
210.259; -111.575; -939.000; -889.000
210.404;  -14.700; -171.000;  103.000
210.549;    5.250;  108.000;    3.000
210.695;  -29.175;   -3.000;  -95.000
210.840;   30.725;   94.000;   67.000
210.985;  -64.825; -484.000; -303.000
211.130;   66.675;  268.000;  406.000
211.275;    5.350;  207.000;  199.000
211.420;  -56.075; -300.000; -289.000
211.566;  -76.200; -536.000; -489.000
211.711;   28.975;  218.000;  157.000
211.856;  -70.550; -545.000; -519.000
212.001;    9.600;  151.000;   44.000
212.146;   28.225;  153.000;   49.000
212.291;  -15.500; -210.000; -186.000
212.436;  -38.875; -280.000;   -6.000
212.581;  -81.425; -685.000; -653.000
212.726;  -71.775; -487.000; -538.000
212.871;  -38.500; -552.000; -217.000
213.016; -143.925;-1172.000;-1029.000
213.161;   59.475;  406.000;  291.000
213.306;  -87.675; -435.000; -577.000
213.451;  -99.225; -778.000; -689.000
213.596;  -53.800; -455.000; -347.000
213.741;  -56.225; -448.000; -538.000
213.886;  -80.525; -498.000; -517.000
214.031;  -23.550; -294.000; -124.000
214.176;  -65.600; -408.000; -341.000
214.321;  -21.825; -296.000; -157.000
214.466;  -24.300; -163.000;  -43.000
214.611;    5.375;  -61.000;  -10.000
214.756; -115.550; -948.000; -858.000
214.901;  -19.100; -388.000; -226.000
215.046; -142.650; -797.000; -825.000
215.191;   37.775;  128.000;   35.000
215.336;  -18.825; -157.000;  -19.000
215.480;  -67.975; -684.000; -505.000
215.625;  -22.550; -175.000;  -19.000
215.770;  -81.025; -757.000; -662.000
215.915;  -27.300;   -5.000;  -97.000
216.060;  -14.600; -113.000;  -21.000
216.205; -113.575; -731.000; -779.000
216.349;  -67.025; -470.000; -533.000
216.494; -140.000; -939.000; -867.000
216.639; -118.625; -823.000; -888.000
216.784;  -93.250; -577.000; -525.000
216.929;   49.825;  392.000;  281.000
217.073;  -25.025; -244.000;  -31.000
217.218;    7.775;   78.000;  -47.000
217.363; -103.600; -656.000; -618.000
217.507;  -79.875; -623.000; -588.000
217.652; -118.075; -845.000; -874.000
217.797;  -86.600; -708.000; -659.000
217.942; -112.400; -856.000; -720.000
218.086;   63.275;  608.000;  539.000
218.231;  -26.250; -174.000;  -26.000
218.376;  -33.000; -337.000; -229.000
218.520;    8.050;  -41.000;   96.000
218.665;  -38.950; -338.000; -204.000
218.810;  -48.550; -275.000; -233.000
218.954;   13.425;  201.000;   35.000
219.099; -101.400; -713.000; -963.000
219.243;  -72.825; -589.000; -554.000
219.388;  -30.725; -264.000; -136.000
219.532;  -13.150; -116.000; -116.000
219.677;  -61.025; -564.000; -521.000
219.822;   -5.725;   33.000;   89.000
219.966;    2.650;   17.000;  -99.000
220.111;  -32.600; -328.000;  -40.000
220.255; -100.425; -797.000; -750.000
220.400;  -18.000; -180.000; -146.000
220.544;  -77.750; -516.000; -450.000
220.689;  -60.425; -422.000; -451.000
220.833;  -27.475; -123.000;  -58.000
220.978;  -57.275; -393.000; -563.000
221.122;    5.400;  319.000;  307.000
221.267; -110.925; -906.000; -837.000
221.411;  -55.025; -478.000; -394.000
221.555;   -1.425; -104.000;  -23.000
221.700;  -69.200; -329.000; -222.000
221.844;   29.225;  255.000;  272.000
221.989;  -45.525; -328.000; -311.000
222.133;  -45.750; -289.000; -307.000
222.277;  -12.925;    5.000;   78.000
222.422;   11.600;  227.000;  113.000
222.566;  -31.025; -381.000; -214.000
222.711;  -52.825; -414.000; -479.000
222.855;  -79.225; -643.000; -586.000
222.999;  -69.475; -642.000; -717.000
223.144;  -27.975; -195.000; -194.000
223.288;   33.900;  423.000;  251.000
223.432;   32.925;  184.000;  230.000
223.576;    7.175;  152.000;  -21.000
223.721;   29.325;  364.000;  273.000
223.865;  -59.425; -472.000; -475.000
224.009;  218.350; 1673.000; 1631.000
224.153;  -79.900; -660.000; -671.000
224.298;  -59.100; -531.000; -489.000
224.442;    0.725;  -74.000;  -33.000
224.586;   -8.175; -169.000; -106.000
224.730; -100.500; -858.000; -670.000
224.875; -116.900; -739.000; -688.000
225.019;    0.125;  102.000;  188.000
225.163;   51.175;  208.000;  341.000
225.307;   16.975;   97.000;  -91.000
225.451;   39.575;  360.000;  481.000
225.595;   33.850;  264.000;  176.000
225.739;  -23.750; -170.000;  -94.000
225.884;    0.475;   86.000;    5.000
226.028; -108.950; -760.000; -626.000
226.172;  -38.825; -260.000; -273.000
226.316; -122.875; -941.000; -902.000
226.460;  -64.550; -645.000; -493.000
226.604;  -58.025; -406.000; -400.000
226.748; -111.075; -836.000; -733.000
226.892;  -27.750; -227.000; -181.000
227.036;  -51.375; -537.000; -447.000
227.180;  -64.900; -551.000; -375.000
227.324;  -61.350; -561.000; -580.000
227.468; -113.700; -819.000; -717.000
227.612;    3.100;  242.000;  -28.000
227.756; -103.300; -845.000; -698.000
227.900;   44.125;  342.000;  441.000
228.044;  -61.300; -509.000; -290.000
228.188;   56.825;  448.000;  568.000
228.332;  -90.800; -546.000; -472.000
228.476;  -32.950; -223.000; -149.000
228.620;  -34.225; -210.000; -150.000
228.764;   74.050;  431.000;  349.000
228.908;  -22.450; -155.000;   30.000
229.052;  -73.475; -615.000; -528.000
229.195;  -27.475; -172.000;   13.000
229.339;  -39.700; -235.000; -305.000
229.483;  -33.625;    5.000; -162.000
229.627;    2.475; -156.000;  139.000
229.771;  -58.525; -218.000; -294.000
229.915;   -1.225;  230.000;   79.000
230.059; -100.175; -648.000; -663.000
230.202;  -35.825; -370.000; -317.000
230.346;  -13.600; -107.000;  107.000
230.490;  -61.475; -489.000; -521.000
230.634; -111.600; -736.000; -553.000
230.777;   79.675;  478.000;  509.000
230.921;  -50.525; -450.000; -359.000
231.065;  -43.700; -246.000; -286.000
231.209;   24.075;  261.000;  265.000
231.352;   19.750;   54.000;   40.000
231.496;   20.100;  568.000;  188.000
231.640;  -74.625; -693.000; -621.000
231.783;   53.375;  546.000;  525.000
231.927;  -37.625; -294.000; -365.000
232.071; -118.575; -962.000; -736.000
232.214; -119.075; -980.000; -764.000
232.358; -109.250; -683.000; -599.000
232.502;  -15.325;  -19.000;    7.000
232.645; -147.225;-1090.000; -927.000
232.789;  -25.625; -257.000; -218.000
232.933;  -54.100; -407.000; -224.000
233.076; -112.275;-1038.000; -897.000
233.220; -115.325; -752.000; -777.000
233.363;  -82.725; -669.000; -477.000
233.507;   61.550;  371.000;  129.000
233.650;  -93.675; -764.000; -834.000
233.794;   29.650;  438.000;  461.000
233.938;  -63.750; -530.000; -362.000
234.081;  -23.275;  -93.000;   31.000
234.225;  -72.575; -631.000; -539.000
234.368; -118.225; -773.000; -723.000
234.512;  -44.800; -385.000; -299.000
234.655;  -86.125; -582.000; -555.000
234.798;  -73.825; -493.000; -466.000
234.942; -124.200; -884.000;-1002.000
235.085;  -69.000; -651.000; -443.000
235.229;  -74.525; -405.000; -410.000
235.372;  -57.975; -247.000; -191.000
235.516;  -59.800; -397.000; -321.000
235.659;   18.475;   92.000;  121.000
235.802;  -27.575;  -38.000;  -22.000
235.946;   42.950;  335.000;  215.000
236.089;   30.300;  126.000;  250.000
236.233;   47.375;  275.000;  298.000
236.376;  -52.325; -235.000; -378.000
236.519;  -50.350; -297.000; -319.000
236.663;  -15.700; -215.000; -117.000
236.806; -130.575;-1029.000; -999.000
236.949;   60.300;  543.000;  431.000
237.092;   67.425;  412.000;  391.000
237.236;  -94.275; -589.000; -502.000
237.379;   60.350;  352.000;  428.000
237.522; -128.150; -879.000; -768.000
237.666;  -18.350; -271.000;   18.000
237.809; -114.875; -851.000; -823.000
237.952;   43.075;  469.000;  271.000
238.095;  -66.425; -447.000; -442.000
238.238;   74.750;  688.000;  700.000
238.382;   -7.125;  166.000;  103.000
238.525;  -69.200; -598.000; -511.000
238.668; -138.875;-1060.000; -985.000
238.811;  -89.875; -638.000; -643.000
238.954;  -68.525; -483.000; -334.000
239.097;   94.125;  617.000;  664.000
239.241;   21.750;  394.000;  326.000
239.384;  -32.275; -254.000; -214.000
239.527;  -62.950; -424.000; -224.000
239.670; -145.525; -994.000;-1091.000
239.813; -117.850; -696.000; -658.000
239.956;   79.575;  579.000;  473.000
240.099; -113.825; -778.000; -725.000
240.242;   55.300;  428.000;  432.000
240.385;   29.425;  466.000;  450.000
240.528;  -72.825; -706.000; -473.000
240.671;   -6.000;  189.000;  134.000
240.814;  -36.500; -441.000; -158.000
240.957; -100.900; -767.000; -578.000
241.100;  -92.000; -779.000; -755.000
241.243; -146.450;-1234.000; -893.000
241.386;  -59.750; -508.000; -379.000
241.529;  -94.925; -735.000; -547.000
241.672;  -65.100; -566.000; -495.000
241.815; -125.350; -832.000; -808.000
241.958;  -26.525; -125.000; -182.000
242.101;  -98.700; -545.000; -390.000
242.244;  -42.075; -270.000; -325.000
242.387;  -50.800; -304.000; -246.000
242.530;   56.575;  470.000;  134.000
242.673;  -52.650; -381.000; -309.000
242.815; -115.650; -925.000; -899.000
242.958;  -67.800; -482.000; -381.000
243.101;    0.150;  132.000;  187.000
243.244;  -82.325; -564.000; -521.000
243.387;  -42.275; -313.000; -316.000
243.530; -102.425; -657.000; -674.000
243.672;    4.875;   43.000;  -92.000
243.815;  -44.675; -355.000; -283.000
243.958;    2.600;   98.000;  -26.000
244.101;    3.950;   59.000;  -16.000
244.243;  -12.075;  -47.000;  101.000
244.386; -102.275; -761.000; -630.000
244.529;  -32.675; -132.000; -139.000
244.672; -166.600;-1154.000; -951.000
244.814; -103.925; -621.000; -794.000
244.957;  -41.225; -380.000; -304.000
245.100;  -63.475; -489.000; -489.000
245.242;  -61.125; -387.000; -374.000
245.385;  -13.400;  -59.000;  -39.000
245.528; -127.350; -871.000; -705.000
245.670;   84.050;  612.000;  634.000
245.813;  -95.400; -599.000; -547.000
245.956;  -35.925; -324.000; -275.000
246.098;  -89.700; -508.000; -650.000
246.241;   13.725;  194.000;   48.000
246.383;  -14.650; -119.000;  -73.000
246.526;  -72.950; -454.000; -525.000
246.669; -130.600; -889.000; -780.000
246.811;    8.125;  172.000;   -1.000
246.954;  -69.225; -512.000; -426.000
247.096;  -11.700;  -84.000;   -6.000
247.239;  -81.700; -482.000; -445.000
247.381;  -77.375; -647.000; -488.000
247.524;   77.800;  645.000;  679.000
247.666;   -6.250;   58.000;   11.000
247.809; -116.250; -887.000; -691.000
247.951;  -22.875;  -75.000;  138.000
248.094;   20.175;  432.000;  308.000
248.236; -150.650;-1262.000;-1238.000
248.378;   21.525; -356.000;  -81.000
248.521;  -19.600; -334.000; -337.000
248.663;  -40.700; -236.000; -267.000
248.806;  -20.550; -300.000; -266.000
248.948;  -94.525; -886.000; -763.000
249.090;  -49.400; -428.000; -398.000
249.233;  -58.975; -344.000; -381.000
249.375;  -70.750; -474.000; -451.000
249.518;  -19.000;  -83.000; -133.000
249.660;   -5.325; -103.000;    3.000
249.802; -165.850;-1303.000;-1189.000
249.945;  -74.700; -612.000; -540.000
250.087; -110.450; -834.000; -768.000
250.229;  -57.275; -362.000; -480.000
250.371;  -81.150; -494.000; -439.000
250.514;  -56.125; -310.000; -244.000
250.656;  -24.975;   69.000;  102.000
250.798; -115.775; -849.000; -800.000
250.940;  -59.050; -322.000; -322.000
251.083;  -38.150; -335.000; -111.000
251.225;   43.700;  338.000;  310.000
251.367;  -41.575; -274.000; -373.000
251.509;  -29.825; -265.000; -210.000
251.651;  -97.300; -731.000; -671.000
251.794;   43.725;  538.000;  632.000
251.936; -100.350; -821.000; -747.000
252.078;  -84.400; -540.000; -461.000
252.220;  -80.575; -645.000; -477.000
252.362;   91.150;  344.000;  462.000
252.504;  -73.400; -677.000; -584.000
252.646; -111.725; -875.000; -722.000
252.788;    0.825;   14.000; -128.000
252.931;  -53.875; -257.000; -253.000
253.073;  -44.475; -376.000; -317.000
253.215;   -4.600;  141.000;  122.000
253.357;  -31.000;   82.000; -153.000
253.499;  -63.625; -374.000; -234.000
253.641;  -89.900; -749.000; -594.000
253.783;  -84.475; -609.000; -527.000
253.925;  -87.850; -586.000; -591.000
254.067; -101.300; -744.000; -667.000
254.209;  -37.100; -391.000; -259.000
254.351; -132.550; -865.000; -883.000
254.493;  -63.250; -441.000; -417.000
254.635; -120.450; -936.000; -818.000
254.777;  -85.475; -752.000; -687.000
254.918;  -73.925; -512.000; -430.000
255.060;  -66.500; -551.000; -395.000
255.202;  -61.075; -473.000; -261.000
255.344;  -70.875; -658.000; -455.000
255.486;  -75.675; -471.000; -406.000
255.628;  -96.375; -780.000; -781.000
255.770;  -97.025; -676.000; -536.000
255.912;  -62.550; -559.000; -468.000
256.053;  -89.600; -730.000; -508.000
256.195;  155.925; 1008.000;  903.000
256.337;  -96.150; -861.000; -595.000
256.479;   51.350;  532.000;  416.000
256.621;  -51.325; -394.000; -212.000
256.762;  -98.625; -789.000; -742.000
256.904;   36.700;  485.000;  487.000
257.046;  -51.700; -381.000; -271.000
257.188;  -55.075; -351.000; -264.000
257.329;  -70.500; -525.000; -464.000
257.471; -123.025; -939.000; -807.000
257.613;  -70.175; -584.000; -498.000
257.755; -147.075;-1073.000; -982.000
257.896;   38.100;  286.000;  392.000
258.038;  -77.250; -403.000; -352.000
258.180;  -40.875; -354.000; -279.000
258.321;  -92.975; -581.000; -457.000
258.463;    2.075;  -71.000;  133.000
258.605;  -89.800; -562.000; -570.000
258.746; -109.375; -886.000; -772.000
258.888; -152.975;-1026.000;-1020.000
259.029;   18.100;  121.000;   -8.000
259.171;  -95.800; -614.000; -550.000
259.313;  -10.075;  -49.000;  -47.000
259.454;  -76.775; -536.000; -414.000
259.596;  -59.575; -483.000; -390.000
259.737;  -74.925; -590.000; -474.000
259.879;   32.050;  217.000;  311.000
260.020;   81.075;  901.000;  636.000
260.162;  -23.400; -146.000; -253.000
260.303; -131.575; -768.000; -687.000
260.445;  -78.125; -609.000; -613.000
260.586;   15.850;  392.000;  157.000
260.728;  -45.525; -360.000; -248.000
260.869; -107.750; -350.000; -343.000
261.011;   63.700;  706.000;  537.000
261.152;  -68.250; -479.000; -319.000
261.293;  -69.925; -576.000; -595.000
261.435;  -42.700; -219.000; -184.000
261.576;  -43.100; -455.000; -325.000
261.718;   49.200;  420.000;  470.000
261.859; -120.925; -940.000; -949.000
262.000; -136.425; -951.000;-1016.000
262.142;  -25.875;  -52.000;  -60.000
262.283; -124.650; -808.000; -691.000
262.424;  -95.775; -666.000; -625.000
262.566; -152.750;-1161.000; -983.000
262.707; -106.250; -840.000; -830.000
262.848; -130.875; -769.000; -726.000
262.990;  -47.550; -362.000; -345.000
263.131;   70.875;  650.000;  681.000
263.272;    8.100;  -61.000;  -41.000
263.413; -102.600; -589.000; -561.000
263.555;  -74.925; -669.000; -143.000
263.696; -111.875; -550.000; -641.000
263.837;  -55.625; -449.000; -551.000
263.978;  -13.500;   -5.000;  -77.000
264.119;  -46.975; -283.000; -264.000
264.261; -116.750; -847.000; -630.000
264.402;   -8.250;   33.000;   40.000
264.543;  -79.325; -509.000; -524.000
264.684;  -13.325;   61.000;  -50.000
264.825;  -77.450; -816.000; -538.000
264.966;    1.800;  -84.000;  -67.000
265.107; -120.600; -646.000; -670.000
265.248; -111.900; -825.000; -812.000
265.390;  -21.950;  152.000;   -9.000
265.531;  -25.675; -238.000; -107.000
265.672;  -94.500; -557.000; -630.000
265.813;   68.225;  563.000;  439.000
265.954; -150.275; -959.000; -940.000
266.095;    2.875; -372.000; -322.000
266.236;  -98.150; -686.000; -548.000
266.377;  -55.700; -243.000; -297.000
266.518;  -68.625; -619.000; -547.000
266.659;   13.875;  170.000;  268.000
266.800;    2.200;   83.000;   85.000
266.941;  -92.200; -487.000; -478.000
267.082;   14.450;  354.000;   99.000
267.223;  -49.225; -344.000; -273.000
267.364; -121.650; -892.000; -686.000
267.504;  -14.625;    3.000;  135.000
267.645;  -21.325;  160.000;   67.000
267.786;  -40.900; -147.000;  -86.000
267.927;  -61.575; -473.000; -379.000
268.068;  -19.350; -186.000;  -61.000
268.209;  -44.050; -175.000; -413.000
268.350;  -60.025; -388.000; -532.000
268.490;  -83.875; -648.000; -521.000
268.631;   24.200;  127.000;  225.000
268.772; -117.425; -874.000; -647.000
268.913;  -48.900; -328.000; -476.000
269.054;  -15.025; -117.000;   12.000
269.194;  -53.250; -418.000; -402.000
269.335; -157.050;-1137.000;-1074.000
269.476;  -16.300;   33.000;  -35.000
269.617;  -58.125; -347.000; -392.000
269.757; -101.550; -713.000; -646.000
269.898;  -98.575; -856.000; -613.000
270.039;  -64.050; -415.000; -405.000
270.180; -132.350; -952.000; -816.000
270.320;  -20.300; -190.000; -250.000
270.461;  -47.825; -277.000; -249.000
270.602;   -2.500; -186.000; -156.000
270.742; -119.675; -868.000; -943.000
270.883;  -55.675; -442.000; -390.000
271.023;  -75.275; -358.000; -357.000
271.164;  -80.100; -607.000; -528.000
271.305;  -99.775; -666.000; -654.000
271.445;  -99.825; -722.000; -683.000
271.586;  -72.450; -462.000; -283.000
271.726;  -59.225; -397.000; -322.000
271.867;  -68.325; -594.000; -534.000
272.008;  193.150; -473.000; -285.000
272.148;  131.200;  462.000;  468.000
272.289;   16.050; -113.000; -181.000
272.429;    5.175;   19.000;  185.000
272.570;  -91.900; -633.000; -737.000
272.710; -109.050; -825.000; -775.000
272.851;  -19.075;  113.000; -130.000
272.991; -165.750;-1173.000;-1077.000
273.131;  -77.850; -419.000; -459.000
273.272;  -78.375; -683.000; -723.000
273.412;   -2.950; -143.000;  -31.000
273.553;  -62.850; -488.000; -507.000
273.693;  133.875;  913.000;  858.000
273.834;  -92.050; -894.000; -692.000
273.974;  -84.475; -664.000; -615.000
274.114;  -99.050; -772.000; -560.000
274.255;   57.750;  414.000;  373.000
274.395;   -5.825; -180.000; -125.000
274.535;   50.325;  199.000;  350.000
274.676;   20.375;  225.000;   94.000
274.816;   -2.525;  110.000;   34.000
274.956;  -77.475; -624.000; -690.000
275.097;  -61.775;-1014.000; -922.000
275.237;  -98.450; -913.000; -803.000
275.377; -100.150; -778.000; -689.000
275.517; -158.250; -878.000; -937.000
275.658;  -59.725; -590.000; -555.000
275.798;  -75.875; -606.000; -413.000
275.938;   15.825;  215.000;  323.000
276.078; -112.075; -626.000; -395.000
276.218;    3.575;   99.000;  104.000
276.359; -140.075;-1026.000;-1024.000
276.499;  -73.775; -605.000; -446.000
276.639;  -27.775; -305.000; -151.000
276.779;  -54.875; -475.000; -357.000
276.919;  -99.675; -783.000; -624.000
277.059;  -25.600; -261.000; -212.000
277.199;  -49.050; -357.000; -259.000
277.340;   53.025;  287.000;  175.000
277.480; -115.675; -840.000; -693.000
277.620;   12.200;  192.000;   16.000
277.760; -197.550;-1533.000;-1294.000
277.900;   23.775;  113.000;   33.000
278.040;    8.025;  137.000;  159.000
278.180;   36.625;  270.000;  170.000
278.320;   -6.400;   21.000;   56.000
278.460;  -62.800; -443.000; -469.000
278.600;  -97.000; -708.000; -598.000
278.740;   60.900;  448.000;  224.000
278.880;  -43.650; -768.000; -791.000
279.020;   -8.850; -194.000; -144.000
279.160;  -80.325; -672.000; -595.000
279.300; -118.575; -926.000; -873.000
279.440;  -99.225; -709.000; -622.000
279.579;   -2.825;-1014.000; -929.000
279.719;  -46.125; -410.000; -394.000
279.859;   74.575;   -4.000;   41.000
279.999;   28.675; -208.000;  101.000
280.139;  -19.800; -435.000; -387.000
280.279;  -60.550; -708.000; -745.000
280.419;   -9.375; -229.000; -147.000
280.559;  -38.050; -259.000; -180.000
280.698;  -92.275; -790.000; -639.000
280.838;  -95.900; -778.000; -800.000
280.978;  -94.725; -846.000; -790.000
281.118; -109.750; -811.000; -704.000
281.257;   -7.950;   24.000;    6.000
281.397;  -95.150;-1094.000; -960.000
281.537;  -94.150; -599.000; -712.000
281.677;  -24.950; -150.000; -101.000
281.816;  -89.525; -700.000; -630.000
281.956;  -30.325; -193.000; -257.000
282.096;  -71.775; -539.000; -396.000
282.235; -115.000; -672.000; -638.000
282.375;  -29.050; -243.000;  -98.000
282.515; -107.350; -715.000; -707.000
282.654;   32.075;   29.000;  106.000
282.794;   12.425;  388.000;  244.000
282.934;  -50.125; -530.000; -491.000
283.073; -130.275;-1030.000; -857.000
283.213;  -44.350; -460.000; -467.000
283.353;  -32.350; -408.000; -349.000
283.492;  -33.125; -264.000; -296.000
283.632;  -51.975; -254.000; -168.000
283.771; -106.450; -859.000; -730.000
283.911;  -57.350; -369.000; -260.000
284.050; -101.950; -794.000; -748.000
284.190; -159.900;-1229.000;-1096.000
284.329; -147.825;-1055.000; -964.000
284.469;  -57.600; -516.000; -591.000
284.608;  -64.375; -559.000; -598.000
284.748;  -76.025; -614.000; -570.000
284.887;   -8.750;  -87.000;  -20.000
285.027; -119.050; -844.000; -892.000
285.166;  -32.650; -192.000; -249.000
285.306;    5.750; -116.000;  -33.000
285.445;  -45.750; -229.000; -343.000
285.584;  -98.300; -630.000; -494.000
285.724;  -47.050; -282.000; -322.000
285.863; -107.200; -857.000; -507.000
286.002;  -47.400; -366.000; -276.000
286.142;  -96.725; -715.000; -622.000
286.281;  -80.050; -525.000; -493.000
286.420;  -82.050; -554.000; -417.000
286.560;   93.525;  653.000;  623.000
286.699; -137.500; -958.000; -912.000
286.838;  -83.275; -590.000; -591.000
286.978;  -94.550; -533.000; -537.000
287.117; -138.750;-1085.000; -950.000
287.256;  -32.175; -228.000; -211.000
287.395;  -51.650; -197.000; -378.000
287.535;  -48.675; -370.000; -298.000
287.674;  -83.350; -509.000; -484.000
287.813;   46.775;  661.000;  533.000
287.952; -123.375;-1010.000; -871.000
288.091; -160.200;-1049.000; -915.000
288.231;   29.300;   13.000;   15.000
288.370; -182.025;-1217.000;-1200.000
288.509;  -90.575; -728.000; -645.000
288.648; -101.775; -770.000; -548.000
288.787;  -39.575; -243.000;  -87.000
288.926;  -59.975; -454.000; -475.000
289.065;  121.575;  859.000;  672.000
289.204;  -53.100; -377.000; -217.000
289.344;  -83.875; -791.000; -690.000
289.483;   15.375;  416.000;  304.000
289.622;  -36.475; -291.000; -149.000
289.761;  -19.625; -309.000; -166.000
289.900;  -99.650; -785.000; -626.000
290.039;  -16.200;  -12.000;  -95.000
290.178;  -37.675; -274.000; -180.000
290.317;  -96.975; -618.000; -479.000
290.456;  -62.475; -463.000; -451.000
290.595; -142.950; -961.000; -833.000
290.734; -145.250; -904.000; -891.000
290.873;  -76.550; -456.000; -420.000
291.011; -107.575; -833.000; -843.000
291.150; -106.125; -770.000; -682.000
291.289;  -21.850; -343.000; -110.000
291.428; -106.075; -599.000; -480.000
291.567;  -52.450; -370.000; -442.000
291.706;   -1.000;  109.000;  154.000
291.845;  -89.925; -597.000; -505.000
291.984; -172.575;-1234.000;-1061.000
292.122;   71.425;  602.000;  582.000
292.261;   36.650;  620.000;  463.000
292.400;    4.025; -144.000;  211.000
292.539; -130.975; -959.000; -813.000
292.678;  -30.050; -325.000; -300.000
292.816; -160.725;-1136.000; -965.000
292.955;  -93.600; -844.000; -684.000
293.094;  -23.650; -173.000; -337.000
293.233;  -62.275; -556.000; -400.000
293.371;  -48.800; -225.000;  -84.000
293.510; -104.600; -866.000; -780.000
293.649; -124.250; -959.000; -924.000
293.787;  -42.700;-1083.000;-1012.000
293.926;   -7.400; -113.000;  -32.000
294.065;  -43.850; -379.000; -290.000
294.203;   40.750;  298.000;  406.000
294.342;   27.825;   74.000;  156.000
294.481; 6197.375;51180.000; -836.000
294.619;  -23.000; -425.000; -582.000
294.758; -140.575;-1230.000;-1137.000
294.896;   67.675; -125.000;    5.000
295.035; -129.750;-1040.000;-1006.000
295.174; -112.550;-1082.000; -954.000
295.312;  -35.450; -323.000; -203.000
295.451;    0.775; -307.000; -428.000
295.589;  -60.375; -389.000; -518.000
295.728;   19.175; -292.000; -165.000
295.866;    9.825;  -36.000;  -51.000
296.005;  -66.400; -584.000; -341.000
296.143;  -76.075; -558.000; -596.000
296.282;  -95.575; -957.000; -881.000
296.420;  -84.925; -657.000; -557.000
296.559;  -81.425; -892.000; -633.000
296.697;   40.550; -847.000; -665.000
296.835;   96.725;-1141.000;-1002.000
296.974;   56.725;  -23.000;   39.000
297.112;    3.275; -443.000; -504.000
297.251;  -73.825; -815.000; -755.000
297.389;  123.400; -576.000; -438.000
297.527;   43.500; -145.000;  -83.000
297.666;  -49.425; -486.000; -438.000
297.804;  -51.075; -404.000; -264.000
297.942;    6.775; -136.000; -161.000
298.081;    3.525; -183.000;   63.000
298.219;   87.650;  -17.000;  -19.000
298.357;   51.350; -144.000;  -71.000
298.495;   47.000; -810.000; -812.000
298.634;   79.850;  245.000;  219.000
298.772;   75.450; -220.000; -338.000
298.910;  -41.525; -309.000; -182.000
299.048;  -11.600; -130.000; -153.000
299.187;  -32.175; -350.000; -250.000
299.325;   17.325;   52.000;  122.000
299.463;   72.750; -389.000; -299.000
299.601;  129.375; -327.000; -271.000
299.739; -107.250; -908.000; -883.000
299.877;  -76.875; -791.000; -703.000
300.016;  -44.425;-1095.000; -935.000
300.154;  179.500;  -19.000; -161.000
300.292;   75.325; -428.000; -348.000
300.430;   43.250; -408.000; -291.000
300.568; -100.900; -940.000; -874.000
300.706;  -44.525; -366.000; -469.000
300.844;  -78.350;-1108.000; -979.000
300.982;  121.150;  246.000;  282.000
301.120; -111.075; -965.000; -866.000
301.258;  -65.450; -812.000; -705.000
301.396;   40.450;  104.000;  -41.000
301.534;   97.900; -218.000; -293.000
301.672;   12.225; -664.000; -521.000
301.810;   40.475; -613.000; -545.000
301.948;  131.200;   53.000;  149.000
302.086;  675.075; -250.000;  -32.000
302.224; 1066.550; -610.000; -585.000
302.362;   56.625; -558.000; -622.000
302.500;  -34.175; -923.000; -893.000
302.638;  123.875;  128.000;  245.000
302.776;    2.500; -352.000; -408.000
302.913;   44.200;  447.000;  236.000
303.051;   -2.075;  -86.000;  -23.000
303.189;   37.775;   90.000;  118.000
303.327;  -34.575; -341.000; -256.000
303.465;  -75.200; -832.000; -588.000
303.603;  -97.075; -805.000; -604.000
303.740;   96.975;  417.000;  241.000
303.878;   23.225; -800.000; -759.000
304.016;  -83.625; -915.000; -790.000
304.154; -115.375;-1123.000;-1152.000
304.291;  -26.625; -505.000; -554.000
304.429;    3.225;  102.000;   74.000
304.567; -129.250; -908.000; -893.000
304.705;  -65.100; -408.000; -515.000
304.842;  119.800; -616.000; -540.000
304.980;   62.675;  215.000;   35.000
305.118;   64.825; -367.000; -365.000
305.255;  -69.800; -945.000; -927.000
305.393;   56.650;  178.000;  239.000
305.531; -106.525;-1173.000; -956.000
305.668;  -67.350; -663.000; -582.000
305.806;  103.350; -358.000; -439.000
305.943;  125.050; -629.000; -637.000
306.081;   68.075; -378.000; -267.000
306.219;  -95.150; -863.000; -748.000
306.356;   -3.200;  158.000;   27.000
306.494;  123.900;  981.000;  761.000
306.631;   -8.875;  -11.000;  -55.000
306.769;    4.125; -613.000; -485.000
306.906;  -10.300; -284.000; -258.000
307.044;  -59.625; -473.000; -488.000
307.181;  -54.875; -410.000; -332.000
307.319;   12.925;  112.000;   87.000
307.456; -172.225;-1191.000;-1153.000
307.594; -102.550; -980.000; -727.000
307.731;  -19.450; -371.000; -164.000
307.868;   -6.850;  -15.000;   20.000
308.006; -124.450; -961.000; -847.000
308.143;  -65.400; -618.000; -330.000
308.281;  171.325;  -37.000; -254.000
308.418;    1.300; -748.000; -640.000
308.555;  -78.325; -400.000; -250.000
308.693;  -59.975; -577.000; -573.000
308.830; -107.725; -712.000; -657.000
308.967;  -26.250; -215.000;  -95.000
309.105;  -48.550; -507.000; -396.000
309.242;   44.925; -468.000; -367.000
309.379;  351.325; -577.000; -655.000
309.517;  -59.700; -936.000; -948.000
309.654; -103.600; -910.000; -734.000
309.791;  -75.050; -662.000; -580.000
309.928; -125.675; -977.000; -914.000
310.065;  173.925;  819.000;  697.000
310.203;    2.625; -825.000; -850.000
310.340;   -2.600; -465.000; -321.000
310.477;  -87.075; -412.000; -516.000
310.614;  -77.050; -383.000; -473.000
310.751;  -78.050; -427.000; -518.000
310.889;  -31.250;    1.000;   11.000
311.026; -154.625;-1161.000; -939.000
311.163;  -52.525; -386.000; -380.000
311.300;  -84.850; -512.000; -479.000
311.437;  -69.825; -658.000; -619.000
311.574; -156.250;-1226.000; -985.000
311.711;  -58.125; -595.000; -433.000
311.848;  -44.500; -380.000; -388.000
311.985;   22.200;  270.000;   93.000
312.122; -123.400; -932.000; -762.000
312.259; -131.975; -941.000; -994.000
312.396;  -87.500; -508.000; -551.000
312.533;  -89.675; -812.000; -790.000
312.670; -142.450;-1070.000; -898.000
312.807;  -35.600; -352.000; -367.000
312.944;  -86.600; -513.000; -611.000
313.081;  -24.200; -150.000; -415.000
313.218; -104.900;-1111.000; -867.000
313.355;   20.300; -531.000; -449.000
313.492;    4.175; -455.000; -292.000
313.629;  124.400;  815.000;  735.000
313.766; -171.175;-1176.000;-1008.000
313.902;   -2.100; -186.000;   21.000
314.039;  -49.000; -372.000; -289.000
314.176;   24.300;  286.000;  192.000
314.313;  -81.875; -569.000; -473.000
314.450;  -70.325; -788.000; -684.000
314.587;  -67.750; -468.000; -480.000
314.723;    3.100;  -78.000;  130.000
314.860;   26.250;  318.000;  332.000
314.997;   28.775;  223.000;  142.000
315.134;  -35.050; -385.000; -368.000
315.270;  -17.200; -480.000; -496.000
315.407; -122.075;-1094.000; -967.000
315.544;  -49.250; -657.000; -538.000
315.681;  -75.200; -681.000; -565.000
315.817;   40.675; -133.000; -176.000
315.954;   10.200; -613.000; -392.000
316.091; -128.375;-1045.000;-1023.000
316.227;  -22.875;  -71.000; -179.000
316.364;    0.575;   23.000;    6.000
316.500;  -48.250; -113.000; -300.000
316.637;  -48.375; -181.000; -302.000
316.774;  -94.700; -625.000; -358.000
316.910;  -86.800; -598.000; -629.000
317.047;  -80.125; -487.000; -351.000
317.183;  -54.750; -435.000; -566.000
317.320;  -24.600; -367.000; -321.000
317.456;  -75.200; -733.000; -805.000
317.593;  -86.275; -598.000; -641.000
317.729;   -8.950;  168.000;  -67.000
317.866; -207.700;-1434.000;-1285.000
318.002;  -96.050; -708.000; -948.000
318.139;  -84.675; -883.000; -867.000
318.275; -110.775;-1003.000; -738.000
318.412;  -68.425; -517.000; -336.000
318.548;  -17.725; -751.000; -720.000
318.685;  -88.775; -985.000; -888.000
318.821;  -93.925; -762.000; -735.000
318.957;  -29.775;   34.000;  -23.000
319.094;   36.700;  297.000;  154.000
319.230;  -66.875; -756.000; -742.000
319.367;  156.000; -471.000; -520.000
319.503;   70.200; -538.000; -436.000
319.639;  -98.325; -877.000; -793.000
319.775;  -67.000; -750.000; -685.000
319.912;  -38.625; -424.000; -519.000
320.048;  -81.575;-1184.000;-1184.000
320.184;   78.825;   59.000;   70.000
320.321;  -65.525; -497.000; -467.000
320.457;   65.000;  475.000;  662.000
320.593;  -65.800; -375.000; -382.000
320.729; -104.325; -732.000; -734.000
320.866;  -87.625; -577.000; -635.000
321.002;  -70.150; -759.000; -809.000
321.138;   -4.900; -135.000; -211.000
321.274;   76.750; -148.000; -115.000
321.410;  -13.650; -585.000; -353.000
321.546;  -16.825;-1011.000; -911.000
321.683;   55.025;  400.000;  185.000
321.819;    7.775;  -48.000; -117.000
321.955; -100.425; -743.000; -722.000
322.091;  -43.600; -585.000; -540.000
322.227;  -18.175; -382.000; -202.000
322.363;  -14.050; -320.000; -215.000
322.499;  -42.775; -343.000; -331.000
322.635;  172.875;  636.000;  443.000
322.771;   28.075; -139.000;   12.000
322.907;  111.100;  129.000;  327.000
323.043;  -15.975; -115.000; -206.000
323.179;  -37.900; -394.000; -363.000
323.315;   31.325; -401.000; -371.000
323.451;   98.800; -328.000; -236.000
323.587;   61.500;  -60.000;  -77.000
323.723;   28.525; -682.000; -601.000
323.859;   -9.700; -258.000;  -76.000
323.995;  -36.025; -467.000; -409.000
324.131; -120.900; -967.000; -892.000
324.267;  -43.350; -254.000; -276.000
324.402; -125.275; -960.000; -983.000
324.538;  -15.150; -279.000; -104.000
324.674;   32.350;  164.000;   77.000
324.810;  139.650;  226.000;  308.000
324.946;   15.725; -810.000; -658.000
325.082;  -75.800; -568.000; -475.000
325.217;  -23.175;  -62.000;   16.000
325.353; -105.900; -764.000; -659.000
325.489; -109.100; -540.000; -506.000
325.625;  -90.725; -579.000; -525.000
325.760;   58.350;  517.000;  376.000
325.896;  -26.350; -515.000; -702.000
326.032;  -60.125; -403.000; -352.000
326.168;  -56.250; -462.000; -369.000
326.303;  -62.900; -352.000; -461.000
326.439;  -28.350; -336.000; -276.000
326.575;   -5.325; -190.000;  -29.000
326.710;  -15.225; -156.000;  -30.000
326.846;  -25.025;  146.000;  103.000
326.982;  -97.150; -530.000; -548.000
327.117;  -84.950; -481.000; -442.000
327.253;  -83.975; -745.000; -742.000
327.388; -137.775;-1137.000;-1153.000
327.524;  -32.675; -811.000; -578.000
327.659;  -36.925;  -58.000;  -22.000
327.795;  -12.600;   69.000;   45.000
327.931;  -90.050; -723.000; -499.000
328.066;  -25.575; -417.000; -276.000
328.202;  -17.600;   12.000; -129.000
328.337;  103.550;  957.000;  713.000
328.473;   41.675;  -12.000;  -74.000
328.608;  -32.475; -256.000; -267.000
328.743;  -80.375; -799.000; -664.000
328.879;   22.475;  214.000;  114.000
329.014;  -33.125; -102.000; -122.000
329.150;  -77.725; -358.000; -483.000
329.285;  -79.775; -465.000; -466.000
329.421;  -54.700; -548.000; -246.000
329.556;  -30.150;  -36.000;   85.000
329.691; -111.100; -633.000; -615.000
329.827;  -84.850; -626.000; -480.000
329.962;  -49.100;  131.000; -301.000
330.097;  -92.800; -673.000; -585.000
330.233;  -62.375; -410.000; -223.000
330.368; -127.050; -839.000; -628.000
330.503;  -12.200;    3.000;   98.000
330.638;    8.425;  -93.000; -125.000
330.774;  -47.050; -609.000; -530.000
330.909;  -43.050; -434.000; -244.000
331.044;  -88.575; -714.000; -708.000
331.179; -180.675;-1217.000;-1109.000
331.315;    8.175;   77.000;   20.000
331.450;    0.175;  157.000;  285.000
331.585;  -86.700; -805.000; -706.000
331.720;  -89.150; -510.000; -460.000
331.855;  -11.275;  -35.000; -102.000
331.990;  225.675;   62.000;  138.000
332.126;  112.275; -110.000;   71.000
332.261;  -22.325; -379.000; -265.000
332.396;    8.800; -135.000; -242.000
332.531;  -98.850;-1074.000;-1031.000
332.666;   27.500; -519.000; -363.000
332.801; -103.825; -726.000; -807.000
332.936;  -24.575; -192.000; -122.000
333.071; -152.925; -870.000; -817.000
333.206;   12.450;  307.000;  379.000
333.341;   28.275;  344.000;  418.000
333.476;  -88.375; -627.000; -623.000
333.611;  -41.425; -251.000; -173.000
333.746;  -32.725; -381.000; -464.000
333.881; -113.225; -973.000; -935.000
334.016; -121.975; -936.000; -917.000
334.151; -125.350; -746.000; -702.000
334.286;   17.600;  152.000;  186.000
334.421;  -14.875; -125.000; -178.000
334.556;  -82.300; -611.000; -567.000
334.690;  -77.950; -631.000; -577.000
334.825;   51.875;  381.000;   83.000
334.960;  -63.600; -285.000; -413.000
335.095;    7.850;  135.000;  -91.000
335.230; -108.175; -722.000; -738.000
335.365; -130.550;-1084.000; -990.000
335.499; -121.750;-1108.000;-1037.000
335.634;   16.700;    9.000;  534.000
335.769; -109.050; -755.000; -720.000
335.904;  -51.900; -603.000; -561.000
336.038;  -52.750; -735.000; -657.000
336.173; -106.200;-1206.000;-1194.000
336.308;   17.025; -116.000; -189.000
336.443;   22.975; -544.000; -634.000
336.577;  -67.050; -936.000; -787.000
336.712;   73.725;   -4.000;  -12.000
336.847;  -16.125; -724.000; -607.000
336.981;   69.675; -272.000; -208.000
337.116;  312.650;  615.000;  501.000
337.250;  155.900; -434.000; -421.000
337.385;  234.425; -297.000; -208.000
337.520;   64.625; -632.000; -603.000
337.654;  -38.475; -215.000; -126.000
337.789; -127.425; -989.000; -933.000
337.923;  -43.725; -104.000; -205.000
338.058;  -83.225; -673.000; -738.000
338.192;  -27.125; -611.000; -488.000
338.327;   -6.375;  -18.000; -155.000
338.461;  -55.525; -299.000; -469.000
338.596;  -81.250; -780.000; -638.000
338.730;  -91.375; -767.000; -803.000
338.865;   78.775;  -46.000; -140.000
338.999;  -58.475; -846.000; -702.000
339.134;  -27.725; -634.000; -536.000
339.268;   19.050; -741.000; -603.000
339.403;  354.450; -740.000; -775.000
339.537;  111.125; -894.000; -820.000
339.671; -122.075; -829.000; -813.000
339.806;  -68.275; -556.000; -512.000
339.940;    0.700; -261.000; -235.000
340.074;  -92.550; -685.000; -510.000
340.209;  -46.700; -351.000; -230.000
340.343;  -96.875; -517.000; -573.000
340.477;  143.050;  998.000; 1036.000
340.612;  -70.450;-1033.000; -900.000
340.746;  124.975; -199.000; -243.000
340.880;  -57.875; -924.000; -785.000
341.014;  -25.875;  -45.000; -154.000
341.149; -128.475; -756.000; -718.000
341.283; -104.525; -839.000; -754.000
341.417;  -97.675;-1124.000; -938.000
341.551;  167.900; -768.000; -708.000
341.685;  -19.475; -633.000; -611.000
341.820;  -53.075; -562.000; -493.000
341.954;  -61.800; -218.000; -349.000
342.088; -150.325;-1102.000;-1019.000
342.222;   59.700;  565.000;  618.000
342.356;  -58.500; -395.000; -335.000
342.490; -105.225; -880.000; -841.000
342.624;  -41.500; -339.000; -242.000
342.758;   -4.250; -364.000; -312.000
342.892;  -65.700; -710.000; -585.000
343.026;  -48.350;  -58.000; -116.000
343.160;  -66.050; -426.000; -376.000
343.294;  -82.950; -474.000; -337.000
343.428;  -12.175; -488.000; -448.000
343.562;  -18.975; -172.000;  -23.000
343.696;  -20.425; -385.000; -314.000
343.830;  -18.100; -362.000; -356.000
343.964;   34.500; -231.000; -168.000
344.098; 1024.675;  199.000;   70.000
344.232;  885.775; -266.000; -127.000
344.366;  104.675; -567.000; -453.000
344.500;   66.150; -665.000; -744.000
344.634;   28.825; -324.000; -164.000
344.768;   -5.775; -531.000; -341.000
344.902;   16.925;  278.000;  256.000
345.035;  -78.675; -556.000; -496.000
345.169; -129.400; -933.000; -656.000
345.303;  -23.075; -308.000; -482.000
345.437;  -67.025; -826.000; -717.000
345.571;  -72.225; -675.000; -594.000
345.704;  -62.625; -309.000; -532.000
345.838;  -11.200; -331.000; -284.000
345.972;  -30.325; -543.000; -495.000
346.106;  150.075; -179.000; -190.000
346.239;  428.325; -312.000; -243.000
346.373;   17.800; -343.000; -302.000
346.507; -141.000; -950.000; -962.000
346.640;  169.250;  -30.000;   13.000
346.774;  -32.850; -650.000; -797.000
346.908;  -13.850; -138.000;  -11.000
347.041;  -98.375; -646.000; -593.000
347.175;    7.250;  259.000;   27.000
347.309;  -73.650; -698.000; -628.000
347.442;  -98.550; -883.000; -732.000
347.576;  303.475;  670.000;  668.000
347.709;  231.575; -123.000;  -52.000
347.843;  -77.650; -933.000; -825.000
347.976;   29.725;  235.000;  294.000
348.110; -179.450;-1268.000;-1186.000
348.243; -100.275; -679.000; -772.000
348.377;   -5.775;  -26.000;   60.000
348.510;   53.150;  403.000;  540.000
348.644;  -35.425;  -37.000; -159.000
348.777;   -5.750;  180.000;  191.000
348.911;  -58.275; -142.000; -112.000
349.044;  167.825;  471.000;  448.000
349.178;  194.050;-1069.000;-1006.000
349.311;  130.800;  141.000;  255.000
349.444;  -10.750; -927.000; -813.000
349.578;   -6.750; -347.000; -200.000
349.711;  -97.475; -959.000; -862.000
349.845;   16.825; -661.000; -591.000
349.978; -139.350;-1224.000;-1137.000
350.111;  -77.275; -546.000; -612.000
350.244;  -65.575; -596.000; -700.000
350.378;   17.800; -392.000; -393.000
350.511;  -72.600; -393.000; -426.000
350.644; -100.750; -808.000; -806.000
350.778;    4.975;  168.000;  104.000
350.911;   13.875;  134.000;  140.000
351.044;  -98.150; -685.000; -615.000
351.177;  -27.700; -321.000; -281.000
351.310;  -28.425;    3.000; -131.000
351.444;  -82.175; -888.000; -788.000
351.577;  124.325;  140.000;   90.000
351.710;   97.500;  593.000;  417.000
351.843;  -32.300; -165.000;  -77.000
351.976;    7.175;  149.000;  -79.000
352.109;  -99.625; -621.000; -612.000
352.242;  -27.250; -464.000; -419.000
352.376;  -67.400; -580.000; -636.000
352.509;  205.575; -437.000; -356.000
352.642;   35.900; -654.000; -604.000
352.775;   72.050; -141.000;  -98.000
352.908; -120.425; -933.000; -904.000
353.041;  -99.025; -814.000; -824.000
353.174;  -67.025; -551.000; -424.000
353.307;  -75.325; -753.000; -764.000
353.440;   70.700;  541.000;  453.000
353.573; -108.100; -957.000;-1008.000
353.706;  -49.500; -384.000; -558.000
353.839;  -22.300; -264.000; -220.000
353.971;  -85.975; -657.000; -512.000
354.104;  -82.550; -896.000; -835.000
354.237;  -36.825; -627.000; -662.000
354.370;  -72.700; -846.000; -879.000
354.503; -179.550;-1231.000;-1308.000
354.636;  -27.200; -529.000; -348.000
354.769; -125.450; -937.000; -860.000
354.902;   -8.025; -230.000; -139.000
355.034;  -22.650; -164.000; -220.000
355.167;  -14.675; -262.000; -162.000
355.300;  -96.200;-1061.000; -880.000
355.433;  938.775;  -71.000;  -14.000
355.565; 1463.175; -402.000; -384.000
355.698;  372.375; -356.000; -296.000
355.831;    0.125; -882.000; -801.000
355.964;   93.150; -285.000; -170.000
356.096;  -88.400; -856.000; -843.000
356.229;    2.475; -523.000; -530.000
356.362;  297.000; -373.000; -266.000
356.494;  568.550; -229.000; -162.000
356.627;  520.200;  269.000;  377.000
356.760;  654.475;  120.000;   53.000
356.892;  916.400; -286.000; -601.000
357.025;  720.525;  403.000;  389.000
357.157;  676.100; -167.000; -179.000
357.290;  637.650; -856.000; -713.000
357.423;  173.525; -667.000; -556.000
357.555;  124.450; -217.000; -228.000
357.688;  128.425; -483.000; -364.000
357.820;  538.700; -870.000; -877.000
357.953; 4052.075; -563.000; -589.000
358.085;  910.000; -632.000; -612.000
358.218; 1326.100;-1131.000; -932.000
358.350;  250.550;  -58.000;  312.000
358.483; -128.975;-1300.000;-1187.000
358.615;   24.200;-1182.000;-1078.000
358.747;  -40.575;-1187.000;-1058.000
358.880;   45.050; -810.000; -744.000
359.012;   -5.000; -376.000; -202.000
359.145;  -35.475; -480.000; -511.000
359.277;   74.875; -962.000; -913.000
359.409; 3357.825;  536.000;  231.000
359.542;  904.400; -738.000; -688.000
359.674;   74.050;   46.000;   13.000
359.806;  -66.675; -565.000; -438.000
359.939;  -49.200; -617.000; -516.000
360.071;  -12.950; -583.000; -579.000
360.203;  -15.425; -411.000; -364.000
360.335;   49.525;  164.000;  -16.000
360.468;  202.875; -249.000; -307.000
360.600; 2651.100; -547.000; -454.000
360.732; 2715.800; -546.000; -423.000
360.864;  373.350;-1216.000;-1044.000
360.996;  323.150; -516.000; -554.000
361.129;   54.825; -389.000; -598.000
361.261;   27.750;  110.000; -113.000
361.393;  -29.400; -252.000; -214.000
361.525;   13.775;   94.000;  244.000
361.657;  -38.150; -821.000; -703.000
361.789;   13.850; -139.000; -155.000
361.921;  258.675; -642.000; -593.000
362.053;  276.025;  524.000;  541.000
362.185;   57.200;  288.000;   72.000
362.318;  -78.650; -709.000; -705.000
362.450;  123.100;  294.000;  444.000
362.582;  161.650; -913.000; -870.000
362.714;  -35.425; -353.000; -332.000
362.846;  -68.925; -606.000; -490.000
362.978; -145.075; -941.000; -811.000
363.109;   57.375; -161.000; -260.000
363.241;  475.550; -739.000; -749.000
363.373;  417.550; -649.000; -564.000
363.505;  622.250; -186.000;  -91.000
363.637;  163.000; -787.000; -601.000
363.769; -119.600;-1067.000;-1080.000
363.901;  -79.275; -596.000; -654.000
364.033; -102.400;-1103.000;-1062.000
364.165;    3.275; -283.000; -283.000
364.296;   58.275; -316.000; -177.000
364.428;   70.625;-1344.000;-1220.000
364.560;  -66.775; -679.000; -661.000
364.692;  -60.925; -738.000; -835.000
364.824;  297.025; -588.000; -456.000
364.955;  444.800; -402.000; -564.000
365.087;  856.975;-1097.000; -852.000
365.219;   19.850; -686.000; -816.000
365.351;  -64.150; -526.000; -572.000
365.482;   44.075;  300.000;  240.000
365.614;  -44.100; -402.000; -314.000
365.746;  -90.500; -729.000; -752.000
365.877;  -93.050; -706.000; -672.000
366.009;  244.575;  -35.000;  -62.000
366.141;  -96.150;-1249.000;-1134.000
366.272; -121.300; -803.000; -719.000
366.404; -106.750;-1005.000; -874.000
366.535;  -18.825; -139.000;  -12.000
366.667;  -96.925; -644.000; -649.000
366.799;   44.350;  353.000;  203.000
366.930; -115.025; -862.000; -996.000
367.062;  114.050; -639.000; -613.000
367.193;  139.425; -872.000; -842.000
367.325;  -67.100; -580.000; -684.000
367.456;   71.875; -246.000;   31.000
367.588;  155.225; -371.000; -318.000
367.719;   21.675;  -44.000;  -45.000
367.851;   -7.550; -222.000; -241.000
367.982;  -42.025; -875.000; -732.000
368.113;  129.500; -475.000; -358.000
368.245; -107.975; -960.000; -841.000
368.376;  -19.425; -254.000; -302.000
368.508;  -49.125; -188.000; -263.000
368.639; -138.675;-1166.000;-1034.000
368.770;   -9.600; -670.000; -589.000
368.902;  -50.700; -836.000; -926.000
369.033; -109.625; -906.000; -855.000
369.164;  -56.625; -720.000; -653.000
369.296; -101.550; -452.000; -601.000
369.427;   -6.500; -209.000; -144.000
369.558;  -44.550; -593.000; -377.000
369.689;  -85.175; -721.000; -569.000
369.821; -136.575; -951.000; -845.000
369.952;  -18.800;   42.000; -108.000
370.083;  -59.750; -229.000; -108.000
370.214;  -95.650; -735.000; -650.000
370.345;   -8.750;   65.000;   81.000
370.477;  -77.025; -810.000; -790.000
370.608;  253.650; -328.000; -264.000
370.739;  -20.150;-1233.000;-1292.000
370.870;  -28.825;-1102.000; -923.000
371.001;  108.600; -378.000; -467.000
371.132;  -67.700; -754.000; -735.000
371.263;  -19.625;  -42.000; -148.000
371.394; -135.800; -841.000; -748.000
371.525;   36.825;  345.000;  225.000
371.657;  -94.550; -808.000; -670.000
371.788;   77.400;  103.000;  199.000
371.919;  193.225; -384.000; -304.000
372.050; 4030.700;  -91.000; -156.000
372.181; 1247.225; -188.000; -294.000
372.311;  415.800;   42.000; -127.000
372.442;   50.250; -457.000; -451.000
372.573;   -9.950; -444.000; -340.000
372.704; -117.700;-1008.000; -980.000
372.835;  107.775; -228.000; -289.000
372.966;  -59.200; -646.000; -554.000
373.097;  -58.450; -575.000; -711.000
373.228;  -29.525; -717.000; -542.000
373.359;  160.550; -824.000; -536.000
373.490; 1048.475; -881.000; -727.000
373.620; 1340.375;-1001.000; -803.000
373.751; 2029.025; -332.000; -396.000
373.882;  927.425; -663.000; -733.000
374.013;   72.975; -449.000; -262.000
374.143;  -33.225; -581.000; -659.000
374.274; -100.975; -987.000; -908.000
374.405;  192.150; -388.000; -276.000
374.536;  485.400; -526.000; -387.000
374.666; 1299.325; -759.000; -807.000
374.797;  256.975; -817.000; -868.000
374.928;  971.175; -710.000; -560.000
375.058; 1003.950; -535.000; -500.000
375.189;   82.650;  -59.000;  -93.000
375.320;  -96.325; -928.000;-1034.000
375.450;  -32.900; -625.000; -616.000
375.581;  -56.075; -526.000; -436.000
375.712;  -23.800; -574.000; -250.000
375.842;  343.725; -438.000; -415.000
375.973;  254.225; -554.000; -513.000
376.103;  -38.125; -665.000; -648.000
376.234;  -76.325; -531.000; -552.000
376.364;  -27.000; -944.000; -867.000
376.495;  356.275;  925.000;  529.000
376.625;   14.150; -472.000; -485.000
376.756;   79.225; -709.000; -678.000
376.886;  -64.375;-1178.000;-1026.000
377.017;   45.875;-1048.000;-1061.000
377.147;  325.425; -786.000; -782.000
377.278;   55.850;  174.000;  228.000
377.408; -116.250; -801.000; -815.000
377.538;  -96.375; -707.000; -693.000
377.669;  -75.800; -537.000; -613.000
377.799;  -78.350; -645.000; -635.000
377.929;  -55.200; -610.000; -428.000
378.060; -121.750; -781.000; -847.000
378.190;  -66.075; -726.000; -531.000
378.320;  -41.975; -401.000; -406.000
378.451;  -22.750; -131.000;  -22.000
378.581;  -19.550;  -67.000; -110.000
378.711;  146.150; 1035.000;  866.000
378.841;  -23.225; -533.000; -675.000
378.972;  -78.900; -871.000; -751.000
379.102;  -11.175; -652.000; -579.000
379.232;   -9.450; -126.000;  -73.000
379.362; -101.675;-1001.000; -885.000
379.492;   15.750; -373.000; -424.000
379.623;  121.500;    0.000;  111.000
379.753;  -98.025;-1107.000; -974.000
379.883;  207.800;   59.000;  156.000
380.013;   23.375;-1081.000;-1017.000
380.143;  -90.000;-1097.000;-1056.000
380.273; -104.850; -985.000; -861.000
380.403;    5.325; -344.000; -257.000
380.533;  -24.375; -651.000; -664.000
380.663;   88.825;  173.000;  128.000
380.793;  -91.850;-1027.000;-1074.000
380.923;  -20.125; -103.000;  -34.000
381.053;  -96.000; -613.000; -623.000
381.183;  -37.950; -106.000; -248.000
381.313;   35.575; -656.000; -470.000
381.443;   50.400; -692.000; -473.000
381.573;  227.950; -402.000; -409.000
381.703;  359.300;-1249.000;-1095.000
381.833; -126.025;-1454.000;-1336.000
381.963;  105.400; -134.000;  -87.000
382.093; 1556.400; -925.000; -909.000
382.223;  488.200; -713.000; -602.000
382.353;   -4.050; -801.000; -608.000
382.482;  443.075;-1091.000; -964.000
382.612;  878.125; -872.000; -644.000
382.742;  506.675; -695.000; -622.000
382.872;  315.200; -565.000; -551.000
383.002;   65.700;  347.000; -132.000
383.131;  -12.575; -226.000; -160.000
383.261;  -44.675; -706.000; -768.000
383.391;  292.400; -552.000; -377.000
383.521; 3026.500;  451.000;  263.000
383.650;  732.900; -947.000; -904.000
383.780;   -9.725; -783.000; -656.000
383.910;  107.600;  880.000;  802.000
384.039;   47.375; -794.000; -656.000
384.169;  242.725;-1205.000;-1017.000
384.299;   -8.275; -650.000; -662.000
384.428;  -83.025; -764.000; -680.000
384.558;  -47.400; -308.000; -275.000
384.687;  -39.700; -414.000; -334.000
384.817;   11.225;   75.000;   -2.000
384.947;   15.975; -234.000; -141.000
385.076;  298.450;  982.000;  912.000
385.206;  106.925;  369.000;  480.000
385.335;  -43.800; -549.000; -417.000
385.465;  -67.150; -655.000; -663.000
385.594;  156.500;  -53.000;  -44.000
385.724;  475.100; -868.000; -838.000
385.853;  134.700; -296.000; -270.000
385.982; 1534.825; -743.000; -787.000
386.112; 2461.500;-1052.000; -871.000
386.241;  160.775; -307.000; -312.000
386.371;   17.900; -174.000;  -87.000
386.500;    1.350; -825.000; -789.000
386.629;   22.050; -874.000; -817.000
386.759;   61.725;  -43.000;   68.000
386.888;   -0.050; -170.000; -250.000
387.017;  -76.425; -648.000; -620.000
387.147;  -75.850; -771.000; -798.000
387.276;    9.025; -410.000; -397.000
387.405;   24.250; -398.000; -342.000
387.535;  -44.300; -452.000; -361.000
387.664;  -54.725; -692.000; -620.000
387.793;   70.650; -198.000; -113.000
387.922;  582.125;  255.000;  200.000
388.052;   36.575; -576.000; -423.000
388.181;   22.500; -342.000; -472.000
388.310;   12.225; -889.000; -710.000
388.439;  -31.350; -749.000; -742.000
388.568;  198.875;  365.000;  244.000
388.697; 1178.525; -756.000; -653.000
388.826;  242.600; -768.000; -666.000
388.956;   83.275; -285.000; -307.000
389.085;  -17.450; -347.000; -287.000
389.214; -103.700; -842.000; -872.000
389.343;  -68.125; -645.000; -413.000
389.472;  382.250;  126.000;  149.000
389.601;  516.500;   91.000;    0.000
389.730;   30.925; -568.000; -687.000
389.859;   63.500;  226.000;   46.000
389.988;  223.000; -423.000; -408.000
390.117;  153.100; -168.000; -146.000
390.246;   -3.950; -331.000; -320.000
390.375;  123.725; -673.000; -626.000
390.504;  -76.175; -703.000; -621.000
390.633; -101.175; -672.000; -726.000
390.761;  -49.650; -732.000; -645.000
390.890;   23.975;   -4.000; -130.000
391.019;  -21.025; -421.000; -441.000
391.148; -124.925; -826.000; -855.000
391.277;  -73.350; -576.000; -493.000
391.406;  -76.900; -821.000; -805.000
391.534;    8.075;  574.000; -301.000
391.663;  -62.325; -583.000; -645.000
391.792;  -93.275; -673.000; -701.000
391.921;  104.100;   -3.000;   15.000
392.050;  229.425; -287.000; -228.000
392.178;  -18.675;-1206.000;-1061.000
392.307;  171.675; -758.000; -712.000
392.436;   93.675; -427.000; -641.000
392.564;   22.075;  166.000;   -6.000
392.693;  -91.875; -860.000; -682.000
392.822;  228.825; -529.000; -534.000
392.950;  113.300; -880.000; -714.000
393.079;  368.525; -188.000; -328.000
393.208;   24.550; -488.000; -511.000
393.336;  -19.750; -170.000; -145.000
393.465;  -56.850; -317.000; -199.000
393.593;  -15.250;   62.000;   79.000
393.722; -158.225;-1121.000; -916.000
393.850;  -41.725; -188.000;  -61.000
393.979; -158.350; -926.000; -805.000
394.107;  -58.800; -517.000; -537.000
394.236;  -19.250; -570.000; -507.000
394.364;  221.825;  383.000;  206.000
394.493;  398.350; -911.000; -767.000
394.621;  -11.400; -955.000; -916.000
394.750;  670.300; -873.000; -923.000
394.878; 2830.975; -247.000; -149.000
395.007; 3869.125; -721.000; -807.000
395.135;  291.850; -790.000; -721.000
395.263;  -80.025;-1038.000;-1040.000
395.392;   -5.225;  -25.000; -107.000
395.520; -141.275; -818.000; -679.000
395.648;  -87.225; -865.000; -915.000
395.777;  -10.600; -366.000; -405.000
395.905;  -44.075; -449.000; -564.000
396.033;   21.400;  217.000;  172.000
396.162;  600.575; -399.000; -453.000
396.290;  556.100;  -17.000;   -2.000
396.418;  124.325; -555.000; -514.000
396.546;  -77.650; -571.000; -466.000
396.674;  -88.950; -850.000; -878.000
396.803;    8.925;  -72.000;  -23.000
396.931;  108.350; -179.000; -199.000
397.059;   80.350;-1026.000; -989.000
397.187;  -99.750;-1026.000; -975.000
397.315; -135.425; -884.000; -649.000
397.443;  -90.625; -592.000; -443.000
397.572; -103.650; -578.000; -424.000
397.700;    4.150; -607.000; -614.000
397.828;   21.200;  120.000;  -90.000
397.956;  -46.725; -508.000; -478.000
398.084;  -65.925; -767.000; -626.000
398.212;   41.275;  137.000;  124.000
398.340;   -0.500;  -56.000;  159.000
398.468;   43.625; -390.000; -169.000
398.596; -147.850; -993.000; -953.000
398.724; -118.025; -762.000; -767.000
398.852; -164.850;-1024.000; -976.000
398.980;  -63.500; -560.000; -560.000
399.108;  -35.300; -982.000; -735.000
399.236;   44.150;   13.000;    8.000
399.363;   -1.550;  222.000;  196.000
399.491;  -73.375; -404.000; -398.000
399.619; -122.725; -829.000; -800.000
399.747; -101.725; -859.000; -771.000
399.875;   77.125;  220.000;  234.000
400.003;  -41.450; -359.000; -284.000
400.130; -103.500; -421.000; -341.000
400.258;  -30.950;  -83.000;   38.000
400.386;  -76.075; -352.000; -168.000
400.514;  -39.300; -526.000; -587.000
400.641;  -79.300; -928.000; -802.000
400.769; -151.650; -979.000; -888.000
400.897; -116.900; -838.000; -793.000
401.025;  -18.300; -166.000; -152.000
401.152;  -14.000;  220.000;   38.000
401.280;  -81.775; -430.000; -429.000
401.408; -119.650; -712.000; -576.000
401.535; -102.300; -735.000; -758.000
401.663; -198.000;-1134.000;-1054.000
401.790;  -96.125; -514.000; -525.000
401.918;   39.350;  436.000;  405.000
402.046;  -27.375;  134.000;  122.000
402.173;  -48.925;  -18.000;    7.000
402.301;  -77.750; -519.000; -397.000
402.428;   34.050;  528.000;  383.000
402.556; -141.350;-1188.000; -913.000
402.683;  -31.225;  -20.000;   -1.000
402.811;  -15.350;  -37.000; -206.000
402.938;  -17.750;   20.000;   27.000
403.066;  229.500; -574.000; -558.000
403.193;  372.000;  299.000;  239.000
403.321;  291.275; -396.000; -574.000
403.448;  372.975;   83.000;   27.000
403.575;  170.700;  -90.000;  -46.000
403.703;  -95.775; -732.000; -557.000
403.830;  -66.175; -531.000; -496.000
403.957; -142.625;-1117.000;-1023.000
404.085;    6.800;  -61.000; -172.000
404.212;   92.825;  -50.000;   63.000
404.339;  262.525; -566.000; -306.000
404.467; 5506.000; -612.000; -524.000
404.594; 3818.200; -287.000; -227.000
404.721;  948.725; -869.000; -764.000
404.848;   90.300; -113.000; -202.000
404.976; -102.125; -856.000; -783.000
405.103;   -4.375;  -14.000;  -82.000
405.230;   -4.100;  190.000;  226.000
405.357;   20.700;  117.000;   44.000
405.484;  241.100;  -49.000;    5.000
405.612;   47.975; -548.000; -563.000
405.739;  -58.975; -488.000; -243.000
405.866;   98.800;  669.000;  385.000
405.993;  -43.475; -398.000; -102.000
406.120; -122.600; -801.000; -887.000
406.247;  -73.050; -323.000; -342.000
406.374;  490.925;  540.000;  629.000
406.501;  153.575; -632.000; -702.000
406.628;  -76.775; -621.000; -589.000
406.755;  -98.650; -803.000; -620.000
406.882;  -50.150; -228.000; -277.000
407.009; -110.675; -719.000; -628.000
407.136;   50.025; -480.000; -401.000
407.263;  160.525; -939.000; -829.000
407.390;  -79.150; -692.000; -614.000
407.517; -156.675;-1139.000;-1187.000
407.644;  -59.975; -332.000; -256.000
407.771;  -76.700; -249.000; -287.000
407.898;    3.825;  168.000;  328.000
408.025;  -60.125; -421.000; -313.000
408.151;   -3.650;   82.000;  153.000
408.278;  -83.900; -267.000; -216.000
408.405; -119.750; -931.000; -899.000
408.532;  -73.200; -549.000; -542.000
408.659; -107.375; -677.000; -648.000
408.785; -191.025;-1298.000;-1170.000
408.912;  -78.100; -412.000; -296.000
409.039; -108.675; -610.000; -686.000
409.166; -103.975; -591.000; -555.000
409.292; -123.350; -571.000; -534.000
409.419; -114.450; -665.000; -649.000
409.546; -100.150; -431.000; -192.000
409.672; -110.350; -713.000; -545.000
409.799;  -32.225;  -36.000;   34.000
409.926;  -33.450; -180.000; -179.000
410.052; -170.450;-1127.000;-1091.000
410.179;  -49.400; -368.000; -392.000
410.305;  -91.525; -375.000; -493.000
410.432;  -52.425; -220.000; -333.000
410.558; -102.625; -305.000; -380.000
410.685; -109.075; -688.000; -431.000
410.812;  -92.225; -409.000; -588.000
410.938; -148.075; -964.000; -808.000
411.065; -100.500; -671.000; -645.000
411.191;  -13.350; -189.000; -174.000
411.317; -123.825; -823.000; -742.000
411.444;  -65.650; -317.000; -246.000
411.570;  -79.550; -339.000; -294.000
411.697; -114.775; -758.000; -752.000
411.823; -168.075; -989.000; -999.000
411.949;  -43.625;  -56.000;   17.000
412.076; -109.675; -539.000; -519.000
412.202; -118.050; -758.000; -757.000
412.329; -121.750; -798.000; -752.000
412.455; -119.725; -821.000; -657.000
412.581;  -25.050;  -15.000;  172.000
412.707;  -65.325; -540.000; -457.000
412.834;  -11.475;  156.000;  219.000
412.960;  -81.050; -785.000; -784.000
413.086;  -98.400; -743.000; -701.000
413.212;  159.100;  604.000;  578.000
413.339;  -71.500; -685.000; -701.000
413.465;   21.525; -364.000; -310.000
413.591; -100.025; -757.000; -474.000
413.717;  -53.825; -358.000; -366.000
413.843; -133.900; -839.000; -861.000
413.969;  -58.150;  -47.000; -292.000
414.096;  -88.975; -679.000; -679.000
414.222;   -3.225;  -33.000;   85.000
414.348;  -20.825; -652.000; -385.000
414.474;  122.125;   38.000;  -52.000
414.600;  -23.400; -126.000; -144.000
414.726;  -26.250;  -96.000;  -55.000
414.852;  -72.575; -365.000; -342.000
414.978;   40.200;  104.000;  -18.000
415.104;   47.000;   38.000;   80.000
415.230;   22.275; -329.000; -330.000
415.356;   40.575; -409.000; -514.000
415.482;  203.100;   13.000;  -35.000
415.608;  264.825; -247.000; -323.000
415.734;  940.375;   67.000;   38.000
415.860;19275.200; -875.000; -767.000
415.986;14525.750; -685.000; -607.000
416.111; 1249.025; -798.000; -652.000
416.237;  237.050; -424.000; -571.000
416.363; 1045.550; -765.000; -733.000
416.489; 4031.050; -324.000; -251.000
416.615;  432.300; -707.000; -742.000
416.741;  -23.550; -677.000; -784.000
416.866;  -95.875; -673.000; -736.000
416.992; -125.300; -801.000; -818.000
417.118;  -26.100;  -41.000;  -80.000
417.244;  -55.275; -798.000; -531.000
417.369;  -75.100; -801.000; -612.000
417.495;   -1.650; -325.000; -254.000
417.621;  -85.875;-1015.000; -803.000
417.746;    2.875; -579.000; -572.000
417.872;   58.275; -254.000; -144.000
417.998;   54.725; -515.000; -530.000
418.123;  975.650;-1073.000; -845.000
418.249; 5227.675; -512.000; -601.000
418.374;  736.925; -916.000; -824.000
418.500;  105.475; -383.000; -482.000
418.626;  112.775;   70.000;  -59.000
418.751;  107.100; -549.000; -448.000
418.877;  183.575; -637.000; -643.000
419.002; 1708.475; -688.000; -560.000
419.128;12200.625; -930.000; -721.000
419.253; 3051.250; -967.000; -837.000
419.379;  394.875; -391.000; -338.000
419.504;  386.325;  325.000;  415.000
419.629;  485.950; -393.000; -212.000
419.755; 3309.775; -317.000; -254.000
419.880;20181.725;  -98.000;   67.000
420.006;10993.575; -280.000; -221.000
420.131;28707.025; -662.000; -775.000
420.256; 4275.175; -315.000; -316.000
420.382;  548.475; -665.000; -687.000
420.507;   79.850; -649.000; -778.000
420.632;  157.700; -337.000; -339.000
420.758;  289.375; -251.000; -425.000
420.883;  -81.800; -876.000; -672.000
421.008; -105.875; -775.000; -619.000
421.133;  -80.375; -509.000; -467.000
421.259;  -59.000; -325.000; -259.000
421.384; -110.925; -834.000; -693.000
421.509;  -32.900;-1052.000; -862.000
421.634; 1317.225; -936.000; -820.000
421.759;  600.325; -359.000; -327.000
421.885;  -50.800; -717.000; -656.000
422.010;  -76.550; -673.000; -542.000
422.135; -152.975; -695.000; -727.000
422.260;   32.425;  340.000;  280.000
422.385;  -52.575;   12.000;  -98.000
422.510;    0.725;  151.000;  -26.000
422.635;   19.225;  -87.000;  -43.000
422.760;  101.350; -766.000; -791.000
422.885;   69.675;  -57.000;  -80.000
423.010;  -39.825; -112.000; -169.000
423.135;  -98.325; -481.000; -561.000
423.260;   -0.350; -150.000; -245.000
423.385;   63.700;  476.000;  222.000
423.510;   29.825;   71.000;  -22.000
423.635;  100.675;  133.000;   45.000
423.760;   63.150;  383.000;  328.000
423.885;   46.125;  336.000;  391.000
424.010;   19.225;  -68.000;  -13.000
424.135;  -24.175;    5.000;  -33.000
424.259;  -91.250; -654.000; -457.000
424.384;  -72.000; -279.000; -272.000
424.509;  -23.325; -260.000; -186.000
424.634;  -91.575; -761.000; -623.000
424.759;  -26.550; -688.000; -544.000
424.883;  -29.275; -506.000; -527.000
425.008;  168.800; -502.000; -410.000
425.133; 1936.550; -679.000; -653.000
425.258;  948.975; -517.000; -381.000
425.382; 1101.825; -867.000; -774.000
425.507; 2948.400; -487.000; -543.000
425.632;  463.175; -802.000; -663.000
425.756;  435.575; -256.000; -146.000
425.881; 6043.150; -831.000; -857.000
426.006;16879.050; -604.000; -355.000
426.130; 2771.000; -696.000; -508.000
426.255;  347.725; -611.000; -491.000
426.379;  155.850; -189.000; -577.000
426.504;  343.075;  660.000;  544.000
426.629; 3936.975; -519.000; -466.000
426.753; 2795.425;   64.000;  -46.000
426.878;  318.600; -252.000; -288.000
427.002;  131.200; -651.000; -668.000
427.127; 1502.500;  -35.000; -158.000
427.251;10964.475;  372.000;  401.000
427.375; 3258.350; -191.000; -173.000
427.500; 2503.475; -616.000; -610.000
427.624;  914.975; -234.000; -400.000
427.749;   92.950; -216.000; -225.000
427.873;  -28.875; -499.000; -412.000
427.997;  -47.525; -222.000; -230.000
428.122;   77.600;  795.000;  703.000
428.246;   80.575;  433.000;  434.000
428.371; -129.575; -869.000; -773.000
428.495; -101.675; -624.000; -646.000
428.619;  -37.725; -186.000; -117.000
428.743;   11.650;   65.000;  132.000
428.868;   27.350; -732.000; -643.000
428.992; 1584.150; -219.000; -326.000
429.116;  643.925; -329.000; -357.000
429.240;  316.850;  419.000;  426.000
429.365;  -21.975; -454.000; -574.000
429.489;  -38.300; -638.000; -647.000
429.613;   10.150; -236.000; -177.000
429.737;   35.100; -563.000; -432.000
429.861;  251.700; -247.000; -133.000
429.985; 5356.550; -425.000; -305.000
430.109; 6098.775; -770.000; -908.000
430.234;  725.150;   76.000;  -50.000
430.358;   65.875; -250.000; -160.000
430.482;  -54.375; -672.000; -564.000
430.606;  -59.475; -655.000; -375.000
430.730;   15.875; -437.000; -388.000
430.854;  136.425; -909.000; -835.000
430.978;  -63.275; -795.000; -764.000
431.102;  -90.975; -499.000; -422.000
431.226; -123.050; -874.000; -815.000
431.350;   28.225;  345.000;  422.000
431.474;  -77.000; -661.000; -373.000
431.597; -161.850;-1060.000; -848.000
431.721;  -81.650; -276.000; -267.000
431.845; -128.050; -704.000; -472.000
431.969;  -69.325; -304.000; -349.000
432.093;  -82.000; -395.000; -317.000
432.217;  -15.400;   32.000;   82.000
432.341;  -91.725; -523.000; -518.000
432.464;   13.050;   96.000;   40.000
432.588;  229.725; -401.000; -329.000
432.712;  114.325;  -52.000;  -52.000
432.836;   31.750;  213.000;  263.000
432.959;  -18.025; -372.000; -311.000
433.083;   71.100;   11.000;    2.000
433.207;  360.925;  285.000;  930.000
433.330; 4796.650; -391.000; -200.000
433.454; 6146.575; -654.000; -638.000
433.578; 3490.525;  583.000;  278.000
433.701;  675.525; -623.000; -675.000
433.825;  139.375; -292.000; -299.000
433.949;  203.950;   28.000;  -72.000
434.072;   64.725; -410.000; -323.000
434.196;   -8.100; -309.000; -117.000
434.319; 3630.425;25482.000;25124.000
434.443;  725.200; -656.000; -603.000
434.566; 2602.875;  281.000;   62.000
434.690;  439.650; -637.000; -383.000
434.813;   42.175; -251.000; -173.000
434.937;  -83.675; -569.000; -696.000
435.060;  -43.125; -423.000; -332.000
435.184;  373.525; -492.000; -217.000
435.307;  205.950;  159.000;  102.000
435.431;  -17.425;  -40.000;   24.000
435.554;  -77.425; -399.000; -240.000
435.677;  -87.975; -350.000; -258.000
435.801;  -39.050;  -25.000;   49.000
435.924;   -9.850;    1.000;  -67.000
436.048; -107.550;-1019.000; -732.000
436.171;  -78.000; -240.000;  -66.000
436.294;  -29.775; -248.000; -229.000
436.417;   86.650; -963.000; -849.000
436.541;  -88.575; -814.000; -840.000
436.664;  -55.550; -242.000; -316.000
436.787;  -36.575;   13.000;  113.000
436.910; -115.050; -792.000; -422.000
437.034;   -5.900;  142.000;  143.000
437.157;   62.100;  -11.000;    0.000
437.280;  -50.350; -392.000; -292.000
437.403;  -78.700; -982.000; -869.000
437.526;  720.900; -903.000; -865.000
437.649; 2645.825; -505.000; -332.000
437.772;  439.000; -692.000; -540.000
437.896;  130.675;  700.000;  544.000
438.019;  -89.200; -758.000; -503.000
438.142;  -90.775; -596.000; -506.000
438.265;    1.425; -639.000; -670.000
438.388;  639.250; -520.000; -410.000
438.511;  120.900; -597.000; -394.000
438.634;  -37.400; -247.000; -125.000
438.757; -141.650; -693.000; -619.000
438.880;  -28.025;  -34.000;  -57.000
439.003;  -80.050; -417.000; -437.000
439.126;  -67.175; -287.000; -167.000
439.248;  -68.150;  -98.000; -139.000
439.371;  -50.050;    9.000;  -53.000
439.494;   27.900;  510.000;  439.000
439.617;  -55.950;   65.000;  -88.000
439.740; -178.625; -968.000; -816.000
439.863; -133.200; -755.000; -595.000
439.986; -119.225; -476.000; -431.000
440.108;  -51.325; -161.000; -112.000
440.231; -163.375; -950.000; -836.000
440.354;  -48.900;  -64.000; -150.000
440.477;   41.325; -566.000; -542.000
440.599;   20.350; -200.000; -225.000
440.722; -114.350; -709.000; -586.000
440.845;   73.500;  751.000;  928.000
440.968; -106.725; -415.000; -311.000
441.090;  -65.025; -199.000;  -33.000
441.213; -170.600;-1021.000; -825.000
441.336;  -54.600; -159.000;   -5.000
441.458;  -81.925; -549.000; -396.000
441.581;  -87.500; -628.000; -629.000
441.703;  -74.825; -152.000;   13.000
441.826; -118.250; -557.000; -400.000
441.948;  -48.250;   56.000;   51.000
442.071;   15.525;  555.000;  424.000
442.193; -112.600; -531.000; -485.000
442.316;   13.625;  152.000;   97.000
442.438;   50.250; -233.000;  -10.000
442.561;   81.825;  272.000;  262.000
442.683;  625.650; -809.000; -522.000
442.806; 1344.025;   -8.000;   74.000
442.928;   66.400; -859.000; -604.000
443.051;  -65.450; -577.000; -373.000
443.173;  -98.075; -341.000; -339.000
443.295;  -88.250; -263.000; -371.000
443.418;  -66.425; -321.000;  -29.000
443.540;  -20.050; -106.000;   -4.000
443.662; -122.300; -563.000; -465.000
443.785;  -23.050;  335.000;  199.000
443.907; -101.575; -362.000; -208.000
444.029; -136.600; -767.000; -494.000
444.152; -157.075; -644.000; -554.000
444.274;  -40.675;  -18.000;  -24.000
444.396; -124.650; -461.000; -221.000
444.518; -138.750; -691.000; -454.000
444.640;  -98.675; -268.000; -111.000
444.763;  -26.025;  388.000;  249.000
444.885; -123.325; -432.000; -392.000
445.007;  -35.200;   35.000;   86.000
445.129; -123.400; -610.000; -515.000
445.251;  -96.700; -372.000; -439.000
445.373; -129.950; -537.000; -386.000
445.495;   -6.100;  242.000;  350.000
445.617;   41.550;  853.000;  753.000
445.739;  -59.375; -215.000;  -97.000
445.861;  -21.625; -245.000; -112.000
445.984;  -20.025; -267.000; -101.000
446.105;  215.600; -418.000; -251.000
446.227;  693.350; -176.000;  -19.000
446.349;   23.975; -358.000; -249.000
446.471;  -99.250; -615.000; -448.000
446.593;  -53.750; -316.000;   19.000
446.715;    8.725;  -67.000;   41.000
446.837;   47.050;  697.000;  832.000
446.959; -110.275; -457.000; -478.000
447.081; -140.125; -628.000; -518.000
447.203;   54.550;  862.000;  834.000
447.325;  -87.125; -270.000;   42.000
447.446;  -14.750;  286.000;  530.000
447.568; -155.650; -921.000; -803.000
447.690;  -82.950; -236.000; -245.000
447.812; -154.850; -798.000; -519.000
447.933;  -34.700;  155.000;  127.000
448.055;  -81.125; -306.000; -261.000
448.177;  156.375;   31.000;   79.000
448.299;  127.025; -935.000; -727.000
448.420;   19.200;  -25.000;  159.000
448.542;  -57.650;   -3.000;   33.000
448.664;  -17.600;  109.000;  322.000
448.785;  -59.250;  265.000;   83.000
448.907;  -81.600; -614.000; -353.000
449.028;  -34.825; -771.000; -471.000
449.150;   51.725;  492.000;  589.000
449.272; -182.975;-1044.000; -913.000
449.393;   24.625;  612.000;  694.000
449.515; -149.075; -634.000; -581.000
449.636;  -54.200; -264.000; -155.000
449.758;   77.575;  763.000;  622.000
449.879; -103.475; -498.000; -396.000
450.001;  -89.275; -149.000;  -49.000
450.122;  -39.300;  -95.000;  162.000
450.244;  -28.775;   37.000;  364.000
450.365; -102.950; -495.000; -301.000
450.486;  -40.975;   80.000;  268.000
450.608;    3.225;  393.000;  326.000
450.729;   57.100;  578.000;  645.000
450.850;    5.300; -574.000; -466.000
450.972;  688.000; -552.000; -389.000
451.093; 4650.650;  190.000;  588.000
451.214; 2081.500; -516.000; -337.000
451.336;  379.450;  773.000;  579.000
451.457;   58.275;  264.000;  393.000
451.578;  -48.325; -118.000;  -74.000
451.699; -125.450; -546.000; -540.000
451.821;  -66.650; -284.000;  -50.000
451.942;  -11.850;  278.000;  285.000
452.063;   20.725;  228.000;  419.000
452.184;  515.475;  -54.000;  -49.000
452.305; 1077.650;  103.000;  170.000
452.427;  129.575; -549.000; -301.000
452.548;  -28.975;   23.000;   79.000
452.669;  -55.900; -257.000;  -89.000
452.790;  -32.450;    3.000;  -18.000
452.911;   -3.075;  195.000;  259.000
453.032;  -58.850; -289.000;  -60.000
453.153;  -52.250;  -29.000;   81.000
453.274;   69.625;  737.000;  868.000
453.395;  -57.925;  -51.000;  175.000
453.516;  115.450; 1317.000; 1388.000
453.637;  -70.150; -205.000; -150.000
453.758;  -62.825;   15.000;   69.000
453.879; -125.825; -462.000; -250.000
454.000;   73.475; 1086.000;  948.000
454.121; -109.900; -554.000; -326.000
454.242; -113.800; -599.000; -383.000
454.362;  -75.525;  -99.000;  114.000
454.483;  -50.600; -309.000; -229.000
454.604;   59.800;  512.000;  580.000
454.725; -130.400; -627.000; -555.000
454.846; -118.750; -474.000; -406.000
454.967;  -30.925;  230.000;  539.000
455.087;  -41.275;  179.000;  153.000
455.208;   -1.025;  554.000;  856.000
455.329;  -68.775;  -22.000;   82.000
455.450;   28.400;  473.000;  633.000
455.570; -100.425; -234.000; -211.000
455.691;  -43.075;  201.000;  407.000
455.812; -128.375; -270.000;  -92.000
455.932;  -74.775;  107.000;  -97.000
456.053;  -96.250;   36.000;   24.000
456.173; -114.175; -433.000; -355.000
456.294; -139.600; -476.000; -303.000
456.415;  -65.725;  -73.000;   70.000
456.535;  -41.650;  297.000;  273.000
456.656;  -56.700;  132.000;  240.000
456.776;  -77.550;    3.000;  298.000
456.897;    6.300;  308.000;  513.000
457.017;  -69.475; -153.000;   -3.000
457.138; -118.475; -402.000; -249.000
457.258;  -31.025;  263.000;  224.000
457.379;   -9.850;  509.000;  521.000
457.499;  -30.325;  443.000;  432.000
457.620; -123.400; -407.000; -231.000
457.740; -107.600; -132.000;  -11.000
457.860;  -61.350;   87.000;   44.000
457.981;  -56.375;  132.000;  124.000
458.101;  -72.000;  -89.000;   40.000
458.221;   -8.925;  336.000;  402.000
458.342;  -62.675;   -4.000;  -37.000
458.462;   -1.000;  617.000;  352.000
458.582;  -58.775; -302.000; -294.000
458.703;    2.850;  303.000;  154.000
458.823;  -25.825;   22.000;  163.000
458.943;   17.100;  341.000;  467.000
459.063;  -25.650; 1124.000;  192.000
459.183;  -28.600;  328.000;  313.000
459.304;   -0.975;  315.000;  517.000
459.424;  -70.250; -246.000;  -89.000
459.544;  308.925;  388.000;  764.000
459.664;  808.100;  499.000;  506.000
459.784;  301.900; 1004.000; 1175.000
459.904;   52.400;  867.000;  744.000
460.024;   69.100;  867.000;  684.000
460.144;    9.325;  449.000;  554.000
460.264;   -4.950;  515.000;  327.000
460.385; -112.325; -145.000; -119.000
460.505;   37.200;  905.000;  858.000
460.625;  -94.850;  -17.000;  -68.000
460.745;  -28.475;  396.000;  541.000
460.864;  -63.900;  153.000;  469.000
460.984;    5.725;  499.000;  573.000
461.104;  146.175; 1656.000; 1775.000
461.224;   22.425;  657.000;  650.000
461.344;  -31.250;  431.000;  360.000
461.464;  -14.400;  258.000;  513.000
461.584;  -17.800;  283.000;  466.000
461.704;  -52.975;   58.000;  108.000
461.824;  -61.300;  238.000;  259.000
461.943;  -42.300;  191.000;  130.000
462.063;  -86.475;    2.000;  324.000
462.183;   27.450;  639.000;  717.000
462.303;  108.350; 1678.000; 1230.000
462.422;   33.975;  781.000;  840.000
462.542;  -44.800;  271.000;  391.000
462.662;   36.375;  353.000;  380.000
462.782;  223.800;  833.000;  572.000
462.901;  466.925;  545.000;  717.000
463.021;  283.050; 1702.000; 1638.000
463.141;  -13.150;  337.000;  770.000
463.260;  -18.725;  614.000;  474.000
463.380;    8.975;  902.000;  884.000
463.499;  -42.175;  342.000;  332.000
463.619;  -47.350;  581.000;  559.000
463.738;  114.625; 1644.000;  903.000
463.858;    8.300;  657.000;  811.000
463.978;  -13.150;  542.000;  396.000
464.097;   47.100;  921.000; 1114.000
464.217;  106.450; 1196.000; 1143.000
464.336;  106.350; 1068.000; 1130.000
464.455;  -40.125;  328.000;  659.000
464.575;   38.775;  597.000;  602.000
464.694;  174.375; 1204.000; 1179.000
464.814;  128.225; 1190.000; 1138.000
464.933;   73.325; 1095.000; 1027.000
465.052;   95.525; 1412.000; 1054.000
465.172;   90.575;  922.000;  799.000
465.291;  134.050; 1376.000; 1320.000
465.410;   11.350;  462.000;  735.000
465.530;   87.450; 1355.000; 1310.000
465.649;   56.300; 1209.000; 1273.000
465.768;  140.225; 1673.000; 1508.000
465.888;   47.075;  941.000; 1174.000
466.007;  105.300; 1335.000; 1440.000
466.126;   -9.150;  721.000;  641.000
466.245;   31.200; 1176.000; 1187.000
466.364;   25.275;  950.000; 1060.000
466.484;   46.200; 1024.000; 1213.000
466.603;   37.925; 1101.000; 1222.000
466.722;  111.650; 1490.000; 1769.000
466.841;   67.725; 1151.000; 1401.000
466.960;   31.175; 1069.000;  972.000
467.079;  122.200; 1971.000; 1786.000
467.198;   46.150; 1238.000; 1181.000
467.317;   73.800; 1768.000; 1162.000
467.436;   60.675; 1709.000; 1261.000
467.555;  123.025; 1796.000; 1746.000
467.674;   73.425; 1227.000; 1329.000
467.793;   36.075; 1376.000; 1374.000
467.912;   92.050; 1658.000; 1539.000
468.031;  116.300; 2038.000; 1930.000
468.150;  158.750; 1842.000; 1837.000
468.269;  182.675; 2313.000; 2090.000
468.388;  181.350; 2168.000; 2339.000
468.507;  239.550; 2884.000; 2903.000
468.626;  274.925; 2555.000; 2541.000
468.744;  147.600; 2018.000; 2174.000
468.863;  178.300; 2312.000; 2523.000
468.982;   96.400; 1503.000; 1555.000
469.101;  225.075; 2788.000; 2692.000
469.220;  162.750; 2333.000; 2176.000
469.338;  241.000; 2935.000; 3051.000
469.457;  190.050; 2719.000; 2545.000
469.576;  345.125; 3953.000; 3784.000
469.695;  231.325; 2877.000; 3066.000
469.813;  434.700; 4148.000; 4192.000
469.932;  409.450; 4255.000; 4485.000
470.051;  413.800; 4075.000; 4161.000
470.169;  828.600; 4470.000; 4338.000
470.288; 1448.450; 4700.000; 4809.000
470.406;  860.425; 5059.000; 5194.000
470.525;  640.000; 6101.000; 5787.000
470.644;  633.500; 6847.000; 6794.000
470.762;  830.900; 8397.000; 7873.000
470.881;  917.000; 8651.000; 8464.000
470.999; 1021.775; 9685.000; 9151.000
471.118; 1099.075;11174.000;10711.000

