
Integration time [ms]: 100.000
Averaging Nr. [scans]: 40
Smoothing Nr. [pixels]: 0
Data measured with spectrometer [name]: 2101012U2
Wave   ;Sample   ;Dark     ;Reference
[nm]   ;[counts] ;[counts] ;[counts] 

197.733;   45.325;  516.000;  404.000
197.879;  -82.850; -610.000; -634.000
198.025;  -47.550; -475.000; -420.000
198.171;  -76.500; -602.000; -612.000
198.317;  -35.125; -401.000; -316.000
198.463;  -61.100; -655.000; -404.000
198.609;   27.450;  181.000; -137.000
198.755;  -81.725; -644.000; -410.000
198.901;  -59.025; -505.000; -424.000
199.047;  -68.075; -615.000; -488.000
199.193;  -38.325; -230.000; -468.000
199.339;  -35.600; -222.000; -369.000
199.485;   31.050;  330.000;  271.000
199.631;   26.425;  227.000;  310.000
199.777;  -54.250; -466.000; -398.000
199.923;  -54.675; -610.000; -424.000
200.069;   -0.600; -141.000;  -58.000
200.215;   54.975;  128.000;  453.000
200.361;   43.100;  243.000;  477.000
200.507;  -60.550; -600.000; -373.000
200.653;  -39.800; -371.000; -194.000
200.798;  -39.375; -215.000; -125.000
200.944;   -4.125; -146.000;  -41.000
201.090;   41.150;   61.000;  222.000
201.236;  -18.050; -116.000; -158.000
201.382;  124.675;  874.000;  903.000
201.528;   -2.325;  -58.000;  -48.000
201.674;  -32.700; -386.000; -293.000
201.819;  -64.200; -540.000; -439.000
201.965;  -81.650; -699.000; -447.000
202.111;  -23.875; -273.000; -226.000
202.257;  -38.325; -250.000; -238.000
202.402;    1.900;   13.000;  -36.000
202.548;  -25.875; -169.000; -116.000
202.694;   86.275;  410.000; -183.000
202.840;  -78.350; -603.000; -531.000
202.985;  -83.900; -681.000; -639.000
203.131; -114.175; -832.000; -666.000
203.277;  -25.675; -199.000; -262.000
203.423;  -71.775; -434.000; -520.000
203.568;  -44.875; -462.000; -237.000
203.714;  -49.450; -535.000; -542.000
203.860;  -84.675; -682.000; -641.000
204.005;    9.075;  112.000;  167.000
204.151;   74.925;  561.000;  556.000
204.296;  -49.100; -354.000; -221.000
204.442;  -84.675; -600.000; -547.000
204.588;  -78.150; -592.000; -579.000
204.733;   19.375;  178.000;  168.000
204.879; -130.600;-1018.000; -822.000
205.025;    1.175;  -99.000;  126.000
205.170;   -6.375;  -17.000;   94.000
205.316;   79.675;  438.000;  661.000
205.461;  -86.725; -698.000; -554.000
205.607;   70.600;  609.000;  665.000
205.752;  -80.800; -626.000; -551.000
205.898;  -57.600; -501.000; -391.000
206.043;  -70.000; -578.000; -506.000
206.189;  -46.425; -243.000; -285.000
206.334;   79.950;  554.000;  606.000
206.480;   86.725;  409.000;  239.000
206.625;  -76.975; -529.000; -552.000
206.771;  -37.150; -451.000; -373.000
206.916;  -24.675; -210.000; -537.000
207.062;  -69.500; -545.000; -591.000
207.207;  -74.250; -546.000; -443.000
207.353;   54.025;  185.000;  460.000
207.498;    5.775;  196.000;   85.000
207.643;  -61.150; -501.000; -370.000
207.789; -121.175;-1069.000; -910.000
207.934; -105.625; -665.000; -713.000
208.080;  -25.675; -154.000;   66.000
208.225;   -1.325;  -22.000;  -57.000
208.370;  -99.650; -727.000; -619.000
208.516;  -78.475; -741.000; -487.000
208.661;  -23.900; -127.000;  -69.000
208.806;  -25.225; -165.000; -171.000
208.952; -126.575;-1044.000; -731.000
209.097;   68.075;  378.000;  349.000
209.242;  -53.250; -307.000; -382.000
209.387;   50.575;  392.000;  350.000
209.533;  -59.650; -321.000; -350.000
209.678;   74.425;  472.000;  543.000
209.823;  -61.450; -408.000; -310.000
209.969; -101.100; -860.000; -757.000
210.114; -110.500; -907.000; -719.000
210.259; -111.325; -939.000; -889.000
210.404;  -11.450; -171.000;  103.000
210.549;    1.450;  108.000;    3.000
210.695;   -7.775;   -3.000;  -95.000
210.840;   40.750;   94.000;   67.000
210.985;  -44.750; -484.000; -303.000
211.130;   52.300;  268.000;  406.000
211.275;   18.075;  207.000;  199.000
211.420;  -60.850; -300.000; -289.000
211.566;  -75.575; -536.000; -489.000
211.711;   15.550;  218.000;  157.000
211.856;  -61.775; -545.000; -519.000
212.001;    4.225;  151.000;   44.000
212.146;   28.250;  153.000;   49.000
212.291;  -33.025; -210.000; -186.000
212.436;  -34.875; -280.000;   -6.000
212.581;  -82.850; -685.000; -653.000
212.726;  -76.025; -487.000; -538.000
212.871;  -56.475; -552.000; -217.000
213.016; -159.225;-1172.000;-1029.000
213.161;   56.250;  406.000;  291.000
213.306;  -66.225; -435.000; -577.000
213.451;  -90.975; -778.000; -689.000
213.596;  -50.200; -455.000; -347.000
213.741;  -61.700; -448.000; -538.000
213.886;  -71.300; -498.000; -517.000
214.031;  -32.550; -294.000; -124.000
214.176;  -51.600; -408.000; -341.000
214.321;  -18.075; -296.000; -157.000
214.466;  -35.225; -163.000;  -43.000
214.611;   -0.800;  -61.000;  -10.000
214.756; -123.575; -948.000; -858.000
214.901;  -19.225; -388.000; -226.000
215.046; -125.025; -797.000; -825.000
215.191;   13.700;  128.000;   35.000
215.336;  -17.100; -157.000;  -19.000
215.480;  -77.950; -684.000; -505.000
215.625;  -11.150; -175.000;  -19.000
215.770; -103.050; -757.000; -662.000
215.915;   -7.700;   -5.000;  -97.000
216.060;  -19.150; -113.000;  -21.000
216.205; -114.475; -731.000; -779.000
216.349;  -65.375; -470.000; -533.000
216.494; -136.950; -939.000; -867.000
216.639; -111.550; -823.000; -888.000
216.784;  -82.250; -577.000; -525.000
216.929;   54.025;  392.000;  281.000
217.073;  -11.625; -244.000;  -31.000
217.218;    5.000;   78.000;  -47.000
217.363;  -79.550; -656.000; -618.000
217.507;  -70.425; -623.000; -588.000
217.652; -125.425; -845.000; -874.000
217.797; -106.250; -708.000; -659.000
217.942; -114.400; -856.000; -720.000
218.086;   62.400;  608.000;  539.000
218.231;  -16.825; -174.000;  -26.000
218.376;  -35.375; -337.000; -229.000
218.520;    1.825;  -41.000;   96.000
218.665;  -25.875; -338.000; -204.000
218.810;  -39.300; -275.000; -233.000
218.954;   12.900;  201.000;   35.000
219.099; -117.700; -713.000; -963.000
219.243;  -81.450; -589.000; -554.000
219.388;  -31.225; -264.000; -136.000
219.532;  -26.525; -116.000; -116.000
219.677;  -74.400; -564.000; -521.000
219.822;    3.825;   33.000;   89.000
219.966;   -0.275;   17.000;  -99.000
220.111;  -34.325; -328.000;  -40.000
220.255; -104.575; -797.000; -750.000
220.400;  -22.050; -180.000; -146.000
220.544;  -76.225; -516.000; -450.000
220.689;  -52.900; -422.000; -451.000
220.833;   -9.725; -123.000;  -58.000
220.978;  -39.700; -393.000; -563.000
221.122;   17.325;  319.000;  307.000
221.267; -104.675; -906.000; -837.000
221.411;  -71.725; -478.000; -394.000
221.555;   -8.625; -104.000;  -23.000
221.700;  -33.275; -329.000; -222.000
221.844;   22.550;  255.000;  272.000
221.989;  -49.325; -328.000; -311.000
222.133;  -26.875; -289.000; -307.000
222.277;  -16.575;    5.000;   78.000
222.422;   22.850;  227.000;  113.000
222.566;  -38.375; -381.000; -214.000
222.711;  -70.425; -414.000; -479.000
222.855;  -93.600; -643.000; -586.000
222.999;  -92.900; -642.000; -717.000
223.144;  -21.200; -195.000; -194.000
223.288;   48.875;  423.000;  251.000
223.432;   22.400;  184.000;  230.000
223.576;   24.725;  152.000;  -21.000
223.721;   38.900;  364.000;  273.000
223.865;  -57.575; -472.000; -475.000
224.009;  246.225; 1673.000; 1631.000
224.153;  -99.425; -660.000; -671.000
224.298;  -69.525; -531.000; -489.000
224.442;  -14.700;  -74.000;  -33.000
224.586;  -25.225; -169.000; -106.000
224.730;  -93.450; -858.000; -670.000
224.875; -109.800; -739.000; -688.000
225.019;    5.675;  102.000;  188.000
225.163;   49.500;  208.000;  341.000
225.307;   10.750;   97.000;  -91.000
225.451;   37.025;  360.000;  481.000
225.595;   27.925;  264.000;  176.000
225.739;  -18.600; -170.000;  -94.000
225.884;    3.550;   86.000;    5.000
226.028; -106.550; -760.000; -626.000
226.172;  -32.825; -260.000; -273.000
226.316; -127.275; -941.000; -902.000
226.460;  -70.825; -645.000; -493.000
226.604;  -52.300; -406.000; -400.000
226.748; -105.375; -836.000; -733.000
226.892;  -38.225; -227.000; -181.000
227.036;  -61.875; -537.000; -447.000
227.180;  -56.250; -551.000; -375.000
227.324;  -77.125; -561.000; -580.000
227.468; -120.550; -819.000; -717.000
227.612;   10.625;  242.000;  -28.000
227.756; -108.800; -845.000; -698.000
227.900;   34.075;  342.000;  441.000
228.044;  -76.250; -509.000; -290.000
228.188;   55.750;  448.000;  568.000
228.332;  -87.600; -546.000; -472.000
228.476;  -27.500; -223.000; -149.000
228.620;  -31.500; -210.000; -150.000
228.764;   51.175;  431.000;  349.000
228.908;  -16.950; -155.000;   30.000
229.052;  -69.475; -615.000; -528.000
229.195;  -28.125; -172.000;   13.000
229.339;  -28.075; -235.000; -305.000
229.483;  -27.225;    5.000; -162.000
229.627;  -18.525; -156.000;  139.000
229.771;  -58.975; -218.000; -294.000
229.915;   16.050;  230.000;   79.000
230.059;  -86.000; -648.000; -663.000
230.202;  -35.375; -370.000; -317.000
230.346;  -12.375; -107.000;  107.000
230.490;  -75.850; -489.000; -521.000
230.634; -114.775; -736.000; -553.000
230.777;   77.925;  478.000;  509.000
230.921;  -58.425; -450.000; -359.000
231.065;  -44.175; -246.000; -286.000
231.209;   37.275;  261.000;  265.000
231.352;   13.250;   54.000;   40.000
231.496;   18.125;  568.000;  188.000
231.640;  -90.900; -693.000; -621.000
231.783;   61.050;  546.000;  525.000
231.927;  -41.225; -294.000; -365.000
232.071; -124.550; -962.000; -736.000
232.214; -114.775; -980.000; -764.000
232.358; -110.300; -683.000; -599.000
232.502;  -10.125;  -19.000;    7.000
232.645; -142.650;-1090.000; -927.000
232.789;  -27.200; -257.000; -218.000
232.933;  -48.850; -407.000; -224.000
233.076; -129.125;-1038.000; -897.000
233.220; -112.075; -752.000; -777.000
233.363;  -87.000; -669.000; -477.000
233.507;   52.075;  371.000;  129.000
233.650; -102.600; -764.000; -834.000
233.794;   33.900;  438.000;  461.000
233.938;  -52.200; -530.000; -362.000
234.081;  -19.075;  -93.000;   31.000
234.225;  -78.600; -631.000; -539.000
234.368; -111.450; -773.000; -723.000
234.512;  -39.775; -385.000; -299.000
234.655;  -88.300; -582.000; -555.000
234.798;  -64.075; -493.000; -466.000
234.942; -137.300; -884.000;-1002.000
235.085;  -88.750; -651.000; -443.000
235.229;  -67.700; -405.000; -410.000
235.372;  -39.475; -247.000; -191.000
235.516;  -47.625; -397.000; -321.000
235.659;    9.875;   92.000;  121.000
235.802;  -21.825;  -38.000;  -22.000
235.946;   28.200;  335.000;  215.000
236.089;   26.925;  126.000;  250.000
236.233;   48.325;  275.000;  298.000
236.376;  -44.125; -235.000; -378.000
236.519;  -46.000; -297.000; -319.000
236.663;  -34.150; -215.000; -117.000
236.806; -141.625;-1029.000; -999.000
236.949;   50.400;  543.000;  431.000
237.092;   47.825;  412.000;  391.000
237.236;  -86.075; -589.000; -502.000
237.379;   56.200;  352.000;  428.000
237.522; -123.150; -879.000; -768.000
237.666;  -24.000; -271.000;   18.000
237.809; -122.050; -851.000; -823.000
237.952;   36.425;  469.000;  271.000
238.095;  -79.925; -447.000; -442.000
238.238;   86.300;  688.000;  700.000
238.382;    1.775;  166.000;  103.000
238.525;  -74.325; -598.000; -511.000
238.668; -151.675;-1060.000; -985.000
238.811;  -72.325; -638.000; -643.000
238.954;  -62.500; -483.000; -334.000
239.097;   78.075;  617.000;  664.000
239.241;   14.450;  394.000;  326.000
239.384;  -44.150; -254.000; -214.000
239.527;  -75.925; -424.000; -224.000
239.670; -143.375; -994.000;-1091.000
239.813; -105.175; -696.000; -658.000
239.956;   73.850;  579.000;  473.000
240.099; -105.450; -778.000; -725.000
240.242;   61.125;  428.000;  432.000
240.385;   41.100;  466.000;  450.000
240.528;  -74.700; -706.000; -473.000
240.671;   22.775;  189.000;  134.000
240.814;  -46.525; -441.000; -158.000
240.957; -103.400; -767.000; -578.000
241.100;  -96.025; -779.000; -755.000
241.243; -145.925;-1234.000; -893.000
241.386;  -72.600; -508.000; -379.000
241.529;  -85.350; -735.000; -547.000
241.672;  -70.300; -566.000; -495.000
241.815; -125.625; -832.000; -808.000
241.958;  -27.400; -125.000; -182.000
242.101;  -89.325; -545.000; -390.000
242.244;  -47.250; -270.000; -325.000
242.387;  -41.125; -304.000; -246.000
242.530;   66.450;  470.000;  134.000
242.673;  -55.800; -381.000; -309.000
242.815; -116.975; -925.000; -899.000
242.958;  -59.325; -482.000; -381.000
243.101;    1.625;  132.000;  187.000
243.244; -103.975; -564.000; -521.000
243.387;  -54.550; -313.000; -316.000
243.530;  -86.700; -657.000; -674.000
243.672;  -10.800;   43.000;  -92.000
243.815;  -57.250; -355.000; -283.000
243.958;  -12.675;   98.000;  -26.000
244.101;    8.600;   59.000;  -16.000
244.243;  -18.550;  -47.000;  101.000
244.386; -114.100; -761.000; -630.000
244.529;  -25.600; -132.000; -139.000
244.672; -159.725;-1154.000; -951.000
244.814; -101.125; -621.000; -794.000
244.957;  -63.925; -380.000; -304.000
245.100;  -82.150; -489.000; -489.000
245.242;  -63.125; -387.000; -374.000
245.385;   -4.525;  -59.000;  -39.000
245.528; -130.625; -871.000; -705.000
245.670;   87.725;  612.000;  634.000
245.813;  -95.950; -599.000; -547.000
245.956;  -32.800; -324.000; -275.000
246.098;  -81.975; -508.000; -650.000
246.241;   11.025;  194.000;   48.000
246.383;  -17.150; -119.000;  -73.000
246.526;  -68.225; -454.000; -525.000
246.669; -127.625; -889.000; -780.000
246.811;    6.725;  172.000;   -1.000
246.954;  -65.900; -512.000; -426.000
247.096;  -32.325;  -84.000;   -6.000
247.239;  -72.050; -482.000; -445.000
247.381;  -74.600; -647.000; -488.000
247.524;   78.425;  645.000;  679.000
247.666;  -17.950;   58.000;   11.000
247.809; -133.725; -887.000; -691.000
247.951;  -12.625;  -75.000;  138.000
248.094;   22.175;  432.000;  308.000
248.236; -159.375;-1262.000;-1238.000
248.378;   18.650; -356.000;  -81.000
248.521;  -24.300; -334.000; -337.000
248.663;  -41.525; -236.000; -267.000
248.806;  -33.950; -300.000; -266.000
248.948; -101.425; -886.000; -763.000
249.090;  -37.725; -428.000; -398.000
249.233;  -44.750; -344.000; -381.000
249.375;  -65.325; -474.000; -451.000
249.518;  -24.700;  -83.000; -133.000
249.660;   -7.300; -103.000;    3.000
249.802; -184.100;-1303.000;-1189.000
249.945;  -68.925; -612.000; -540.000
250.087; -118.725; -834.000; -768.000
250.229;  -52.450; -362.000; -480.000
250.371;  -73.425; -494.000; -439.000
250.514;  -44.950; -310.000; -244.000
250.656;  -74.850;   69.000;  102.000
250.798; -112.400; -849.000; -800.000
250.940;  -61.925; -322.000; -322.000
251.083;  -46.000; -335.000; -111.000
251.225;   53.475;  338.000;  310.000
251.367;  -44.650; -274.000; -373.000
251.509;  -43.425; -265.000; -210.000
251.651;  -93.725; -731.000; -671.000
251.794;   54.850;  538.000;  632.000
251.936; -106.550; -821.000; -747.000
252.078;  -77.925; -540.000; -461.000
252.220;  -76.050; -645.000; -477.000
252.362;   93.050;  344.000;  462.000
252.504;  -66.350; -677.000; -584.000
252.646; -124.375; -875.000; -722.000
252.788;  -11.750;   14.000; -128.000
252.931;  -25.225; -257.000; -253.000
253.073;  -44.225; -376.000; -317.000
253.215;    3.125;  141.000;  122.000
253.357;   -5.650;   82.000; -153.000
253.499;  -61.250; -374.000; -234.000
253.641;  -91.825; -749.000; -594.000
253.783;  -94.200; -609.000; -527.000
253.925; -109.825; -586.000; -591.000
254.067; -108.775; -744.000; -667.000
254.209;  -33.000; -391.000; -259.000
254.351; -137.675; -865.000; -883.000
254.493;  -65.475; -441.000; -417.000
254.635; -136.625; -936.000; -818.000
254.777;  -83.600; -752.000; -687.000
254.918;  -54.400; -512.000; -430.000
255.060;  -55.925; -551.000; -395.000
255.202;  -71.950; -473.000; -261.000
255.344;  -87.750; -658.000; -455.000
255.486;  -81.250; -471.000; -406.000
255.628; -115.825; -780.000; -781.000
255.770;  -92.775; -676.000; -536.000
255.912;  -64.500; -559.000; -468.000
256.053; -101.125; -730.000; -508.000
256.195;  163.350; 1008.000;  903.000
256.337; -108.675; -861.000; -595.000
256.479;   57.825;  532.000;  416.000
256.621;  -53.075; -394.000; -212.000
256.762; -103.100; -789.000; -742.000
256.904;   55.950;  485.000;  487.000
257.046;  -45.275; -381.000; -271.000
257.188;  -41.350; -351.000; -264.000
257.329;  -81.700; -525.000; -464.000
257.471; -123.850; -939.000; -807.000
257.613;  -79.700; -584.000; -498.000
257.755; -159.325;-1073.000; -982.000
257.896;   18.425;  286.000;  392.000
258.038;  -68.025; -403.000; -352.000
258.180;  -46.000; -354.000; -279.000
258.321; -100.050; -581.000; -457.000
258.463;   -0.450;  -71.000;  133.000
258.605;  -88.225; -562.000; -570.000
258.746; -116.675; -886.000; -772.000
258.888; -163.675;-1026.000;-1020.000
259.029;   21.600;  121.000;   -8.000
259.171;  -82.100; -614.000; -550.000
259.313;  -16.625;  -49.000;  -47.000
259.454;  -65.125; -536.000; -414.000
259.596;  -64.150; -483.000; -390.000
259.737;  -68.925; -590.000; -474.000
259.879;   55.025;  217.000;  311.000
260.020;  106.275;  901.000;  636.000
260.162;  -30.450; -146.000; -253.000
260.303; -119.200; -768.000; -687.000
260.445;  -92.450; -609.000; -613.000
260.586;   19.375;  392.000;  157.000
260.728;  -39.150; -360.000; -248.000
260.869;  -66.375; -350.000; -343.000
261.011;   76.125;  706.000;  537.000
261.152;  -66.875; -479.000; -319.000
261.293;  -85.875; -576.000; -595.000
261.435;  -27.025; -219.000; -184.000
261.576;  -56.225; -455.000; -325.000
261.718;   59.825;  420.000;  470.000
261.859; -129.775; -940.000; -949.000
262.000; -129.325; -951.000;-1016.000
262.142;  -38.825;  -52.000;  -60.000
262.283; -107.775; -808.000; -691.000
262.424;  -87.300; -666.000; -625.000
262.566; -148.475;-1161.000; -983.000
262.707; -114.050; -840.000; -830.000
262.848; -129.850; -769.000; -726.000
262.990;  -55.700; -362.000; -345.000
263.131;   79.475;  650.000;  681.000
263.272;  -16.725;  -61.000;  -41.000
263.413;  -83.675; -589.000; -561.000
263.555;  -70.325; -669.000; -143.000
263.696;  -77.975; -550.000; -641.000
263.837;  -57.650; -449.000; -551.000
263.978;  -10.025;   -5.000;  -77.000
264.119;  -56.900; -283.000; -264.000
264.261; -124.425; -847.000; -630.000
264.402;  -12.050;   33.000;   40.000
264.543;  -74.100; -509.000; -524.000
264.684;  -12.800;   61.000;  -50.000
264.825;  -72.200; -816.000; -538.000
264.966;   -8.250;  -84.000;  -67.000
265.107; -119.900; -646.000; -670.000
265.248; -116.500; -825.000; -812.000
265.390;  -11.200;  152.000;   -9.000
265.531;  -35.325; -238.000; -107.000
265.672;  -98.100; -557.000; -630.000
265.813;   57.475;  563.000;  439.000
265.954; -147.100; -959.000; -940.000
266.095;   -6.525; -372.000; -322.000
266.236; -103.575; -686.000; -548.000
266.377;  -44.425; -243.000; -297.000
266.518;  -70.325; -619.000; -547.000
266.659;   26.450;  170.000;  268.000
266.800;   11.650;   83.000;   85.000
266.941;  -78.475; -487.000; -478.000
267.082;   28.450;  354.000;   99.000
267.223;  -53.975; -344.000; -273.000
267.364; -123.425; -892.000; -686.000
267.504;  -11.325;    3.000;  135.000
267.645;   -6.000;  160.000;   67.000
267.786;  -21.025; -147.000;  -86.000
267.927;  -66.000; -473.000; -379.000
268.068;   -7.750; -186.000;  -61.000
268.209;  -49.050; -175.000; -413.000
268.350;  -63.700; -388.000; -532.000
268.490;  -85.450; -648.000; -521.000
268.631;   17.725;  127.000;  225.000
268.772; -100.600; -874.000; -647.000
268.913;  -52.125; -328.000; -476.000
269.054;   -9.375; -117.000;   12.000
269.194;  -50.475; -418.000; -402.000
269.335; -158.100;-1137.000;-1074.000
269.476;  -20.575;   33.000;  -35.000
269.617;  -50.500; -347.000; -392.000
269.757;  -80.125; -713.000; -646.000
269.898; -102.675; -856.000; -613.000
270.039;  -58.700; -415.000; -405.000
270.180; -135.900; -952.000; -816.000
270.320;  -22.275; -190.000; -250.000
270.461;  -28.950; -277.000; -249.000
270.602;  -18.375; -186.000; -156.000
270.742; -132.625; -868.000; -943.000
270.883;  -65.350; -442.000; -390.000
271.023;  -62.825; -358.000; -357.000
271.164;  -74.300; -607.000; -528.000
271.305; -103.975; -666.000; -654.000
271.445;  -96.850; -722.000; -683.000
271.586;  -76.250; -462.000; -283.000
271.726;  -45.175; -397.000; -322.000
271.867;  -50.400; -594.000; -534.000
272.008;  203.675; -473.000; -285.000
272.148;  152.000;  462.000;  468.000
272.289;   24.925; -113.000; -181.000
272.429;   25.175;   19.000;  185.000
272.570;  -92.450; -633.000; -737.000
272.710;  -93.175; -825.000; -775.000
272.851;  -25.525;  113.000; -130.000
272.991; -161.950;-1173.000;-1077.000
273.131;  -61.650; -419.000; -459.000
273.272;  -95.675; -683.000; -723.000
273.412;    1.400; -143.000;  -31.000
273.553;  -54.350; -488.000; -507.000
273.693;  147.075;  913.000;  858.000
273.834;  -89.450; -894.000; -692.000
273.974;  -81.800; -664.000; -615.000
274.114;  -91.700; -772.000; -560.000
274.255;   81.975;  414.000;  373.000
274.395;   15.675; -180.000; -125.000
274.535;   42.075;  199.000;  350.000
274.676;   32.850;  225.000;   94.000
274.816;    4.850;  110.000;   34.000
274.956;  -78.650; -624.000; -690.000
275.097;  -61.825;-1014.000; -922.000
275.237; -110.075; -913.000; -803.000
275.377;  -92.425; -778.000; -689.000
275.517; -130.050; -878.000; -937.000
275.658;  -53.100; -590.000; -555.000
275.798;  -76.600; -606.000; -413.000
275.938;   22.750;  215.000;  323.000
276.078;  -99.600; -626.000; -395.000
276.218;    6.125;   99.000;  104.000
276.359; -137.150;-1026.000;-1024.000
276.499;  -74.950; -605.000; -446.000
276.639;  -35.450; -305.000; -151.000
276.779;  -45.000; -475.000; -357.000
276.919;  -98.400; -783.000; -624.000
277.059;  -34.300; -261.000; -212.000
277.199;  -46.525; -357.000; -259.000
277.340;   38.875;  287.000;  175.000
277.480; -106.725; -840.000; -693.000
277.620;   30.825;  192.000;   16.000
277.760; -204.475;-1533.000;-1294.000
277.900;   20.525;  113.000;   33.000
278.040;   32.625;  137.000;  159.000
278.180;   40.475;  270.000;  170.000
278.320;    5.575;   21.000;   56.000
278.460;  -61.175; -443.000; -469.000
278.600;  -93.425; -708.000; -598.000
278.740;   59.175;  448.000;  224.000
278.880;  -39.475; -768.000; -791.000
279.020;    8.600; -194.000; -144.000
279.160;  -88.650; -672.000; -595.000
279.300; -121.425; -926.000; -873.000
279.440;  -88.150; -709.000; -622.000
279.579;  -13.450;-1014.000; -929.000
279.719;  -46.725; -410.000; -394.000
279.859;   63.500;   -4.000;   41.000
279.999;   43.700; -208.000;  101.000
280.139;  -24.500; -435.000; -387.000
280.279;  -65.425; -708.000; -745.000
280.419;  -19.525; -229.000; -147.000
280.559;  -22.725; -259.000; -180.000
280.698;  -79.750; -790.000; -639.000
280.838;  -89.250; -778.000; -800.000
280.978;  -93.250; -846.000; -790.000
281.118; -107.350; -811.000; -704.000
281.257;   10.150;   24.000;    6.000
281.397;  -93.600;-1094.000; -960.000
281.537;  -81.000; -599.000; -712.000
281.677;  -31.900; -150.000; -101.000
281.816;  -98.500; -700.000; -630.000
281.956;  -30.350; -193.000; -257.000
282.096;  -65.475; -539.000; -396.000
282.235; -105.425; -672.000; -638.000
282.375;  -12.600; -243.000;  -98.000
282.515; -103.300; -715.000; -707.000
282.654;   39.400;   29.000;  106.000
282.794;   27.000;  388.000;  244.000
282.934;  -55.150; -530.000; -491.000
283.073; -128.950;-1030.000; -857.000
283.213;  -48.225; -460.000; -467.000
283.353;  -30.925; -408.000; -349.000
283.492;  -26.825; -264.000; -296.000
283.632;  -43.375; -254.000; -168.000
283.771; -101.825; -859.000; -730.000
283.911;  -38.575; -369.000; -260.000
284.050;  -96.825; -794.000; -748.000
284.190; -164.950;-1229.000;-1096.000
284.329; -146.100;-1055.000; -964.000
284.469;  -48.200; -516.000; -591.000
284.608;  -63.300; -559.000; -598.000
284.748;  -82.400; -614.000; -570.000
284.887;    3.300;  -87.000;  -20.000
285.027; -133.700; -844.000; -892.000
285.166;  -26.325; -192.000; -249.000
285.306;   18.075; -116.000;  -33.000
285.445;  -36.600; -229.000; -343.000
285.584;  -96.175; -630.000; -494.000
285.724;  -43.075; -282.000; -322.000
285.863; -108.700; -857.000; -507.000
286.002;  -66.550; -366.000; -276.000
286.142; -106.350; -715.000; -622.000
286.281;  -66.475; -525.000; -493.000
286.420;  -85.725; -554.000; -417.000
286.560;   92.375;  653.000;  623.000
286.699; -133.050; -958.000; -912.000
286.838;  -63.150; -590.000; -591.000
286.978;  -83.700; -533.000; -537.000
287.117; -126.900;-1085.000; -950.000
287.256;  -29.675; -228.000; -211.000
287.395;  -41.575; -197.000; -378.000
287.535;  -44.575; -370.000; -298.000
287.674;  -73.950; -509.000; -484.000
287.813;   70.400;  661.000;  533.000
287.952; -128.750;-1010.000; -871.000
288.091; -142.550;-1049.000; -915.000
288.231;   19.325;   13.000;   15.000
288.370; -162.425;-1217.000;-1200.000
288.509;  -79.850; -728.000; -645.000
288.648;  -89.550; -770.000; -548.000
288.787;  -36.850; -243.000;  -87.000
288.926;  -59.750; -454.000; -475.000
289.065;  122.975;  859.000;  672.000
289.204;  -46.375; -377.000; -217.000
289.344;  -87.925; -791.000; -690.000
289.483;   27.675;  416.000;  304.000
289.622;  -15.725; -291.000; -149.000
289.761;  -18.225; -309.000; -166.000
289.900; -108.925; -785.000; -626.000
290.039;  -16.575;  -12.000;  -95.000
290.178;  -38.450; -274.000; -180.000
290.317;  -78.025; -618.000; -479.000
290.456;  -63.375; -463.000; -451.000
290.595; -126.725; -961.000; -833.000
290.734; -142.525; -904.000; -891.000
290.873;  -64.075; -456.000; -420.000
291.011; -108.125; -833.000; -843.000
291.150;  -91.100; -770.000; -682.000
291.289;  -19.625; -343.000; -110.000
291.428;  -99.375; -599.000; -480.000
291.567;  -56.250; -370.000; -442.000
291.706;    0.325;  109.000;  154.000
291.845;  -92.275; -597.000; -505.000
291.984; -165.750;-1234.000;-1061.000
292.122;   72.725;  602.000;  582.000
292.261;   49.375;  620.000;  463.000
292.400;   16.525; -144.000;  211.000
292.539; -127.600; -959.000; -813.000
292.678;  -22.500; -325.000; -300.000
292.816; -152.700;-1136.000; -965.000
292.955;  -84.200; -844.000; -684.000
293.094;  -26.300; -173.000; -337.000
293.233;  -56.525; -556.000; -400.000
293.371;  -34.000; -225.000;  -84.000
293.510; -105.000; -866.000; -780.000
293.649; -119.825; -959.000; -924.000
293.787;  -42.600;-1083.000;-1012.000
293.926;    5.450; -113.000;  -32.000
294.065;  -51.050; -379.000; -290.000
294.203;   57.925;  298.000;  406.000
294.342;   25.400;   74.000;  156.000
294.481; 5413.700;51180.000; -836.000
294.619;  -25.400; -425.000; -582.000
294.758; -133.650;-1230.000;-1137.000
294.896;  102.850; -125.000;    5.000
295.035; -112.300;-1040.000;-1006.000
295.174; -114.800;-1082.000; -954.000
295.312;  -34.650; -323.000; -203.000
295.451;    0.175; -307.000; -428.000
295.589;  -35.825; -389.000; -518.000
295.728;   27.725; -292.000; -165.000
295.866;    8.325;  -36.000;  -51.000
296.005;  -60.650; -584.000; -341.000
296.143;  -49.950; -558.000; -596.000
296.282;  -96.375; -957.000; -881.000
296.420;  -82.250; -657.000; -557.000
296.559;  -66.350; -892.000; -633.000
296.697;   48.750; -847.000; -665.000
296.835;  125.500;-1141.000;-1002.000
296.974;   64.950;  -23.000;   39.000
297.112;   46.325; -443.000; -504.000
297.251;  -58.575; -815.000; -755.000
297.389;  145.150; -576.000; -438.000
297.527;   73.450; -145.000;  -83.000
297.666;  -42.925; -486.000; -438.000
297.804;  -44.050; -404.000; -264.000
297.942;   -6.750; -136.000; -161.000
298.081;    5.300; -183.000;   63.000
298.219;  101.400;  -17.000;  -19.000
298.357;   84.350; -144.000;  -71.000
298.495;   57.525; -810.000; -812.000
298.634;  111.975;  245.000;  219.000
298.772;   86.525; -220.000; -338.000
298.910;  -37.950; -309.000; -182.000
299.048;  -20.025; -130.000; -153.000
299.187;  -21.775; -350.000; -250.000
299.325;   39.700;   52.000;  122.000
299.463;   90.950; -389.000; -299.000
299.601;  173.700; -327.000; -271.000
299.739;  -81.625; -908.000; -883.000
299.877;  -79.200; -791.000; -703.000
300.016;  -40.200;-1095.000; -935.000
300.154;  211.025;  -19.000; -161.000
300.292;   98.025; -428.000; -348.000
300.430;   54.500; -408.000; -291.000
300.568;  -92.175; -940.000; -874.000
300.706;  -40.350; -366.000; -469.000
300.844;  -57.400;-1108.000; -979.000
300.982;  147.800;  246.000;  282.000
301.120;  -92.775; -965.000; -866.000
301.258;  -56.150; -812.000; -705.000
301.396;   57.000;  104.000;  -41.000
301.534;  137.075; -218.000; -293.000
301.672;   26.625; -664.000; -521.000
301.810;   68.475; -613.000; -545.000
301.948;  166.675;   53.000;  149.000
302.086;  741.100; -250.000;  -32.000
302.224; 1194.100; -610.000; -585.000
302.362;   80.300; -558.000; -622.000
302.500;   25.625; -923.000; -893.000
302.638;  146.375;  128.000;  245.000
302.776;   17.875; -352.000; -408.000
302.913;   49.500;  447.000;  236.000
303.051;    3.050;  -86.000;  -23.000
303.189;   56.500;   90.000;  118.000
303.327;  -22.325; -341.000; -256.000
303.465;  -71.150; -832.000; -588.000
303.603;  -80.050; -805.000; -604.000
303.740;  127.725;  417.000;  241.000
303.878;   51.450; -800.000; -759.000
304.016;  -85.475; -915.000; -790.000
304.154; -112.775;-1123.000;-1152.000
304.291;  -32.850; -505.000; -554.000
304.429;    8.750;  102.000;   74.000
304.567; -119.700; -908.000; -893.000
304.705;  -49.675; -408.000; -515.000
304.842;  132.975; -616.000; -540.000
304.980;   83.550;  215.000;   35.000
305.118;   80.825; -367.000; -365.000
305.255;  -46.575; -945.000; -927.000
305.393;   70.025;  178.000;  239.000
305.531;  -91.925;-1173.000; -956.000
305.668;  -56.175; -663.000; -582.000
305.806;  129.925; -358.000; -439.000
305.943;  150.975; -629.000; -637.000
306.081;   93.825; -378.000; -267.000
306.219; -101.175; -863.000; -748.000
306.356;   23.775;  158.000;   27.000
306.494;  112.650;  981.000;  761.000
306.631;    8.800;  -11.000;  -55.000
306.769;   14.150; -613.000; -485.000
306.906;   -6.600; -284.000; -258.000
307.044;  -63.175; -473.000; -488.000
307.181;  -60.900; -410.000; -332.000
307.319;   20.350;  112.000;   87.000
307.456; -169.975;-1191.000;-1153.000
307.594;  -91.875; -980.000; -727.000
307.731;   -0.875; -371.000; -164.000
307.868;    4.725;  -15.000;   20.000
308.006; -130.000; -961.000; -847.000
308.143;  -60.500; -618.000; -330.000
308.281;  172.700;  -37.000; -254.000
308.418;   -3.075; -748.000; -640.000
308.555;  -56.650; -400.000; -250.000
308.693;  -70.250; -577.000; -573.000
308.830;  -91.500; -712.000; -657.000
308.967;  -10.150; -215.000;  -95.000
309.105;  -41.150; -507.000; -396.000
309.242;   41.150; -468.000; -367.000
309.379;  324.850; -577.000; -655.000
309.517;  -62.025; -936.000; -948.000
309.654;  -96.975; -910.000; -734.000
309.791;  -67.425; -662.000; -580.000
309.928; -105.900; -977.000; -914.000
310.065;  211.975;  819.000;  697.000
310.203;   21.350; -825.000; -850.000
310.340;   18.300; -465.000; -321.000
310.477;  -69.450; -412.000; -516.000
310.614;  -49.525; -383.000; -473.000
310.751;  -72.325; -427.000; -518.000
310.889;  -18.800;    1.000;   11.000
311.026; -140.325;-1161.000; -939.000
311.163;  -37.925; -386.000; -380.000
311.300;  -60.375; -512.000; -479.000
311.437;  -79.925; -658.000; -619.000
311.574; -151.950;-1226.000; -985.000
311.711;  -55.900; -595.000; -433.000
311.848;  -26.375; -380.000; -388.000
311.985;    7.250;  270.000;   93.000
312.122; -117.250; -932.000; -762.000
312.259; -120.000; -941.000; -994.000
312.396;  -73.150; -508.000; -551.000
312.533;  -95.275; -812.000; -790.000
312.670; -131.025;-1070.000; -898.000
312.807;  -39.475; -352.000; -367.000
312.944;  -75.225; -513.000; -611.000
313.081;  -20.850; -150.000; -415.000
313.218;  -97.575;-1111.000; -867.000
313.355;   26.850; -531.000; -449.000
313.492;   18.975; -455.000; -292.000
313.629;  155.325;  815.000;  735.000
313.766; -156.475;-1176.000;-1008.000
313.902;   -5.900; -186.000;   21.000
314.039;  -47.050; -372.000; -289.000
314.176;   32.050;  286.000;  192.000
314.313;  -70.275; -569.000; -473.000
314.450;  -68.350; -788.000; -684.000
314.587;  -54.275; -468.000; -480.000
314.723;    5.475;  -78.000;  130.000
314.860;   48.200;  318.000;  332.000
314.997;   45.700;  223.000;  142.000
315.134;  -29.850; -385.000; -368.000
315.270;  -28.875; -480.000; -496.000
315.407; -120.150;-1094.000; -967.000
315.544;  -40.975; -657.000; -538.000
315.681;  -54.475; -681.000; -565.000
315.817;   49.125; -133.000; -176.000
315.954;   43.350; -613.000; -392.000
316.091; -110.675;-1045.000;-1023.000
316.227;  -16.600;  -71.000; -179.000
316.364;    2.525;   23.000;    6.000
316.500;  -50.675; -113.000; -300.000
316.637;  -40.550; -181.000; -302.000
316.774;  -89.775; -625.000; -358.000
316.910;  -91.325; -598.000; -629.000
317.047;  -71.825; -487.000; -351.000
317.183;  -50.675; -435.000; -566.000
317.320;  -25.375; -367.000; -321.000
317.456;  -73.100; -733.000; -805.000
317.593;  -91.075; -598.000; -641.000
317.729;    2.150;  168.000;  -67.000
317.866; -189.800;-1434.000;-1285.000
318.002;  -86.625; -708.000; -948.000
318.139;  -80.325; -883.000; -867.000
318.275;  -82.925;-1003.000; -738.000
318.412;  -46.100; -517.000; -336.000
318.548;   -4.775; -751.000; -720.000
318.685;  -89.150; -985.000; -888.000
318.821;  -97.575; -762.000; -735.000
318.957;  -14.125;   34.000;  -23.000
319.094;   47.750;  297.000;  154.000
319.230;  -47.725; -756.000; -742.000
319.367;  165.275; -471.000; -520.000
319.503;   72.350; -538.000; -436.000
319.639;  -87.900; -877.000; -793.000
319.775;  -59.550; -750.000; -685.000
319.912;  -45.200; -424.000; -519.000
320.048;  -84.125;-1184.000;-1184.000
320.184;   86.450;   59.000;   70.000
320.321;  -68.250; -497.000; -467.000
320.457;   65.175;  475.000;  662.000
320.593;  -69.000; -375.000; -382.000
320.729;  -97.225; -732.000; -734.000
320.866;  -69.100; -577.000; -635.000
321.002;  -82.950; -759.000; -809.000
321.138;   -7.375; -135.000; -211.000
321.274;   81.875; -148.000; -115.000
321.410;    0.925; -585.000; -353.000
321.546;    7.150;-1011.000; -911.000
321.683;   68.925;  400.000;  185.000
321.819;   18.075;  -48.000; -117.000
321.955; -113.500; -743.000; -722.000
322.091;  -41.750; -585.000; -540.000
322.227;    3.400; -382.000; -202.000
322.363;   -3.450; -320.000; -215.000
322.499;  -25.900; -343.000; -331.000
322.635;  182.775;  636.000;  443.000
322.771;   30.875; -139.000;   12.000
322.907;   95.450;  129.000;  327.000
323.043;   -0.575; -115.000; -206.000
323.179;  -31.050; -394.000; -363.000
323.315;   69.500; -401.000; -371.000
323.451;  145.800; -328.000; -236.000
323.587;   73.400;  -60.000;  -77.000
323.723;   45.325; -682.000; -601.000
323.859;    4.675; -258.000;  -76.000
323.995;  -19.350; -467.000; -409.000
324.131; -115.500; -967.000; -892.000
324.267;  -40.475; -254.000; -276.000
324.402; -126.975; -960.000; -983.000
324.538;   -9.525; -279.000; -104.000
324.674;   32.150;  164.000;   77.000
324.810;  173.950;  226.000;  308.000
324.946;   25.200; -810.000; -658.000
325.082;  -78.825; -568.000; -475.000
325.217;   -5.775;  -62.000;   16.000
325.353;  -91.600; -764.000; -659.000
325.489;  -85.300; -540.000; -506.000
325.625;  -75.025; -579.000; -525.000
325.760;   52.375;  517.000;  376.000
325.896;  -42.800; -515.000; -702.000
326.032;  -45.250; -403.000; -352.000
326.168;  -70.125; -462.000; -369.000
326.303;  -65.500; -352.000; -461.000
326.439;  -23.525; -336.000; -276.000
326.575;    5.400; -190.000;  -29.000
326.710;   -3.475; -156.000;  -30.000
326.846;   -3.675;  146.000;  103.000
326.982; -102.200; -530.000; -548.000
327.117;  -83.875; -481.000; -442.000
327.253;  -97.000; -745.000; -742.000
327.388; -149.075;-1137.000;-1153.000
327.524;  -28.275; -811.000; -578.000
327.659;  -15.625;  -58.000;  -22.000
327.795;  -22.625;   69.000;   45.000
327.931;  -81.325; -723.000; -499.000
328.066;   -5.825; -417.000; -276.000
328.202;  -14.775;   12.000; -129.000
328.337;  106.450;  957.000;  713.000
328.473;   41.275;  -12.000;  -74.000
328.608;  -12.550; -256.000; -267.000
328.743;  -76.325; -799.000; -664.000
328.879;   21.200;  214.000;  114.000
329.014;  -31.975; -102.000; -122.000
329.150;  -76.450; -358.000; -483.000
329.285;  -60.250; -465.000; -466.000
329.421;  -48.775; -548.000; -246.000
329.556;  -24.725;  -36.000;   85.000
329.691;  -98.875; -633.000; -615.000
329.827;  -84.800; -626.000; -480.000
329.962;  -37.350;  131.000; -301.000
330.097;  -91.100; -673.000; -585.000
330.233;  -38.375; -410.000; -223.000
330.368; -115.625; -839.000; -628.000
330.503;  -13.200;    3.000;   98.000
330.638;   17.475;  -93.000; -125.000
330.774;  -36.300; -609.000; -530.000
330.909;  -38.800; -434.000; -244.000
331.044;  -95.500; -714.000; -708.000
331.179; -174.400;-1217.000;-1109.000
331.315;    6.625;   77.000;   20.000
331.450;   24.650;  157.000;  285.000
331.585;  -87.525; -805.000; -706.000
331.720;  -81.075; -510.000; -460.000
331.855;  -13.675;  -35.000; -102.000
331.990;  200.825;   62.000;  138.000
332.126;   85.225; -110.000;   71.000
332.261;  -32.050; -379.000; -265.000
332.396;  -12.250; -135.000; -242.000
332.531; -102.225;-1074.000;-1031.000
332.666;   13.525; -519.000; -363.000
332.801; -100.325; -726.000; -807.000
332.936;   -9.625; -192.000; -122.000
333.071; -129.375; -870.000; -817.000
333.206;   26.225;  307.000;  379.000
333.341;   38.425;  344.000;  418.000
333.476;  -85.200; -627.000; -623.000
333.611;  -20.100; -251.000; -173.000
333.746;  -50.925; -381.000; -464.000
333.881; -100.300; -973.000; -935.000
334.016; -116.425; -936.000; -917.000
334.151; -107.100; -746.000; -702.000
334.286;   32.475;  152.000;  186.000
334.421;    7.150; -125.000; -178.000
334.556;  -62.575; -611.000; -567.000
334.690;  -68.450; -631.000; -577.000
334.825;   72.075;  381.000;   83.000
334.960;  -43.150; -285.000; -413.000
335.095;   17.100;  135.000;  -91.000
335.230;  -89.675; -722.000; -738.000
335.365; -117.375;-1084.000; -990.000
335.499; -117.000;-1108.000;-1037.000
335.634;   42.225;    9.000;  534.000
335.769;  -87.525; -755.000; -720.000
335.904;  -39.850; -603.000; -561.000
336.038;  -39.850; -735.000; -657.000
336.173;  -97.650;-1206.000;-1194.000
336.308;   23.350; -116.000; -189.000
336.443;   13.125; -544.000; -634.000
336.577;  -37.775; -936.000; -787.000
336.712;  101.350;   -4.000;  -12.000
336.847;   11.000; -724.000; -607.000
336.981;  116.625; -272.000; -208.000
337.116;  352.275;  615.000;  501.000
337.250;  214.425; -434.000; -421.000
337.385;  189.425; -297.000; -208.000
337.520;   54.325; -632.000; -603.000
337.654;  -42.875; -215.000; -126.000
337.789; -130.975; -989.000; -933.000
337.923;  -21.525; -104.000; -205.000
338.058;  -80.550; -673.000; -738.000
338.192;  -14.900; -611.000; -488.000
338.327;    3.675;  -18.000; -155.000
338.461;  -53.450; -299.000; -469.000
338.596;  -90.700; -780.000; -638.000
338.730; -107.700; -767.000; -803.000
338.865;   66.600;  -46.000; -140.000
338.999;  -66.875; -846.000; -702.000
339.134;  -48.375; -634.000; -536.000
339.268;   10.750; -741.000; -603.000
339.403;  291.575; -740.000; -775.000
339.537;   76.575; -894.000; -820.000
339.671; -127.900; -829.000; -813.000
339.806;  -76.075; -556.000; -512.000
339.940;   21.300; -261.000; -235.000
340.074;  -89.275; -685.000; -510.000
340.209;  -35.875; -351.000; -230.000
340.343;  -95.200; -517.000; -573.000
340.477;  153.350;  998.000; 1036.000
340.612;  -68.000;-1033.000; -900.000
340.746;  100.850; -199.000; -243.000
340.880;  -46.700; -924.000; -785.000
341.014;  -23.475;  -45.000; -154.000
341.149;  -99.825; -756.000; -718.000
341.283;  -95.600; -839.000; -754.000
341.417;  -72.350;-1124.000; -938.000
341.551;  232.750; -768.000; -708.000
341.685;    2.225; -633.000; -611.000
341.820;  -61.350; -562.000; -493.000
341.954;  -55.375; -218.000; -349.000
342.088; -141.875;-1102.000;-1019.000
342.222;   61.700;  565.000;  618.000
342.356;  -40.950; -395.000; -335.000
342.490;  -79.300; -880.000; -841.000
342.624;  -51.750; -339.000; -242.000
342.758;   28.200; -364.000; -312.000
342.892;  -44.225; -710.000; -585.000
343.026;  -22.425;  -58.000; -116.000
343.160;  -47.850; -426.000; -376.000
343.294;  -74.450; -474.000; -337.000
343.428;   -4.975; -488.000; -448.000
343.562;   -0.875; -172.000;  -23.000
343.696;  -23.900; -385.000; -314.000
343.830;   -1.700; -362.000; -356.000
343.964;   26.825; -231.000; -168.000
344.098; 1180.575;  199.000;   70.000
344.232;  996.400; -266.000; -127.000
344.366;  105.575; -567.000; -453.000
344.500;   98.325; -665.000; -744.000
344.634;   52.525; -324.000; -164.000
344.768;   11.700; -531.000; -341.000
344.902;   28.375;  278.000;  256.000
345.035;  -72.800; -556.000; -496.000
345.169; -122.450; -933.000; -656.000
345.303;  -26.725; -308.000; -482.000
345.437;  -55.875; -826.000; -717.000
345.571;  -78.200; -675.000; -594.000
345.704;  -56.700; -309.000; -532.000
345.838;   -2.925; -331.000; -284.000
345.972;  -17.025; -543.000; -495.000
346.106;  152.350; -179.000; -190.000
346.239;  429.325; -312.000; -243.000
346.373;   29.700; -343.000; -302.000
346.507; -132.475; -950.000; -962.000
346.640;  199.850;  -30.000;   13.000
346.774;  -19.775; -650.000; -797.000
346.908;   -3.150; -138.000;  -11.000
347.041;  -93.125; -646.000; -593.000
347.175;   15.000;  259.000;   27.000
347.309;  -60.550; -698.000; -628.000
347.442;  -85.350; -883.000; -732.000
347.576;  356.375;  670.000;  668.000
347.709;  269.075; -123.000;  -52.000
347.843;  -67.750; -933.000; -825.000
347.976;   47.025;  235.000;  294.000
348.110; -169.500;-1268.000;-1186.000
348.243;  -98.250; -679.000; -772.000
348.377;    2.225;  -26.000;   60.000
348.510;   59.100;  403.000;  540.000
348.644;  -28.375;  -37.000; -159.000
348.777;   14.800;  180.000;  191.000
348.911;  -40.325; -142.000; -112.000
349.044;  212.300;  471.000;  448.000
349.178;  255.150;-1069.000;-1006.000
349.311;  122.075;  141.000;  255.000
349.444;  -20.125; -927.000; -813.000
349.578;  -11.875; -347.000; -200.000
349.711;  -92.925; -959.000; -862.000
349.845;   35.675; -661.000; -591.000
349.978; -127.675;-1224.000;-1137.000
350.111;  -81.675; -546.000; -612.000
350.244;  -66.200; -596.000; -700.000
350.378;   22.525; -392.000; -393.000
350.511;  -53.625; -393.000; -426.000
350.644; -108.625; -808.000; -806.000
350.778;   15.300;  168.000;  104.000
350.911;   -0.150;  134.000;  140.000
351.044;  -96.875; -685.000; -615.000
351.177;  -23.150; -321.000; -281.000
351.310;   -7.950;    3.000; -131.000
351.444;  -54.700; -888.000; -788.000
351.577;  156.775;  140.000;   90.000
351.710;  108.975;  593.000;  417.000
351.843;  -24.925; -165.000;  -77.000
351.976;   17.425;  149.000;  -79.000
352.109;  -79.450; -621.000; -612.000
352.242;   -4.100; -464.000; -419.000
352.376;  -44.475; -580.000; -636.000
352.509;  258.825; -437.000; -356.000
352.642;   69.350; -654.000; -604.000
352.775;   87.650; -141.000;  -98.000
352.908; -115.400; -933.000; -904.000
353.041;  -96.650; -814.000; -824.000
353.174;  -45.675; -551.000; -424.000
353.307;  -73.200; -753.000; -764.000
353.440;   86.100;  541.000;  453.000
353.573; -103.125; -957.000;-1008.000
353.706;  -14.425; -384.000; -558.000
353.839;   -8.075; -264.000; -220.000
353.971;  -80.400; -657.000; -512.000
354.104;  -75.150; -896.000; -835.000
354.237;  -18.700; -627.000; -662.000
354.370;  -73.675; -846.000; -879.000
354.503; -180.925;-1231.000;-1308.000
354.636;  -34.575; -529.000; -348.000
354.769; -114.125; -937.000; -860.000
354.902;   15.150; -230.000; -139.000
355.034;  -17.725; -164.000; -220.000
355.167;  -16.325; -262.000; -162.000
355.300;  -86.650;-1061.000; -880.000
355.433;  830.975;  -71.000;  -14.000
355.565; 1255.650; -402.000; -384.000
355.698;  330.075; -356.000; -296.000
355.831;   29.225; -882.000; -801.000
355.964;  140.300; -285.000; -170.000
356.096;  -69.075; -856.000; -843.000
356.229;   25.450; -523.000; -530.000
356.362;  265.150; -373.000; -266.000
356.494;  493.450; -229.000; -162.000
356.627;  574.975;  269.000;  377.000
356.760;  605.875;  120.000;   53.000
356.892;  773.975; -286.000; -601.000
357.025;  806.625;  403.000;  389.000
357.157;  788.125; -167.000; -179.000
357.290;  514.475; -856.000; -713.000
357.423;  180.425; -667.000; -556.000
357.555;  161.425; -217.000; -228.000
357.688;  170.450; -483.000; -364.000
357.820;  554.675; -870.000; -877.000
357.953; 4329.200; -563.000; -589.000
358.085; 1029.450; -632.000; -612.000
358.218; 1702.300;-1131.000; -932.000
358.350;  320.300;  -58.000;  312.000
358.483;  -82.275;-1300.000;-1187.000
358.615;   38.175;-1182.000;-1078.000
358.747;   -6.250;-1187.000;-1058.000
358.880;   86.750; -810.000; -744.000
359.012;    5.400; -376.000; -202.000
359.145;  -29.925; -480.000; -511.000
359.277;  115.900; -962.000; -913.000
359.409; 3627.125;  536.000;  231.000
359.542;  968.075; -738.000; -688.000
359.674;   90.075;   46.000;   13.000
359.806;  -54.425; -565.000; -438.000
359.939;  -55.800; -617.000; -516.000
360.071;  -26.500; -583.000; -579.000
360.203;  -16.500; -411.000; -364.000
360.335;   80.350;  164.000;  -16.000
360.468;  213.600; -249.000; -307.000
360.600; 2785.975; -547.000; -454.000
360.732; 2320.450; -546.000; -423.000
360.864;  321.125;-1216.000;-1044.000
360.996;  420.400; -516.000; -554.000
361.129;   77.425; -389.000; -598.000
361.261;   38.700;  110.000; -113.000
361.393;  -23.225; -252.000; -214.000
361.525;   43.375;   94.000;  244.000
361.657;  -20.350; -821.000; -703.000
361.789;   21.675; -139.000; -155.000
361.921;  351.125; -642.000; -593.000
362.053;  317.825;  524.000;  541.000
362.185;   69.900;  288.000;   72.000
362.318;  -49.425; -709.000; -705.000
362.450;  190.450;  294.000;  444.000
362.582;  253.725; -913.000; -870.000
362.714;  -17.200; -353.000; -332.000
362.846;  -79.475; -606.000; -490.000
362.978; -151.325; -941.000; -811.000
363.109;   85.825; -161.000; -260.000
363.241;  590.600; -739.000; -749.000
363.373;  383.100; -649.000; -564.000
363.505;  524.675; -186.000;  -91.000
363.637;  127.000; -787.000; -601.000
363.769; -109.375;-1067.000;-1080.000
363.901;  -61.275; -596.000; -654.000
364.033; -101.575;-1103.000;-1062.000
364.165;   20.425; -283.000; -283.000
364.296;   70.625; -316.000; -177.000
364.428;   14.250;-1344.000;-1220.000
364.560;  -81.550; -679.000; -661.000
364.692;  -61.250; -738.000; -835.000
364.824;  409.200; -588.000; -456.000
364.955;  430.825; -402.000; -564.000
365.087;  642.625;-1097.000; -852.000
365.219;   11.250; -686.000; -816.000
365.351;  -73.275; -526.000; -572.000
365.482;   61.425;  300.000;  240.000
365.614;  -33.425; -402.000; -314.000
365.746; -100.225; -729.000; -752.000
365.877;  -98.750; -706.000; -672.000
366.009;  208.875;  -35.000;  -62.000
366.141; -115.925;-1249.000;-1134.000
366.272;  -99.725; -803.000; -719.000
366.404; -110.050;-1005.000; -874.000
366.535;  -24.250; -139.000;  -12.000
366.667; -108.175; -644.000; -649.000
366.799;   41.350;  353.000;  203.000
366.930; -101.825; -862.000; -996.000
367.062;  116.000; -639.000; -613.000
367.193;   87.850; -872.000; -842.000
367.325;  -57.625; -580.000; -684.000
367.456;  126.825; -246.000;   31.000
367.588;  133.825; -371.000; -318.000
367.719;   18.100;  -44.000;  -45.000
367.851;   -0.875; -222.000; -241.000
367.982;  -12.825; -875.000; -732.000
368.113;  144.450; -475.000; -358.000
368.245; -111.200; -960.000; -841.000
368.376;  -10.100; -254.000; -302.000
368.508;  -17.825; -188.000; -263.000
368.639; -125.250;-1166.000;-1034.000
368.770;   12.225; -670.000; -589.000
368.902;  -35.050; -836.000; -926.000
369.033; -105.700; -906.000; -855.000
369.164;  -58.025; -720.000; -653.000
369.296; -111.975; -452.000; -601.000
369.427;    4.425; -209.000; -144.000
369.558;  -35.850; -593.000; -377.000
369.689;  -90.900; -721.000; -569.000
369.821; -133.725; -951.000; -845.000
369.952;   -8.075;   42.000; -108.000
370.083;  -54.200; -229.000; -108.000
370.214;  -75.550; -735.000; -650.000
370.345;    0.825;   65.000;   81.000
370.477;  -68.975; -810.000; -790.000
370.608;  336.675; -328.000; -264.000
370.739;   -8.900;-1233.000;-1292.000
370.870;    6.550;-1102.000; -923.000
371.001;  150.350; -378.000; -467.000
371.132;  -56.025; -754.000; -735.000
371.263;   -6.675;  -42.000; -148.000
371.394; -127.725; -841.000; -748.000
371.525;   25.300;  345.000;  225.000
371.657;  -76.775; -808.000; -670.000
371.788;   91.675;  103.000;  199.000
371.919;  228.550; -384.000; -304.000
372.050; 4589.000;  -91.000; -156.000
372.181; 1365.075; -188.000; -294.000
372.311;  487.875;   42.000; -127.000
372.442;   81.375; -457.000; -451.000
372.573;  -17.275; -444.000; -340.000
372.704; -109.400;-1008.000; -980.000
372.835;  113.775; -228.000; -289.000
372.966;  -38.900; -646.000; -554.000
373.097;  -52.325; -575.000; -711.000
373.228;  -14.100; -717.000; -542.000
373.359;  206.575; -824.000; -536.000
373.490; 1261.075; -881.000; -727.000
373.620; 1567.175;-1001.000; -803.000
373.751; 2387.875; -332.000; -396.000
373.882; 1082.725; -663.000; -733.000
374.013;  131.325; -449.000; -262.000
374.143;   -9.275; -581.000; -659.000
374.274;  -82.425; -987.000; -908.000
374.405;  234.075; -388.000; -276.000
374.536;  612.800; -526.000; -387.000
374.666; 1562.200; -759.000; -807.000
374.797;  338.750; -817.000; -868.000
374.928; 1203.725; -710.000; -560.000
375.058; 1219.700; -535.000; -500.000
375.189;  103.325;  -59.000;  -93.000
375.320;  -92.525; -928.000;-1034.000
375.450;  -24.900; -625.000; -616.000
375.581;  -29.575; -526.000; -436.000
375.712;  -29.150; -574.000; -250.000
375.842;  440.125; -438.000; -415.000
375.973;  325.825; -554.000; -513.000
376.103;   -9.925; -665.000; -648.000
376.234;  -63.075; -531.000; -552.000
376.364;    1.100; -944.000; -867.000
376.495;  390.375;  925.000;  529.000
376.625;   38.900; -472.000; -485.000
376.756;  117.900; -709.000; -678.000
376.886;  -58.850;-1178.000;-1026.000
377.017;   18.300;-1048.000;-1061.000
377.147;  249.100; -786.000; -782.000
377.278;   46.350;  174.000;  228.000
377.408; -117.375; -801.000; -815.000
377.538;  -95.725; -707.000; -693.000
377.669;  -56.025; -537.000; -613.000
377.799;  -71.675; -645.000; -635.000
377.929;  -27.200; -610.000; -428.000
378.060; -123.425; -781.000; -847.000
378.190;  -59.900; -726.000; -531.000
378.320;  -51.600; -401.000; -406.000
378.451;    6.000; -131.000;  -22.000
378.581;    3.025;  -67.000; -110.000
378.711;  181.525; 1035.000;  866.000
378.841;   21.750; -533.000; -675.000
378.972;  -49.625; -871.000; -751.000
379.102;   35.350; -652.000; -579.000
379.232;    0.775; -126.000;  -73.000
379.362;  -91.450;-1001.000; -885.000
379.492;   47.275; -373.000; -424.000
379.623;  154.600;    0.000;  111.000
379.753;  -70.225;-1107.000; -974.000
379.883;  252.900;   59.000;  156.000
380.013;   46.550;-1081.000;-1017.000
380.143;  -89.550;-1097.000;-1056.000
380.273;  -81.975; -985.000; -861.000
380.403;    8.575; -344.000; -257.000
380.533;    2.275; -651.000; -664.000
380.663;   94.350;  173.000;  128.000
380.793;  -67.075;-1027.000;-1074.000
380.923;   -8.100; -103.000;  -34.000
381.053;  -76.725; -613.000; -623.000
381.183;  -18.200; -106.000; -248.000
381.313;   86.675; -656.000; -470.000
381.443;   83.775; -692.000; -473.000
381.573;  316.575; -402.000; -409.000
381.703;  454.000;-1249.000;-1095.000
381.833; -112.100;-1454.000;-1336.000
381.963;  155.125; -134.000;  -87.000
382.093; 1752.825; -925.000; -909.000
382.223;  551.875; -713.000; -602.000
382.353;   15.725; -801.000; -608.000
382.482;  559.825;-1091.000; -964.000
382.612; 1029.025; -872.000; -644.000
382.742;  555.225; -695.000; -622.000
382.872;  401.300; -565.000; -551.000
383.002;   93.325;  347.000; -132.000
383.131;  -11.525; -226.000; -160.000
383.261;  -36.575; -706.000; -768.000
383.391;  297.275; -552.000; -377.000
383.521; 2546.975;  451.000;  263.000
383.650;  545.900; -947.000; -904.000
383.780;  -22.875; -783.000; -656.000
383.910;  119.125;  880.000;  802.000
384.039;   49.025; -794.000; -656.000
384.169;  332.175;-1205.000;-1017.000
384.299;    0.850; -650.000; -662.000
384.428;  -76.825; -764.000; -680.000
384.558;  -37.425; -308.000; -275.000
384.687;  -23.225; -414.000; -334.000
384.817;   27.650;   75.000;   -2.000
384.947;   57.875; -234.000; -141.000
385.076;  365.025;  982.000;  912.000
385.206;  129.750;  369.000;  480.000
385.335;  -13.800; -549.000; -417.000
385.465;  -67.750; -655.000; -663.000
385.594;  200.850;  -53.000;  -44.000
385.724;  643.825; -868.000; -838.000
385.853;  195.200; -296.000; -270.000
385.982; 1828.400; -743.000; -787.000
386.112; 2805.025;-1052.000; -871.000
386.241;  222.950; -307.000; -312.000
386.371;   42.000; -174.000;  -87.000
386.500;   49.425; -825.000; -789.000
386.629;   32.550; -874.000; -817.000
386.759;   70.500;  -43.000;   68.000
386.888;   23.125; -170.000; -250.000
387.017;  -63.800; -648.000; -620.000
387.147;  -63.075; -771.000; -798.000
387.276;   35.800; -410.000; -397.000
387.405;   45.900; -398.000; -342.000
387.535;  -28.375; -452.000; -361.000
387.664;  -54.575; -692.000; -620.000
387.793;  106.050; -198.000; -113.000
387.922;  718.450;  255.000;  200.000
388.052;   69.650; -576.000; -423.000
388.181;   71.225; -342.000; -472.000
388.310;   82.525; -889.000; -710.000
388.439;   -4.550; -749.000; -742.000
388.568;  249.925;  365.000;  244.000
388.697; 1484.550; -756.000; -653.000
388.826;  319.350; -768.000; -666.000
388.956;  105.900; -285.000; -307.000
389.085;  -17.250; -347.000; -287.000
389.214;  -90.900; -842.000; -872.000
389.343;  -66.750; -645.000; -413.000
389.472;  368.250;  126.000;  149.000
389.601;  508.100;   91.000;    0.000
389.730;   38.300; -568.000; -687.000
389.859;   97.850;  226.000;   46.000
389.988;  279.325; -423.000; -408.000
390.117;  211.325; -168.000; -146.000
390.246;   18.150; -331.000; -320.000
390.375;  179.400; -673.000; -626.000
390.504;  -41.325; -703.000; -621.000
390.633;  -91.350; -672.000; -726.000
390.761;  -44.075; -732.000; -645.000
390.890;   43.525;   -4.000; -130.000
391.019;    2.525; -421.000; -441.000
391.148; -119.325; -826.000; -855.000
391.277;  -37.450; -576.000; -493.000
391.406;  -60.150; -821.000; -805.000
391.534;   27.075;  574.000; -301.000
391.663;  -43.900; -583.000; -645.000
391.792;  -67.775; -673.000; -701.000
391.921;  176.250;   -3.000;   15.000
392.050;  296.500; -287.000; -228.000
392.178;   17.700;-1206.000;-1061.000
392.307;  233.200; -758.000; -712.000
392.436;  128.600; -427.000; -641.000
392.564;   29.050;  166.000;   -6.000
392.693;  -94.700; -860.000; -682.000
392.822;  296.925; -529.000; -534.000
392.950;  171.025; -880.000; -714.000
393.079;  454.900; -188.000; -328.000
393.208;   75.475; -488.000; -511.000
393.336;   -0.200; -170.000; -145.000
393.465;  -45.050; -317.000; -199.000
393.593;    4.625;   62.000;   79.000
393.722; -155.550;-1121.000; -916.000
393.850;  -38.425; -188.000;  -61.000
393.979; -150.050; -926.000; -805.000
394.107;  -53.525; -517.000; -537.000
394.236;   -5.325; -570.000; -507.000
394.364;  219.500;  383.000;  206.000
394.493;  366.050; -911.000; -767.000
394.621;  -13.875; -955.000; -916.000
394.750;  561.925; -873.000; -923.000
394.878; 2452.250; -247.000; -149.000
395.007; 3335.425; -721.000; -807.000
395.135;  228.550; -790.000; -721.000
395.263;  -91.650;-1038.000;-1040.000
395.392;   -3.850;  -25.000; -107.000
395.520; -142.350; -818.000; -679.000
395.648;  -66.525; -865.000; -915.000
395.777;   10.975; -366.000; -405.000
395.905;  -42.350; -449.000; -564.000
396.033;   15.900;  217.000;  172.000
396.162;  602.075; -399.000; -453.000
396.290;  532.000;  -17.000;   -2.000
396.418;  152.100; -555.000; -514.000
396.546;  -67.850; -571.000; -466.000
396.674;  -85.175; -850.000; -878.000
396.803;   18.025;  -72.000;  -23.000
396.931;  141.775; -179.000; -199.000
397.059;  146.650;-1026.000; -989.000
397.187; -107.100;-1026.000; -975.000
397.315; -135.775; -884.000; -649.000
397.443;  -88.350; -592.000; -443.000
397.572;  -98.825; -578.000; -424.000
397.700;   15.250; -607.000; -614.000
397.828;   32.750;  120.000;  -90.000
397.956;  -57.275; -508.000; -478.000
398.084;  -59.050; -767.000; -626.000
398.212;   44.475;  137.000;  124.000
398.340;   23.300;  -56.000;  159.000
398.468;   61.475; -390.000; -169.000
398.596; -129.125; -993.000; -953.000
398.724; -110.200; -762.000; -767.000
398.852; -158.975;-1024.000; -976.000
398.980;  -56.200; -560.000; -560.000
399.108;  -32.950; -982.000; -735.000
399.236;   47.000;   13.000;    8.000
399.363;    9.875;  222.000;  196.000
399.491;  -57.425; -404.000; -398.000
399.619; -113.475; -829.000; -800.000
399.747;  -90.875; -859.000; -771.000
399.875;   94.875;  220.000;  234.000
400.003;  -52.925; -359.000; -284.000
400.130;  -97.950; -421.000; -341.000
400.258;  -26.750;  -83.000;   38.000
400.386;  -65.925; -352.000; -168.000
400.514;  -21.625; -526.000; -587.000
400.641;  -58.200; -928.000; -802.000
400.769; -136.450; -979.000; -888.000
400.897;  -90.100; -838.000; -793.000
401.025;   -6.575; -166.000; -152.000
401.152;    0.325;  220.000;   38.000
401.280;  -77.575; -430.000; -429.000
401.408; -121.850; -712.000; -576.000
401.535; -100.550; -735.000; -758.000
401.663; -191.750;-1134.000;-1054.000
401.790;  -88.775; -514.000; -525.000
401.918;   46.750;  436.000;  405.000
402.046;  -22.025;  134.000;  122.000
402.173;  -30.525;  -18.000;    7.000
402.301;  -79.575; -519.000; -397.000
402.428;   39.075;  528.000;  383.000
402.556; -131.850;-1188.000; -913.000
402.683;  -17.200;  -20.000;   -1.000
402.811;  -19.900;  -37.000; -206.000
402.938;   -8.575;   20.000;   27.000
403.066;  284.025; -574.000; -558.000
403.193;  448.900;  299.000;  239.000
403.321;  351.175; -396.000; -574.000
403.448;  414.250;   83.000;   27.000
403.575;  192.525;  -90.000;  -46.000
403.703;  -78.475; -732.000; -557.000
403.830;  -68.875; -531.000; -496.000
403.957; -141.775;-1117.000;-1023.000
404.085;   10.875;  -61.000; -172.000
404.212;  114.525;  -50.000;   63.000
404.339;  212.175; -566.000; -306.000
404.467; 4833.375; -612.000; -524.000
404.594; 3591.025; -287.000; -227.000
404.721;  996.400; -869.000; -764.000
404.848;   92.025; -113.000; -202.000
404.976;  -94.750; -856.000; -783.000
405.103;   -3.825;  -14.000;  -82.000
405.230;   -1.750;  190.000;  226.000
405.357;   47.075;  117.000;   44.000
405.484;  204.175;  -49.000;    5.000
405.612;   41.875; -548.000; -563.000
405.739;  -52.775; -488.000; -243.000
405.866;   86.475;  669.000;  385.000
405.993;  -34.250; -398.000; -102.000
406.120; -145.050; -801.000; -887.000
406.247;  -51.425; -323.000; -342.000
406.374;  606.725;  540.000;  629.000
406.501;  188.600; -632.000; -702.000
406.628;  -87.025; -621.000; -589.000
406.755;  -93.000; -803.000; -620.000
406.882;  -48.400; -228.000; -277.000
407.009; -112.350; -719.000; -628.000
407.136;  104.650; -480.000; -401.000
407.263;  257.450; -939.000; -829.000
407.390;  -57.550; -692.000; -614.000
407.517; -159.825;-1139.000;-1187.000
407.644;  -54.200; -332.000; -256.000
407.771; -145.175; -249.000; -287.000
407.898;   27.575;  168.000;  328.000
408.025;  -63.475; -421.000; -313.000
408.151;   -9.575;   82.000;  153.000
408.278;  -60.350; -267.000; -216.000
408.405; -107.225; -931.000; -899.000
408.532;  -66.600; -549.000; -542.000
408.659; -127.200; -677.000; -648.000
408.785; -195.825;-1298.000;-1170.000
408.912;  -68.375; -412.000; -296.000
409.039; -112.800; -610.000; -686.000
409.166;  -96.675; -591.000; -555.000
409.292; -107.650; -571.000; -534.000
409.419; -129.800; -665.000; -649.000
409.546;  -86.375; -431.000; -192.000
409.672; -104.650; -713.000; -545.000
409.799;  -27.025;  -36.000;   34.000
409.926;  -39.650; -180.000; -179.000
410.052; -174.250;-1127.000;-1091.000
410.179;  -57.950; -368.000; -392.000
410.305;  -86.425; -375.000; -493.000
410.432;  -40.950; -220.000; -333.000
410.558;  -83.125; -305.000; -380.000
410.685; -106.400; -688.000; -431.000
410.812; -100.725; -409.000; -588.000
410.938; -129.200; -964.000; -808.000
411.065;  -98.575; -671.000; -645.000
411.191;  -17.800; -189.000; -174.000
411.317; -113.425; -823.000; -742.000
411.444;  -69.200; -317.000; -246.000
411.570;  -71.750; -339.000; -294.000
411.697; -127.175; -758.000; -752.000
411.823; -175.800; -989.000; -999.000
411.949;  -24.050;  -56.000;   17.000
412.076; -118.625; -539.000; -519.000
412.202; -130.000; -758.000; -757.000
412.329; -114.650; -798.000; -752.000
412.455; -115.550; -821.000; -657.000
412.581;  -13.375;  -15.000;  172.000
412.707;  -60.775; -540.000; -457.000
412.834;   19.900;  156.000;  219.000
412.960;  -93.725; -785.000; -784.000
413.086;  -96.725; -743.000; -701.000
413.212;  180.750;  604.000;  578.000
413.339;  -45.875; -685.000; -701.000
413.465;   41.375; -364.000; -310.000
413.591;  -75.125; -757.000; -474.000
413.717;  -54.725; -358.000; -366.000
413.843; -144.075; -839.000; -861.000
413.969;  -73.075;  -47.000; -292.000
414.096; -110.225; -679.000; -679.000
414.222;   -5.775;  -33.000;   85.000
414.348;    5.300; -652.000; -385.000
414.474;  136.150;   38.000;  -52.000
414.600;  -10.350; -126.000; -144.000
414.726;  -26.700;  -96.000;  -55.000
414.852;  -59.100; -365.000; -342.000
414.978;   37.300;  104.000;  -18.000
415.104;   34.700;   38.000;   80.000
415.230;   22.175; -329.000; -330.000
415.356;   43.675; -409.000; -514.000
415.482;  187.425;   13.000;  -35.000
415.608;  234.250; -247.000; -323.000
415.734;  860.350;   67.000;   38.000
415.860;17892.300; -875.000; -767.000
415.986;12891.700; -685.000; -607.000
416.111; 1081.400; -798.000; -652.000
416.237;  204.650; -424.000; -571.000
416.363;  937.575; -765.000; -733.000
416.489; 3466.000; -324.000; -251.000
416.615;  347.800; -707.000; -742.000
416.741;  -45.150; -677.000; -784.000
416.866;  -98.650; -673.000; -736.000
416.992; -132.950; -801.000; -818.000
417.118;  -27.975;  -41.000;  -80.000
417.244;  -59.475; -798.000; -531.000
417.369;  -86.475; -801.000; -612.000
417.495;    6.150; -325.000; -254.000
417.621;  -64.750;-1015.000; -803.000
417.746;    9.200; -579.000; -572.000
417.872;   35.900; -254.000; -144.000
417.998;   20.325; -515.000; -530.000
418.123;  874.075;-1073.000; -845.000
418.249; 4517.975; -512.000; -601.000
418.374;  593.275; -916.000; -824.000
418.500;   81.025; -383.000; -482.000
418.626;   98.275;   70.000;  -59.000
418.751;  104.450; -549.000; -448.000
418.877;  155.950; -637.000; -643.000
419.002; 1536.100; -688.000; -560.000
419.128;10601.825; -930.000; -721.000
419.253; 2531.650; -967.000; -837.000
419.379;  309.350; -391.000; -338.000
419.504;  342.075;  325.000;  415.000
419.629;  424.350; -393.000; -212.000
419.755; 2873.850; -317.000; -254.000
419.880;16941.275;  -98.000;   67.000
420.006; 9678.325; -280.000; -221.000
420.131;25464.125; -662.000; -775.000
420.256; 3668.975; -315.000; -316.000
420.382;  465.325; -665.000; -687.000
420.507;   61.225; -649.000; -778.000
420.632;  205.100; -337.000; -339.000
420.758;  370.925; -251.000; -425.000
420.883;  -62.425; -876.000; -672.000
421.008;  -97.375; -775.000; -619.000
421.133;  -80.500; -509.000; -467.000
421.259;  -41.350; -325.000; -259.000
421.384;  -99.500; -834.000; -693.000
421.509;   -7.625;-1052.000; -862.000
421.634; 1765.375; -936.000; -820.000
421.759;  759.125; -359.000; -327.000
421.885;  -39.075; -717.000; -656.000
422.010;  -63.250; -673.000; -542.000
422.135; -143.350; -695.000; -727.000
422.260;   35.000;  340.000;  280.000
422.385;  -44.000;   12.000;  -98.000
422.510;    7.450;  151.000;  -26.000
422.635;   15.600;  -87.000;  -43.000
422.760;  142.575; -766.000; -791.000
422.885;   44.775;  -57.000;  -80.000
423.010;  -39.850; -112.000; -169.000
423.135;  -89.550; -481.000; -561.000
423.260;   -0.650; -150.000; -245.000
423.385;   80.125;  476.000;  222.000
423.510;   41.800;   71.000;  -22.000
423.635;  111.900;  133.000;   45.000
423.760;   69.975;  383.000;  328.000
423.885;   64.675;  336.000;  391.000
424.010;   17.475;  -68.000;  -13.000
424.135;   -7.675;    5.000;  -33.000
424.259;  -82.825; -654.000; -457.000
424.384;  -62.975; -279.000; -272.000
424.509;  -23.975; -260.000; -186.000
424.634; -110.050; -761.000; -623.000
424.759;  -26.125; -688.000; -544.000
424.883;  -21.325; -506.000; -527.000
425.008;  155.725; -502.000; -410.000
425.133; 1734.850; -679.000; -653.000
425.258;  819.450; -517.000; -381.000
425.382; 1276.050; -867.000; -774.000
425.507; 3281.075; -487.000; -543.000
425.632;  482.475; -802.000; -663.000
425.756;  383.050; -256.000; -146.000
425.881; 5051.425; -831.000; -857.000
426.006;13392.125; -604.000; -355.000
426.130; 2180.575; -696.000; -508.000
426.255;  265.750; -611.000; -491.000
426.379;  130.600; -189.000; -577.000
426.504;  328.200;  660.000;  544.000
426.629; 3634.825; -519.000; -466.000
426.753; 2490.825;   64.000;  -46.000
426.878;  273.600; -252.000; -288.000
427.002;  115.900; -651.000; -668.000
427.127; 1401.150;  -35.000; -158.000
427.251; 9651.500;  372.000;  401.000
427.375; 2743.675; -191.000; -173.000
427.500; 2789.250; -616.000; -610.000
427.624;  973.700; -234.000; -400.000
427.749;  115.875; -216.000; -225.000
427.873;  -20.425; -499.000; -412.000
427.997;  -47.825; -222.000; -230.000
428.122;   74.675;  795.000;  703.000
428.246;   87.125;  433.000;  434.000
428.371; -128.075; -869.000; -773.000
428.495; -119.950; -624.000; -646.000
428.619;  -27.750; -186.000; -117.000
428.743;   22.650;   65.000;  132.000
428.868;   58.375; -732.000; -643.000
428.992; 1800.525; -219.000; -326.000
429.116;  759.575; -329.000; -357.000
429.240;  364.675;  419.000;  426.000
429.365;    0.225; -454.000; -574.000
429.489;  -37.825; -638.000; -647.000
429.613;   23.600; -236.000; -177.000
429.737;   33.775; -563.000; -432.000
429.861;  224.725; -247.000; -133.000
429.985; 4837.950; -425.000; -305.000
430.109; 5243.675; -770.000; -908.000
430.234;  594.150;   76.000;  -50.000
430.358;   46.050; -250.000; -160.000
430.482;  -75.550; -672.000; -564.000
430.606;  -62.375; -655.000; -375.000
430.730;   43.425; -437.000; -388.000
430.854;  213.700; -909.000; -835.000
430.978;  -53.000; -795.000; -764.000
431.102;  -70.900; -499.000; -422.000
431.226; -108.225; -874.000; -815.000
431.350;   43.225;  345.000;  422.000
431.474;  -66.275; -661.000; -373.000
431.597; -155.275;-1060.000; -848.000
431.721;  -88.625; -276.000; -267.000
431.845; -137.575; -704.000; -472.000
431.969;  -97.850; -304.000; -349.000
432.093; -104.650; -395.000; -317.000
432.217;  -24.300;   32.000;   82.000
432.341;  -82.275; -523.000; -518.000
432.464;   10.000;   96.000;   40.000
432.588;  290.250; -401.000; -329.000
432.712;  137.000;  -52.000;  -52.000
432.836;   33.900;  213.000;  263.000
432.959;  -29.575; -372.000; -311.000
433.083;   49.550;   11.000;    2.000
433.207;  343.175;  285.000;  930.000
433.330; 4231.375; -391.000; -200.000
433.454; 5174.025; -654.000; -638.000
433.578; 3042.150;  583.000;  278.000
433.701;  581.725; -623.000; -675.000
433.825;  193.625; -292.000; -299.000
433.949;  296.975;   28.000;  -72.000
434.072;  139.075; -410.000; -323.000
434.196;   -8.675; -309.000; -117.000
434.319; 3749.550;25482.000;25124.000
434.443;  739.000; -656.000; -603.000
434.566; 2278.700;  281.000;   62.000
434.690;  361.475; -637.000; -383.000
434.813;   62.125; -251.000; -173.000
434.937;  -70.625; -569.000; -696.000
435.060;   -8.225; -423.000; -332.000
435.184;  533.750; -492.000; -217.000
435.307;  289.400;  159.000;  102.000
435.431;    3.025;  -40.000;   24.000
435.554;  -78.500; -399.000; -240.000
435.677;  -93.025; -350.000; -258.000
435.801;  -31.400;  -25.000;   49.000
435.924;    2.625;    1.000;  -67.000
436.048;  -75.150;-1019.000; -732.000
436.171;  -64.925; -240.000;  -66.000
436.294;  -27.525; -248.000; -229.000
436.417;   46.650; -963.000; -849.000
436.541;  -98.150; -814.000; -840.000
436.664;  -68.425; -242.000; -316.000
436.787;  -12.650;   13.000;  113.000
436.910; -112.800; -792.000; -422.000
437.034;   32.125;  142.000;  143.000
437.157;  107.075;  -11.000;    0.000
437.280;  -27.575; -392.000; -292.000
437.403;  -51.475; -982.000; -869.000
437.526; 1024.775; -903.000; -865.000
437.649; 3510.325; -505.000; -332.000
437.772;  556.750; -692.000; -540.000
437.896;  154.775;  700.000;  544.000
438.019;  -88.425; -758.000; -503.000
438.142;  -85.100; -596.000; -506.000
438.265;   38.300; -639.000; -670.000
438.388;  846.525; -520.000; -410.000
438.511;  197.075; -597.000; -394.000
438.634;  -37.925; -247.000; -125.000
438.757; -136.025; -693.000; -619.000
438.880;   -6.475;  -34.000;  -57.000
439.003;  -80.650; -417.000; -437.000
439.126;  -70.700; -287.000; -167.000
439.248;  -47.025;  -98.000; -139.000
439.371;  -45.700;    9.000;  -53.000
439.494;   21.800;  510.000;  439.000
439.617;  -49.850;   65.000;  -88.000
439.740; -187.750; -968.000; -816.000
439.863; -161.625; -755.000; -595.000
439.986; -129.175; -476.000; -431.000
440.108;  -45.850; -161.000; -112.000
440.231; -152.100; -950.000; -836.000
440.354;  -33.250;  -64.000; -150.000
440.477;   89.325; -566.000; -542.000
440.599;   33.900; -200.000; -225.000
440.722; -118.550; -709.000; -586.000
440.845;   64.250;  751.000;  928.000
440.968; -109.425; -415.000; -311.000
441.090;  -72.600; -199.000;  -33.000
441.213; -172.875;-1021.000; -825.000
441.336;  -54.275; -159.000;   -5.000
441.458;  -74.100; -549.000; -396.000
441.581;  -68.400; -628.000; -629.000
441.703;  -71.275; -152.000;   13.000
441.826; -113.875; -557.000; -400.000
441.948;  -61.150;   56.000;   51.000
442.071;   21.650;  555.000;  424.000
442.193; -109.300; -531.000; -485.000
442.316;   19.825;  152.000;   97.000
442.438;   22.450; -233.000;  -10.000
442.561;   90.325;  272.000;  262.000
442.683;  841.525; -809.000; -522.000
442.806; 1739.200;   -8.000;   74.000
442.928;  116.575; -859.000; -604.000
443.051;  -60.025; -577.000; -373.000
443.173;  -80.625; -341.000; -339.000
443.295;  -98.150; -263.000; -371.000
443.418;  -84.150; -321.000;  -29.000
443.540;   -7.225; -106.000;   -4.000
443.662; -115.175; -563.000; -465.000
443.785;  -24.550;  335.000;  199.000
443.907; -103.825; -362.000; -208.000
444.029; -132.150; -767.000; -494.000
444.152; -140.150; -644.000; -554.000
444.274;  -28.475;  -18.000;  -24.000
444.396; -125.650; -461.000; -221.000
444.518; -127.325; -691.000; -454.000
444.640; -111.900; -268.000; -111.000
444.763;  -31.975;  388.000;  249.000
444.885; -116.925; -432.000; -392.000
445.007;  -33.225;   35.000;   86.000
445.129; -128.150; -610.000; -515.000
445.251; -103.675; -372.000; -439.000
445.373; -128.600; -537.000; -386.000
445.495;    3.750;  242.000;  350.000
445.617;   44.100;  853.000;  753.000
445.739;  -60.800; -215.000;  -97.000
445.861;  -34.875; -245.000; -112.000
445.984;  -22.525; -267.000; -101.000
446.105;  316.975; -418.000; -251.000
446.227;  865.000; -176.000;  -19.000
446.349;   30.925; -358.000; -249.000
446.471; -110.450; -615.000; -448.000
446.593;  -59.850; -316.000;   19.000
446.715;   11.325;  -67.000;   41.000
446.837;   46.500;  697.000;  832.000
446.959; -100.500; -457.000; -478.000
447.081; -142.050; -628.000; -518.000
447.203;   51.975;  862.000;  834.000
447.325;  -91.025; -270.000;   42.000
447.446;   -3.225;  286.000;  530.000
447.568; -161.100; -921.000; -803.000
447.690;  -82.175; -236.000; -245.000
447.812; -165.275; -798.000; -519.000
447.933;  -25.300;  155.000;  127.000
448.055;  -62.325; -306.000; -261.000
448.177;  201.300;   31.000;   79.000
448.299;  174.025; -935.000; -727.000
448.420;   32.950;  -25.000;  159.000
448.542;  -43.825;   -3.000;   33.000
448.664;  -18.875;  109.000;  322.000
448.785;  -45.675;  265.000;   83.000
448.907;  -83.825; -614.000; -353.000
449.028;   -8.450; -771.000; -471.000
449.150;   62.225;  492.000;  589.000
449.272; -177.250;-1044.000; -913.000
449.393;    8.500;  612.000;  694.000
449.515; -138.700; -634.000; -581.000
449.636;  -54.100; -264.000; -155.000
449.758;   77.575;  763.000;  622.000
449.879;  -97.625; -498.000; -396.000
450.001;  -81.075; -149.000;  -49.000
450.122;  -43.775;  -95.000;  162.000
450.244;  -24.775;   37.000;  364.000
450.365;  -96.250; -495.000; -301.000
450.486;  -33.400;   80.000;  268.000
450.608;    2.200;  393.000;  326.000
450.729;   39.850;  578.000;  645.000
450.850;  -26.975; -574.000; -466.000
450.972;  561.225; -552.000; -389.000
451.093; 3922.775;  190.000;  588.000
451.214; 1659.875; -516.000; -337.000
451.336;  311.400;  773.000;  579.000
451.457;   48.875;  264.000;  393.000
451.578;  -57.150; -118.000;  -74.000
451.699; -127.875; -546.000; -540.000
451.821;  -73.050; -284.000;  -50.000
451.942;  -14.275;  278.000;  285.000
452.063;    9.600;  228.000;  419.000
452.184;  447.625;  -54.000;  -49.000
452.305;  927.000;  103.000;  170.000
452.427;   81.475; -549.000; -301.000
452.548;  -26.775;   23.000;   79.000
452.669;  -41.625; -257.000;  -89.000
452.790;  -41.450;    3.000;  -18.000
452.911;   -6.250;  195.000;  259.000
453.032;  -72.575; -289.000;  -60.000
453.153;  -39.775;  -29.000;   81.000
453.274;   74.425;  737.000;  868.000
453.395;  -35.700;  -51.000;  175.000
453.516;  143.275; 1317.000; 1388.000
453.637;  -66.575; -205.000; -150.000
453.758;  -61.075;   15.000;   69.000
453.879; -125.000; -462.000; -250.000
454.000;   72.875; 1086.000;  948.000
454.121; -114.250; -554.000; -326.000
454.242; -140.925; -599.000; -383.000
454.362;  -76.425;  -99.000;  114.000
454.483;  -35.275; -309.000; -229.000
454.604;   69.575;  512.000;  580.000
454.725; -122.025; -627.000; -555.000
454.846; -130.125; -474.000; -406.000
454.967;  -38.825;  230.000;  539.000
455.087;  -51.775;  179.000;  153.000
455.208;   11.750;  554.000;  856.000
455.329;  -70.225;  -22.000;   82.000
455.450;   28.175;  473.000;  633.000
455.570;  -85.625; -234.000; -211.000
455.691;  -61.200;  201.000;  407.000
455.812; -111.175; -270.000;  -92.000
455.932;  -62.725;  107.000;  -97.000
456.053;  -76.975;   36.000;   24.000
456.173; -122.250; -433.000; -355.000
456.294; -144.000; -476.000; -303.000
456.415;  -66.675;  -73.000;   70.000
456.535;  -33.225;  297.000;  273.000
456.656;  -48.300;  132.000;  240.000
456.776;  -79.225;    3.000;  298.000
456.897;  -11.125;  308.000;  513.000
457.017;  -72.100; -153.000;   -3.000
457.138; -104.775; -402.000; -249.000
457.258;  -25.650;  263.000;  224.000
457.379;  -25.750;  509.000;  521.000
457.499;  -22.050;  443.000;  432.000
457.620; -140.450; -407.000; -231.000
457.740;  -90.350; -132.000;  -11.000
457.860;  -57.725;   87.000;   44.000
457.981;  -40.150;  132.000;  124.000
458.101;  -69.950;  -89.000;   40.000
458.221;  -24.825;  336.000;  402.000
458.342;  -70.575;   -4.000;  -37.000
458.462;    0.000;  617.000;  352.000
458.582;  -60.750; -302.000; -294.000
458.703;  -23.825;  303.000;  154.000
458.823;  -44.425;   22.000;  163.000
458.943;   21.725;  341.000;  467.000
459.063;  -19.850; 1124.000;  192.000
459.183;  -26.575;  328.000;  313.000
459.304;   -4.100;  315.000;  517.000
459.424;  -93.750; -246.000;  -89.000
459.544;  274.550;  388.000;  764.000
459.664;  699.750;  499.000;  506.000
459.784;  262.250; 1004.000; 1175.000
459.904;   45.175;  867.000;  744.000
460.024;   70.850;  867.000;  684.000
460.144;   26.325;  449.000;  554.000
460.264;  -19.450;  515.000;  327.000
460.385; -108.700; -145.000; -119.000
460.505;   31.825;  905.000;  858.000
460.625;  -94.550;  -17.000;  -68.000
460.745;  -39.700;  396.000;  541.000
460.864;  -63.250;  153.000;  469.000
460.984;    9.625;  499.000;  573.000
461.104;  134.500; 1656.000; 1775.000
461.224;    9.925;  657.000;  650.000
461.344;  -29.400;  431.000;  360.000
461.464;  -26.825;  258.000;  513.000
461.584;   -5.775;  283.000;  466.000
461.704;  -43.175;   58.000;  108.000
461.824;  -52.600;  238.000;  259.000
461.943;  -52.975;  191.000;  130.000
462.063;  -83.450;    2.000;  324.000
462.183;   34.025;  639.000;  717.000
462.303;  109.950; 1678.000; 1230.000
462.422;   13.050;  781.000;  840.000
462.542;  -47.725;  271.000;  391.000
462.662;   43.150;  353.000;  380.000
462.782;  216.375;  833.000;  572.000
462.901;  398.725;  545.000;  717.000
463.021;  250.250; 1702.000; 1638.000
463.141;  -19.850;  337.000;  770.000
463.260;  -21.900;  614.000;  474.000
463.380;    5.000;  902.000;  884.000
463.499;  -50.075;  342.000;  332.000
463.619;  -36.075;  581.000;  559.000
463.738;  116.200; 1644.000;  903.000
463.858;   23.075;  657.000;  811.000
463.978;  -36.025;  542.000;  396.000
464.097;   28.925;  921.000; 1114.000
464.217;   84.800; 1196.000; 1143.000
464.336;   97.825; 1068.000; 1130.000
464.455;  -45.725;  328.000;  659.000
464.575;   46.950;  597.000;  602.000
464.694;  195.075; 1204.000; 1179.000
464.814;  118.525; 1190.000; 1138.000
464.933;   69.125; 1095.000; 1027.000
465.052;   94.950; 1412.000; 1054.000
465.172;   73.650;  922.000;  799.000
465.291;  154.900; 1376.000; 1320.000
465.410;   25.525;  462.000;  735.000
465.530;   96.450; 1355.000; 1310.000
465.649;   62.150; 1209.000; 1273.000
465.768;  140.675; 1673.000; 1508.000
465.888;   68.675;  941.000; 1174.000
466.007;   90.500; 1335.000; 1440.000
466.126;   -5.925;  721.000;  641.000
466.245;   39.025; 1176.000; 1187.000
466.364;   23.050;  950.000; 1060.000
466.484;   57.150; 1024.000; 1213.000
466.603;   36.500; 1101.000; 1222.000
466.722;  123.975; 1490.000; 1769.000
466.841;   76.925; 1151.000; 1401.000
466.960;   41.400; 1069.000;  972.000
467.079;  141.250; 1971.000; 1786.000
467.198;   27.350; 1238.000; 1181.000
467.317;   82.250; 1768.000; 1162.000
467.436;   55.750; 1709.000; 1261.000
467.555;  120.925; 1796.000; 1746.000
467.674;   54.525; 1227.000; 1329.000
467.793;   57.025; 1376.000; 1374.000
467.912;   71.325; 1658.000; 1539.000
468.031;  129.525; 2038.000; 1930.000
468.150;  142.200; 1842.000; 1837.000
468.269;  194.450; 2313.000; 2090.000
468.388;  177.850; 2168.000; 2339.000
468.507;  260.225; 2884.000; 2903.000
468.626;  221.300; 2555.000; 2541.000
468.744;  135.100; 2018.000; 2174.000
468.863;  196.600; 2312.000; 2523.000
468.982;   79.800; 1503.000; 1555.000
469.101;  213.475; 2788.000; 2692.000
469.220;  147.375; 2333.000; 2176.000
469.338;  224.975; 2935.000; 3051.000
469.457;  194.725; 2719.000; 2545.000
469.576;  335.700; 3953.000; 3784.000
469.695;  231.025; 2877.000; 3066.000
469.813;  424.975; 4148.000; 4192.000
469.932;  404.250; 4255.000; 4485.000
470.051;  411.200; 4075.000; 4161.000
470.169;  784.625; 4470.000; 4338.000
470.288; 1291.475; 4700.000; 4809.000
470.406;  780.425; 5059.000; 5194.000
470.525;  619.250; 6101.000; 5787.000
470.644;  649.400; 6847.000; 6794.000
470.762;  823.925; 8397.000; 7873.000
470.881;  910.875; 8651.000; 8464.000
470.999; 1017.425; 9685.000; 9151.000
471.118; 1107.425;11174.000;10711.000

