
Integration time [ms]: 100.000
Averaging Nr. [scans]: 40
Smoothing Nr. [pixels]: 0
Data measured with spectrometer [name]: 2101012U2
Wave   ;Sample   ;Dark     ;Reference
[nm]   ;[counts] ;[counts] ;[counts] 

197.733;   50.725;  516.000;  404.000
197.879;  -84.775; -610.000; -634.000
198.025;  -52.600; -475.000; -420.000
198.171;  -82.900; -602.000; -612.000
198.317;  -28.650; -401.000; -316.000
198.463;  -65.825; -655.000; -404.000
198.609;   26.925;  181.000; -137.000
198.755;  -80.200; -644.000; -410.000
198.901;  -66.625; -505.000; -424.000
199.047;  -53.775; -615.000; -488.000
199.193;  -39.325; -230.000; -468.000
199.339;  -42.900; -222.000; -369.000
199.485;   32.725;  330.000;  271.000
199.631;   13.825;  227.000;  310.000
199.777;  -44.475; -466.000; -398.000
199.923;  -59.550; -610.000; -424.000
200.069;   -5.550; -141.000;  -58.000
200.215;   43.225;  128.000;  453.000
200.361;   38.025;  243.000;  477.000
200.507;  -53.925; -600.000; -373.000
200.653;  -31.775; -371.000; -194.000
200.798;  -35.875; -215.000; -125.000
200.944;  -10.975; -146.000;  -41.000
201.090;   32.150;   61.000;  222.000
201.236;   -5.375; -116.000; -158.000
201.382;  119.300;  874.000;  903.000
201.528;   10.400;  -58.000;  -48.000
201.674;  -24.600; -386.000; -293.000
201.819;  -64.200; -540.000; -439.000
201.965;  -82.525; -699.000; -447.000
202.111;  -38.725; -273.000; -226.000
202.257;  -36.575; -250.000; -238.000
202.402;    0.200;   13.000;  -36.000
202.548;  -33.150; -169.000; -116.000
202.694;   87.025;  410.000; -183.000
202.840;  -70.125; -603.000; -531.000
202.985;  -68.050; -681.000; -639.000
203.131; -101.000; -832.000; -666.000
203.277;  -22.850; -199.000; -262.000
203.423;  -54.575; -434.000; -520.000
203.568;  -43.250; -462.000; -237.000
203.714;  -60.700; -535.000; -542.000
203.860;  -69.075; -682.000; -641.000
204.005;    7.675;  112.000;  167.000
204.151;   73.925;  561.000;  556.000
204.296;  -49.850; -354.000; -221.000
204.442;  -65.425; -600.000; -547.000
204.588;  -73.700; -592.000; -579.000
204.733;   14.875;  178.000;  168.000
204.879; -124.950;-1018.000; -822.000
205.025;    8.375;  -99.000;  126.000
205.170;   10.550;  -17.000;   94.000
205.316;   98.450;  438.000;  661.000
205.461;  -82.300; -698.000; -554.000
205.607;   75.100;  609.000;  665.000
205.752;  -86.450; -626.000; -551.000
205.898;  -59.625; -501.000; -391.000
206.043;  -67.000; -578.000; -506.000
206.189;  -41.875; -243.000; -285.000
206.334;   77.650;  554.000;  606.000
206.480;   82.200;  409.000;  239.000
206.625;  -74.900; -529.000; -552.000
206.771;  -36.775; -451.000; -373.000
206.916;  -20.525; -210.000; -537.000
207.062;  -72.375; -545.000; -591.000
207.207;  -62.050; -546.000; -443.000
207.353;   34.600;  185.000;  460.000
207.498;    9.250;  196.000;   85.000
207.643;  -65.075; -501.000; -370.000
207.789; -120.400;-1069.000; -910.000
207.934;  -97.800; -665.000; -713.000
208.080;  -22.950; -154.000;   66.000
208.225;    6.200;  -22.000;  -57.000
208.370;  -88.500; -727.000; -619.000
208.516;  -78.725; -741.000; -487.000
208.661;  -22.350; -127.000;  -69.000
208.806;   -4.275; -165.000; -171.000
208.952; -111.975;-1044.000; -731.000
209.097;   73.400;  378.000;  349.000
209.242;  -57.375; -307.000; -382.000
209.387;   57.200;  392.000;  350.000
209.533;  -56.500; -321.000; -350.000
209.678;   70.425;  472.000;  543.000
209.823;  -54.600; -408.000; -310.000
209.969;  -97.050; -860.000; -757.000
210.114; -108.200; -907.000; -719.000
210.259; -115.300; -939.000; -889.000
210.404;   -8.250; -171.000;  103.000
210.549;    3.900;  108.000;    3.000
210.695;  -15.850;   -3.000;  -95.000
210.840;   31.000;   94.000;   67.000
210.985;  -62.325; -484.000; -303.000
211.130;   51.425;  268.000;  406.000
211.275;   34.200;  207.000;  199.000
211.420;  -59.225; -300.000; -289.000
211.566;  -74.775; -536.000; -489.000
211.711;   14.750;  218.000;  157.000
211.856;  -75.775; -545.000; -519.000
212.001;    1.600;  151.000;   44.000
212.146;   35.525;  153.000;   49.000
212.291;  -16.175; -210.000; -186.000
212.436;  -25.475; -280.000;   -6.000
212.581;  -90.600; -685.000; -653.000
212.726;  -67.975; -487.000; -538.000
212.871;  -53.725; -552.000; -217.000
213.016; -152.325;-1172.000;-1029.000
213.161;   66.175;  406.000;  291.000
213.306;  -56.200; -435.000; -577.000
213.451; -104.025; -778.000; -689.000
213.596;  -38.375; -455.000; -347.000
213.741;  -54.625; -448.000; -538.000
213.886;  -72.925; -498.000; -517.000
214.031;  -22.625; -294.000; -124.000
214.176;  -53.350; -408.000; -341.000
214.321;  -31.600; -296.000; -157.000
214.466;  -26.575; -163.000;  -43.000
214.611;   -5.775;  -61.000;  -10.000
214.756; -119.575; -948.000; -858.000
214.901;  -21.775; -388.000; -226.000
215.046; -121.275; -797.000; -825.000
215.191;   20.800;  128.000;   35.000
215.336;   -5.350; -157.000;  -19.000
215.480;  -66.575; -684.000; -505.000
215.625;   -3.200; -175.000;  -19.000
215.770;  -85.050; -757.000; -662.000
215.915;   -3.225;   -5.000;  -97.000
216.060;  -16.425; -113.000;  -21.000
216.205; -118.050; -731.000; -779.000
216.349;  -73.325; -470.000; -533.000
216.494; -122.950; -939.000; -867.000
216.639; -116.725; -823.000; -888.000
216.784;  -91.225; -577.000; -525.000
216.929;   46.100;  392.000;  281.000
217.073;  -11.975; -244.000;  -31.000
217.218;   10.125;   78.000;  -47.000
217.363;  -79.600; -656.000; -618.000
217.507;  -82.750; -623.000; -588.000
217.652; -121.475; -845.000; -874.000
217.797;  -89.000; -708.000; -659.000
217.942; -105.300; -856.000; -720.000
218.086;   72.675;  608.000;  539.000
218.231;  -24.575; -174.000;  -26.000
218.376;  -37.450; -337.000; -229.000
218.520;    3.150;  -41.000;   96.000
218.665;  -29.675; -338.000; -204.000
218.810;  -51.325; -275.000; -233.000
218.954;   19.725;  201.000;   35.000
219.099; -101.775; -713.000; -963.000
219.243;  -70.600; -589.000; -554.000
219.388;  -24.575; -264.000; -136.000
219.532;  -24.475; -116.000; -116.000
219.677;  -88.900; -564.000; -521.000
219.822;   -7.650;   33.000;   89.000
219.966;    2.075;   17.000;  -99.000
220.111;  -31.725; -328.000;  -40.000
220.255; -105.325; -797.000; -750.000
220.400;  -18.775; -180.000; -146.000
220.544;  -67.575; -516.000; -450.000
220.689;  -40.950; -422.000; -451.000
220.833;  -26.775; -123.000;  -58.000
220.978;  -63.025; -393.000; -563.000
221.122;   25.825;  319.000;  307.000
221.267; -127.425; -906.000; -837.000
221.411;  -62.650; -478.000; -394.000
221.555;  -12.175; -104.000;  -23.000
221.700;  -51.450; -329.000; -222.000
221.844;   40.225;  255.000;  272.000
221.989;  -54.800; -328.000; -311.000
222.133;  -37.450; -289.000; -307.000
222.277;   -5.375;    5.000;   78.000
222.422;   17.200;  227.000;  113.000
222.566;  -38.675; -381.000; -214.000
222.711;  -60.575; -414.000; -479.000
222.855;  -75.975; -643.000; -586.000
222.999;  -82.900; -642.000; -717.000
223.144;  -32.575; -195.000; -194.000
223.288;   53.050;  423.000;  251.000
223.432;   27.750;  184.000;  230.000
223.576;   13.625;  152.000;  -21.000
223.721;   32.925;  364.000;  273.000
223.865;  -65.950; -472.000; -475.000
224.009;  214.025; 1673.000; 1631.000
224.153;  -84.925; -660.000; -671.000
224.298;  -72.550; -531.000; -489.000
224.442;  -11.825;  -74.000;  -33.000
224.586;    4.400; -169.000; -106.000
224.730; -100.675; -858.000; -670.000
224.875; -105.350; -739.000; -688.000
225.019;   -2.500;  102.000;  188.000
225.163;   46.500;  208.000;  341.000
225.307;   17.375;   97.000;  -91.000
225.451;   47.075;  360.000;  481.000
225.595;   32.575;  264.000;  176.000
225.739;  -24.450; -170.000;  -94.000
225.884;   12.025;   86.000;    5.000
226.028;  -96.500; -760.000; -626.000
226.172;  -42.900; -260.000; -273.000
226.316; -124.875; -941.000; -902.000
226.460;  -70.150; -645.000; -493.000
226.604;  -44.075; -406.000; -400.000
226.748; -111.075; -836.000; -733.000
226.892;  -30.100; -227.000; -181.000
227.036;  -45.825; -537.000; -447.000
227.180;  -59.225; -551.000; -375.000
227.324;  -68.325; -561.000; -580.000
227.468; -118.575; -819.000; -717.000
227.612;    5.175;  242.000;  -28.000
227.756; -104.600; -845.000; -698.000
227.900;   47.300;  342.000;  441.000
228.044;  -58.100; -509.000; -290.000
228.188;   60.225;  448.000;  568.000
228.332;  -81.550; -546.000; -472.000
228.476;  -23.500; -223.000; -149.000
228.620;  -30.350; -210.000; -150.000
228.764;   63.450;  431.000;  349.000
228.908;  -23.550; -155.000;   30.000
229.052;  -64.625; -615.000; -528.000
229.195;  -12.700; -172.000;   13.000
229.339;  -31.975; -235.000; -305.000
229.483;  -26.275;    5.000; -162.000
229.627;   -8.825; -156.000;  139.000
229.771;  -48.850; -218.000; -294.000
229.915;   11.125;  230.000;   79.000
230.059;  -90.675; -648.000; -663.000
230.202;  -43.225; -370.000; -317.000
230.346;  -16.625; -107.000;  107.000
230.490;  -75.000; -489.000; -521.000
230.634; -112.975; -736.000; -553.000
230.777;   74.725;  478.000;  509.000
230.921;  -49.400; -450.000; -359.000
231.065;  -46.700; -246.000; -286.000
231.209;   27.350;  261.000;  265.000
231.352;    9.450;   54.000;   40.000
231.496;   12.225;  568.000;  188.000
231.640;  -82.225; -693.000; -621.000
231.783;   71.350;  546.000;  525.000
231.927;  -40.525; -294.000; -365.000
232.071; -113.525; -962.000; -736.000
232.214; -109.500; -980.000; -764.000
232.358; -108.325; -683.000; -599.000
232.502;    5.200;  -19.000;    7.000
232.645; -154.675;-1090.000; -927.000
232.789;  -24.000; -257.000; -218.000
232.933;  -36.100; -407.000; -224.000
233.076; -136.325;-1038.000; -897.000
233.220; -111.075; -752.000; -777.000
233.363;  -71.500; -669.000; -477.000
233.507;   43.025;  371.000;  129.000
233.650;  -97.150; -764.000; -834.000
233.794;   43.025;  438.000;  461.000
233.938;  -57.125; -530.000; -362.000
234.081;    2.575;  -93.000;   31.000
234.225;  -63.000; -631.000; -539.000
234.368; -118.650; -773.000; -723.000
234.512;  -49.225; -385.000; -299.000
234.655;  -80.250; -582.000; -555.000
234.798;  -66.650; -493.000; -466.000
234.942; -134.975; -884.000;-1002.000
235.085;  -87.175; -651.000; -443.000
235.229;  -73.525; -405.000; -410.000
235.372;  -41.875; -247.000; -191.000
235.516;  -61.025; -397.000; -321.000
235.659;   18.900;   92.000;  121.000
235.802;   10.300;  -38.000;  -22.000
235.946;   23.950;  335.000;  215.000
236.089;   24.525;  126.000;  250.000
236.233;   41.275;  275.000;  298.000
236.376;  -54.200; -235.000; -378.000
236.519;  -46.975; -297.000; -319.000
236.663;  -23.325; -215.000; -117.000
236.806; -134.450;-1029.000; -999.000
236.949;   64.150;  543.000;  431.000
237.092;   50.025;  412.000;  391.000
237.236;  -80.100; -589.000; -502.000
237.379;   50.950;  352.000;  428.000
237.522; -126.750; -879.000; -768.000
237.666;  -28.725; -271.000;   18.000
237.809; -129.675; -851.000; -823.000
237.952;   32.425;  469.000;  271.000
238.095;  -64.675; -447.000; -442.000
238.238;   92.000;  688.000;  700.000
238.382;    2.250;  166.000;  103.000
238.525;  -73.225; -598.000; -511.000
238.668; -143.775;-1060.000; -985.000
238.811;  -75.150; -638.000; -643.000
238.954;  -66.000; -483.000; -334.000
239.097;   89.100;  617.000;  664.000
239.241;   21.450;  394.000;  326.000
239.384;  -32.400; -254.000; -214.000
239.527;  -52.275; -424.000; -224.000
239.670; -143.775; -994.000;-1091.000
239.813; -115.775; -696.000; -658.000
239.956;   74.075;  579.000;  473.000
240.099; -110.800; -778.000; -725.000
240.242;   57.325;  428.000;  432.000
240.385;   42.825;  466.000;  450.000
240.528;  -79.575; -706.000; -473.000
240.671;    7.200;  189.000;  134.000
240.814;  -35.950; -441.000; -158.000
240.957; -108.950; -767.000; -578.000
241.100;  -93.100; -779.000; -755.000
241.243; -138.425;-1234.000; -893.000
241.386;  -61.850; -508.000; -379.000
241.529;  -87.400; -735.000; -547.000
241.672;  -63.475; -566.000; -495.000
241.815; -134.050; -832.000; -808.000
241.958;  -29.725; -125.000; -182.000
242.101;  -83.300; -545.000; -390.000
242.244;  -43.700; -270.000; -325.000
242.387;  -32.325; -304.000; -246.000
242.530;   56.025;  470.000;  134.000
242.673;  -50.850; -381.000; -309.000
242.815; -111.600; -925.000; -899.000
242.958;  -64.150; -482.000; -381.000
243.101;   20.575;  132.000;  187.000
243.244;  -64.650; -564.000; -521.000
243.387;  -55.975; -313.000; -316.000
243.530;  -86.175; -657.000; -674.000
243.672;    2.350;   43.000;  -92.000
243.815;  -59.550; -355.000; -283.000
243.958;   -8.300;   98.000;  -26.000
244.101;   -0.050;   59.000;  -16.000
244.243;  -10.575;  -47.000;  101.000
244.386;  -98.700; -761.000; -630.000
244.529;  -24.325; -132.000; -139.000
244.672; -158.875;-1154.000; -951.000
244.814;  -96.925; -621.000; -794.000
244.957;  -44.025; -380.000; -304.000
245.100;  -71.250; -489.000; -489.000
245.242;  -50.200; -387.000; -374.000
245.385;   -6.425;  -59.000;  -39.000
245.528; -120.275; -871.000; -705.000
245.670;   91.300;  612.000;  634.000
245.813;  -94.225; -599.000; -547.000
245.956;  -30.450; -324.000; -275.000
246.098;  -61.850; -508.000; -650.000
246.241;   -1.700;  194.000;   48.000
246.383;  -18.775; -119.000;  -73.000
246.526;  -69.850; -454.000; -525.000
246.669; -118.075; -889.000; -780.000
246.811;   32.175;  172.000;   -1.000
246.954;  -64.950; -512.000; -426.000
247.096;  -27.050;  -84.000;   -6.000
247.239;  -80.725; -482.000; -445.000
247.381;  -76.850; -647.000; -488.000
247.524;   82.075;  645.000;  679.000
247.666;    0.200;   58.000;   11.000
247.809; -117.575; -887.000; -691.000
247.951;  -20.800;  -75.000;  138.000
248.094;   23.775;  432.000;  308.000
248.236; -160.200;-1262.000;-1238.000
248.378;    1.300; -356.000;  -81.000
248.521;  -38.425; -334.000; -337.000
248.663;  -26.750; -236.000; -267.000
248.806;  -33.075; -300.000; -266.000
248.948;  -98.175; -886.000; -763.000
249.090;  -45.200; -428.000; -398.000
249.233;  -46.525; -344.000; -381.000
249.375;  -60.050; -474.000; -451.000
249.518;  -26.050;  -83.000; -133.000
249.660;  -12.175; -103.000;    3.000
249.802; -176.950;-1303.000;-1189.000
249.945;  -82.225; -612.000; -540.000
250.087; -110.475; -834.000; -768.000
250.229;  -49.850; -362.000; -480.000
250.371;  -77.025; -494.000; -439.000
250.514;  -56.575; -310.000; -244.000
250.656;  -67.800;   69.000;  102.000
250.798; -114.950; -849.000; -800.000
250.940;  -71.800; -322.000; -322.000
251.083;  -35.100; -335.000; -111.000
251.225;   58.000;  338.000;  310.000
251.367;  -49.950; -274.000; -373.000
251.509;  -36.875; -265.000; -210.000
251.651;  -99.625; -731.000; -671.000
251.794;   52.875;  538.000;  632.000
251.936; -104.050; -821.000; -747.000
252.078;  -76.825; -540.000; -461.000
252.220;  -78.175; -645.000; -477.000
252.362;   78.075;  344.000;  462.000
252.504;  -69.250; -677.000; -584.000
252.646; -110.875; -875.000; -722.000
252.788;    1.325;   14.000; -128.000
252.931;  -34.975; -257.000; -253.000
253.073;  -43.300; -376.000; -317.000
253.215;  -23.975;  141.000;  122.000
253.357;  -22.275;   82.000; -153.000
253.499;  -36.525; -374.000; -234.000
253.641;  -93.125; -749.000; -594.000
253.783;  -86.875; -609.000; -527.000
253.925;  -86.250; -586.000; -591.000
254.067; -103.200; -744.000; -667.000
254.209;  -37.325; -391.000; -259.000
254.351; -140.325; -865.000; -883.000
254.493;  -66.075; -441.000; -417.000
254.635; -123.400; -936.000; -818.000
254.777;  -99.450; -752.000; -687.000
254.918;  -65.250; -512.000; -430.000
255.060;  -51.600; -551.000; -395.000
255.202;  -60.425; -473.000; -261.000
255.344;  -83.475; -658.000; -455.000
255.486;  -88.000; -471.000; -406.000
255.628; -120.050; -780.000; -781.000
255.770; -100.375; -676.000; -536.000
255.912;  -62.875; -559.000; -468.000
256.053;  -90.350; -730.000; -508.000
256.195;  154.050; 1008.000;  903.000
256.337;  -99.625; -861.000; -595.000
256.479;   61.425;  532.000;  416.000
256.621;  -48.100; -394.000; -212.000
256.762;  -92.375; -789.000; -742.000
256.904;   40.475;  485.000;  487.000
257.046;  -45.300; -381.000; -271.000
257.188;  -43.700; -351.000; -264.000
257.329;  -69.475; -525.000; -464.000
257.471; -122.850; -939.000; -807.000
257.613;  -68.850; -584.000; -498.000
257.755; -150.150;-1073.000; -982.000
257.896;   34.250;  286.000;  392.000
258.038;  -70.250; -403.000; -352.000
258.180;  -49.025; -354.000; -279.000
258.321;  -88.700; -581.000; -457.000
258.463;  -10.300;  -71.000;  133.000
258.605;  -94.725; -562.000; -570.000
258.746; -111.950; -886.000; -772.000
258.888; -134.725;-1026.000;-1020.000
259.029;   15.950;  121.000;   -8.000
259.171;  -97.225; -614.000; -550.000
259.313;   -1.500;  -49.000;  -47.000
259.454;  -70.875; -536.000; -414.000
259.596;  -54.650; -483.000; -390.000
259.737;  -83.225; -590.000; -474.000
259.879;   30.025;  217.000;  311.000
260.020;   87.875;  901.000;  636.000
260.162;  -36.475; -146.000; -253.000
260.303; -117.650; -768.000; -687.000
260.445;  -86.525; -609.000; -613.000
260.586;   36.125;  392.000;  157.000
260.728;  -46.275; -360.000; -248.000
260.869; -119.650; -350.000; -343.000
261.011;   73.775;  706.000;  537.000
261.152;  -75.375; -479.000; -319.000
261.293;  -76.850; -576.000; -595.000
261.435;  -31.225; -219.000; -184.000
261.576;  -57.025; -455.000; -325.000
261.718;   54.675;  420.000;  470.000
261.859; -132.925; -940.000; -949.000
262.000; -128.750; -951.000;-1016.000
262.142;  -30.200;  -52.000;  -60.000
262.283; -127.150; -808.000; -691.000
262.424;  -85.700; -666.000; -625.000
262.566; -163.200;-1161.000; -983.000
262.707; -122.100; -840.000; -830.000
262.848; -103.700; -769.000; -726.000
262.990;  -48.675; -362.000; -345.000
263.131;   71.400;  650.000;  681.000
263.272;  -11.425;  -61.000;  -41.000
263.413;  -94.400; -589.000; -561.000
263.555;  -62.325; -669.000; -143.000
263.696;  -86.175; -550.000; -641.000
263.837;  -48.050; -449.000; -551.000
263.978;    0.250;   -5.000;  -77.000
264.119;  -49.375; -283.000; -264.000
264.261; -108.125; -847.000; -630.000
264.402;    0.825;   33.000;   40.000
264.543;  -86.175; -509.000; -524.000
264.684;  -13.475;   61.000;  -50.000
264.825;  -83.950; -816.000; -538.000
264.966;   -5.275;  -84.000;  -67.000
265.107; -106.100; -646.000; -670.000
265.248; -121.150; -825.000; -812.000
265.390;   -5.300;  152.000;   -9.000
265.531;  -17.725; -238.000; -107.000
265.672;  -81.125; -557.000; -630.000
265.813;   54.675;  563.000;  439.000
265.954; -152.675; -959.000; -940.000
266.095;  -30.850; -372.000; -322.000
266.236;  -97.725; -686.000; -548.000
266.377;  -40.100; -243.000; -297.000
266.518;  -65.350; -619.000; -547.000
266.659;   25.400;  170.000;  268.000
266.800;    9.125;   83.000;   85.000
266.941;  -76.025; -487.000; -478.000
267.082;   18.350;  354.000;   99.000
267.223;  -62.075; -344.000; -273.000
267.364; -112.950; -892.000; -686.000
267.504;  -23.450;    3.000;  135.000
267.645;   -3.225;  160.000;   67.000
267.786;  -30.875; -147.000;  -86.000
267.927;  -69.400; -473.000; -379.000
268.068;  -34.125; -186.000;  -61.000
268.209;  -47.800; -175.000; -413.000
268.350;  -64.275; -388.000; -532.000
268.490;  -86.450; -648.000; -521.000
268.631;   26.050;  127.000;  225.000
268.772; -112.000; -874.000; -647.000
268.913;  -53.800; -328.000; -476.000
269.054;  -12.675; -117.000;   12.000
269.194;  -56.350; -418.000; -402.000
269.335; -166.175;-1137.000;-1074.000
269.476;  -16.350;   33.000;  -35.000
269.617;  -53.125; -347.000; -392.000
269.757;  -90.350; -713.000; -646.000
269.898;  -96.200; -856.000; -613.000
270.039;  -80.700; -415.000; -405.000
270.180; -137.675; -952.000; -816.000
270.320;  -25.725; -190.000; -250.000
270.461;  -40.500; -277.000; -249.000
270.602;  -28.075; -186.000; -156.000
270.742; -135.475; -868.000; -943.000
270.883;  -63.800; -442.000; -390.000
271.023;  -57.325; -358.000; -357.000
271.164;  -72.625; -607.000; -528.000
271.305; -103.150; -666.000; -654.000
271.445;  -94.150; -722.000; -683.000
271.586;  -68.750; -462.000; -283.000
271.726;  -49.075; -397.000; -322.000
271.867;  -55.450; -594.000; -534.000
272.008;  162.175; -473.000; -285.000
272.148;  117.000;  462.000;  468.000
272.289;   11.425; -113.000; -181.000
272.429;    9.900;   19.000;  185.000
272.570;  -96.800; -633.000; -737.000
272.710;  -98.600; -825.000; -775.000
272.851;  -31.900;  113.000; -130.000
272.991; -154.225;-1173.000;-1077.000
273.131;  -66.550; -419.000; -459.000
273.272;  -87.350; -683.000; -723.000
273.412;    0.300; -143.000;  -31.000
273.553;  -59.275; -488.000; -507.000
273.693;  142.875;  913.000;  858.000
273.834;  -96.825; -894.000; -692.000
273.974;  -86.125; -664.000; -615.000
274.114;  -99.275; -772.000; -560.000
274.255;   70.075;  414.000;  373.000
274.395;    5.125; -180.000; -125.000
274.535;   35.700;  199.000;  350.000
274.676;   24.150;  225.000;   94.000
274.816;   -7.900;  110.000;   34.000
274.956;  -83.775; -624.000; -690.000
275.097;  -65.100;-1014.000; -922.000
275.237; -115.800; -913.000; -803.000
275.377;  -93.350; -778.000; -689.000
275.517; -146.400; -878.000; -937.000
275.658;  -56.925; -590.000; -555.000
275.798;  -71.550; -606.000; -413.000
275.938;    9.825;  215.000;  323.000
276.078;  -96.250; -626.000; -395.000
276.218;    4.675;   99.000;  104.000
276.359; -121.975;-1026.000;-1024.000
276.499;  -77.450; -605.000; -446.000
276.639;  -30.200; -305.000; -151.000
276.779;  -51.200; -475.000; -357.000
276.919; -106.750; -783.000; -624.000
277.059;  -26.625; -261.000; -212.000
277.199;  -41.725; -357.000; -259.000
277.340;   32.975;  287.000;  175.000
277.480; -106.075; -840.000; -693.000
277.620;   26.050;  192.000;   16.000
277.760; -192.850;-1533.000;-1294.000
277.900;   -4.950;  113.000;   33.000
278.040;   11.550;  137.000;  159.000
278.180;   25.825;  270.000;  170.000
278.320;   -2.975;   21.000;   56.000
278.460;  -80.550; -443.000; -469.000
278.600;  -90.125; -708.000; -598.000
278.740;   53.300;  448.000;  224.000
278.880;  -77.675; -768.000; -791.000
279.020;  -16.550; -194.000; -144.000
279.160;  -92.250; -672.000; -595.000
279.300; -125.650; -926.000; -873.000
279.440;  -90.775; -709.000; -622.000
279.579;  -15.825;-1014.000; -929.000
279.719;  -64.800; -410.000; -394.000
279.859;   54.500;   -4.000;   41.000
279.999;   11.925; -208.000;  101.000
280.139;  -24.000; -435.000; -387.000
280.279;  -70.200; -708.000; -745.000
280.419;  -10.050; -229.000; -147.000
280.559;  -42.575; -259.000; -180.000
280.698;  -93.250; -790.000; -639.000
280.838; -113.500; -778.000; -800.000
280.978; -103.150; -846.000; -790.000
281.118; -118.675; -811.000; -704.000
281.257;    8.550;   24.000;    6.000
281.397; -118.450;-1094.000; -960.000
281.537;  -93.375; -599.000; -712.000
281.677;  -21.325; -150.000; -101.000
281.816;  -84.100; -700.000; -630.000
281.956;  -33.550; -193.000; -257.000
282.096;  -63.900; -539.000; -396.000
282.235; -116.375; -672.000; -638.000
282.375;  -30.100; -243.000;  -98.000
282.515; -100.900; -715.000; -707.000
282.654;   21.650;   29.000;  106.000
282.794;   25.475;  388.000;  244.000
282.934;  -67.450; -530.000; -491.000
283.073; -136.175;-1030.000; -857.000
283.213;  -64.725; -460.000; -467.000
283.353;  -37.525; -408.000; -349.000
283.492;  -42.200; -264.000; -296.000
283.632;  -53.250; -254.000; -168.000
283.771; -107.825; -859.000; -730.000
283.911;  -61.325; -369.000; -260.000
284.050; -121.800; -794.000; -748.000
284.190; -154.200;-1229.000;-1096.000
284.329; -135.175;-1055.000; -964.000
284.469;  -83.575; -516.000; -591.000
284.608;  -74.275; -559.000; -598.000
284.748;  -97.600; -614.000; -570.000
284.887;  -21.975;  -87.000;  -20.000
285.027; -124.350; -844.000; -892.000
285.166;  -28.750; -192.000; -249.000
285.306;   11.100; -116.000;  -33.000
285.445;  -41.325; -229.000; -343.000
285.584;  -97.575; -630.000; -494.000
285.724;  -50.250; -282.000; -322.000
285.863; -111.250; -857.000; -507.000
286.002;  -58.125; -366.000; -276.000
286.142; -100.650; -715.000; -622.000
286.281;  -87.025; -525.000; -493.000
286.420;  -86.350; -554.000; -417.000
286.560;   89.250;  653.000;  623.000
286.699; -138.550; -958.000; -912.000
286.838;  -84.425; -590.000; -591.000
286.978;  -96.000; -533.000; -537.000
287.117; -136.875;-1085.000; -950.000
287.256;  -41.500; -228.000; -211.000
287.395;  -60.025; -197.000; -378.000
287.535;  -55.100; -370.000; -298.000
287.674;  -71.850; -509.000; -484.000
287.813;   58.550;  661.000;  533.000
287.952; -140.775;-1010.000; -871.000
288.091; -143.650;-1049.000; -915.000
288.231;    3.475;   13.000;   15.000
288.370; -169.950;-1217.000;-1200.000
288.509;  -98.450; -728.000; -645.000
288.648;  -83.200; -770.000; -548.000
288.787;  -34.875; -243.000;  -87.000
288.926;  -67.350; -454.000; -475.000
289.065;   96.775;  859.000;  672.000
289.204;  -59.425; -377.000; -217.000
289.344;  -99.600; -791.000; -690.000
289.483;   24.650;  416.000;  304.000
289.622;  -37.975; -291.000; -149.000
289.761;  -21.900; -309.000; -166.000
289.900;  -96.350; -785.000; -626.000
290.039;  -32.375;  -12.000;  -95.000
290.178;  -51.250; -274.000; -180.000
290.317;  -89.950; -618.000; -479.000
290.456;  -59.350; -463.000; -451.000
290.595; -134.350; -961.000; -833.000
290.734; -135.125; -904.000; -891.000
290.873;  -76.750; -456.000; -420.000
291.011; -111.800; -833.000; -843.000
291.150; -107.975; -770.000; -682.000
291.289;  -36.500; -343.000; -110.000
291.428; -100.450; -599.000; -480.000
291.567;  -58.975; -370.000; -442.000
291.706;  -17.950;  109.000;  154.000
291.845;  -93.150; -597.000; -505.000
291.984; -168.425;-1234.000;-1061.000
292.122;   69.350;  602.000;  582.000
292.261;   40.025;  620.000;  463.000
292.400;    6.875; -144.000;  211.000
292.539; -127.700; -959.000; -813.000
292.678;  -30.275; -325.000; -300.000
292.816; -148.075;-1136.000; -965.000
292.955;  -95.175; -844.000; -684.000
293.094;  -31.175; -173.000; -337.000
293.233;  -70.225; -556.000; -400.000
293.371;  -41.125; -225.000;  -84.000
293.510; -119.400; -866.000; -780.000
293.649; -130.575; -959.000; -924.000
293.787;  -77.600;-1083.000;-1012.000
293.926;   -4.075; -113.000;  -32.000
294.065;  -45.975; -379.000; -290.000
294.203;   35.525;  298.000;  406.000
294.342;    6.675;   74.000;  156.000
294.481; 5626.375;51180.000; -836.000
294.619;  -35.325; -425.000; -582.000
294.758; -149.775;-1230.000;-1137.000
294.896;   58.125; -125.000;    5.000
295.035; -136.575;-1040.000;-1006.000
295.174; -130.475;-1082.000; -954.000
295.312;  -42.700; -323.000; -203.000
295.451;  -21.175; -307.000; -428.000
295.589;  -56.275; -389.000; -518.000
295.728;   11.675; -292.000; -165.000
295.866;   -2.475;  -36.000;  -51.000
296.005;  -58.900; -584.000; -341.000
296.143;  -76.075; -558.000; -596.000
296.282; -112.325; -957.000; -881.000
296.420;  -89.925; -657.000; -557.000
296.559;  -98.800; -892.000; -633.000
296.697;   -1.575; -847.000; -665.000
296.835;   35.400;-1141.000;-1002.000
296.974;   27.300;  -23.000;   39.000
297.112;    3.125; -443.000; -504.000
297.251;  -74.600; -815.000; -755.000
297.389;   62.575; -576.000; -438.000
297.527;   25.275; -145.000;  -83.000
297.666;  -58.175; -486.000; -438.000
297.804;  -39.125; -404.000; -264.000
297.942;  -11.675; -136.000; -161.000
298.081;   -6.325; -183.000;   63.000
298.219;   47.825;  -17.000;  -19.000
298.357;   31.400; -144.000;  -71.000
298.495;   11.875; -810.000; -812.000
298.634;   41.275;  245.000;  219.000
298.772;   37.650; -220.000; -338.000
298.910;  -57.475; -309.000; -182.000
299.048;  -18.600; -130.000; -153.000
299.187;  -37.625; -350.000; -250.000
299.325;   14.675;   52.000;  122.000
299.463;   34.700; -389.000; -299.000
299.601;   78.200; -327.000; -271.000
299.739; -111.425; -908.000; -883.000
299.877;  -93.850; -791.000; -703.000
300.016;  -56.325;-1095.000; -935.000
300.154;  141.825;  -19.000; -161.000
300.292;   39.925; -428.000; -348.000
300.430;   12.150; -408.000; -291.000
300.568; -123.725; -940.000; -874.000
300.706;  -59.850; -366.000; -469.000
300.844;  -95.825;-1108.000; -979.000
300.982;  101.925;  246.000;  282.000
301.120; -121.575; -965.000; -866.000
301.258;  -85.225; -812.000; -705.000
301.396;   26.800;  104.000;  -41.000
301.534;   48.925; -218.000; -293.000
301.672;  -14.025; -664.000; -521.000
301.810;    0.525; -613.000; -545.000
301.948;   95.825;   53.000;  149.000
302.086;  551.250; -250.000;  -32.000
302.224;  827.350; -610.000; -585.000
302.362;   11.525; -558.000; -622.000
302.500;  -42.475; -923.000; -893.000
302.638;   94.750;  128.000;  245.000
302.776;  -10.775; -352.000; -408.000
302.913;   38.975;  447.000;  236.000
303.051;  -17.750;  -86.000;  -23.000
303.189;   43.875;   90.000;  118.000
303.327;  -47.850; -341.000; -256.000
303.465;  -87.150; -832.000; -588.000
303.603;  -88.375; -805.000; -604.000
303.740;   82.850;  417.000;  241.000
303.878;    3.950; -800.000; -759.000
304.016; -108.225; -915.000; -790.000
304.154; -129.100;-1123.000;-1152.000
304.291;  -54.075; -505.000; -554.000
304.429;    1.050;  102.000;   74.000
304.567; -122.975; -908.000; -893.000
304.705;  -54.775; -408.000; -515.000
304.842;   75.450; -616.000; -540.000
304.980;   47.275;  215.000;   35.000
305.118;   21.650; -367.000; -365.000
305.255;  -78.850; -945.000; -927.000
305.393;   30.825;  178.000;  239.000
305.531; -118.700;-1173.000; -956.000
305.668;  -78.375; -663.000; -582.000
305.806;  106.675; -358.000; -439.000
305.943;   92.975; -629.000; -637.000
306.081;   45.475; -378.000; -267.000
306.219; -115.575; -863.000; -748.000
306.356;    1.500;  158.000;   27.000
306.494;   88.275;  981.000;  761.000
306.631;  -11.675;  -11.000;  -55.000
306.769;  -16.575; -613.000; -485.000
306.906;  -34.525; -284.000; -258.000
307.044;  -70.325; -473.000; -488.000
307.181;  -73.625; -410.000; -332.000
307.319;    4.750;  112.000;   87.000
307.456; -188.200;-1191.000;-1153.000
307.594; -107.800; -980.000; -727.000
307.731;   -8.575; -371.000; -164.000
307.868;  -10.275;  -15.000;   20.000
308.006; -139.625; -961.000; -847.000
308.143;  -77.900; -618.000; -330.000
308.281;  141.125;  -37.000; -254.000
308.418;  -22.475; -748.000; -640.000
308.555;  -77.575; -400.000; -250.000
308.693;  -78.550; -577.000; -573.000
308.830; -112.225; -712.000; -657.000
308.967;  -12.350; -215.000;  -95.000
309.105;  -53.075; -507.000; -396.000
309.242;   31.675; -468.000; -367.000
309.379;  272.550; -577.000; -655.000
309.517;  -81.975; -936.000; -948.000
309.654; -114.225; -910.000; -734.000
309.791;  -75.400; -662.000; -580.000
309.928; -116.625; -977.000; -914.000
310.065;  179.625;  819.000;  697.000
310.203;  -23.575; -825.000; -850.000
310.340;  -14.250; -465.000; -321.000
310.477;  -88.400; -412.000; -516.000
310.614;  -78.050; -383.000; -473.000
310.751;  -84.800; -427.000; -518.000
310.889;  -26.400;    1.000;   11.000
311.026; -156.800;-1161.000; -939.000
311.163;  -45.550; -386.000; -380.000
311.300;  -91.125; -512.000; -479.000
311.437;  -81.675; -658.000; -619.000
311.574; -153.750;-1226.000; -985.000
311.711;  -72.400; -595.000; -433.000
311.848;  -48.925; -380.000; -388.000
311.985;   -8.150;  270.000;   93.000
312.122; -123.250; -932.000; -762.000
312.259; -124.675; -941.000; -994.000
312.396;  -85.525; -508.000; -551.000
312.533; -109.675; -812.000; -790.000
312.670; -130.075;-1070.000; -898.000
312.807;  -41.725; -352.000; -367.000
312.944;  -74.575; -513.000; -611.000
313.081;  -40.725; -150.000; -415.000
313.218; -110.100;-1111.000; -867.000
313.355;   -4.150; -531.000; -449.000
313.492;    6.450; -455.000; -292.000
313.629;  123.250;  815.000;  735.000
313.766; -152.675;-1176.000;-1008.000
313.902;  -36.375; -186.000;   21.000
314.039;  -50.425; -372.000; -289.000
314.176;   20.075;  286.000;  192.000
314.313;  -75.000; -569.000; -473.000
314.450;  -84.450; -788.000; -684.000
314.587;  -65.075; -468.000; -480.000
314.723;   -1.350;  -78.000;  130.000
314.860;   23.775;  318.000;  332.000
314.997;   18.575;  223.000;  142.000
315.134;  -47.675; -385.000; -368.000
315.270;  -36.975; -480.000; -496.000
315.407; -132.150;-1094.000; -967.000
315.544;  -51.250; -657.000; -538.000
315.681;  -65.775; -681.000; -565.000
315.817;   14.225; -133.000; -176.000
315.954;    5.625; -613.000; -392.000
316.091; -122.725;-1045.000;-1023.000
316.227;  -32.600;  -71.000; -179.000
316.364;   -4.350;   23.000;    6.000
316.500;  -39.850; -113.000; -300.000
316.637;  -40.425; -181.000; -302.000
316.774;  -84.750; -625.000; -358.000
316.910;  -99.900; -598.000; -629.000
317.047;  -73.950; -487.000; -351.000
317.183;  -55.725; -435.000; -566.000
317.320;  -19.300; -367.000; -321.000
317.456;  -72.500; -733.000; -805.000
317.593;  -92.675; -598.000; -641.000
317.729;    3.475;  168.000;  -67.000
317.866; -191.250;-1434.000;-1285.000
318.002;  -91.525; -708.000; -948.000
318.139; -114.000; -883.000; -867.000
318.275; -110.475;-1003.000; -738.000
318.412;  -76.000; -517.000; -336.000
318.548;  -47.000; -751.000; -720.000
318.685; -112.775; -985.000; -888.000
318.821;  -92.500; -762.000; -735.000
318.957;  -11.200;   34.000;  -23.000
319.094;   43.725;  297.000;  154.000
319.230;  -68.650; -756.000; -742.000
319.367;  100.750; -471.000; -520.000
319.503;   37.350; -538.000; -436.000
319.639;  -88.950; -877.000; -793.000
319.775;  -65.875; -750.000; -685.000
319.912;  -41.025; -424.000; -519.000
320.048;  -85.650;-1184.000;-1184.000
320.184;   67.650;   59.000;   70.000
320.321;  -58.075; -497.000; -467.000
320.457;   68.225;  475.000;  662.000
320.593;  -73.575; -375.000; -382.000
320.729;  -96.800; -732.000; -734.000
320.866;  -80.425; -577.000; -635.000
321.002;  -93.525; -759.000; -809.000
321.138;  -32.700; -135.000; -211.000
321.274;   55.300; -148.000; -115.000
321.410;  -31.800; -585.000; -353.000
321.546;  -44.275;-1011.000; -911.000
321.683;   44.825;  400.000;  185.000
321.819;   -8.275;  -48.000; -117.000
321.955; -113.275; -743.000; -722.000
322.091;  -48.575; -585.000; -540.000
322.227;  -21.275; -382.000; -202.000
322.363;  -23.875; -320.000; -215.000
322.499;  -41.150; -343.000; -331.000
322.635;  150.025;  636.000;  443.000
322.771;    8.000; -139.000;   12.000
322.907;   72.650;  129.000;  327.000
323.043;  -22.575; -115.000; -206.000
323.179;  -57.550; -394.000; -363.000
323.315;   -4.975; -401.000; -371.000
323.451;   68.000; -328.000; -236.000
323.587;   52.000;  -60.000;  -77.000
323.723;    8.800; -682.000; -601.000
323.859;   -9.375; -258.000;  -76.000
323.995;  -42.425; -467.000; -409.000
324.131; -117.475; -967.000; -892.000
324.267;  -41.250; -254.000; -276.000
324.402; -126.450; -960.000; -983.000
324.538;  -18.200; -279.000; -104.000
324.674;    9.200;  164.000;   77.000
324.810;   94.450;  226.000;  308.000
324.946;  -14.125; -810.000; -658.000
325.082;  -80.475; -568.000; -475.000
325.217;  -10.975;  -62.000;   16.000
325.353; -103.825; -764.000; -659.000
325.489;  -74.600; -540.000; -506.000
325.625;  -78.875; -579.000; -525.000
325.760;   50.350;  517.000;  376.000
325.896;  -27.925; -515.000; -702.000
326.032;  -47.175; -403.000; -352.000
326.168;  -54.925; -462.000; -369.000
326.303;  -62.550; -352.000; -461.000
326.439;  -13.400; -336.000; -276.000
326.575;    2.625; -190.000;  -29.000
326.710;  -10.700; -156.000;  -30.000
326.846;  -25.750;  146.000;  103.000
326.982;  -97.000; -530.000; -548.000
327.117;  -86.050; -481.000; -442.000
327.253;  -88.800; -745.000; -742.000
327.388; -175.350;-1137.000;-1153.000
327.524;  -55.500; -811.000; -578.000
327.659;  -20.675;  -58.000;  -22.000
327.795;   -5.375;   69.000;   45.000
327.931;  -75.700; -723.000; -499.000
328.066;  -28.150; -417.000; -276.000
328.202;  -17.300;   12.000; -129.000
328.337;   89.625;  957.000;  713.000
328.473;   33.600;  -12.000;  -74.000
328.608;  -23.775; -256.000; -267.000
328.743;  -94.850; -799.000; -664.000
328.879;   18.200;  214.000;  114.000
329.014;  -42.275; -102.000; -122.000
329.150;  -81.700; -358.000; -483.000
329.285;  -88.650; -465.000; -466.000
329.421;  -56.600; -548.000; -246.000
329.556;  -19.425;  -36.000;   85.000
329.691; -110.525; -633.000; -615.000
329.827;  -93.925; -626.000; -480.000
329.962;  -35.250;  131.000; -301.000
330.097;  -95.575; -673.000; -585.000
330.233;  -47.925; -410.000; -223.000
330.368; -138.775; -839.000; -628.000
330.503;  -31.525;    3.000;   98.000
330.638;   -1.000;  -93.000; -125.000
330.774;  -63.900; -609.000; -530.000
330.909;  -46.775; -434.000; -244.000
331.044;  -92.950; -714.000; -708.000
331.179; -174.200;-1217.000;-1109.000
331.315;    6.000;   77.000;   20.000
331.450;    8.625;  157.000;  285.000
331.585;  -87.500; -805.000; -706.000
331.720;  -90.300; -510.000; -460.000
331.855;  -19.925;  -35.000; -102.000
331.990;  266.975;   62.000;  138.000
332.126;  132.275; -110.000;   71.000
332.261;  -21.825; -379.000; -265.000
332.396;    3.800; -135.000; -242.000
332.531;  -99.200;-1074.000;-1031.000
332.666;   27.100; -519.000; -363.000
332.801; -110.800; -726.000; -807.000
332.936;  -18.450; -192.000; -122.000
333.071; -158.775; -870.000; -817.000
333.206;    9.375;  307.000;  379.000
333.341;   21.550;  344.000;  418.000
333.476;  -84.825; -627.000; -623.000
333.611;  -39.750; -251.000; -173.000
333.746;  -52.100; -381.000; -464.000
333.881; -121.475; -973.000; -935.000
334.016; -140.025; -936.000; -917.000
334.151; -139.125; -746.000; -702.000
334.286;   12.500;  152.000;  186.000
334.421;  -16.100; -125.000; -178.000
334.556;  -90.325; -611.000; -567.000
334.690;  -93.975; -631.000; -577.000
334.825;   44.575;  381.000;   83.000
334.960;  -60.250; -285.000; -413.000
335.095;    2.250;  135.000;  -91.000
335.230; -115.275; -722.000; -738.000
335.365; -142.300;-1084.000; -990.000
335.499; -135.800;-1108.000;-1037.000
335.634;   13.550;    9.000;  534.000
335.769; -103.825; -755.000; -720.000
335.904;  -81.275; -603.000; -561.000
336.038;  -64.850; -735.000; -657.000
336.173; -136.650;-1206.000;-1194.000
336.308;   -5.425; -116.000; -189.000
336.443;   13.175; -544.000; -634.000
336.577;  -78.750; -936.000; -787.000
336.712;   58.375;   -4.000;  -12.000
336.847;  -52.425; -724.000; -607.000
336.981;   45.200; -272.000; -208.000
337.116;  243.350;  615.000;  501.000
337.250;  118.000; -434.000; -421.000
337.385;  267.600; -297.000; -208.000
337.520;   89.775; -632.000; -603.000
337.654;  -35.850; -215.000; -126.000
337.789; -125.250; -989.000; -933.000
337.923;  -39.050; -104.000; -205.000
338.058; -100.200; -673.000; -738.000
338.192;  -51.575; -611.000; -488.000
338.327;  -27.025;  -18.000; -155.000
338.461;  -63.975; -299.000; -469.000
338.596;  -89.150; -780.000; -638.000
338.730; -106.450; -767.000; -803.000
338.865;   93.550;  -46.000; -140.000
338.999;  -58.175; -846.000; -702.000
339.134;  -30.950; -634.000; -536.000
339.268;    0.475; -741.000; -603.000
339.403;  356.250; -740.000; -775.000
339.537;  125.975; -894.000; -820.000
339.671; -118.125; -829.000; -813.000
339.806;  -60.125; -556.000; -512.000
339.940;   17.425; -261.000; -235.000
340.074; -106.150; -685.000; -510.000
340.209;  -54.950; -351.000; -230.000
340.343;  -88.575; -517.000; -573.000
340.477;  151.150;  998.000; 1036.000
340.612;  -24.875;-1033.000; -900.000
340.746;  136.525; -199.000; -243.000
340.880;  -77.050; -924.000; -785.000
341.014;  -35.925;  -45.000; -154.000
341.149; -118.750; -756.000; -718.000
341.283; -116.750; -839.000; -754.000
341.417; -104.850;-1124.000; -938.000
341.551;   91.800; -768.000; -708.000
341.685;  -31.550; -633.000; -611.000
341.820;  -48.150; -562.000; -493.000
341.954;  -57.700; -218.000; -349.000
342.088; -162.325;-1102.000;-1019.000
342.222;   47.200;  565.000;  618.000
342.356;  -72.850; -395.000; -335.000
342.490;  -96.150; -880.000; -841.000
342.624;  -48.625; -339.000; -242.000
342.758;  -12.800; -364.000; -312.000
342.892;  -75.975; -710.000; -585.000
343.026;  -41.000;  -58.000; -116.000
343.160;  -58.350; -426.000; -376.000
343.294;  -74.275; -474.000; -337.000
343.428;  -28.375; -488.000; -448.000
343.562;  -17.500; -172.000;  -23.000
343.696;  -42.875; -385.000; -314.000
343.830;  -32.075; -362.000; -356.000
343.964;    9.925; -231.000; -168.000
344.098;  796.400;  199.000;   70.000
344.232;  659.175; -266.000; -127.000
344.366;   68.000; -567.000; -453.000
344.500;   35.625; -665.000; -744.000
344.634;    6.775; -324.000; -164.000
344.768;  -24.975; -531.000; -341.000
344.902;   18.575;  278.000;  256.000
345.035;  -81.750; -556.000; -496.000
345.169; -133.825; -933.000; -656.000
345.303;  -28.975; -308.000; -482.000
345.437;  -76.850; -826.000; -717.000
345.571;  -73.800; -675.000; -594.000
345.704;  -76.425; -309.000; -532.000
345.838;  -20.550; -331.000; -284.000
345.972;  -52.250; -543.000; -495.000
346.106;  160.525; -179.000; -190.000
346.239;  389.625; -312.000; -243.000
346.373;   -1.000; -343.000; -302.000
346.507; -142.525; -950.000; -962.000
346.640;  117.225;  -30.000;   13.000
346.774;  -67.775; -650.000; -797.000
346.908;  -17.600; -138.000;  -11.000
347.041;  -98.050; -646.000; -593.000
347.175;    3.475;  259.000;   27.000
347.309;  -82.300; -698.000; -628.000
347.442;  -93.500; -883.000; -732.000
347.576;  250.575;  670.000;  668.000
347.709;  153.900; -123.000;  -52.000
347.843;  -90.525; -933.000; -825.000
347.976;   15.650;  235.000;  294.000
348.110; -183.725;-1268.000;-1186.000
348.243; -109.925; -679.000; -772.000
348.377;    6.525;  -26.000;   60.000
348.510;   49.350;  403.000;  540.000
348.644;  -52.475;  -37.000; -159.000
348.777;    3.125;  180.000;  191.000
348.911;  -50.025; -142.000; -112.000
349.044;  141.875;  471.000;  448.000
349.178;  131.100;-1069.000;-1006.000
349.311;   99.675;  141.000;  255.000
349.444;   -2.875; -927.000; -813.000
349.578;  -17.775; -347.000; -200.000
349.711; -108.050; -959.000; -862.000
349.845;  -27.100; -661.000; -591.000
349.978; -154.700;-1224.000;-1137.000
350.111;  -82.125; -546.000; -612.000
350.244;  -80.575; -596.000; -700.000
350.378;  -11.225; -392.000; -393.000
350.511;  -62.375; -393.000; -426.000
350.644; -112.475; -808.000; -806.000
350.778;   -8.450;  168.000;  104.000
350.911;    4.300;  134.000;  140.000
351.044; -101.400; -685.000; -615.000
351.177;  -36.225; -321.000; -281.000
351.310;  -22.400;    3.000; -131.000
351.444;  -84.000; -888.000; -788.000
351.577;   96.125;  140.000;   90.000
351.710;   87.625;  593.000;  417.000
351.843;  -27.800; -165.000;  -77.000
351.976;   -8.375;  149.000;  -79.000
352.109; -101.650; -621.000; -612.000
352.242;  -39.075; -464.000; -419.000
352.376;  -90.075; -580.000; -636.000
352.509;  134.500; -437.000; -356.000
352.642;   -9.500; -654.000; -604.000
352.775;   50.750; -141.000;  -98.000
352.908; -121.900; -933.000; -904.000
353.041; -110.800; -814.000; -824.000
353.174;  -57.550; -551.000; -424.000
353.307;  -91.950; -753.000; -764.000
353.440;   61.775;  541.000;  453.000
353.573; -118.175; -957.000;-1008.000
353.706;  -63.900; -384.000; -558.000
353.839;  -17.600; -264.000; -220.000
353.971;  -97.450; -657.000; -512.000
354.104;  -96.450; -896.000; -835.000
354.237;  -42.925; -627.000; -662.000
354.370;  -92.825; -846.000; -879.000
354.503; -187.375;-1231.000;-1308.000
354.636;  -38.200; -529.000; -348.000
354.769; -122.875; -937.000; -860.000
354.902;  -24.175; -230.000; -139.000
355.034;  -34.650; -164.000; -220.000
355.167;  -21.400; -262.000; -162.000
355.300;  -95.675;-1061.000; -880.000
355.433;  991.675;  -71.000;  -14.000
355.565; 1546.500; -402.000; -384.000
355.698;  399.450; -356.000; -296.000
355.831;    3.075; -882.000; -801.000
355.964;   56.425; -285.000; -170.000
356.096;  -82.275; -856.000; -843.000
356.229;   -4.975; -523.000; -530.000
356.362;  316.550; -373.000; -266.000
356.494;  610.250; -229.000; -162.000
356.627;  440.825;  269.000;  377.000
356.760;  657.300;  120.000;   53.000
356.892;  969.500; -286.000; -601.000
357.025;  565.175;  403.000;  389.000
357.157;  519.900; -167.000; -179.000
357.290;  711.400; -856.000; -713.000
357.423;  207.350; -667.000; -556.000
357.555;  114.200; -217.000; -228.000
357.688;  110.525; -483.000; -364.000
357.820;  409.125; -870.000; -877.000
357.953; 3430.575; -563.000; -589.000
358.085;  717.800; -632.000; -612.000
358.218;  921.425;-1131.000; -932.000
358.350;  180.250;  -58.000;  312.000
358.483; -138.725;-1300.000;-1187.000
358.615;  -35.400;-1182.000;-1078.000
358.747;  -78.225;-1187.000;-1058.000
358.880;    4.800; -810.000; -744.000
359.012;   -3.750; -376.000; -202.000
359.145;  -44.225; -480.000; -511.000
359.277;   37.650; -962.000; -913.000
359.409; 2806.800;  536.000;  231.000
359.542;  745.825; -738.000; -688.000
359.674;   64.825;   46.000;   13.000
359.806;  -73.075; -565.000; -438.000
359.939;  -45.475; -617.000; -516.000
360.071;   -0.625; -583.000; -579.000
360.203;  -20.725; -411.000; -364.000
360.335;   36.800;  164.000;  -16.000
360.468;  170.725; -249.000; -307.000
360.600; 2300.300; -547.000; -454.000
360.732; 2956.100; -546.000; -423.000
360.864;  395.200;-1216.000;-1044.000
360.996;  214.450; -516.000; -554.000
361.129;   26.575; -389.000; -598.000
361.261;   21.550;  110.000; -113.000
361.393;  -35.250; -252.000; -214.000
361.525;   12.100;   94.000;  244.000
361.657;  -39.100; -821.000; -703.000
361.789;   -5.150; -139.000; -155.000
361.921;  159.675; -642.000; -593.000
362.053;  213.175;  524.000;  541.000
362.185;   26.125;  288.000;   72.000
362.318;  -89.225; -709.000; -705.000
362.450;   97.875;  294.000;  444.000
362.582;   52.750; -913.000; -870.000
362.714;  -39.150; -353.000; -332.000
362.846;  -84.225; -606.000; -490.000
362.978; -148.725; -941.000; -811.000
363.109;   19.475; -161.000; -260.000
363.241;  362.650; -739.000; -749.000
363.373;  420.875; -649.000; -564.000
363.505;  676.650; -186.000;  -91.000
363.637;  155.075; -787.000; -601.000
363.769; -132.650;-1067.000;-1080.000
363.901;  -75.275; -596.000; -654.000
364.033; -135.350;-1103.000;-1062.000
364.165;  -19.775; -283.000; -283.000
364.296;   73.525; -316.000; -177.000
364.428;   83.700;-1344.000;-1220.000
364.560;  -76.975; -679.000; -661.000
364.692;  -80.825; -738.000; -835.000
364.824;  208.400; -588.000; -456.000
364.955;  417.300; -402.000; -564.000
365.087;  997.850;-1097.000; -852.000
365.219;   27.425; -686.000; -816.000
365.351;  -66.575; -526.000; -572.000
365.482;   50.250;  300.000;  240.000
365.614;  -43.850; -402.000; -314.000
365.746;  -94.625; -729.000; -752.000
365.877; -100.550; -706.000; -672.000
366.009;  264.450;  -35.000;  -62.000
366.141;  -97.750;-1249.000;-1134.000
366.272; -109.125; -803.000; -719.000
366.404; -120.400;-1005.000; -874.000
366.535;  -16.800; -139.000;  -12.000
366.667; -103.200; -644.000; -649.000
366.799;   26.250;  353.000;  203.000
366.930; -135.300; -862.000; -996.000
367.062;  115.350; -639.000; -613.000
367.193;  181.425; -872.000; -842.000
367.325;  -59.725; -580.000; -684.000
367.456;   29.925; -246.000;   31.000
367.588;  153.525; -371.000; -318.000
367.719;   27.375;  -44.000;  -45.000
367.851;  -31.850; -222.000; -241.000
367.982;  -64.600; -875.000; -732.000
368.113;   79.800; -475.000; -358.000
368.245; -111.200; -960.000; -841.000
368.376;  -24.275; -254.000; -302.000
368.508;  -57.900; -188.000; -263.000
368.639; -150.425;-1166.000;-1034.000
368.770;  -40.875; -670.000; -589.000
368.902;  -75.675; -836.000; -926.000
369.033; -110.800; -906.000; -855.000
369.164;  -61.200; -720.000; -653.000
369.296; -107.475; -452.000; -601.000
369.427;  -18.175; -209.000; -144.000
369.558;  -54.000; -593.000; -377.000
369.689;  -86.075; -721.000; -569.000
369.821; -125.125; -951.000; -845.000
369.952;  -22.325;   42.000; -108.000
370.083;  -56.650; -229.000; -108.000
370.214;  -71.950; -735.000; -650.000
370.345;  -19.650;   65.000;   81.000
370.477;  -97.075; -810.000; -790.000
370.608;  185.325; -328.000; -264.000
370.739;  -79.650;-1233.000;-1292.000
370.870;  -66.600;-1102.000; -923.000
371.001;   68.950; -378.000; -467.000
371.132;  -79.225; -754.000; -735.000
371.263;  -31.750;  -42.000; -148.000
371.394; -139.175; -841.000; -748.000
371.525;   19.550;  345.000;  225.000
371.657; -100.175; -808.000; -670.000
371.788;   53.750;  103.000;  199.000
371.919;  137.600; -384.000; -304.000
372.050; 3208.050;  -91.000; -156.000
372.181;  997.675; -188.000; -294.000
372.311;  310.750;   42.000; -127.000
372.442;   20.225; -457.000; -451.000
372.573;  -34.575; -444.000; -340.000
372.704; -126.625;-1008.000; -980.000
372.835;   63.450; -228.000; -289.000
372.966;  -69.150; -646.000; -554.000
373.097;  -72.100; -575.000; -711.000
373.228;  -46.300; -717.000; -542.000
373.359;   90.850; -824.000; -536.000
373.490;  794.850; -881.000; -727.000
373.620;  997.325;-1001.000; -803.000
373.751; 1525.400; -332.000; -396.000
373.882;  668.850; -663.000; -733.000
374.013;   54.100; -449.000; -262.000
374.143;  -51.375; -581.000; -659.000
374.274; -111.900; -987.000; -908.000
374.405;  138.000; -388.000; -276.000
374.536;  360.300; -526.000; -387.000
374.666;  945.300; -759.000; -807.000
374.797;  170.875; -817.000; -868.000
374.928;  716.050; -710.000; -560.000
375.058;  765.750; -535.000; -500.000
375.189;   59.225;  -59.000;  -93.000
375.320; -108.150; -928.000;-1034.000
375.450;  -60.675; -625.000; -616.000
375.581;  -47.850; -526.000; -436.000
375.712;  -48.450; -574.000; -250.000
375.842;  247.150; -438.000; -415.000
375.973;  181.800; -554.000; -513.000
376.103;  -59.725; -665.000; -648.000
376.234;  -90.825; -531.000; -552.000
376.364;  -61.275; -944.000; -867.000
376.495;  279.700;  925.000;  529.000
376.625;  -31.375; -472.000; -485.000
376.756;   30.625; -709.000; -678.000
376.886;  -93.000;-1178.000;-1026.000
377.017;   54.850;-1048.000;-1061.000
377.147;  371.325; -786.000; -782.000
377.278;   61.625;  174.000;  228.000
377.408; -125.500; -801.000; -815.000
377.538; -110.425; -707.000; -693.000
377.669;  -77.400; -537.000; -613.000
377.799; -104.175; -645.000; -635.000
377.929;  -68.875; -610.000; -428.000
378.060; -134.725; -781.000; -847.000
378.190;  -74.325; -726.000; -531.000
378.320;  -66.900; -401.000; -406.000
378.451;  -22.700; -131.000;  -22.000
378.581;  -20.625;  -67.000; -110.000
378.711;  132.600; 1035.000;  866.000
378.841;  -32.575; -533.000; -675.000
378.972;  -89.450; -871.000; -751.000
379.102;  -24.050; -652.000; -579.000
379.232;  -31.900; -126.000;  -73.000
379.362; -113.550;-1001.000; -885.000
379.492;   -8.775; -373.000; -424.000
379.623;   78.825;    0.000;  111.000
379.753; -106.075;-1107.000; -974.000
379.883;  159.750;   59.000;  156.000
380.013;  -25.475;-1081.000;-1017.000
380.143; -123.200;-1097.000;-1056.000
380.273; -110.875; -985.000; -861.000
380.403;   -8.575; -344.000; -257.000
380.533;  -40.000; -651.000; -664.000
380.663;   47.150;  173.000;  128.000
380.793; -101.125;-1027.000;-1074.000
380.923;  -24.550; -103.000;  -34.000
381.053;  -95.425; -613.000; -623.000
381.183;  -44.250; -106.000; -248.000
381.313;   -1.200; -656.000; -470.000
381.443;   20.925; -692.000; -473.000
381.573;  147.575; -402.000; -409.000
381.703;  209.400;-1249.000;-1095.000
381.833; -153.100;-1454.000;-1336.000
381.963;   96.425; -134.000;  -87.000
382.093; 1241.300; -925.000; -909.000
382.223;  378.325; -713.000; -602.000
382.353;  -36.350; -801.000; -608.000
382.482;  299.400;-1091.000; -964.000
382.612;  661.400; -872.000; -644.000
382.742;  365.300; -695.000; -622.000
382.872;  187.175; -565.000; -551.000
383.002;   50.200;  347.000; -132.000
383.131;  -24.250; -226.000; -160.000
383.261;  -59.775; -706.000; -768.000
383.391;  280.975; -552.000; -377.000
383.521; 3373.800;  451.000;  263.000
383.650;  855.375; -947.000; -904.000
383.780;  -25.775; -783.000; -656.000
383.910;   94.950;  880.000;  802.000
384.039;   -8.200; -794.000; -656.000
384.169;  147.375;-1205.000;-1017.000
384.299;  -45.125; -650.000; -662.000
384.428;  -90.950; -764.000; -680.000
384.558;  -55.175; -308.000; -275.000
384.687;  -52.450; -414.000; -334.000
384.817;   -5.475;   75.000;   -2.000
384.947;    4.525; -234.000; -141.000
385.076;  260.050;  982.000;  912.000
385.206;   84.700;  369.000;  480.000
385.335;  -53.175; -549.000; -417.000
385.465;  -92.400; -655.000; -663.000
385.594;   99.125;  -53.000;  -44.000
385.724;  344.850; -868.000; -838.000
385.853;   79.325; -296.000; -270.000
385.982; 1159.325; -743.000; -787.000
386.112; 1896.425;-1052.000; -871.000
386.241;  118.200; -307.000; -312.000
386.371;    7.975; -174.000;  -87.000
386.500;  -17.375; -825.000; -789.000
386.629;   14.175; -874.000; -817.000
386.759;   49.475;  -43.000;   68.000
386.888;  -25.300; -170.000; -250.000
387.017;  -78.375; -648.000; -620.000
387.147;  -97.950; -771.000; -798.000
387.276;  -26.775; -410.000; -397.000
387.405;   -7.825; -398.000; -342.000
387.535;  -46.850; -452.000; -361.000
387.664;  -67.800; -692.000; -620.000
387.793;   53.775; -198.000; -113.000
387.922;  429.525;  255.000;  200.000
388.052;   -0.950; -576.000; -423.000
388.181;  -16.825; -342.000; -472.000
388.310;  -35.075; -889.000; -710.000
388.439;  -72.600; -749.000; -742.000
388.568;  131.850;  365.000;  244.000
388.697;  888.050; -756.000; -653.000
388.826;  169.775; -768.000; -666.000
388.956;   28.750; -285.000; -307.000
389.085;  -36.900; -347.000; -287.000
389.214; -118.375; -842.000; -872.000
389.343;  -74.375; -645.000; -413.000
389.472;  409.400;  126.000;  149.000
389.601;  525.625;   91.000;    0.000
389.730;   -6.050; -568.000; -687.000
389.859;   55.625;  226.000;   46.000
389.988;  149.150; -423.000; -408.000
390.117;  127.100; -168.000; -146.000
390.246;  -26.475; -331.000; -320.000
390.375;   70.275; -673.000; -626.000
390.504;  -63.600; -703.000; -621.000
390.633; -115.175; -672.000; -726.000
390.761;  -77.600; -732.000; -645.000
390.890;  -17.925;   -4.000; -130.000
391.019;  -47.025; -421.000; -441.000
391.148; -128.875; -826.000; -855.000
391.277;  -88.225; -576.000; -493.000
391.406;  -95.150; -821.000; -805.000
391.534;    0.100;  574.000; -301.000
391.663;  -79.300; -583.000; -645.000
391.792;  -95.925; -673.000; -701.000
391.921;   75.125;   -3.000;   15.000
392.050;  134.875; -287.000; -228.000
392.178;  -56.700;-1206.000;-1061.000
392.307;  115.675; -758.000; -712.000
392.436;   45.375; -427.000; -641.000
392.564;   10.950;  166.000;   -6.000
392.693; -105.600; -860.000; -682.000
392.822;  144.550; -529.000; -534.000
392.950;   56.175; -880.000; -714.000
393.079;  268.675; -188.000; -328.000
393.208;   11.250; -488.000; -511.000
393.336;  -24.925; -170.000; -145.000
393.465;  -49.575; -317.000; -199.000
393.593;    1.700;   62.000;   79.000
393.722; -151.750;-1121.000; -916.000
393.850;  -43.475; -188.000;  -61.000
393.979; -150.950; -926.000; -805.000
394.107;  -78.325; -517.000; -537.000
394.236;  -39.850; -570.000; -507.000
394.364;  198.450;  383.000;  206.000
394.493;  307.900; -911.000; -767.000
394.621;  -21.500; -955.000; -916.000
394.750;  744.850; -873.000; -923.000
394.878; 3000.350; -247.000; -149.000
395.007; 4205.300; -721.000; -807.000
395.135;  309.275; -790.000; -721.000
395.263;  -84.225;-1038.000;-1040.000
395.392;   -7.625;  -25.000; -107.000
395.520; -135.350; -818.000; -679.000
395.648;  -99.850; -865.000; -915.000
395.777;  -40.150; -366.000; -405.000
395.905;  -74.050; -449.000; -564.000
396.033;   20.625;  217.000;  172.000
396.162;  490.775; -399.000; -453.000
396.290;  438.575;  -17.000;   -2.000
396.418;   73.325; -555.000; -514.000
396.546;  -82.350; -571.000; -466.000
396.674; -115.575; -850.000; -878.000
396.803;   -4.325;  -72.000;  -23.000
396.931;   52.300; -179.000; -199.000
397.059;   19.750;-1026.000; -989.000
397.187; -120.175;-1026.000; -975.000
397.315; -145.700; -884.000; -649.000
397.443; -104.175; -592.000; -443.000
397.572;  -91.625; -578.000; -424.000
397.700;  -41.975; -607.000; -614.000
397.828;   -7.925;  120.000;  -90.000
397.956;  -66.400; -508.000; -478.000
398.084;  -73.050; -767.000; -626.000
398.212;   29.200;  137.000;  124.000
398.340;  -10.500;  -56.000;  159.000
398.468;   12.950; -390.000; -169.000
398.596; -145.750; -993.000; -953.000
398.724; -124.525; -762.000; -767.000
398.852; -166.600;-1024.000; -976.000
398.980;  -73.300; -560.000; -560.000
399.108;  -70.100; -982.000; -735.000
399.236;   20.575;   13.000;    8.000
399.363;    3.200;  222.000;  196.000
399.491;  -80.675; -404.000; -398.000
399.619; -120.525; -829.000; -800.000
399.747; -111.475; -859.000; -771.000
399.875;   53.900;  220.000;  234.000
400.003;  -59.925; -359.000; -284.000
400.130; -110.475; -421.000; -341.000
400.258;  -42.450;  -83.000;   38.000
400.386;  -68.875; -352.000; -168.000
400.514;  -59.900; -526.000; -587.000
400.641;  -96.925; -928.000; -802.000
400.769; -160.950; -979.000; -888.000
400.897; -127.250; -838.000; -793.000
401.025;  -31.600; -166.000; -152.000
401.152;  -16.125;  220.000;   38.000
401.280;  -88.525; -430.000; -429.000
401.408; -126.825; -712.000; -576.000
401.535; -121.000; -735.000; -758.000
401.663; -196.475;-1134.000;-1054.000
401.790;  -97.625; -514.000; -525.000
401.918;   28.350;  436.000;  405.000
402.046;  -23.450;  134.000;  122.000
402.173;  -50.375;  -18.000;    7.000
402.301;  -76.300; -519.000; -397.000
402.428;   29.125;  528.000;  383.000
402.556; -163.650;-1188.000; -913.000
402.683;  -40.250;  -20.000;   -1.000
402.811;  -39.875;  -37.000; -206.000
402.938;  -33.975;   20.000;   27.000
403.066;  156.675; -574.000; -558.000
403.193;  294.675;  299.000;  239.000
403.321;  205.450; -396.000; -574.000
403.448;  296.900;   83.000;   27.000
403.575;  123.700;  -90.000;  -46.000
403.703; -116.025; -732.000; -557.000
403.830;  -71.450; -531.000; -496.000
403.957; -130.650;-1117.000;-1023.000
404.085;    4.100;  -61.000; -172.000
404.212;   88.150;  -50.000;   63.000
404.339;  248.650; -566.000; -306.000
404.467; 5946.175; -612.000; -524.000
404.594; 3868.425; -287.000; -227.000
404.721;  861.675; -869.000; -764.000
404.848;   81.250; -113.000; -202.000
404.976; -125.825; -856.000; -783.000
405.103;   -0.625;  -14.000;  -82.000
405.230;  -15.000;  190.000;  226.000
405.357;   16.650;  117.000;   44.000
405.484;  276.775;  -49.000;    5.000
405.612;   59.175; -548.000; -563.000
405.739;  -64.650; -488.000; -243.000
405.866;   78.700;  669.000;  385.000
405.993;  -58.425; -398.000; -102.000
406.120; -139.100; -801.000; -887.000
406.247;  -64.000; -323.000; -342.000
406.374;  353.850;  540.000;  629.000
406.501;   47.850; -632.000; -702.000
406.628;  -87.275; -621.000; -589.000
406.755; -111.325; -803.000; -620.000
406.882;  -41.550; -228.000; -277.000
407.009; -106.475; -719.000; -628.000
407.136;   17.125; -480.000; -401.000
407.263;   73.850; -939.000; -829.000
407.390;  -93.950; -692.000; -614.000
407.517; -176.050;-1139.000;-1187.000
407.644;  -74.900; -332.000; -256.000
407.771; -145.125; -249.000; -287.000
407.898;   -6.775;  168.000;  328.000
408.025;  -78.425; -421.000; -313.000
408.151;  -35.200;   82.000;  153.000
408.278;  -62.575; -267.000; -216.000
408.405; -125.750; -931.000; -899.000
408.532;  -75.625; -549.000; -542.000
408.659; -131.350; -677.000; -648.000
408.785; -205.025;-1298.000;-1170.000
408.912;  -66.825; -412.000; -296.000
409.039; -109.725; -610.000; -686.000
409.166; -114.450; -591.000; -555.000
409.292; -119.425; -571.000; -534.000
409.419; -126.600; -665.000; -649.000
409.546;  -92.250; -431.000; -192.000
409.672; -113.175; -713.000; -545.000
409.799;  -25.925;  -36.000;   34.000
409.926;  -41.575; -180.000; -179.000
410.052; -168.625;-1127.000;-1091.000
410.179;  -66.900; -368.000; -392.000
410.305; -106.950; -375.000; -493.000
410.432;  -66.025; -220.000; -333.000
410.558;  -99.300; -305.000; -380.000
410.685; -131.000; -688.000; -431.000
410.812; -115.400; -409.000; -588.000
410.938; -145.750; -964.000; -808.000
411.065; -111.625; -671.000; -645.000
411.191;  -28.700; -189.000; -174.000
411.317; -117.050; -823.000; -742.000
411.444;  -60.800; -317.000; -246.000
411.570;  -71.950; -339.000; -294.000
411.697; -131.625; -758.000; -752.000
411.823; -181.400; -989.000; -999.000
411.949;  -46.500;  -56.000;   17.000
412.076; -106.925; -539.000; -519.000
412.202; -128.650; -758.000; -757.000
412.329; -135.325; -798.000; -752.000
412.455; -130.525; -821.000; -657.000
412.581;  -29.350;  -15.000;  172.000
412.707;  -71.950; -540.000; -457.000
412.834;    3.675;  156.000;  219.000
412.960;  -94.950; -785.000; -784.000
413.086;  -98.950; -743.000; -701.000
413.212;  118.875;  604.000;  578.000
413.339;  -72.825; -685.000; -701.000
413.465;  -22.675; -364.000; -310.000
413.591;  -93.250; -757.000; -474.000
413.717;  -69.425; -358.000; -366.000
413.843; -146.500; -839.000; -861.000
413.969;  -65.375;  -47.000; -292.000
414.096; -108.975; -679.000; -679.000
414.222;  -25.200;  -33.000;   85.000
414.348;  -45.925; -652.000; -385.000
414.474;   66.900;   38.000;  -52.000
414.600;  -23.475; -126.000; -144.000
414.726;  -26.725;  -96.000;  -55.000
414.852;  -58.225; -365.000; -342.000
414.978;   26.925;  104.000;  -18.000
415.104;   28.500;   38.000;   80.000
415.230;   20.525; -329.000; -330.000
415.356;   24.175; -409.000; -514.000
415.482;  179.900;   13.000;  -35.000
415.608;  274.725; -247.000; -323.000
415.734;  957.525;   67.000;   38.000
415.860;20011.875; -875.000; -767.000
415.986;15273.425; -685.000; -607.000
416.111; 1305.800; -798.000; -652.000
416.237;  267.500; -424.000; -571.000
416.363; 1148.550; -765.000; -733.000
416.489; 4409.975; -324.000; -251.000
416.615;  497.450; -707.000; -742.000
416.741;  -22.600; -677.000; -784.000
416.866; -102.875; -673.000; -736.000
416.992; -129.075; -801.000; -818.000
417.118;  -37.975;  -41.000;  -80.000
417.244;  -77.500; -798.000; -531.000
417.369;  -85.250; -801.000; -612.000
417.495;  -17.825; -325.000; -254.000
417.621; -100.750;-1015.000; -803.000
417.746;   -2.925; -579.000; -572.000
417.872;   38.500; -254.000; -144.000
417.998;   42.875; -515.000; -530.000
418.123; 1039.525;-1073.000; -845.000
418.249; 5616.525; -512.000; -601.000
418.374;  817.375; -916.000; -824.000
418.500;  111.875; -383.000; -482.000
418.626;  101.300;   70.000;  -59.000
418.751;  109.375; -549.000; -448.000
418.877;  192.750; -637.000; -643.000
419.002; 1808.650; -688.000; -560.000
419.128;13024.900; -930.000; -721.000
419.253; 3335.450; -967.000; -837.000
419.379;  438.775; -391.000; -338.000
419.504;  401.025;  325.000;  415.000
419.629;  525.675; -393.000; -212.000
419.755; 3631.750; -317.000; -254.000
419.880;22396.550;  -98.000;   67.000
420.006;11937.000; -280.000; -221.000
420.131;30704.300; -662.000; -775.000
420.256; 4588.225; -315.000; -316.000
420.382;  594.125; -665.000; -687.000
420.507;   72.250; -649.000; -778.000
420.632;  103.800; -337.000; -339.000
420.758;  187.500; -251.000; -425.000
420.883;  -92.275; -876.000; -672.000
421.008; -103.500; -775.000; -619.000
421.133;  -84.625; -509.000; -467.000
421.259;  -53.875; -325.000; -259.000
421.384; -132.850; -834.000; -693.000
421.509;  -68.975;-1052.000; -862.000
421.634;  901.800; -936.000; -820.000
421.759;  402.975; -359.000; -327.000
421.885;  -68.300; -717.000; -656.000
422.010;  -94.775; -673.000; -542.000
422.135; -137.500; -695.000; -727.000
422.260;   27.350;  340.000;  280.000
422.385;  -55.550;   12.000;  -98.000
422.510;    0.850;  151.000;  -26.000
422.635;    1.900;  -87.000;  -43.000
422.760;   95.500; -766.000; -791.000
422.885;   50.275;  -57.000;  -80.000
423.010;  -41.300; -112.000; -169.000
423.135; -103.550; -481.000; -561.000
423.260;  -11.275; -150.000; -245.000
423.385;   37.750;  476.000;  222.000
423.510;   15.800;   71.000;  -22.000
423.635;   49.450;  133.000;   45.000
423.760;   35.125;  383.000;  328.000
423.885;   50.100;  336.000;  391.000
424.010;    1.075;  -68.000;  -13.000
424.135;  -26.325;    5.000;  -33.000
424.259;  -94.675; -654.000; -457.000
424.384;  -55.150; -279.000; -272.000
424.509;  -47.750; -260.000; -186.000
424.634;  -86.100; -761.000; -623.000
424.759;  -33.800; -688.000; -544.000
424.883;  -16.250; -506.000; -527.000
425.008;  146.825; -502.000; -410.000
425.133; 2034.900; -679.000; -653.000
425.258;  997.125; -517.000; -381.000
425.382;  901.725; -867.000; -774.000
425.507; 2392.225; -487.000; -543.000
425.632;  412.400; -802.000; -663.000
425.756;  476.775; -256.000; -146.000
425.881; 6761.025; -831.000; -857.000
426.006;19143.575; -604.000; -355.000
426.130; 3083.475; -696.000; -508.000
426.255;  390.425; -611.000; -491.000
426.379;  161.750; -189.000; -577.000
426.504;  373.450;  660.000;  544.000
426.629; 4074.175; -519.000; -466.000
426.753; 2938.750;   64.000;  -46.000
426.878;  343.375; -252.000; -288.000
427.002;  145.200; -651.000; -668.000
427.127; 1585.050;  -35.000; -158.000
427.251;11788.700;  372.000;  401.000
427.375; 3543.500; -191.000; -173.000
427.500; 2092.425; -616.000; -610.000
427.624;  720.125; -234.000; -400.000
427.749;   86.000; -216.000; -225.000
427.873;  -35.325; -499.000; -412.000
427.997;  -55.700; -222.000; -230.000
428.122;   66.075;  795.000;  703.000
428.246;   48.750;  433.000;  434.000
428.371; -133.050; -869.000; -773.000
428.495; -117.225; -624.000; -646.000
428.619;  -53.725; -186.000; -117.000
428.743;    0.900;   65.000;  132.000
428.868;   -0.425; -732.000; -643.000
428.992; 1252.225; -219.000; -326.000
429.116;  495.000; -329.000; -357.000
429.240;  232.200;  419.000;  426.000
429.365;  -31.575; -454.000; -574.000
429.489;  -60.225; -638.000; -647.000
429.613;   11.800; -236.000; -177.000
429.737;   40.300; -563.000; -432.000
429.861;  258.725; -247.000; -133.000
429.985; 5629.300; -425.000; -305.000
430.109; 6498.475; -770.000; -908.000
430.234;  753.100;   76.000;  -50.000
430.358;   71.500; -250.000; -160.000
430.482;  -58.725; -672.000; -564.000
430.606;  -76.575; -655.000; -375.000
430.730;  -21.500; -437.000; -388.000
430.854;   65.700; -909.000; -835.000
430.978;  -95.100; -795.000; -764.000
431.102; -107.075; -499.000; -422.000
431.226; -128.375; -874.000; -815.000
431.350;    8.300;  345.000;  422.000
431.474;  -88.825; -661.000; -373.000
431.597; -153.625;-1060.000; -848.000
431.721;  -72.875; -276.000; -267.000
431.845; -128.625; -704.000; -472.000
431.969;  -81.700; -304.000; -349.000
432.093;  -95.675; -395.000; -317.000
432.217;  -25.800;   32.000;   82.000
432.341;  -96.075; -523.000; -518.000
432.464;   -9.600;   96.000;   40.000
432.588;  138.925; -401.000; -329.000
432.712;   65.025;  -52.000;  -52.000
432.836;   49.300;  213.000;  263.000
432.959;  -18.200; -372.000; -311.000
433.083;   71.825;   11.000;    2.000
433.207;  366.075;  285.000;  930.000
433.330; 5158.850; -391.000; -200.000
433.454; 6649.775; -654.000; -638.000
433.578; 3782.200;  583.000;  278.000
433.701;  709.750; -623.000; -675.000
433.825;  131.200; -292.000; -299.000
433.949;  130.450;   28.000;  -72.000
434.072;   34.675; -410.000; -323.000
434.196;  -31.925; -309.000; -117.000
434.319; 3724.075;25482.000;25124.000
434.443;  675.000; -656.000; -603.000
434.566; 2769.925;  281.000;   62.000
434.690;  489.600; -637.000; -383.000
434.813;   53.625; -251.000; -173.000
434.937;  -87.400; -569.000; -696.000
435.060;  -65.400; -423.000; -332.000
435.184;  195.250; -492.000; -217.000
435.307;  115.800;  159.000;  102.000
435.431;  -17.325;  -40.000;   24.000
435.554;  -86.075; -399.000; -240.000
435.677;  -75.050; -350.000; -258.000
435.801;  -47.125;  -25.000;   49.000
435.924;  -31.750;    1.000;  -67.000
436.048; -137.875;-1019.000; -732.000
436.171;  -78.875; -240.000;  -66.000
436.294;  -24.250; -248.000; -229.000
436.417;   85.725; -963.000; -849.000
436.541;  -67.550; -814.000; -840.000
436.664;  -51.975; -242.000; -316.000
436.787;  -35.250;   13.000;  113.000
436.910; -121.450; -792.000; -422.000
437.034;  -10.200;  142.000;  143.000
437.157;   29.450;  -11.000;    0.000
437.280;  -64.575; -392.000; -292.000
437.403; -106.850; -982.000; -869.000
437.526;  450.500; -903.000; -865.000
437.649; 1806.200; -505.000; -332.000
437.772;  249.775; -692.000; -540.000
437.896;  102.700;  700.000;  544.000
438.019; -113.025; -758.000; -503.000
438.142; -112.100; -596.000; -506.000
438.265;  -51.600; -639.000; -670.000
438.388;  425.175; -520.000; -410.000
438.511;   60.575; -597.000; -394.000
438.634;  -62.550; -247.000; -125.000
438.757; -134.750; -693.000; -619.000
438.880;  -31.875;  -34.000;  -57.000
439.003;  -80.825; -417.000; -437.000
439.126;  -84.025; -287.000; -167.000
439.248;  -68.300;  -98.000; -139.000
439.371;  -46.150;    9.000;  -53.000
439.494;   14.800;  510.000;  439.000
439.617;  -59.675;   65.000;  -88.000
439.740; -181.900; -968.000; -816.000
439.863; -154.825; -755.000; -595.000
439.986; -142.400; -476.000; -431.000
440.108;  -56.025; -161.000; -112.000
440.231; -155.625; -950.000; -836.000
440.354;  -51.450;  -64.000; -150.000
440.477;  -12.900; -566.000; -542.000
440.599;  -20.975; -200.000; -225.000
440.722; -115.850; -709.000; -586.000
440.845;   48.950;  751.000;  928.000
440.968; -121.125; -415.000; -311.000
441.090;  -65.225; -199.000;  -33.000
441.213; -176.900;-1021.000; -825.000
441.336;  -63.425; -159.000;   -5.000
441.458;  -89.750; -549.000; -396.000
441.581;  -97.125; -628.000; -629.000
441.703;  -76.300; -152.000;   13.000
441.826; -109.500; -557.000; -400.000
441.948;  -36.600;   56.000;   51.000
442.071;   13.100;  555.000;  424.000
442.193; -129.900; -531.000; -485.000
442.316;    5.250;  152.000;   97.000
442.438;   24.825; -233.000;  -10.000
442.561;   57.550;  272.000;  262.000
442.683;  386.800; -809.000; -522.000
442.806;  927.700;   -8.000;   74.000
442.928;  -12.425; -859.000; -604.000
443.051;  -88.675; -577.000; -373.000
443.173; -100.250; -341.000; -339.000
443.295; -103.875; -263.000; -371.000
443.418;  -78.125; -321.000;  -29.000
443.540;  -14.825; -106.000;   -4.000
443.662; -121.075; -563.000; -465.000
443.785;  -18.750;  335.000;  199.000
443.907;  -98.225; -362.000; -208.000
444.029; -129.825; -767.000; -494.000
444.152; -145.700; -644.000; -554.000
444.274;  -59.450;  -18.000;  -24.000
444.396; -119.600; -461.000; -221.000
444.518; -137.425; -691.000; -454.000
444.640; -101.750; -268.000; -111.000
444.763;  -29.175;  388.000;  249.000
444.885; -125.775; -432.000; -392.000
445.007;  -43.875;   35.000;   86.000
445.129; -127.700; -610.000; -515.000
445.251; -109.775; -372.000; -439.000
445.373; -142.725; -537.000; -386.000
445.495;   -6.050;  242.000;  350.000
445.617;   45.400;  853.000;  753.000
445.739;  -87.350; -215.000;  -97.000
445.861;  -40.425; -245.000; -112.000
445.984;  -45.325; -267.000; -101.000
446.105;  130.075; -418.000; -251.000
446.227;  470.450; -176.000;  -19.000
446.349;   -2.825; -358.000; -249.000
446.471; -101.900; -615.000; -448.000
446.593;  -79.225; -316.000;   19.000
446.715;  -14.875;  -67.000;   41.000
446.837;   47.675;  697.000;  832.000
446.959; -105.750; -457.000; -478.000
447.081; -134.200; -628.000; -518.000
447.203;   37.400;  862.000;  834.000
447.325;  -80.625; -270.000;   42.000
447.446;  -29.750;  286.000;  530.000
447.568; -153.175; -921.000; -803.000
447.690;  -95.250; -236.000; -245.000
447.812; -156.200; -798.000; -519.000
447.933;  -33.225;  155.000;  127.000
448.055;  -78.675; -306.000; -261.000
448.177;  100.625;   31.000;   79.000
448.299;   40.500; -935.000; -727.000
448.420;   12.300;  -25.000;  159.000
448.542;  -51.950;   -3.000;   33.000
448.664;  -26.200;  109.000;  322.000
448.785;  -62.250;  265.000;   83.000
448.907;  -88.700; -614.000; -353.000
449.028;  -73.075; -771.000; -471.000
449.150;   41.250;  492.000;  589.000
449.272; -178.100;-1044.000; -913.000
449.393;   18.475;  612.000;  694.000
449.515; -150.450; -634.000; -581.000
449.636;  -76.800; -264.000; -155.000
449.758;   67.450;  763.000;  622.000
449.879;  -96.250; -498.000; -396.000
450.001;  -89.400; -149.000;  -49.000
450.122;  -27.325;  -95.000;  162.000
450.244;  -26.050;   37.000;  364.000
450.365; -103.450; -495.000; -301.000
450.486;  -29.375;   80.000;  268.000
450.608;   17.575;  393.000;  326.000
450.729;   63.950;  578.000;  645.000
450.850;   -3.200; -574.000; -466.000
450.972;  769.950; -552.000; -389.000
451.093; 5152.150;  190.000;  588.000
451.214; 2360.550; -516.000; -337.000
451.336;  390.975;  773.000;  579.000
451.457;   56.775;  264.000;  393.000
451.578;  -54.275; -118.000;  -74.000
451.699; -124.250; -546.000; -540.000
451.821;  -50.475; -284.000;  -50.000
451.942;  -25.625;  278.000;  285.000
452.063;   25.725;  228.000;  419.000
452.184;  550.575;  -54.000;  -49.000
452.305; 1168.475;  103.000;  170.000
452.427;  143.200; -549.000; -301.000
452.548;  -27.275;   23.000;   79.000
452.669;  -60.375; -257.000;  -89.000
452.790;  -47.700;    3.000;  -18.000
452.911;  -13.625;  195.000;  259.000
453.032;  -74.975; -289.000;  -60.000
453.153;  -52.975;  -29.000;   81.000
453.274;   54.350;  737.000;  868.000
453.395;  -65.075;  -51.000;  175.000
453.516;  105.050; 1317.000; 1388.000
453.637;  -73.400; -205.000; -150.000
453.758;  -65.975;   15.000;   69.000
453.879; -120.275; -462.000; -250.000
454.000;   79.150; 1086.000;  948.000
454.121; -126.200; -554.000; -326.000
454.242; -132.400; -599.000; -383.000
454.362;  -64.650;  -99.000;  114.000
454.483;  -47.025; -309.000; -229.000
454.604;   30.775;  512.000;  580.000
454.725; -128.150; -627.000; -555.000
454.846; -125.925; -474.000; -406.000
454.967;  -29.625;  230.000;  539.000
455.087;  -47.650;  179.000;  153.000
455.208;   11.925;  554.000;  856.000
455.329;  -68.225;  -22.000;   82.000
455.450;   29.525;  473.000;  633.000
455.570;  -76.375; -234.000; -211.000
455.691;  -56.975;  201.000;  407.000
455.812; -118.600; -270.000;  -92.000
455.932;  -69.500;  107.000;  -97.000
456.053;  -92.375;   36.000;   24.000
456.173; -112.600; -433.000; -355.000
456.294; -140.975; -476.000; -303.000
456.415;  -78.575;  -73.000;   70.000
456.535;  -31.900;  297.000;  273.000
456.656;  -49.475;  132.000;  240.000
456.776;  -70.250;    3.000;  298.000
456.897;   -4.100;  308.000;  513.000
457.017;  -71.625; -153.000;   -3.000
457.138; -114.300; -402.000; -249.000
457.258;  -36.900;  263.000;  224.000
457.379;  -20.225;  509.000;  521.000
457.499;  -30.125;  443.000;  432.000
457.620; -118.875; -407.000; -231.000
457.740; -100.575; -132.000;  -11.000
457.860;  -63.875;   87.000;   44.000
457.981;  -59.975;  132.000;  124.000
458.101;  -87.750;  -89.000;   40.000
458.221;  -21.425;  336.000;  402.000
458.342;  -63.675;   -4.000;  -37.000
458.462;   31.200;  617.000;  352.000
458.582;  -38.900; -302.000; -294.000
458.703;   19.675;  303.000;  154.000
458.823;   -7.225;   22.000;  163.000
458.943;   18.950;  341.000;  467.000
459.063;  -28.425; 1124.000;  192.000
459.183;  -30.675;  328.000;  313.000
459.304;    4.875;  315.000;  517.000
459.424;  -57.100; -246.000;  -89.000
459.544;  332.075;  388.000;  764.000
459.664;  864.425;  499.000;  506.000
459.784;  324.375; 1004.000; 1175.000
459.904;   59.975;  867.000;  744.000
460.024;   62.925;  867.000;  684.000
460.144;    6.400;  449.000;  554.000
460.264;  -11.250;  515.000;  327.000
460.385;  -91.175; -145.000; -119.000
460.505;   15.725;  905.000;  858.000
460.625;  -97.725;  -17.000;  -68.000
460.745;  -25.850;  396.000;  541.000
460.864;  -43.525;  153.000;  469.000
460.984;    6.725;  499.000;  573.000
461.104;  144.875; 1656.000; 1775.000
461.224;   15.100;  657.000;  650.000
461.344;  -28.925;  431.000;  360.000
461.464;  -33.650;  258.000;  513.000
461.584;  -29.975;  283.000;  466.000
461.704;  -42.575;   58.000;  108.000
461.824;  -63.975;  238.000;  259.000
461.943;  -56.950;  191.000;  130.000
462.063;  -67.050;    2.000;  324.000
462.183;   18.225;  639.000;  717.000
462.303;   88.825; 1678.000; 1230.000
462.422;   10.750;  781.000;  840.000
462.542;  -42.575;  271.000;  391.000
462.662;   33.175;  353.000;  380.000
462.782;  241.750;  833.000;  572.000
462.901;  478.700;  545.000;  717.000
463.021;  297.925; 1702.000; 1638.000
463.141;   -4.750;  337.000;  770.000
463.260;  -12.350;  614.000;  474.000
463.380;   15.050;  902.000;  884.000
463.499;  -45.375;  342.000;  332.000
463.619;  -45.325;  581.000;  559.000
463.738;  104.550; 1644.000;  903.000
463.858;    7.100;  657.000;  811.000
463.978;  -34.925;  542.000;  396.000
464.097;   42.700;  921.000; 1114.000
464.217;  113.250; 1196.000; 1143.000
464.336;  107.975; 1068.000; 1130.000
464.455;  -26.500;  328.000;  659.000
464.575;   26.450;  597.000;  602.000
464.694;  139.150; 1204.000; 1179.000
464.814;  117.225; 1190.000; 1138.000
464.933;   67.900; 1095.000; 1027.000
465.052;   93.025; 1412.000; 1054.000
465.172;   79.725;  922.000;  799.000
465.291;  114.525; 1376.000; 1320.000
465.410;   -8.125;  462.000;  735.000
465.530;   77.250; 1355.000; 1310.000
465.649;   60.275; 1209.000; 1273.000
465.768;  133.475; 1673.000; 1508.000
465.888;   52.075;  941.000; 1174.000
466.007;   88.950; 1335.000; 1440.000
466.126;  -16.200;  721.000;  641.000
466.245;   24.850; 1176.000; 1187.000
466.364;    4.875;  950.000; 1060.000
466.484;   43.500; 1024.000; 1213.000
466.603;   34.625; 1101.000; 1222.000
466.722;  114.725; 1490.000; 1769.000
466.841;   63.625; 1151.000; 1401.000
466.960;   23.975; 1069.000;  972.000
467.079;  120.225; 1971.000; 1786.000
467.198;   52.075; 1238.000; 1181.000
467.317;   95.050; 1768.000; 1162.000
467.436;   62.400; 1709.000; 1261.000
467.555;  110.325; 1796.000; 1746.000
467.674;   50.000; 1227.000; 1329.000
467.793;   43.125; 1376.000; 1374.000
467.912;   95.400; 1658.000; 1539.000
468.031;  135.625; 2038.000; 1930.000
468.150;  146.150; 1842.000; 1837.000
468.269;  190.975; 2313.000; 2090.000
468.388;  188.725; 2168.000; 2339.000
468.507;  237.350; 2884.000; 2903.000
468.626;  272.700; 2555.000; 2541.000
468.744;  138.950; 2018.000; 2174.000
468.863;  202.450; 2312.000; 2523.000
468.982;   99.450; 1503.000; 1555.000
469.101;  213.425; 2788.000; 2692.000
469.220;  157.300; 2333.000; 2176.000
469.338;  245.875; 2935.000; 3051.000
469.457;  188.950; 2719.000; 2545.000
469.576;  350.875; 3953.000; 3784.000
469.695;  233.875; 2877.000; 3066.000
469.813;  422.875; 4148.000; 4192.000
469.932;  398.550; 4255.000; 4485.000
470.051;  429.400; 4075.000; 4161.000
470.169;  848.875; 4470.000; 4338.000
470.288; 1510.425; 4700.000; 4809.000
470.406;  911.700; 5059.000; 5194.000
470.525;  638.150; 6101.000; 5787.000
470.644;  634.250; 6847.000; 6794.000
470.762;  823.700; 8397.000; 7873.000
470.881;  885.550; 8651.000; 8464.000
470.999; 1012.775; 9685.000; 9151.000
471.118; 1100.875;11174.000;10711.000

