
Integration time [ms]: 200.000
Averaging Nr. [scans]: 10
Smoothing Nr. [pixels]: 0
Data measured with spectrometer [name]: 2101012U2
Wave   ;Sample   ;Dark     ;Reference
[nm]   ;[counts] ;[counts] ;[counts] 

197.733;  130.700;  516.000;  404.000
197.879; -183.500; -610.000; -634.000
198.025; -109.300; -475.000; -420.000
198.171; -172.800; -602.000; -612.000
198.317;  -59.300; -401.000; -316.000
198.463; -118.300; -655.000; -404.000
198.609;   51.100;  181.000; -137.000
198.755; -162.200; -644.000; -410.000
198.901; -129.800; -505.000; -424.000
199.047; -154.100; -615.000; -488.000
199.193;  -63.900; -230.000; -468.000
199.339;  -98.500; -222.000; -369.000
199.485;   92.700;  330.000;  271.000
199.631;   49.800;  227.000;  310.000
199.777; -126.100; -466.000; -398.000
199.923; -115.300; -610.000; -424.000
200.069;   -9.600; -141.000;  -58.000
200.215;   62.100;  128.000;  453.000
200.361;  128.800;  243.000;  477.000
200.507; -134.000; -600.000; -373.000
200.653;  -66.700; -371.000; -194.000
200.798;  -53.800; -215.000; -125.000
200.944;   13.600; -146.000;  -41.000
201.090;  120.700;   61.000;  222.000
201.236;  -30.300; -116.000; -158.000
201.382;  286.500;  874.000;  903.000
201.528;   -0.300;  -58.000;  -48.000
201.674; -155.800; -386.000; -293.000
201.819; -134.600; -540.000; -439.000
201.965; -187.900; -699.000; -447.000
202.111;  -60.600; -273.000; -226.000
202.257;  -68.800; -250.000; -238.000
202.402;   19.800;   13.000;  -36.000
202.548;  -76.500; -169.000; -116.000
202.694;  172.700;  410.000; -183.000
202.840; -155.500; -603.000; -531.000
202.985; -146.900; -681.000; -639.000
203.131; -217.800; -832.000; -666.000
203.277;  -60.300; -199.000; -262.000
203.423; -104.800; -434.000; -520.000
203.568;  -52.600; -462.000; -237.000
203.714; -131.600; -535.000; -542.000
203.860; -164.900; -682.000; -641.000
204.005;   51.800;  112.000;  167.000
204.151;  166.300;  561.000;  556.000
204.296;  -75.800; -354.000; -221.000
204.442; -156.400; -600.000; -547.000
204.588; -154.300; -592.000; -579.000
204.733;   24.100;  178.000;  168.000
204.879; -263.900;-1018.000; -822.000
205.025;   19.000;  -99.000;  126.000
205.170;    2.200;  -17.000;   94.000
205.316;  194.100;  438.000;  661.000
205.461; -192.000; -698.000; -554.000
205.607;  215.200;  609.000;  665.000
205.752; -164.300; -626.000; -551.000
205.898;  -88.000; -501.000; -391.000
206.043; -116.700; -578.000; -506.000
206.189;  -75.300; -243.000; -285.000
206.334;  183.900;  554.000;  606.000
206.480;  115.900;  409.000;  239.000
206.625; -169.900; -529.000; -552.000
206.771;  -85.300; -451.000; -373.000
206.916;  -51.900; -210.000; -537.000
207.062; -142.400; -545.000; -591.000
207.207; -143.000; -546.000; -443.000
207.353;  128.800;  185.000;  460.000
207.498;   11.300;  196.000;   85.000
207.643; -103.100; -501.000; -370.000
207.789; -293.000;-1069.000; -910.000
207.934; -195.600; -665.000; -713.000
208.080;  -46.300; -154.000;   66.000
208.225;   16.400;  -22.000;  -57.000
208.370; -173.100; -727.000; -619.000
208.516; -164.100; -741.000; -487.000
208.661;  -43.200; -127.000;  -69.000
208.806;  -30.900; -165.000; -171.000
208.952; -275.200;-1044.000; -731.000
209.097;  166.500;  378.000;  349.000
209.242;  -69.900; -307.000; -382.000
209.387;  130.900;  392.000;  350.000
209.533; -114.500; -321.000; -350.000
209.678;  184.700;  472.000;  543.000
209.823; -107.000; -408.000; -310.000
209.969; -212.100; -860.000; -757.000
210.114; -214.000; -907.000; -719.000
210.259; -240.000; -939.000; -889.000
210.404;  -25.900; -171.000;  103.000
210.549;   32.400;  108.000;    3.000
210.695;  -15.700;   -3.000;  -95.000
210.840;   50.000;   94.000;   67.000
210.985; -139.000; -484.000; -303.000
211.130;  185.000;  268.000;  406.000
211.275;   48.800;  207.000;  199.000
211.420;  -78.700; -300.000; -289.000
211.566; -156.100; -536.000; -489.000
211.711;   82.900;  218.000;  157.000
211.856; -155.400; -545.000; -519.000
212.001;   27.100;  151.000;   44.000
212.146;   21.300;  153.000;   49.000
212.291;  -39.800; -210.000; -186.000
212.436;  -64.800; -280.000;   -6.000
212.581; -161.200; -685.000; -653.000
212.726; -137.600; -487.000; -538.000
212.871; -103.500; -552.000; -217.000
213.016; -279.700;-1172.000;-1029.000
213.161;  107.700;  406.000;  291.000
213.306; -167.500; -435.000; -577.000
213.451; -191.300; -778.000; -689.000
213.596;  -77.800; -455.000; -347.000
213.741; -105.500; -448.000; -538.000
213.886; -150.500; -498.000; -517.000
214.031;  -36.800; -294.000; -124.000
214.176;  -98.200; -408.000; -341.000
214.321;  -27.800; -296.000; -157.000
214.466;  -50.200; -163.000;  -43.000
214.611;   -2.200;  -61.000;  -10.000
214.756; -242.100; -948.000; -858.000
214.901;  -46.800; -388.000; -226.000
215.046; -254.100; -797.000; -825.000
215.191;   51.700;  128.000;   35.000
215.336;  -25.600; -157.000;  -19.000
215.480; -160.300; -684.000; -505.000
215.625;  -31.700; -175.000;  -19.000
215.770; -161.400; -757.000; -662.000
215.915;    4.000;   -5.000;  -97.000
216.060;   -1.800; -113.000;  -21.000
216.205; -222.300; -731.000; -779.000
216.349; -141.800; -470.000; -533.000
216.494; -299.400; -939.000; -867.000
216.639; -211.900; -823.000; -888.000
216.784; -191.500; -577.000; -525.000
216.929;  123.900;  392.000;  281.000
217.073;  -21.600; -244.000;  -31.000
217.218;   38.500;   78.000;  -47.000
217.363; -193.900; -656.000; -618.000
217.507; -166.200; -623.000; -588.000
217.652; -250.600; -845.000; -874.000
217.797; -169.700; -708.000; -659.000
217.942; -235.500; -856.000; -720.000
218.086;  174.100;  608.000;  539.000
218.231;  -10.700; -174.000;  -26.000
218.376;  -62.100; -337.000; -229.000
218.520;   23.400;  -41.000;   96.000
218.665;  -65.900; -338.000; -204.000
218.810; -101.400; -275.000; -233.000
218.954;   46.700;  201.000;   35.000
219.099; -201.300; -713.000; -963.000
219.243; -142.600; -589.000; -554.000
219.388;  -72.500; -264.000; -136.000
219.532;  -11.100; -116.000; -116.000
219.677; -170.200; -564.000; -521.000
219.822;    0.300;   33.000;   89.000
219.966;    9.100;   17.000;  -99.000
220.111;  -46.200; -328.000;  -40.000
220.255; -195.900; -797.000; -750.000
220.400;  -54.900; -180.000; -146.000
220.544; -159.200; -516.000; -450.000
220.689;  -89.500; -422.000; -451.000
220.833;  -28.100; -123.000;  -58.000
220.978;  -94.500; -393.000; -563.000
221.122;   29.500;  319.000;  307.000
221.267; -264.800; -906.000; -837.000
221.411; -161.200; -478.000; -394.000
221.555;   -8.900; -104.000;  -23.000
221.700;  -68.900; -329.000; -222.000
221.844;   66.700;  255.000;  272.000
221.989;  -96.700; -328.000; -311.000
222.133;  -55.400; -289.000; -307.000
222.277;  -29.800;    5.000;   78.000
222.422;   39.900;  227.000;  113.000
222.566;  -63.800; -381.000; -214.000
222.711; -117.100; -414.000; -479.000
222.855; -183.200; -643.000; -586.000
222.999; -159.700; -642.000; -717.000
223.144;  -38.200; -195.000; -194.000
223.288;  152.500;  423.000;  251.000
223.432;   52.600;  184.000;  230.000
223.576;   52.300;  152.000;  -21.000
223.721;   90.600;  364.000;  273.000
223.865;  -92.100; -472.000; -475.000
224.009;  503.600; 1673.000; 1631.000
224.153; -157.600; -660.000; -671.000
224.298; -158.400; -531.000; -489.000
224.442;  -48.600;  -74.000;  -33.000
224.586;  -11.700; -169.000; -106.000
224.730; -202.100; -858.000; -670.000
224.875; -238.900; -739.000; -688.000
225.019;   30.400;  102.000;  188.000
225.163;  132.200;  208.000;  341.000
225.307;   67.800;   97.000;  -91.000
225.451;  113.700;  360.000;  481.000
225.595;   63.300;  264.000;  176.000
225.739;  -38.800; -170.000;  -94.000
225.884;    8.200;   86.000;    5.000
226.028; -217.700; -760.000; -626.000
226.172;  -83.800; -260.000; -273.000
226.316; -241.300; -941.000; -902.000
226.460; -128.400; -645.000; -493.000
226.604;  -98.300; -406.000; -400.000
226.748; -193.200; -836.000; -733.000
226.892;  -60.900; -227.000; -181.000
227.036; -114.400; -537.000; -447.000
227.180;  -92.500; -551.000; -375.000
227.324; -156.300; -561.000; -580.000
227.468; -241.700; -819.000; -717.000
227.612;   11.300;  242.000;  -28.000
227.756; -207.700; -845.000; -698.000
227.900;  126.800;  342.000;  441.000
228.044; -100.500; -509.000; -290.000
228.188;  109.800;  448.000;  568.000
228.332; -165.500; -546.000; -472.000
228.476;  -59.400; -223.000; -149.000
228.620;  -66.700; -210.000; -150.000
228.764;  148.600;  431.000;  349.000
228.908;  -25.000; -155.000;   30.000
229.052; -128.800; -615.000; -528.000
229.195;  -37.600; -172.000;   13.000
229.339;  -64.700; -235.000; -305.000
229.483;  -29.300;    5.000; -162.000
229.627;   16.200; -156.000;  139.000
229.771;  -77.300; -218.000; -294.000
229.915;   32.400;  230.000;   79.000
230.059; -211.100; -648.000; -663.000
230.202;  -60.000; -370.000; -317.000
230.346;  -13.100; -107.000;  107.000
230.490; -144.700; -489.000; -521.000
230.634; -217.300; -736.000; -553.000
230.777;  173.100;  478.000;  509.000
230.921; -133.600; -450.000; -359.000
231.065;  -80.600; -246.000; -286.000
231.209;   90.800;  261.000;  265.000
231.352;   60.200;   54.000;   40.000
231.496;   62.300;  568.000;  188.000
231.640; -166.400; -693.000; -621.000
231.783;  140.300;  546.000;  525.000
231.927;  -72.200; -294.000; -365.000
232.071; -239.600; -962.000; -736.000
232.214; -224.000; -980.000; -764.000
232.358; -222.000; -683.000; -599.000
232.502;   38.000;  -19.000;    7.000
232.645; -279.100;-1090.000; -927.000
232.789;  -47.500; -257.000; -218.000
232.933;  -98.800; -407.000; -224.000
233.076; -255.600;-1038.000; -897.000
233.220; -209.700; -752.000; -777.000
233.363; -162.200; -669.000; -477.000
233.507;  150.500;  371.000;  129.000
233.650; -214.900; -764.000; -834.000
233.794;  115.100;  438.000;  461.000
233.938; -139.700; -530.000; -362.000
234.081;  -50.500;  -93.000;   31.000
234.225; -118.200; -631.000; -539.000
234.368; -234.700; -773.000; -723.000
234.512;  -76.100; -385.000; -299.000
234.655; -166.700; -582.000; -555.000
234.798; -133.500; -493.000; -466.000
234.942; -261.700; -884.000;-1002.000
235.085; -138.600; -651.000; -443.000
235.229; -150.600; -405.000; -410.000
235.372;  -58.400; -247.000; -191.000
235.516; -104.800; -397.000; -321.000
235.659;   71.500;   92.000;  121.000
235.802;  -18.500;  -38.000;  -22.000
235.946;   66.200;  335.000;  215.000
236.089;   78.000;  126.000;  250.000
236.233;  118.200;  275.000;  298.000
236.376;  -90.000; -235.000; -378.000
236.519;  -98.300; -297.000; -319.000
236.663;  -12.900; -215.000; -117.000
236.806; -274.500;-1029.000; -999.000
236.949;  158.100;  543.000;  431.000
237.092;  149.900;  412.000;  391.000
237.236; -189.200; -589.000; -502.000
237.379;  132.000;  352.000;  428.000
237.522; -235.400; -879.000; -768.000
237.666;  -15.100; -271.000;   18.000
237.809; -268.700; -851.000; -823.000
237.952;   70.300;  469.000;  271.000
238.095; -124.800; -447.000; -442.000
238.238;  188.600;  688.000;  700.000
238.382;    4.500;  166.000;  103.000
238.525; -157.400; -598.000; -511.000
238.668; -276.200;-1060.000; -985.000
238.811; -170.200; -638.000; -643.000
238.954; -111.500; -483.000; -334.000
239.097;  226.300;  617.000;  664.000
239.241;   65.500;  394.000;  326.000
239.384;  -39.000; -254.000; -214.000
239.527;  -93.200; -424.000; -224.000
239.670; -298.200; -994.000;-1091.000
239.813; -223.100; -696.000; -658.000
239.956;  182.000;  579.000;  473.000
240.099; -223.400; -778.000; -725.000
240.242;  167.300;  428.000;  432.000
240.385;  134.700;  466.000;  450.000
240.528; -142.400; -706.000; -473.000
240.671;   42.100;  189.000;  134.000
240.814;  -93.400; -441.000; -158.000
240.957; -186.700; -767.000; -578.000
241.100; -173.200; -779.000; -755.000
241.243; -311.300;-1234.000; -893.000
241.386; -104.400; -508.000; -379.000
241.529; -194.200; -735.000; -547.000
241.672; -119.100; -566.000; -495.000
241.815; -256.200; -832.000; -808.000
241.958;  -62.800; -125.000; -182.000
242.101; -160.700; -545.000; -390.000
242.244;  -73.800; -270.000; -325.000
242.387;  -73.900; -304.000; -246.000
242.530;  109.200;  470.000;  134.000
242.673;  -92.500; -381.000; -309.000
242.815; -231.000; -925.000; -899.000
242.958; -122.700; -482.000; -381.000
243.101;   28.100;  132.000;  187.000
243.244; -129.200; -564.000; -521.000
243.387;  -79.300; -313.000; -316.000
243.530; -186.900; -657.000; -674.000
243.672;   26.300;   43.000;  -92.000
243.815;  -87.800; -355.000; -283.000
243.958;   28.200;   98.000;  -26.000
244.101;   29.100;   59.000;  -16.000
244.243;  -33.200;  -47.000;  101.000
244.386; -232.700; -761.000; -630.000
244.529;  -28.400; -132.000; -139.000
244.672; -311.600;-1154.000; -951.000
244.814; -182.500; -621.000; -794.000
244.957; -123.400; -380.000; -304.000
245.100; -140.500; -489.000; -489.000
245.242;  -92.400; -387.000; -374.000
245.385;   24.300;  -59.000;  -39.000
245.528; -265.700; -871.000; -705.000
245.670;  216.200;  612.000;  634.000
245.813; -167.300; -599.000; -547.000
245.956;  -43.600; -324.000; -275.000
246.098; -193.100; -508.000; -650.000
246.241;   44.700;  194.000;   48.000
246.383;   -4.000; -119.000;  -73.000
246.526; -142.700; -454.000; -525.000
246.669; -227.200; -889.000; -780.000
246.811;   53.200;  172.000;   -1.000
246.954; -113.900; -512.000; -426.000
247.096;  -62.800;  -84.000;   -6.000
247.239; -117.800; -482.000; -445.000
247.381; -156.300; -647.000; -488.000
247.524;  197.500;  645.000;  679.000
247.666;  -12.600;   58.000;   11.000
247.809; -245.200; -887.000; -691.000
247.951;   -0.700;  -75.000;  138.000
248.094;   78.400;  432.000;  308.000
248.236; -351.400;-1262.000;-1238.000
248.378;   14.300; -356.000;  -81.000
248.521;  -36.000; -334.000; -337.000
248.663;  -82.000; -236.000; -267.000
248.806;  -46.500; -300.000; -266.000
248.948; -174.600; -886.000; -763.000
249.090; -127.800; -428.000; -398.000
249.233;  -84.500; -344.000; -381.000
249.375; -118.700; -474.000; -451.000
249.518;    0.200;  -83.000; -133.000
249.660;   16.300; -103.000;    3.000
249.802; -363.300;-1303.000;-1189.000
249.945; -154.100; -612.000; -540.000
250.087; -212.200; -834.000; -768.000
250.229; -123.100; -362.000; -480.000
250.371; -153.800; -494.000; -439.000
250.514;  -86.900; -310.000; -244.000
250.656; -142.300;   69.000;  102.000
250.798; -247.100; -849.000; -800.000
250.940; -108.500; -322.000; -322.000
251.083;  -26.300; -335.000; -111.000
251.225;  160.000;  338.000;  310.000
251.367;  -75.700; -274.000; -373.000
251.509;  -92.000; -265.000; -210.000
251.651; -190.900; -731.000; -671.000
251.794;  149.400;  538.000;  632.000
251.936; -227.700; -821.000; -747.000
252.078; -154.800; -540.000; -461.000
252.220; -138.300; -645.000; -477.000
252.362;  144.200;  344.000;  462.000
252.504; -127.800; -677.000; -584.000
252.646; -189.600; -875.000; -722.000
252.788;   15.700;   14.000; -128.000
252.931;  -81.400; -257.000; -253.000
253.073; -110.000; -376.000; -317.000
253.215;   -8.700;  141.000;  122.000
253.357;  -44.900;   82.000; -153.000
253.499;  -91.500; -374.000; -234.000
253.641; -148.600; -749.000; -594.000
253.783; -179.200; -609.000; -527.000
253.925; -137.000; -586.000; -591.000
254.067; -225.000; -744.000; -667.000
254.209;  -60.500; -391.000; -259.000
254.351; -270.300; -865.000; -883.000
254.493; -142.300; -441.000; -417.000
254.635; -227.300; -936.000; -818.000
254.777; -218.800; -752.000; -687.000
254.918; -152.900; -512.000; -430.000
255.060; -118.000; -551.000; -395.000
255.202; -125.700; -473.000; -261.000
255.344; -113.800; -658.000; -455.000
255.486; -132.900; -471.000; -406.000
255.628; -194.900; -780.000; -781.000
255.770; -181.100; -676.000; -536.000
255.912; -104.400; -559.000; -468.000
256.053; -143.000; -730.000; -508.000
256.195;  344.500; 1008.000;  903.000
256.337; -183.600; -861.000; -595.000
256.479;  168.000;  532.000;  416.000
256.621;  -90.900; -394.000; -212.000
256.762; -200.600; -789.000; -742.000
256.904;  148.500;  485.000;  487.000
257.046;  -68.000; -381.000; -271.000
257.188;  -86.600; -351.000; -264.000
257.329; -144.000; -525.000; -464.000
257.471; -247.300; -939.000; -807.000
257.613; -110.200; -584.000; -498.000
257.755; -299.200;-1073.000; -982.000
257.896;   88.200;  286.000;  392.000
258.038; -115.600; -403.000; -352.000
258.180;  -59.800; -354.000; -279.000
258.321; -173.700; -581.000; -457.000
258.463;   12.800;  -71.000;  133.000
258.605; -202.300; -562.000; -570.000
258.746; -232.100; -886.000; -772.000
258.888; -301.900;-1026.000;-1020.000
259.029;   58.800;  121.000;   -8.000
259.171; -217.300; -614.000; -550.000
259.313;   -3.700;  -49.000;  -47.000
259.454; -136.000; -536.000; -414.000
259.596;  -62.100; -483.000; -390.000
259.737; -122.800; -590.000; -474.000
259.879;   96.700;  217.000;  311.000
260.020;  207.500;  901.000;  636.000
260.162;  -60.400; -146.000; -253.000
260.303; -233.800; -768.000; -687.000
260.445; -150.000; -609.000; -613.000
260.586;   58.900;  392.000;  157.000
260.728;  -88.900; -360.000; -248.000
260.869; -161.200; -350.000; -343.000
261.011;  173.000;  706.000;  537.000
261.152; -101.400; -479.000; -319.000
261.293; -158.300; -576.000; -595.000
261.435;  -31.100; -219.000; -184.000
261.576; -107.900; -455.000; -325.000
261.718;  157.500;  420.000;  470.000
261.859; -265.900; -940.000; -949.000
262.000; -267.100; -951.000;-1016.000
262.142;  -30.400;  -52.000;  -60.000
262.283; -218.400; -808.000; -691.000
262.424; -185.100; -666.000; -625.000
262.566; -292.000;-1161.000; -983.000
262.707; -207.900; -840.000; -830.000
262.848; -229.100; -769.000; -726.000
262.990;  -44.200; -362.000; -345.000
263.131;  181.200;  650.000;  681.000
263.272;    9.500;  -61.000;  -41.000
263.413; -181.700; -589.000; -561.000
263.555; -121.200; -669.000; -143.000
263.696; -162.500; -550.000; -641.000
263.837;  -90.600; -449.000; -551.000
263.978;  -27.200;   -5.000;  -77.000
264.119;  -83.400; -283.000; -264.000
264.261; -214.900; -847.000; -630.000
264.402;   13.400;   33.000;   40.000
264.543; -143.100; -509.000; -524.000
264.684;    6.000;   61.000;  -50.000
264.825; -151.000; -816.000; -538.000
264.966;    3.100;  -84.000;  -67.000
265.107; -196.200; -646.000; -670.000
265.248; -201.000; -825.000; -812.000
265.390;   20.100;  152.000;   -9.000
265.531;  -15.100; -238.000; -107.000
265.672; -195.200; -557.000; -630.000
265.813;  155.400;  563.000;  439.000
265.954; -281.200; -959.000; -940.000
266.095;   -1.500; -372.000; -322.000
266.236; -154.700; -686.000; -548.000
266.377;  -54.900; -243.000; -297.000
266.518; -136.100; -619.000; -547.000
266.659;   64.300;  170.000;  268.000
266.800;   48.400;   83.000;   85.000
266.941; -135.200; -487.000; -478.000
267.082;   46.600;  354.000;   99.000
267.223;  -94.800; -344.000; -273.000
267.364; -214.900; -892.000; -686.000
267.504;   11.300;    3.000;  135.000
267.645;   42.500;  160.000;   67.000
267.786;  -40.400; -147.000;  -86.000
267.927; -166.800; -473.000; -379.000
268.068;  -37.300; -186.000;  -61.000
268.209; -104.200; -175.000; -413.000
268.350;  -81.700; -388.000; -532.000
268.490; -167.000; -648.000; -521.000
268.631;  104.000;  127.000;  225.000
268.772; -225.800; -874.000; -647.000
268.913;  -98.000; -328.000; -476.000
269.054;  -26.700; -117.000;   12.000
269.194;  -72.800; -418.000; -402.000
269.335; -287.100;-1137.000;-1074.000
269.476;    8.600;   33.000;  -35.000
269.617; -108.600; -347.000; -392.000
269.757; -164.500; -713.000; -646.000
269.898; -221.100; -856.000; -613.000
270.039;  -88.600; -415.000; -405.000
270.180; -278.100; -952.000; -816.000
270.320;  -12.100; -190.000; -250.000
270.461;  -88.100; -277.000; -249.000
270.602;  -24.400; -186.000; -156.000
270.742; -222.500; -868.000; -943.000
270.883;  -87.400; -442.000; -390.000
271.023;  -81.300; -358.000; -357.000
271.164; -135.500; -607.000; -528.000
271.305; -171.200; -666.000; -654.000
271.445; -168.600; -722.000; -683.000
271.586;  -98.900; -462.000; -283.000
271.726;  -93.500; -397.000; -322.000
271.867; -129.700; -594.000; -534.000
272.008;  300.500; -473.000; -285.000
272.148;  245.300;  462.000;  468.000
272.289;   32.300; -113.000; -181.000
272.429;   26.100;   19.000;  185.000
272.570; -171.000; -633.000; -737.000
272.710; -207.400; -825.000; -775.000
272.851;  -18.500;  113.000; -130.000
272.991; -309.900;-1173.000;-1077.000
273.131; -112.700; -419.000; -459.000
273.272; -186.400; -683.000; -723.000
273.412;    6.700; -143.000;  -31.000
273.553; -103.900; -488.000; -507.000
273.693;  309.400;  913.000;  858.000
273.834; -219.400; -894.000; -692.000
273.974; -121.600; -664.000; -615.000
274.114; -218.900; -772.000; -560.000
274.255;  164.900;  414.000;  373.000
274.395;   -0.800; -180.000; -125.000
274.535;   85.800;  199.000;  350.000
274.676;  104.600;  225.000;   94.000
274.816;   39.800;  110.000;   34.000
274.956; -160.500; -624.000; -690.000
275.097; -142.100;-1014.000; -922.000
275.237; -232.400; -913.000; -803.000
275.377; -195.700; -778.000; -689.000
275.517; -291.200; -878.000; -937.000
275.658; -105.600; -590.000; -555.000
275.798; -147.300; -606.000; -413.000
275.938;   74.500;  215.000;  323.000
276.078; -159.100; -626.000; -395.000
276.218;   43.800;   99.000;  104.000
276.359; -284.300;-1026.000;-1024.000
276.499; -124.300; -605.000; -446.000
276.639;  -62.400; -305.000; -151.000
276.779;  -82.900; -475.000; -357.000
276.919; -207.500; -783.000; -624.000
277.059;  -27.400; -261.000; -212.000
277.199;  -95.300; -357.000; -259.000
277.340;   95.800;  287.000;  175.000
277.480; -218.400; -840.000; -693.000
277.620;   56.400;  192.000;   16.000
277.760; -412.900;-1533.000;-1294.000
277.900;   32.300;  113.000;   33.000
278.040;   59.700;  137.000;  159.000
278.180;   93.600;  270.000;  170.000
278.320;   19.800;   21.000;   56.000
278.460; -120.300; -443.000; -469.000
278.600; -164.700; -708.000; -598.000
278.740;  112.900;  448.000;  224.000
278.880; -178.800; -768.000; -791.000
279.020;  -11.200; -194.000; -144.000
279.160; -179.700; -672.000; -595.000
279.300; -237.600; -926.000; -873.000
279.440; -201.800; -709.000; -622.000
279.579; -117.300;-1014.000; -929.000
279.719; -102.000; -410.000; -394.000
279.859;  116.500;   -4.000;   41.000
279.999;   34.600; -208.000;  101.000
280.139;  -50.100; -435.000; -387.000
280.279; -147.600; -708.000; -745.000
280.419;    7.000; -229.000; -147.000
280.559;  -70.000; -259.000; -180.000
280.698; -131.800; -790.000; -639.000
280.838; -211.900; -778.000; -800.000
280.978; -181.400; -846.000; -790.000
281.118; -199.900; -811.000; -704.000
281.257;   43.600;   24.000;    6.000
281.397; -262.300;-1094.000; -960.000
281.537; -158.900; -599.000; -712.000
281.677;  -28.300; -150.000; -101.000
281.816; -168.400; -700.000; -630.000
281.956;  -66.300; -193.000; -257.000
282.096; -114.800; -539.000; -396.000
282.235; -203.400; -672.000; -638.000
282.375;  -34.100; -243.000;  -98.000
282.515; -207.800; -715.000; -707.000
282.654;  105.100;   29.000;  106.000
282.794;   77.800;  388.000;  244.000
282.934;  -90.600; -530.000; -491.000
283.073; -260.100;-1030.000; -857.000
283.213;  -81.200; -460.000; -467.000
283.353;  -61.100; -408.000; -349.000
283.492;  -46.700; -264.000; -296.000
283.632;  -63.300; -254.000; -168.000
283.771; -197.700; -859.000; -730.000
283.911;  -85.500; -369.000; -260.000
284.050; -221.300; -794.000; -748.000
284.190; -307.500;-1229.000;-1096.000
284.329; -283.000;-1055.000; -964.000
284.469; -107.500; -516.000; -591.000
284.608; -112.700; -559.000; -598.000
284.748; -145.500; -614.000; -570.000
284.887;   10.200;  -87.000;  -20.000
285.027; -224.400; -844.000; -892.000
285.166;  -18.800; -192.000; -249.000
285.306;   11.400; -116.000;  -33.000
285.445;  -57.300; -229.000; -343.000
285.584; -180.600; -630.000; -494.000
285.724;  -70.400; -282.000; -322.000
285.863; -204.700; -857.000; -507.000
286.002;  -84.900; -366.000; -276.000
286.142; -229.000; -715.000; -622.000
286.281; -119.100; -525.000; -493.000
286.420; -118.700; -554.000; -417.000
286.560;  222.100;  653.000;  623.000
286.699; -261.300; -958.000; -912.000
286.838; -162.300; -590.000; -591.000
286.978; -184.000; -533.000; -537.000
287.117; -237.500;-1085.000; -950.000
287.256;  -57.200; -228.000; -211.000
287.395; -109.400; -197.000; -378.000
287.535;  -88.200; -370.000; -298.000
287.674; -135.500; -509.000; -484.000
287.813;  139.500;  661.000;  533.000
287.952; -276.000;-1010.000; -871.000
288.091; -282.900;-1049.000; -915.000
288.231;   61.800;   13.000;   15.000
288.370; -336.600;-1217.000;-1200.000
288.509; -161.400; -728.000; -645.000
288.648; -158.400; -770.000; -548.000
288.787;   -7.500; -243.000;  -87.000
288.926; -118.000; -454.000; -475.000
289.065;  285.200;  859.000;  672.000
289.204;  -87.600; -377.000; -217.000
289.344; -175.900; -791.000; -690.000
289.483;   79.000;  416.000;  304.000
289.622;  -49.000; -291.000; -149.000
289.761;   -5.000; -309.000; -166.000
289.900; -221.500; -785.000; -626.000
290.039;   -0.500;  -12.000;  -95.000
290.178;  -91.500; -274.000; -180.000
290.317; -159.100; -618.000; -479.000
290.456; -118.100; -463.000; -451.000
290.595; -289.900; -961.000; -833.000
290.734; -274.800; -904.000; -891.000
290.873; -129.500; -456.000; -420.000
291.011; -184.300; -833.000; -843.000
291.150; -207.000; -770.000; -682.000
291.289;   -5.400; -343.000; -110.000
291.428; -143.600; -599.000; -480.000
291.567;  -74.000; -370.000; -442.000
291.706;   16.200;  109.000;  154.000
291.845; -162.600; -597.000; -505.000
291.984; -343.000;-1234.000;-1061.000
292.122;  186.500;  602.000;  582.000
292.261;  144.500;  620.000;  463.000
292.400;   28.000; -144.000;  211.000
292.539; -236.200; -959.000; -813.000
292.678;  -43.900; -325.000; -300.000
292.816; -297.300;-1136.000; -965.000
292.955; -152.000; -844.000; -684.000
293.094;  -48.300; -173.000; -337.000
293.233;  -86.800; -556.000; -400.000
293.371;  -23.600; -225.000;  -84.000
293.510; -185.900; -866.000; -780.000
293.649; -274.400; -959.000; -924.000
293.787; -150.000;-1083.000;-1012.000
293.926;   10.800; -113.000;  -32.000
294.065;  -74.500; -379.000; -290.000
294.203;  146.200;  298.000;  406.000
294.342;   50.200;   74.000;  156.000
294.481;12330.100;51180.000; -836.000
294.619;  -42.300; -425.000; -582.000
294.758; -296.200;-1230.000;-1137.000
294.896;  155.500; -125.000;    5.000
295.035; -255.400;-1040.000;-1006.000
295.174; -234.400;-1082.000; -954.000
295.312;  -72.900; -323.000; -203.000
295.451;  -13.900; -307.000; -428.000
295.589; -116.300; -389.000; -518.000
295.728;   51.500; -292.000; -165.000
295.866;   13.100;  -36.000;  -51.000
296.005; -125.700; -584.000; -341.000
296.143;  -91.200; -558.000; -596.000
296.282; -221.600; -957.000; -881.000
296.420; -187.200; -657.000; -557.000
296.559; -136.300; -892.000; -633.000
296.697;   -1.200; -847.000; -665.000
296.835;   56.700;-1141.000;-1002.000
296.974;   95.700;  -23.000;   39.000
297.112;   26.600; -443.000; -504.000
297.251; -129.200; -815.000; -755.000
297.389;  125.500; -576.000; -438.000
297.527;   75.600; -145.000;  -83.000
297.666;  -77.400; -486.000; -438.000
297.804; -121.000; -404.000; -264.000
297.942;   -3.700; -136.000; -161.000
298.081;   -4.500; -183.000;   63.000
298.219;  113.100;  -17.000;  -19.000
298.357;   79.800; -144.000;  -71.000
298.495;    4.600; -810.000; -812.000
298.634;  120.100;  245.000;  219.000
298.772;  109.500; -220.000; -338.000
298.910;  -71.800; -309.000; -182.000
299.048;   19.300; -130.000; -153.000
299.187;  -69.100; -350.000; -250.000
299.325;   61.800;   52.000;  122.000
299.463;   70.700; -389.000; -299.000
299.601;  176.400; -327.000; -271.000
299.739; -229.000; -908.000; -883.000
299.877; -157.600; -791.000; -703.000
300.016; -155.600;-1095.000; -935.000
300.154;  262.900;  -19.000; -161.000
300.292;   67.100; -428.000; -348.000
300.430;   42.500; -408.000; -291.000
300.568; -187.400; -940.000; -874.000
300.706;  -61.700; -366.000; -469.000
300.844; -202.700;-1108.000; -979.000
300.982;  270.600;  246.000;  282.000
301.120; -199.300; -965.000; -866.000
301.258; -143.600; -812.000; -705.000
301.396;   62.300;  104.000;  -41.000
301.534;  121.000; -218.000; -293.000
301.672;  -38.800; -664.000; -521.000
301.810;    4.400; -613.000; -545.000
301.948;  267.000;   53.000;  149.000
302.086;  900.500; -250.000;  -32.000
302.224; 1474.600; -610.000; -585.000
302.362;   55.900; -558.000; -622.000
302.500; -100.400; -923.000; -893.000
302.638;  204.600;  128.000;  245.000
302.776;    8.200; -352.000; -408.000
302.913;  124.600;  447.000;  236.000
303.051;   20.200;  -86.000;  -23.000
303.189;  129.000;   90.000;  118.000
303.327;  -62.900; -341.000; -256.000
303.465; -155.000; -832.000; -588.000
303.603; -157.300; -805.000; -604.000
303.740;  203.700;  417.000;  241.000
303.878;    6.200; -800.000; -759.000
304.016; -151.500; -915.000; -790.000
304.154; -249.800;-1123.000;-1152.000
304.291;  -63.200; -505.000; -554.000
304.429;   32.100;  102.000;   74.000
304.567; -254.200; -908.000; -893.000
304.705;  -89.800; -408.000; -515.000
304.842;  139.400; -616.000; -540.000
304.980;  133.200;  215.000;   35.000
305.118;   52.400; -367.000; -365.000
305.255; -138.200; -945.000; -927.000
305.393;  121.000;  178.000;  239.000
305.531; -200.300;-1173.000; -956.000
305.668;  -94.900; -663.000; -582.000
305.806;  176.500; -358.000; -439.000
305.943;  128.300; -629.000; -637.000
306.081;  100.200; -378.000; -267.000
306.219; -196.900; -863.000; -748.000
306.356;   55.100;  158.000;   27.000
306.494;  303.700;  981.000;  761.000
306.631;   44.700;  -11.000;  -55.000
306.769;   44.500; -613.000; -485.000
306.906;    9.800; -284.000; -258.000
307.044;  -81.100; -473.000; -488.000
307.181;  -96.900; -410.000; -332.000
307.319;   68.500;  112.000;   87.000
307.456; -323.000;-1191.000;-1153.000
307.594; -191.700; -980.000; -727.000
307.731;   -7.800; -371.000; -164.000
307.868;   33.600;  -15.000;   20.000
308.006; -254.400; -961.000; -847.000
308.143; -104.500; -618.000; -330.000
308.281;  361.400;  -37.000; -254.000
308.418;    2.900; -748.000; -640.000
308.555;  -99.300; -400.000; -250.000
308.693; -107.200; -577.000; -573.000
308.830; -205.500; -712.000; -657.000
308.967;   22.500; -215.000;  -95.000
309.105;  -61.100; -507.000; -396.000
309.242;   98.100; -468.000; -367.000
309.379;  674.800; -577.000; -655.000
309.517; -101.400; -936.000; -948.000
309.654; -174.600; -910.000; -734.000
309.791;  -79.700; -662.000; -580.000
309.928; -229.700; -977.000; -914.000
310.065;  360.300;  819.000;  697.000
310.203;  -45.200; -825.000; -850.000
310.340;   28.600; -465.000; -321.000
310.477; -138.500; -412.000; -516.000
310.614; -129.900; -383.000; -473.000
310.751;  -99.100; -427.000; -518.000
310.889;   -8.700;    1.000;   11.000
311.026; -271.900;-1161.000; -939.000
311.163;  -70.600; -386.000; -380.000
311.300; -127.600; -512.000; -479.000
311.437; -140.400; -658.000; -619.000
311.574; -274.400;-1226.000; -985.000
311.711;  -87.300; -595.000; -433.000
311.848;  -47.600; -380.000; -388.000
311.985;   74.900;  270.000;   93.000
312.122; -193.300; -932.000; -762.000
312.259; -200.900; -941.000; -994.000
312.396; -117.100; -508.000; -551.000
312.533; -145.200; -812.000; -790.000
312.670; -238.100;-1070.000; -898.000
312.807;    5.800; -352.000; -367.000
312.944; -124.300; -513.000; -611.000
313.081;  -29.200; -150.000; -415.000
313.218; -195.300;-1111.000; -867.000
313.355;   25.800; -531.000; -449.000
313.492;   32.400; -455.000; -292.000
313.629;  321.200;  815.000;  735.000
313.766; -281.500;-1176.000;-1008.000
313.902;    2.300; -186.000;   21.000
314.039;  -50.000; -372.000; -289.000
314.176;   83.000;  286.000;  192.000
314.313; -116.700; -569.000; -473.000
314.450; -148.600; -788.000; -684.000
314.587; -107.800; -468.000; -480.000
314.723;   74.000;  -78.000;  130.000
314.860;  108.600;  318.000;  332.000
314.997;  120.800;  223.000;  142.000
315.134;  -54.400; -385.000; -368.000
315.270;  -31.800; -480.000; -496.000
315.407; -238.600;-1094.000; -967.000
315.544; -112.800; -657.000; -538.000
315.681; -115.600; -681.000; -565.000
315.817;   75.000; -133.000; -176.000
315.954;   50.300; -613.000; -392.000
316.091; -226.000;-1045.000;-1023.000
316.227;   -9.100;  -71.000; -179.000
316.364;   23.200;   23.000;    6.000
316.500;  -42.400; -113.000; -300.000
316.637;  -57.600; -181.000; -302.000
316.774; -187.900; -625.000; -358.000
316.910; -167.800; -598.000; -629.000
317.047;  -76.400; -487.000; -351.000
317.183;  -77.200; -435.000; -566.000
317.320;   24.400; -367.000; -321.000
317.456; -105.500; -733.000; -805.000
317.593; -169.600; -598.000; -641.000
317.729;   32.800;  168.000;  -67.000
317.866; -371.400;-1434.000;-1285.000
318.002; -154.300; -708.000; -948.000
318.139; -203.000; -883.000; -867.000
318.275; -213.300;-1003.000; -738.000
318.412; -103.200; -517.000; -336.000
318.548;  -90.900; -751.000; -720.000
318.685; -200.200; -985.000; -888.000
318.821; -149.100; -762.000; -735.000
318.957;   -3.300;   34.000;  -23.000
319.094;  117.700;  297.000;  154.000
319.230; -111.900; -756.000; -742.000
319.367;  184.400; -471.000; -520.000
319.503;   90.200; -538.000; -436.000
319.639; -186.200; -877.000; -793.000
319.775; -148.500; -750.000; -685.000
319.912;  -59.300; -424.000; -519.000
320.048; -189.400;-1184.000;-1184.000
320.184;  194.600;   59.000;   70.000
320.321; -105.600; -497.000; -467.000
320.457;  186.800;  475.000;  662.000
320.593;  -57.400; -375.000; -382.000
320.729; -181.900; -732.000; -734.000
320.866; -143.300; -577.000; -635.000
321.002; -153.000; -759.000; -809.000
321.138;  -14.800; -135.000; -211.000
321.274;  148.800; -148.000; -115.000
321.410;  -48.100; -585.000; -353.000
321.546;  -99.800;-1011.000; -911.000
321.683;  117.500;  400.000;  185.000
321.819;   46.000;  -48.000; -117.000
321.955; -218.200; -743.000; -722.000
322.091;  -77.400; -585.000; -540.000
322.227;  -13.000; -382.000; -202.000
322.363;  -23.400; -320.000; -215.000
322.499;  -33.500; -343.000; -331.000
322.635;  314.600;  636.000;  443.000
322.771;   77.500; -139.000;   12.000
322.907;  206.200;  129.000;  327.000
323.043;  -21.000; -115.000; -206.000
323.179;  -46.800; -394.000; -363.000
323.315;  -16.300; -401.000; -371.000
323.451;  152.100; -328.000; -236.000
323.587;  126.200;  -60.000;  -77.000
323.723;   11.000; -682.000; -601.000
323.859;  -29.100; -258.000;  -76.000
323.995;  -35.100; -467.000; -409.000
324.131; -223.900; -967.000; -892.000
324.267;  -69.200; -254.000; -276.000
324.402; -243.900; -960.000; -983.000
324.538;  -14.300; -279.000; -104.000
324.674;   67.300;  164.000;   77.000
324.810;  238.200;  226.000;  308.000
324.946;   27.600; -810.000; -658.000
325.082;  -92.400; -568.000; -475.000
325.217;    1.000;  -62.000;   16.000
325.353; -188.300; -764.000; -659.000
325.489; -148.900; -540.000; -506.000
325.625; -112.700; -579.000; -525.000
325.760;  158.900;  517.000;  376.000
325.896;  -27.000; -515.000; -702.000
326.032;  -78.400; -403.000; -352.000
326.168; -126.800; -462.000; -369.000
326.303;  -93.500; -352.000; -461.000
326.439;  -26.000; -336.000; -276.000
326.575;   35.600; -190.000;  -29.000
326.710;   22.600; -156.000;  -30.000
326.846;   -5.200;  146.000;  103.000
326.982; -180.200; -530.000; -548.000
327.117; -112.900; -481.000; -442.000
327.253; -119.600; -745.000; -742.000
327.388; -242.800;-1137.000;-1153.000
327.524;  -67.700; -811.000; -578.000
327.659;  -24.900;  -58.000;  -22.000
327.795;   -7.600;   69.000;   45.000
327.931; -117.500; -723.000; -499.000
328.066;  -37.200; -417.000; -276.000
328.202;  -15.400;   12.000; -129.000
328.337;  267.200;  957.000;  713.000
328.473;   25.700;  -12.000;  -74.000
328.608;    5.200; -256.000; -267.000
328.743; -145.200; -799.000; -664.000
328.879;  106.400;  214.000;  114.000
329.014;  -84.500; -102.000; -122.000
329.150; -127.600; -358.000; -483.000
329.285; -107.300; -465.000; -466.000
329.421;  -60.300; -548.000; -246.000
329.556;  -14.200;  -36.000;   85.000
329.691; -184.200; -633.000; -615.000
329.827; -154.800; -626.000; -480.000
329.962;  -83.900;  131.000; -301.000
330.097; -132.100; -673.000; -585.000
330.233;  -57.900; -410.000; -223.000
330.368; -226.600; -839.000; -628.000
330.503;   11.700;    3.000;   98.000
330.638;   71.900;  -93.000; -125.000
330.774;  -97.500; -609.000; -530.000
330.909;  -82.200; -434.000; -244.000
331.044; -170.600; -714.000; -708.000
331.179; -326.800;-1217.000;-1109.000
331.315;   57.400;   77.000;   20.000
331.450;   55.500;  157.000;  285.000
331.585; -165.700; -805.000; -706.000
331.720; -151.400; -510.000; -460.000
331.855;   37.800;  -35.000; -102.000
331.990;  545.900;   62.000;  138.000
332.126;  304.500; -110.000;   71.000
332.261;    3.500; -379.000; -265.000
332.396;   60.100; -135.000; -242.000
332.531; -164.600;-1074.000;-1031.000
332.666;  121.800; -519.000; -363.000
332.801; -190.300; -726.000; -807.000
332.936;  -31.000; -192.000; -122.000
333.071; -300.700; -870.000; -817.000
333.206;   60.400;  307.000;  379.000
333.341;  147.700;  344.000;  418.000
333.476; -157.900; -627.000; -623.000
333.611;  -31.200; -251.000; -173.000
333.746;  -66.400; -381.000; -464.000
333.881; -232.300; -973.000; -935.000
334.016; -244.800; -936.000; -917.000
334.151; -234.900; -746.000; -702.000
334.286;   70.300;  152.000;  186.000
334.421;    8.700; -125.000; -178.000
334.556; -164.600; -611.000; -567.000
334.690; -162.400; -631.000; -577.000
334.825;  161.400;  381.000;   83.000
334.960; -114.800; -285.000; -413.000
335.095;   39.000;  135.000;  -91.000
335.230; -207.300; -722.000; -738.000
335.365; -264.100;-1084.000; -990.000
335.499; -256.100;-1108.000;-1037.000
335.634;   61.400;    9.000;  534.000
335.769; -166.000; -755.000; -720.000
335.904; -115.700; -603.000; -561.000
336.038;  -80.100; -735.000; -657.000
336.173; -241.200;-1206.000;-1194.000
336.308;   18.300; -116.000; -189.000
336.443;   35.300; -544.000; -634.000
336.577; -147.400; -936.000; -787.000
336.712;  153.400;   -4.000;  -12.000
336.847;  -72.200; -724.000; -607.000
336.981;  129.300; -272.000; -208.000
337.116;  514.300;  615.000;  501.000
337.250;  269.300; -434.000; -421.000
337.385;  593.500; -297.000; -208.000
337.520;  260.400; -632.000; -603.000
337.654;  -41.100; -215.000; -126.000
337.789; -232.200; -989.000; -933.000
337.923;  -31.000; -104.000; -205.000
338.058; -142.300; -673.000; -738.000
338.192;  -79.100; -611.000; -488.000
338.327;   22.400;  -18.000; -155.000
338.461;  -84.700; -299.000; -469.000
338.596; -141.400; -780.000; -638.000
338.730; -164.300; -767.000; -803.000
338.865;  268.300;  -46.000; -140.000
338.999;  -65.500; -846.000; -702.000
339.134;  -39.100; -634.000; -536.000
339.268;   77.600; -741.000; -603.000
339.403;  748.900; -740.000; -775.000
339.537;  313.600; -894.000; -820.000
339.671; -176.400; -829.000; -813.000
339.806;  -89.100; -556.000; -512.000
339.940;   79.200; -261.000; -235.000
340.074; -171.700; -685.000; -510.000
340.209;  -32.000; -351.000; -230.000
340.343; -150.200; -517.000; -573.000
340.477;  343.600;  998.000; 1036.000
340.612;  -69.600;-1033.000; -900.000
340.746;  277.000; -199.000; -243.000
340.880; -126.400; -924.000; -785.000
341.014;  -18.100;  -45.000; -154.000
341.149; -193.300; -756.000; -718.000
341.283; -211.900; -839.000; -754.000
341.417; -205.400;-1124.000; -938.000
341.551;  176.600; -768.000; -708.000
341.685;  -53.300; -633.000; -611.000
341.820;  -69.300; -562.000; -493.000
341.954;  -89.500; -218.000; -349.000
342.088; -271.300;-1102.000;-1019.000
342.222;  111.700;  565.000;  618.000
342.356; -105.300; -395.000; -335.000
342.490; -200.700; -880.000; -841.000
342.624;  -67.700; -339.000; -242.000
342.758;  -28.200; -364.000; -312.000
342.892; -138.100; -710.000; -585.000
343.026;  -41.700;  -58.000; -116.000
343.160;  -72.800; -426.000; -376.000
343.294; -102.600; -474.000; -337.000
343.428;  -41.800; -488.000; -448.000
343.562;   35.000; -172.000;  -23.000
343.696;  -31.300; -385.000; -314.000
343.830;  -32.400; -362.000; -356.000
343.964;   53.000; -231.000; -168.000
344.098; 1364.500;  199.000;   70.000
344.232; 1165.200; -266.000; -127.000
344.366;  151.100; -567.000; -453.000
344.500;  119.800; -665.000; -744.000
344.634;   47.200; -324.000; -164.000
344.768;  -56.200; -531.000; -341.000
344.902;   79.300;  278.000;  256.000
345.035; -109.700; -556.000; -496.000
345.169; -240.200; -933.000; -656.000
345.303;  -23.100; -308.000; -482.000
345.437; -128.800; -826.000; -717.000
345.571;  -92.100; -675.000; -594.000
345.704; -100.700; -309.000; -532.000
345.838;   -3.900; -331.000; -284.000
345.972;  -53.400; -543.000; -495.000
346.106;  380.700; -179.000; -190.000
346.239;  841.700; -312.000; -243.000
346.373;   42.800; -343.000; -302.000
346.507; -248.800; -950.000; -962.000
346.640;  224.800;  -30.000;   13.000
346.774;  -91.200; -650.000; -797.000
346.908;   -8.700; -138.000;  -11.000
347.041; -159.200; -646.000; -593.000
347.175;   62.900;  259.000;   27.000
347.309; -141.300; -698.000; -628.000
347.442; -160.600; -883.000; -732.000
347.576;  486.000;  670.000;  668.000
347.709;  334.600; -123.000;  -52.000
347.843; -188.900; -933.000; -825.000
347.976;  136.400;  235.000;  294.000
348.110; -349.000;-1268.000;-1186.000
348.243; -169.500; -679.000; -772.000
348.377;   25.700;  -26.000;   60.000
348.510;  164.200;  403.000;  540.000
348.644;  -32.000;  -37.000; -159.000
348.777;   53.600;  180.000;  191.000
348.911;  -84.700; -142.000; -112.000
349.044;  308.300;  471.000;  448.000
349.178;  170.400;-1069.000;-1006.000
349.311;  250.100;  141.000;  255.000
349.444;   23.300; -927.000; -813.000
349.578;   28.200; -347.000; -200.000
349.711; -184.800; -959.000; -862.000
349.845;    5.000; -661.000; -591.000
349.978; -284.800;-1224.000;-1137.000
350.111; -124.400; -546.000; -612.000
350.244; -135.600; -596.000; -700.000
350.378;   26.300; -392.000; -393.000
350.511; -101.700; -393.000; -426.000
350.644; -180.800; -808.000; -806.000
350.778;   91.900;  168.000;  104.000
350.911;   59.900;  134.000;  140.000
351.044; -152.000; -685.000; -615.000
351.177;   -8.900; -321.000; -281.000
351.310;   20.900;    3.000; -131.000
351.444; -178.500; -888.000; -788.000
351.577;  205.300;  140.000;   90.000
351.710;  236.200;  593.000;  417.000
351.843;  -11.100; -165.000;  -77.000
351.976;   60.200;  149.000;  -79.000
352.109; -163.600; -621.000; -612.000
352.242;  -41.700; -464.000; -419.000
352.376; -131.400; -580.000; -636.000
352.509;  231.700; -437.000; -356.000
352.642;  -30.300; -654.000; -604.000
352.775;   87.800; -141.000;  -98.000
352.908; -242.000; -933.000; -904.000
353.041; -208.300; -814.000; -824.000
353.174;  -79.400; -551.000; -424.000
353.307; -133.600; -753.000; -764.000
353.440;  182.500;  541.000;  453.000
353.573; -193.300; -957.000;-1008.000
353.706;  -83.000; -384.000; -558.000
353.839;  -15.900; -264.000; -220.000
353.971; -146.800; -657.000; -512.000
354.104; -163.100; -896.000; -835.000
354.237;  -52.200; -627.000; -662.000
354.370; -154.200; -846.000; -879.000
354.503; -323.400;-1231.000;-1308.000
354.636;  -33.000; -529.000; -348.000
354.769; -211.000; -937.000; -860.000
354.902;   -7.200; -230.000; -139.000
355.034;    7.400; -164.000; -220.000
355.167;   -3.700; -262.000; -162.000
355.300; -153.400;-1061.000; -880.000
355.433; 2054.000;  -71.000;  -14.000
355.565; 3118.000; -402.000; -384.000
355.698;  811.500; -356.000; -296.000
355.831;   -3.100; -882.000; -801.000
355.964;  148.300; -285.000; -170.000
356.096; -138.600; -856.000; -843.000
356.229;  -10.100; -523.000; -530.000
356.362;  737.000; -373.000; -266.000
356.494; 1287.800; -229.000; -162.000
356.627;  872.400;  269.000;  377.000
356.760; 1378.700;  120.000;   53.000
356.892; 2018.500; -286.000; -601.000
357.025; 1113.400;  403.000;  389.000
357.157;  978.700; -167.000; -179.000
357.290; 1435.100; -856.000; -713.000
357.423;  398.300; -667.000; -556.000
357.555;  211.300; -217.000; -228.000
357.688;  189.600; -483.000; -364.000
357.820;  626.500; -870.000; -877.000
357.953; 5743.200; -563.000; -589.000
358.085; 1199.400; -632.000; -612.000
358.218; 1635.800;-1131.000; -932.000
358.350;  359.700;  -58.000;  312.000
358.483; -255.900;-1300.000;-1187.000
358.615;  -62.800;-1182.000;-1078.000
358.747; -126.300;-1187.000;-1058.000
358.880;   12.000; -810.000; -744.000
359.012;   19.300; -376.000; -202.000
359.145;  -55.300; -480.000; -511.000
359.277;   54.300; -962.000; -913.000
359.409; 4767.300;  536.000;  231.000
359.542; 1178.900; -738.000; -688.000
359.674;  190.200;   46.000;   13.000
359.806; -107.300; -565.000; -438.000
359.939;  -51.500; -617.000; -516.000
360.071;    3.800; -583.000; -579.000
360.203;   -6.100; -411.000; -364.000
360.335;  150.300;  164.000;  -16.000
360.468;  306.500; -249.000; -307.000
360.600; 3966.300; -547.000; -454.000
360.732; 5900.100; -546.000; -423.000
360.864;  796.300;-1216.000;-1044.000
360.996;  457.100; -516.000; -554.000
361.129;   52.700; -389.000; -598.000
361.261;   78.600;  110.000; -113.000
361.393;  -69.700; -252.000; -214.000
361.525;  102.300;   94.000;  244.000
361.657;  -79.400; -821.000; -703.000
361.789;   28.400; -139.000; -155.000
361.921;  374.500; -642.000; -593.000
362.053;  476.900;  524.000;  541.000
362.185;  117.300;  288.000;   72.000
362.318; -130.100; -709.000; -705.000
362.450;  217.600;  294.000;  444.000
362.582;   86.200; -913.000; -870.000
362.714;  -73.400; -353.000; -332.000
362.846; -128.900; -606.000; -490.000
362.978; -265.000; -941.000; -811.000
363.109;   79.900; -161.000; -260.000
363.241;  687.800; -739.000; -749.000
363.373;  906.200; -649.000; -564.000
363.505; 1425.000; -186.000;  -91.000
363.637;  363.900; -787.000; -601.000
363.769; -230.000;-1067.000;-1080.000
363.901;  -85.100; -596.000; -654.000
364.033; -240.600;-1103.000;-1062.000
364.165;  -10.400; -283.000; -283.000
364.296;  197.000; -316.000; -177.000
364.428;  164.900;-1344.000;-1220.000
364.560; -120.400; -679.000; -661.000
364.692; -113.800; -738.000; -835.000
364.824;  375.800; -588.000; -456.000
364.955;  883.600; -402.000; -564.000
365.087; 2001.500;-1097.000; -852.000
365.219;   79.300; -686.000; -816.000
365.351;  -80.100; -526.000; -572.000
365.482;  162.400;  300.000;  240.000
365.614;   -8.700; -402.000; -314.000
365.746; -158.000; -729.000; -752.000
365.877; -195.200; -706.000; -672.000
366.009;  606.400;  -35.000;  -62.000
366.141; -120.300;-1249.000;-1134.000
366.272; -191.700; -803.000; -719.000
366.404; -187.100;-1005.000; -874.000
366.535;   39.000; -139.000;  -12.000
366.667; -143.600; -644.000; -649.000
366.799;  124.400;  353.000;  203.000
366.930; -217.300; -862.000; -996.000
367.062;  267.700; -639.000; -613.000
367.193;  404.900; -872.000; -842.000
367.325;  -66.400; -580.000; -684.000
367.456;   76.400; -246.000;   31.000
367.588;  391.300; -371.000; -318.000
367.719;  110.500;  -44.000;  -45.000
367.851;    7.100; -222.000; -241.000
367.982; -131.700; -875.000; -732.000
368.113;  168.600; -475.000; -358.000
368.245; -226.100; -960.000; -841.000
368.376;    3.600; -254.000; -302.000
368.508;  -51.200; -188.000; -263.000
368.639; -248.800;-1166.000;-1034.000
368.770;  -50.800; -670.000; -589.000
368.902; -118.200; -836.000; -926.000
369.033; -195.900; -906.000; -855.000
369.164;  -74.000; -720.000; -653.000
369.296; -179.300; -452.000; -601.000
369.427;   28.200; -209.000; -144.000
369.558;  -93.900; -593.000; -377.000
369.689; -135.000; -721.000; -569.000
369.821; -228.100; -951.000; -845.000
369.952;   28.600;   42.000; -108.000
370.083;  -35.300; -229.000; -108.000
370.214; -128.600; -735.000; -650.000
370.345;   43.100;   65.000;   81.000
370.477; -126.500; -810.000; -790.000
370.608;  354.300; -328.000; -264.000
370.739; -148.000;-1233.000;-1292.000
370.870;  -76.000;-1102.000; -923.000
371.001;  142.600; -378.000; -467.000
371.132; -138.000; -754.000; -735.000
371.263;   21.800;  -42.000; -148.000
371.394; -255.800; -841.000; -748.000
371.525;  117.200;  345.000;  225.000
371.657; -161.600; -808.000; -670.000
371.788;  155.900;  103.000;  199.000
371.919;  304.300; -384.000; -304.000
372.050; 5540.100;  -91.000; -156.000
372.181; 1558.500; -188.000; -294.000
372.311;  590.600;   42.000; -127.000
372.442;   47.300; -457.000; -451.000
372.573;  -15.000; -444.000; -340.000
372.704; -226.300;-1008.000; -980.000
372.835;  128.000; -228.000; -289.000
372.966; -106.100; -646.000; -554.000
373.097; -120.000; -575.000; -711.000
373.228;  -90.300; -717.000; -542.000
373.359;  167.700; -824.000; -536.000
373.490; 1447.100; -881.000; -727.000
373.620; 1686.200;-1001.000; -803.000
373.751; 2698.900; -332.000; -396.000
373.882; 1108.000; -663.000; -733.000
374.013;   89.400; -449.000; -262.000
374.143;  -79.100; -581.000; -659.000
374.274; -196.200; -987.000; -908.000
374.405;  312.300; -388.000; -276.000
374.536;  665.400; -526.000; -387.000
374.666; 1623.600; -759.000; -807.000
374.797;  316.300; -817.000; -868.000
374.928; 1315.600; -710.000; -560.000
375.058; 1311.400; -535.000; -500.000
375.189;  143.600;  -59.000;  -93.000
375.320; -202.400; -928.000;-1034.000
375.450;  -63.200; -625.000; -616.000
375.581;  -69.900; -526.000; -436.000
375.712;  -30.800; -574.000; -250.000
375.842;  467.900; -438.000; -415.000
375.973;  350.600; -554.000; -513.000
376.103;  -93.700; -665.000; -648.000
376.234; -132.100; -531.000; -552.000
376.364;  -81.500; -944.000; -867.000
376.495;  631.000;  925.000;  529.000
376.625;  -12.800; -472.000; -485.000
376.756;  105.800; -709.000; -678.000
376.886; -184.600;-1178.000;-1026.000
377.017;  124.700;-1048.000;-1061.000
377.147;  760.400; -786.000; -782.000
377.278;  140.000;  174.000;  228.000
377.408; -196.500; -801.000; -815.000
377.538; -155.500; -707.000; -693.000
377.669;  -95.600; -537.000; -613.000
377.799; -129.300; -645.000; -635.000
377.929; -114.000; -610.000; -428.000
378.060; -227.400; -781.000; -847.000
378.190;  -39.600; -726.000; -531.000
378.320;  -35.300; -401.000; -406.000
378.451;   36.300; -131.000;  -22.000
378.581;   65.700;  -67.000; -110.000
378.711;  314.100; 1035.000;  866.000
378.841;  -32.400; -533.000; -675.000
378.972; -155.300; -871.000; -751.000
379.102;  -30.300; -652.000; -579.000
379.232;   -7.300; -126.000;  -73.000
379.362; -184.800;-1001.000; -885.000
379.492;    4.700; -373.000; -424.000
379.623;  206.600;    0.000;  111.000
379.753; -186.600;-1107.000; -974.000
379.883;  350.800;   59.000;  156.000
380.013;  -54.800;-1081.000;-1017.000
380.143; -206.700;-1097.000;-1056.000
380.273; -177.200; -985.000; -861.000
380.403;   50.800; -344.000; -257.000
380.533;  -55.600; -651.000; -664.000
380.663;  180.700;  173.000;  128.000
380.793; -175.100;-1027.000;-1074.000
380.923;   41.100; -103.000;  -34.000
381.053; -170.900; -613.000; -623.000
381.183;   -9.200; -106.000; -248.000
381.313;   92.700; -656.000; -470.000
381.443;   69.800; -692.000; -473.000
381.573;  322.400; -402.000; -409.000
381.703;  396.800;-1249.000;-1095.000
381.833; -254.800;-1454.000;-1336.000
381.963;  234.300; -134.000;  -87.000
382.093; 2194.900; -925.000; -909.000
382.223;  592.400; -713.000; -602.000
382.353;  -31.000; -801.000; -608.000
382.482;  528.200;-1091.000; -964.000
382.612; 1173.400; -872.000; -644.000
382.742;  644.000; -695.000; -622.000
382.872;  407.800; -565.000; -551.000
383.002;  169.000;  347.000; -132.000
383.131;    9.400; -226.000; -160.000
383.261;  -40.700; -706.000; -768.000
383.391;  562.500; -552.000; -377.000
383.521; 6975.600;  451.000;  263.000
383.650; 1560.500; -947.000; -904.000
383.780;   15.800; -783.000; -656.000
383.910;  283.400;  880.000;  802.000
384.039;   21.800; -794.000; -656.000
384.169;  280.000;-1205.000;-1017.000
384.299;  -31.400; -650.000; -662.000
384.428; -150.600; -764.000; -680.000
384.558;  -27.600; -308.000; -275.000
384.687;  -45.200; -414.000; -334.000
384.817;   64.400;   75.000;   -2.000
384.947;   90.100; -234.000; -141.000
385.076;  572.300;  982.000;  912.000
385.206;  243.300;  369.000;  480.000
385.335;  -40.000; -549.000; -417.000
385.465; -140.000; -655.000; -663.000
385.594;  226.500;  -53.000;  -44.000
385.724;  598.400; -868.000; -838.000
385.853;  164.900; -296.000; -270.000
385.982; 2088.600; -743.000; -787.000
386.112; 3104.800;-1052.000; -871.000
386.241;  191.500; -307.000; -312.000
386.371;   57.100; -174.000;  -87.000
386.500;   19.000; -825.000; -789.000
386.629;   91.000; -874.000; -817.000
386.759;  158.800;  -43.000;   68.000
386.888;   24.400; -170.000; -250.000
387.017;  -98.600; -648.000; -620.000
387.147; -138.100; -771.000; -798.000
387.276;  -21.400; -410.000; -397.000
387.405;   86.100; -398.000; -342.000
387.535;  -49.000; -452.000; -361.000
387.664;  -88.100; -692.000; -620.000
387.793;  111.900; -198.000; -113.000
387.922;  838.000;  255.000;  200.000
388.052;    0.900; -576.000; -423.000
388.181;   27.400; -342.000; -472.000
388.310;  -21.700; -889.000; -710.000
388.439;  -69.300; -749.000; -742.000
388.568;  318.600;  365.000;  244.000
388.697; 1534.000; -756.000; -653.000
388.826;  235.700; -768.000; -666.000
388.956;   92.300; -285.000; -307.000
389.085;  -20.000; -347.000; -287.000
389.214; -174.600; -842.000; -872.000
389.343;  -81.000; -645.000; -413.000
389.472;  966.400;  126.000;  149.000
389.601; 1043.300;   91.000;    0.000
389.730;   14.100; -568.000; -687.000
389.859;  155.600;  226.000;   46.000
389.988;  353.200; -423.000; -408.000
390.117;  244.600; -168.000; -146.000
390.246;   12.200; -331.000; -320.000
390.375;  125.700; -673.000; -626.000
390.504; -103.000; -703.000; -621.000
390.633; -166.200; -672.000; -726.000
390.761;  -89.500; -732.000; -645.000
390.890;   72.600;   -4.000; -130.000
391.019;  -34.600; -421.000; -441.000
391.148; -217.100; -826.000; -855.000
391.277;  -85.100; -576.000; -493.000
391.406; -166.800; -821.000; -805.000
391.534;  129.200;  574.000; -301.000
391.663; -121.800; -583.000; -645.000
391.792; -119.200; -673.000; -701.000
391.921;  168.000;   -3.000;   15.000
392.050;  290.600; -287.000; -228.000
392.178; -118.500;-1206.000;-1061.000
392.307;  224.700; -758.000; -712.000
392.436;   68.900; -427.000; -641.000
392.564;   47.000;  166.000;   -6.000
392.693; -159.000; -860.000; -682.000
392.822;  330.600; -529.000; -534.000
392.950;  104.300; -880.000; -714.000
393.079;  521.100; -188.000; -328.000
393.208;   38.100; -488.000; -511.000
393.336;   28.500; -170.000; -145.000
393.465;  -16.600; -317.000; -199.000
393.593;   65.500;   62.000;   79.000
393.722; -267.200;-1121.000; -916.000
393.850;    8.300; -188.000;  -61.000
393.979; -265.800; -926.000; -805.000
394.107;  -83.400; -517.000; -537.000
394.236;  -33.600; -570.000; -507.000
394.364;  481.800;  383.000;  206.000
394.493;  774.300; -911.000; -767.000
394.621;   -5.300; -955.000; -916.000
394.750; 1636.400; -873.000; -923.000
394.878; 6612.300; -247.000; -149.000
395.007; 8386.500; -721.000; -807.000
395.135;  657.000; -790.000; -721.000
395.263; -128.500;-1038.000;-1040.000
395.392;   64.800;  -25.000; -107.000
395.520; -228.100; -818.000; -679.000
395.648; -166.400; -865.000; -915.000
395.777;  -40.300; -366.000; -405.000
395.905;  -73.200; -449.000; -564.000
396.033;   99.300;  217.000;  172.000
396.162; 1266.700; -399.000; -453.000
396.290; 1070.300;  -17.000;   -2.000
396.418;  152.700; -555.000; -514.000
396.546; -149.100; -571.000; -466.000
396.674; -195.800; -850.000; -878.000
396.803;   70.300;  -72.000;  -23.000
396.931;  161.700; -179.000; -199.000
397.059;   23.900;-1026.000; -989.000
397.187; -199.700;-1026.000; -975.000
397.315; -256.100; -884.000; -649.000
397.443; -152.000; -592.000; -443.000
397.572; -136.000; -578.000; -424.000
397.700;  -32.900; -607.000; -614.000
397.828;   99.800;  120.000;  -90.000
397.956;  -47.700; -508.000; -478.000
398.084;  -59.400; -767.000; -626.000
398.212;  101.200;  137.000;  124.000
398.340;   37.100;  -56.000;  159.000
398.468;   66.800; -390.000; -169.000
398.596; -218.100; -993.000; -953.000
398.724; -215.400; -762.000; -767.000
398.852; -274.900;-1024.000; -976.000
398.980;  -99.500; -560.000; -560.000
399.108;  -81.300; -982.000; -735.000
399.236;   67.700;   13.000;    8.000
399.363;   96.600;  222.000;  196.000
399.491; -104.800; -404.000; -398.000
399.619; -214.000; -829.000; -800.000
399.747; -163.900; -859.000; -771.000
399.875;  208.100;  220.000;  234.000
400.003;  -72.300; -359.000; -284.000
400.130; -123.800; -421.000; -341.000
400.258;    6.600;  -83.000;   38.000
400.386; -104.300; -352.000; -168.000
400.514;  -75.500; -526.000; -587.000
400.641; -173.600; -928.000; -802.000
400.769; -240.400; -979.000; -888.000
400.897; -169.100; -838.000; -793.000
401.025;   18.100; -166.000; -152.000
401.152;   41.800;  220.000;   38.000
401.280; -142.100; -430.000; -429.000
401.408; -187.300; -712.000; -576.000
401.535; -172.200; -735.000; -758.000
401.663; -349.100;-1134.000;-1054.000
401.790; -111.100; -514.000; -525.000
401.918;  141.900;  436.000;  405.000
402.046;   22.100;  134.000;  122.000
402.173;  -12.100;  -18.000;    7.000
402.301; -114.200; -519.000; -397.000
402.428;  155.900;  528.000;  383.000
402.556; -236.000;-1188.000; -913.000
402.683;  -10.300;  -20.000;   -1.000
402.811;   24.200;  -37.000; -206.000
402.938;   28.100;   20.000;   27.000
403.066;  303.600; -574.000; -558.000
403.193;  555.800;  299.000;  239.000
403.321;  429.200; -396.000; -574.000
403.448;  509.000;   83.000;   27.000
403.575;  248.600;  -90.000;  -46.000
403.703; -154.000; -732.000; -557.000
403.830;  -61.200; -531.000; -496.000
403.957; -231.600;-1117.000;-1023.000
404.085;   66.300;  -61.000; -172.000
404.212;  272.000;  -50.000;   63.000
404.339;  653.100; -566.000; -306.000
404.467;12966.800; -612.000; -524.000
404.594; 7488.500; -287.000; -227.000
404.721; 1608.500; -869.000; -764.000
404.848;  218.700; -113.000; -202.000
404.976; -189.400; -856.000; -783.000
405.103;   60.200;  -14.000;  -82.000
405.230;   61.600;  190.000;  226.000
405.357;  133.000;  117.000;   44.000
405.484;  657.500;  -49.000;    5.000
405.612;  148.000; -548.000; -563.000
405.739;  -76.300; -488.000; -243.000
405.866;  217.200;  669.000;  385.000
405.993;  -55.200; -398.000; -102.000
406.120; -248.600; -801.000; -887.000
406.247;  -44.600; -323.000; -342.000
406.374;  757.700;  540.000;  629.000
406.501;   95.400; -632.000; -702.000
406.628; -102.300; -621.000; -589.000
406.755; -141.000; -803.000; -620.000
406.882;  -33.400; -228.000; -277.000
407.009; -152.200; -719.000; -628.000
407.136;  113.400; -480.000; -401.000
407.263;  193.300; -939.000; -829.000
407.390; -121.000; -692.000; -614.000
407.517; -299.200;-1139.000;-1187.000
407.644;  -42.000; -332.000; -256.000
407.771;  -89.300; -249.000; -287.000
407.898;   91.800;  168.000;  328.000
408.025;  -70.700; -421.000; -313.000
408.151;   58.500;   82.000;  153.000
408.278;  -61.900; -267.000; -216.000
408.405; -182.900; -931.000; -899.000
408.532;  -83.500; -549.000; -542.000
408.659; -185.600; -677.000; -648.000
408.785; -355.400;-1298.000;-1170.000
408.912;  -63.400; -412.000; -296.000
409.039; -166.800; -610.000; -686.000
409.166; -146.400; -591.000; -555.000
409.292; -145.400; -571.000; -534.000
409.419; -171.400; -665.000; -649.000
409.546; -119.300; -431.000; -192.000
409.672; -157.500; -713.000; -545.000
409.799;    2.100;  -36.000;   34.000
409.926;  -18.100; -180.000; -179.000
410.052; -292.300;-1127.000;-1091.000
410.179;  -37.900; -368.000; -392.000
410.305; -108.000; -375.000; -493.000
410.432;  -37.600; -220.000; -333.000
410.558; -161.700; -305.000; -380.000
410.685; -164.700; -688.000; -431.000
410.812; -162.300; -409.000; -588.000
410.938; -242.700; -964.000; -808.000
411.065; -150.900; -671.000; -645.000
411.191;    8.500; -189.000; -174.000
411.317; -198.400; -823.000; -742.000
411.444;  -49.400; -317.000; -246.000
411.570;  -88.300; -339.000; -294.000
411.697; -204.000; -758.000; -752.000
411.823; -303.200; -989.000; -999.000
411.949;  -25.100;  -56.000;   17.000
412.076; -184.800; -539.000; -519.000
412.202; -193.500; -758.000; -757.000
412.329; -206.300; -798.000; -752.000
412.455; -185.400; -821.000; -657.000
412.581;   10.500;  -15.000;  172.000
412.707;  -95.100; -540.000; -457.000
412.834;   53.600;  156.000;  219.000
412.960; -139.100; -785.000; -784.000
413.086; -167.900; -743.000; -701.000
413.212;  369.400;  604.000;  578.000
413.339; -116.000; -685.000; -701.000
413.465;   12.800; -364.000; -310.000
413.591; -159.500; -757.000; -474.000
413.717;  -63.500; -358.000; -366.000
413.843; -252.200; -839.000; -861.000
413.969;  -71.300;  -47.000; -292.000
414.096; -125.500; -679.000; -679.000
414.222;   25.600;  -33.000;   85.000
414.348;  -41.600; -652.000; -385.000
414.474;  184.300;   38.000;  -52.000
414.600;   -5.800; -126.000; -144.000
414.726;   21.300;  -96.000;  -55.000
414.852;  -53.800; -365.000; -342.000
414.978;  178.200;  104.000;  -18.000
415.104;  152.400;   38.000;   80.000
415.230;   88.700; -329.000; -330.000
415.356;  143.200; -409.000; -514.000
415.482;  440.300;   13.000;  -35.000
415.608;  704.200; -247.000; -323.000
415.734; 2205.900;   67.000;   38.000
415.860;44237.800; -875.000; -767.000
415.986;28931.900; -685.000; -607.000
416.111; 2416.900; -798.000; -652.000
416.237;  585.400; -424.000; -571.000
416.363; 2759.100; -765.000; -733.000
416.489; 8897.400; -324.000; -251.000
416.615;  919.400; -707.000; -742.000
416.741;  -28.900; -677.000; -784.000
416.866; -131.200; -673.000; -736.000
416.992; -134.500; -801.000; -818.000
417.118;   11.300;  -41.000;  -80.000
417.244; -100.100; -798.000; -531.000
417.369; -120.800; -801.000; -612.000
417.495;   27.800; -325.000; -254.000
417.621; -110.500;-1015.000; -803.000
417.746;   26.700; -579.000; -572.000
417.872;  153.500; -254.000; -144.000
417.998;  185.600; -515.000; -530.000
418.123; 2618.600;-1073.000; -845.000
418.249;11641.600; -512.000; -601.000
418.374; 1517.700; -916.000; -824.000
418.500;  295.200; -383.000; -482.000
418.626;  287.500;   70.000;  -59.000
418.751;  284.600; -549.000; -448.000
418.877;  487.400; -637.000; -643.000
419.002; 4459.300; -688.000; -560.000
419.128;27379.400; -930.000; -721.000
419.253; 6001.800; -967.000; -837.000
419.379;  937.800; -391.000; -338.000
419.504;  880.900;  325.000;  415.000
419.629; 1137.800; -393.000; -212.000
419.755; 8700.000; -317.000; -254.000
419.880;45833.400;  -98.000;   67.000
420.006;25398.200; -280.000; -221.000
420.131;59811.500; -662.000; -775.000
420.256; 7713.200; -315.000; -316.000
420.382; 1144.200; -665.000; -687.000
420.507;  203.000; -649.000; -778.000
420.632;  238.700; -337.000; -339.000
420.758;  363.800; -251.000; -425.000
420.883; -118.500; -876.000; -672.000
421.008; -170.600; -775.000; -619.000
421.133;  -83.500; -509.000; -467.000
421.259;  -26.300; -325.000; -259.000
421.384; -184.700; -834.000; -693.000
421.509;  -79.400;-1052.000; -862.000
421.634; 1579.800; -936.000; -820.000
421.759;  654.300; -359.000; -327.000
421.885; -106.400; -717.000; -656.000
422.010; -109.900; -673.000; -542.000
422.135; -206.900; -695.000; -727.000
422.260;  118.600;  340.000;  280.000
422.385;  -15.400;   12.000;  -98.000
422.510;   72.900;  151.000;  -26.000
422.635;   81.700;  -87.000;  -43.000
422.760;  199.700; -766.000; -791.000
422.885;  112.500;  -57.000;  -80.000
423.010;   -6.900; -112.000; -169.000
423.135; -148.200; -481.000; -561.000
423.260;   29.200; -150.000; -245.000
423.385;  169.300;  476.000;  222.000
423.510;  111.100;   71.000;  -22.000
423.635;  152.700;  133.000;   45.000
423.760;  150.200;  383.000;  328.000
423.885;  189.100;  336.000;  391.000
424.010;   82.500;  -68.000;  -13.000
424.135;   22.500;    5.000;  -33.000
424.259; -111.800; -654.000; -457.000
424.384;  -66.500; -279.000; -272.000
424.509;   -5.300; -260.000; -186.000
424.634; -157.000; -761.000; -623.000
424.759;   23.800; -688.000; -544.000
424.883;   29.200; -506.000; -527.000
425.008;  446.900; -502.000; -410.000
425.133; 4447.100; -679.000; -653.000
425.258; 1848.500; -517.000; -381.000
425.382; 1759.900; -867.000; -774.000
425.507; 3927.800; -487.000; -543.000
425.632;  715.800; -802.000; -663.000
425.756; 1009.700; -256.000; -146.000
425.881;16090.500; -831.000; -857.000
426.006;38298.600; -604.000; -355.000
426.130; 5329.600; -696.000; -508.000
426.255;  768.800; -611.000; -491.000
426.379;  408.100; -189.000; -577.000
426.504;  919.400;  660.000;  544.000
426.629; 9141.800; -519.000; -466.000
426.753; 5498.900;   64.000;  -46.000
426.878;  703.700; -252.000; -288.000
427.002;  434.600; -651.000; -668.000
427.127; 3775.600;  -35.000; -158.000
427.251;24975.900;  372.000;  401.000
427.375; 6250.200; -191.000; -173.000
427.500; 3696.000; -616.000; -610.000
427.624; 1060.700; -234.000; -400.000
427.749;  193.000; -216.000; -225.000
427.873;  -19.300; -499.000; -412.000
427.997;  -30.400; -222.000; -230.000
428.122;  221.200;  795.000;  703.000
428.246;  206.800;  433.000;  434.000
428.371; -204.500; -869.000; -773.000
428.495; -144.100; -624.000; -646.000
428.619;   -9.700; -186.000; -117.000
428.743;  102.500;   65.000;  132.000
428.868;   56.700; -732.000; -643.000
428.992; 2166.600; -219.000; -326.000
429.116;  778.300; -329.000; -357.000
429.240;  502.700;  419.000;  426.000
429.365;  -13.800; -454.000; -574.000
429.489;  -35.700; -638.000; -647.000
429.613;  118.900; -236.000; -177.000
429.737;  177.300; -563.000; -432.000
429.861;  658.500; -247.000; -133.000
429.985;12931.700; -425.000; -305.000
430.109;12628.200; -770.000; -908.000
430.234; 1384.900;   76.000;  -50.000
430.358;  207.800; -250.000; -160.000
430.482;  -51.100; -672.000; -564.000
430.606;  -58.300; -655.000; -375.000
430.730;   81.400; -437.000; -388.000
430.854;  168.800; -909.000; -835.000
430.978; -125.400; -795.000; -764.000
431.102; -102.900; -499.000; -422.000
431.226; -191.200; -874.000; -815.000
431.350;  141.300;  345.000;  422.000
431.474;  -68.900; -661.000; -373.000
431.597; -253.600;-1060.000; -848.000
431.721;  -93.200; -276.000; -267.000
431.845; -180.600; -704.000; -472.000
431.969;  -87.900; -304.000; -349.000
432.093; -113.400; -395.000; -317.000
432.217;   53.700;   32.000;   82.000
432.341; -101.200; -523.000; -518.000
432.464;   56.200;   96.000;   40.000
432.588;  325.400; -401.000; -329.000
432.712;  206.100;  -52.000;  -52.000
432.836;  173.100;  213.000;  263.000
432.959;   47.900; -372.000; -311.000
433.083;  286.900;   11.000;    2.000
433.207;  981.600;  285.000;  930.000
433.330;11824.600; -391.000; -200.000
433.454;13198.700; -654.000; -638.000
433.578; 7774.100;  583.000;  278.000
433.701; 1297.800; -623.000; -675.000
433.825;  250.300; -292.000; -299.000
433.949;  279.700;   28.000;  -72.000
434.072;  111.300; -410.000; -323.000
434.196;   34.500; -309.000; -117.000
434.319; 7954.800;25482.000;25124.000
434.443; 1697.000; -656.000; -603.000
434.566; 5811.100;  281.000;   62.000
434.690;  858.400; -637.000; -383.000
434.813;  174.600; -251.000; -173.000
434.937; -119.200; -569.000; -696.000
435.060;  -51.500; -423.000; -332.000
435.184;  437.100; -492.000; -217.000
435.307;  230.700;  159.000;  102.000
435.431;   26.000;  -40.000;   24.000
435.554; -106.700; -399.000; -240.000
435.677; -109.400; -350.000; -258.000
435.801;   -6.400;  -25.000;   49.000
435.924;    6.800;    1.000;  -67.000
436.048; -254.300;-1019.000; -732.000
436.171;  -70.900; -240.000;  -66.000
436.294;   13.700; -248.000; -229.000
436.417;  290.900; -963.000; -849.000
436.541; -108.200; -814.000; -840.000
436.664;  -46.900; -242.000; -316.000
436.787;    6.900;   13.000;  113.000
436.910; -147.700; -792.000; -422.000
437.034;   91.300;  142.000;  143.000
437.157;  126.600;  -11.000;    0.000
437.280;  -77.000; -392.000; -292.000
437.403; -160.500; -982.000; -869.000
437.526;  837.800; -903.000; -865.000
437.649; 2986.200; -505.000; -332.000
437.772;  337.500; -692.000; -540.000
437.896;  250.200;  700.000;  544.000
438.019; -157.300; -758.000; -503.000
438.142; -119.000; -596.000; -506.000
438.265;  -23.000; -639.000; -670.000
438.388;  819.000; -520.000; -410.000
438.511;  126.200; -597.000; -394.000
438.634;  -73.000; -247.000; -125.000
438.757; -236.300; -693.000; -619.000
438.880;   34.800;  -34.000;  -57.000
439.003; -113.100; -417.000; -437.000
439.126;  -66.900; -287.000; -167.000
439.248;  -69.500;  -98.000; -139.000
439.371;   -6.300;    9.000;  -53.000
439.494;  140.400;  510.000;  439.000
439.617;  -50.000;   65.000;  -88.000
439.740; -313.000; -968.000; -816.000
439.863; -222.200; -755.000; -595.000
439.986; -170.300; -476.000; -431.000
440.108;    6.500; -161.000; -112.000
440.231; -256.800; -950.000; -836.000
440.354;  -32.700;  -64.000; -150.000
440.477;   44.600; -566.000; -542.000
440.599;    4.700; -200.000; -225.000
440.722; -180.100; -709.000; -586.000
440.845;  193.600;  751.000;  928.000
440.968; -165.800; -415.000; -311.000
441.090;  -44.600; -199.000;  -33.000
441.213; -284.800;-1021.000; -825.000
441.336;  -34.700; -159.000;   -5.000
441.458;  -86.300; -549.000; -396.000
441.581; -133.500; -628.000; -629.000
441.703; -101.300; -152.000;   13.000
441.826; -155.700; -557.000; -400.000
441.948;  -61.100;   56.000;   51.000
442.071;  117.500;  555.000;  424.000
442.193; -176.700; -531.000; -485.000
442.316;  119.600;  152.000;   97.000
442.438;  118.100; -233.000;  -10.000
442.561;  206.100;  272.000;  262.000
442.683;  768.500; -809.000; -522.000
442.806; 1619.200;   -8.000;   74.000
442.928;  -71.200; -859.000; -604.000
443.051; -131.700; -577.000; -373.000
443.173; -123.500; -341.000; -339.000
443.295; -102.600; -263.000; -371.000
443.418; -100.200; -321.000;  -29.000
443.540;   27.900; -106.000;   -4.000
443.662; -200.900; -563.000; -465.000
443.785;   22.600;  335.000;  199.000
443.907; -161.400; -362.000; -208.000
444.029; -209.200; -767.000; -494.000
444.152; -229.700; -644.000; -554.000
444.274;    5.000;  -18.000;  -24.000
444.396; -153.800; -461.000; -221.000
444.518; -214.900; -691.000; -454.000
444.640; -156.200; -268.000; -111.000
444.763;   20.700;  388.000;  249.000
444.885; -184.400; -432.000; -392.000
445.007;  -14.000;   35.000;   86.000
445.129; -204.800; -610.000; -515.000
445.251; -142.100; -372.000; -439.000
445.373; -211.100; -537.000; -386.000
445.495;  119.200;  242.000;  350.000
445.617;  123.300;  853.000;  753.000
445.739;  -74.500; -215.000;  -97.000
445.861;  -21.100; -245.000; -112.000
445.984;  -41.500; -267.000; -101.000
446.105;  327.900; -418.000; -251.000
446.227;  874.300; -176.000;  -19.000
446.349;  -44.500; -358.000; -249.000
446.471; -152.300; -615.000; -448.000
446.593;  -81.100; -316.000;   19.000
446.715;   43.200;  -67.000;   41.000
446.837;  208.500;  697.000;  832.000
446.959; -132.300; -457.000; -478.000
447.081; -206.200; -628.000; -518.000
447.203;  168.500;  862.000;  834.000
447.325; -105.000; -270.000;   42.000
447.446;   70.200;  286.000;  530.000
447.568; -296.700; -921.000; -803.000
447.690; -109.900; -236.000; -245.000
447.812; -245.900; -798.000; -519.000
447.933;   34.000;  155.000;  127.000
448.055;  -99.700; -306.000; -261.000
448.177;  288.100;   31.000;   79.000
448.299;   56.800; -935.000; -727.000
448.420;   53.700;  -25.000;  159.000
448.542;  -22.700;   -3.000;   33.000
448.664;   12.900;  109.000;  322.000
448.785;   -3.200;  265.000;   83.000
448.907; -105.900; -614.000; -353.000
449.028;  -81.600; -771.000; -471.000
449.150;  170.700;  492.000;  589.000
449.272; -322.400;-1044.000; -913.000
449.393;  146.000;  612.000;  694.000
449.515; -222.200; -634.000; -581.000
449.636;  -72.100; -264.000; -155.000
449.758;  216.800;  763.000;  622.000
449.879; -126.500; -498.000; -396.000
450.001;  -82.500; -149.000;  -49.000
450.122;   -1.100;  -95.000;  162.000
450.244;   30.000;   37.000;  364.000
450.365;  -98.800; -495.000; -301.000
450.486;   29.700;   80.000;  268.000
450.608;  116.200;  393.000;  326.000
450.729;  236.000;  578.000;  645.000
450.850;  119.300; -574.000; -466.000
450.972; 1918.400; -552.000; -389.000
451.093;11407.700;  190.000;  588.000
451.214; 4242.000; -516.000; -337.000
451.336;  851.000;  773.000;  579.000
451.457;  188.700;  264.000;  393.000
451.578;   -6.500; -118.000;  -74.000
451.699; -156.100; -546.000; -540.000
451.821;  -45.400; -284.000;  -50.000
451.942;   71.700;  278.000;  285.000
452.063;  204.900;  228.000;  419.000
452.184; 1398.700;  -54.000;  -49.000
452.305; 2334.000;  103.000;  170.000
452.427;  271.600; -549.000; -301.000
452.548;   59.800;   23.000;   79.000
452.669;  -34.400; -257.000;  -89.000
452.790;  -35.800;    3.000;  -18.000
452.911;   56.300;  195.000;  259.000
453.032;  -65.600; -289.000;  -60.000
453.153;  -33.000;  -29.000;   81.000
453.274;  202.500;  737.000;  868.000
453.395;  -40.800;  -51.000;  175.000
453.516;  338.100; 1317.000; 1388.000
453.637;  -75.200; -205.000; -150.000
453.758;  -42.600;   15.000;   69.000
453.879; -158.900; -462.000; -250.000
454.000;  255.300; 1086.000;  948.000
454.121; -152.800; -554.000; -326.000
454.242; -169.800; -599.000; -383.000
454.362;  -26.900;  -99.000;  114.000
454.483;   -9.400; -309.000; -229.000
454.604;  158.400;  512.000;  580.000
454.725; -180.100; -627.000; -555.000
454.846; -214.500; -474.000; -406.000
454.967;   45.800;  230.000;  539.000
455.087;  -25.300;  179.000;  153.000
455.208;  112.800;  554.000;  856.000
455.329;  -29.800;  -22.000;   82.000
455.450;  179.500;  473.000;  633.000
455.570;  -86.500; -234.000; -211.000
455.691;    2.700;  201.000;  407.000
455.812; -152.400; -270.000;  -92.000
455.932;  -44.900;  107.000;  -97.000
456.053;  -89.600;   36.000;   24.000
456.173; -150.400; -433.000; -355.000
456.294; -226.900; -476.000; -303.000
456.415;  -59.900;  -73.000;   70.000
456.535;   -7.200;  297.000;  273.000
456.656;   -8.000;  132.000;  240.000
456.776;  -71.200;    3.000;  298.000
456.897;   67.400;  308.000;  513.000
457.017; -120.200; -153.000;   -3.000
457.138; -149.900; -402.000; -249.000
457.258;   -0.800;  263.000;  224.000
457.379;   36.100;  509.000;  521.000
457.499;   20.100;  443.000;  432.000
457.620; -186.700; -407.000; -231.000
457.740; -151.000; -132.000;  -11.000
457.860;  -29.800;   87.000;   44.000
457.981;  -41.200;  132.000;  124.000
458.101;  -92.300;  -89.000;   40.000
458.221;   27.100;  336.000;  402.000
458.342;  -23.200;   -4.000;  -37.000
458.462;  134.300;  617.000;  352.000
458.582;   13.100; -302.000; -294.000
458.703;  128.900;  303.000;  154.000
458.823;   -0.700;   22.000;  163.000
458.943;  106.600;  341.000;  467.000
459.063;   59.200; 1124.000;  192.000
459.183;   -4.000;  328.000;  313.000
459.304;   65.200;  315.000;  517.000
459.424;  -67.100; -246.000;  -89.000
459.544;  869.100;  388.000;  764.000
459.664; 1890.400;  499.000;  506.000
459.784;  689.000; 1004.000; 1175.000
459.904;  192.600;  867.000;  744.000
460.024;  207.200;  867.000;  684.000
460.144;   97.400;  449.000;  554.000
460.264;   38.800;  515.000;  327.000
460.385; -125.900; -145.000; -119.000
460.505;  179.600;  905.000;  858.000
460.625; -124.500;  -17.000;  -68.000
460.745;   19.200;  396.000;  541.000
460.864;  -49.900;  153.000;  469.000
460.984;  100.100;  499.000;  573.000
461.104;  379.200; 1656.000; 1775.000
461.224;   94.900;  657.000;  650.000
461.344;   13.100;  431.000;  360.000
461.464;    7.700;  258.000;  513.000
461.584;   54.900;  283.000;  466.000
461.704;  -49.600;   58.000;  108.000
461.824;  -36.700;  238.000;  259.000
461.943;    2.100;  191.000;  130.000
462.063;  -97.900;    2.000;  324.000
462.183;  138.800;  639.000;  717.000
462.303;  300.600; 1678.000; 1230.000
462.422;  128.600;  781.000;  840.000
462.542;   18.700;  271.000;  391.000
462.662;  133.700;  353.000;  380.000
462.782;  644.600;  833.000;  572.000
462.901; 1078.100;  545.000;  717.000
463.021;  635.100; 1702.000; 1638.000
463.141;   56.100;  337.000;  770.000
463.260;   32.100;  614.000;  474.000
463.380;  111.000;  902.000;  884.000
463.499;   -4.700;  342.000;  332.000
463.619;   -1.700;  581.000;  559.000
463.738;  293.400; 1644.000;  903.000
463.858;   98.100;  657.000;  811.000
463.978;  -10.200;  542.000;  396.000
464.097;  166.200;  921.000; 1114.000
464.217;  316.800; 1196.000; 1143.000
464.336;  311.400; 1068.000; 1130.000
464.455;   -7.800;  328.000;  659.000
464.575;  119.700;  597.000;  602.000
464.694;  434.700; 1204.000; 1179.000
464.814;  338.800; 1190.000; 1138.000
464.933;  228.900; 1095.000; 1027.000
465.052;  293.200; 1412.000; 1054.000
465.172;  236.100;  922.000;  799.000
465.291;  330.600; 1376.000; 1320.000
465.410;   75.200;  462.000;  735.000
465.530;  265.100; 1355.000; 1310.000
465.649;  201.600; 1209.000; 1273.000
465.768;  353.000; 1673.000; 1508.000
465.888;  168.400;  941.000; 1174.000
466.007;  278.200; 1335.000; 1440.000
466.126;   54.800;  721.000;  641.000
466.245;  131.500; 1176.000; 1187.000
466.364;  122.600;  950.000; 1060.000
466.484;  179.900; 1024.000; 1213.000
466.603;  141.900; 1101.000; 1222.000
466.722;  321.700; 1490.000; 1769.000
466.841;  248.300; 1151.000; 1401.000
466.960;  150.700; 1069.000;  972.000
467.079;  384.200; 1971.000; 1786.000
467.198;  177.200; 1238.000; 1181.000
467.317;  273.300; 1768.000; 1162.000
467.436;  207.300; 1709.000; 1261.000
467.555;  348.400; 1796.000; 1746.000
467.674;  225.000; 1227.000; 1329.000
467.793;  153.700; 1376.000; 1374.000
467.912;  225.600; 1658.000; 1539.000
468.031;  329.800; 2038.000; 1930.000
468.150;  347.300; 1842.000; 1837.000
468.269;  458.800; 2313.000; 2090.000
468.388;  462.700; 2168.000; 2339.000
468.507;  616.500; 2884.000; 2903.000
468.626;  673.700; 2555.000; 2541.000
468.744;  337.400; 2018.000; 2174.000
468.863;  500.400; 2312.000; 2523.000
468.982;  264.400; 1503.000; 1555.000
469.101;  562.800; 2788.000; 2692.000
469.220;  381.200; 2333.000; 2176.000
469.338;  581.400; 2935.000; 3051.000
469.457;  445.600; 2719.000; 2545.000
469.576;  786.700; 3953.000; 3784.000
469.695;  551.100; 2877.000; 3066.000
469.813;  952.800; 4148.000; 4192.000
469.932;  916.000; 4255.000; 4485.000
470.051;  942.800; 4075.000; 4161.000
470.169; 1940.600; 4470.000; 4338.000
470.288; 3194.000; 4700.000; 4809.000
470.406; 1791.600; 5059.000; 5194.000
470.525; 1367.700; 6101.000; 5787.000
470.644; 1351.600; 6847.000; 6794.000
470.762; 1816.100; 8397.000; 7873.000
470.881; 1925.600; 8651.000; 8464.000
470.999; 2188.800; 9685.000; 9151.000
471.118; 2336.000;11174.000;10711.000

