
Integration time [ms]: 100.000
Averaging Nr. [scans]: 40
Smoothing Nr. [pixels]: 0
Data measured with spectrometer [name]: 2101012U2
Wave   ;Sample   ;Dark     ;Reference
[nm]   ;[counts] ;[counts] ;[counts] 

197.733;   65.900;  516.000;  404.000
197.879;  -80.525; -610.000; -634.000
198.025;  -56.725; -475.000; -420.000
198.171;  -69.600; -602.000; -612.000
198.317;  -14.475; -401.000; -316.000
198.463;  -65.825; -655.000; -404.000
198.609;   46.950;  181.000; -137.000
198.755;  -86.875; -644.000; -410.000
198.901;  -73.300; -505.000; -424.000
199.047;  -73.675; -615.000; -488.000
199.193;  -27.175; -230.000; -468.000
199.339;  -51.250; -222.000; -369.000
199.485;   53.725;  330.000;  271.000
199.631;   27.525;  227.000;  310.000
199.777;  -46.325; -466.000; -398.000
199.923;  -62.800; -610.000; -424.000
200.069;   -5.800; -141.000;  -58.000
200.215;   60.475;  128.000;  453.000
200.361;   47.675;  243.000;  477.000
200.507;  -59.950; -600.000; -373.000
200.653;  -18.900; -371.000; -194.000
200.798;  -39.375; -215.000; -125.000
200.944;   -3.825; -146.000;  -41.000
201.090;   36.150;   61.000;  222.000
201.236;   -4.725; -116.000; -158.000
201.382;  128.375;  874.000;  903.000
201.528;   10.550;  -58.000;  -48.000
201.674;  -51.825; -386.000; -293.000
201.819;  -57.050; -540.000; -439.000
201.965;  -80.775; -699.000; -447.000
202.111;  -21.625; -273.000; -226.000
202.257;  -39.050; -250.000; -238.000
202.402;    9.150;   13.000;  -36.000
202.548;  -29.125; -169.000; -116.000
202.694;   88.450;  410.000; -183.000
202.840;  -83.425; -603.000; -531.000
202.985;  -70.225; -681.000; -639.000
203.131; -115.000; -832.000; -666.000
203.277;  -26.225; -199.000; -262.000
203.423;  -58.075; -434.000; -520.000
203.568;  -34.325; -462.000; -237.000
203.714;  -57.375; -535.000; -542.000
203.860;  -85.725; -682.000; -641.000
204.005;   14.025;  112.000;  167.000
204.151;   77.625;  561.000;  556.000
204.296;  -40.275; -354.000; -221.000
204.442;  -67.750; -600.000; -547.000
204.588;  -84.775; -592.000; -579.000
204.733;   36.900;  178.000;  168.000
204.879; -135.175;-1018.000; -822.000
205.025;    5.125;  -99.000;  126.000
205.170;    0.800;  -17.000;   94.000
205.316;   85.800;  438.000;  661.000
205.461;  -86.925; -698.000; -554.000
205.607;   84.475;  609.000;  665.000
205.752;  -63.625; -626.000; -551.000
205.898;  -50.300; -501.000; -391.000
206.043;  -60.400; -578.000; -506.000
206.189;  -33.700; -243.000; -285.000
206.334;   79.925;  554.000;  606.000
206.480;   96.850;  409.000;  239.000
206.625;  -76.775; -529.000; -552.000
206.771;  -51.075; -451.000; -373.000
206.916;  -42.125; -210.000; -537.000
207.062;  -72.550; -545.000; -591.000
207.207;  -59.325; -546.000; -443.000
207.353;   57.800;  185.000;  460.000
207.498;   15.125;  196.000;   85.000
207.643;  -54.425; -501.000; -370.000
207.789; -123.725;-1069.000; -910.000
207.934;  -80.225; -665.000; -713.000
208.080;  -27.050; -154.000;   66.000
208.225;    6.250;  -22.000;  -57.000
208.370;  -84.125; -727.000; -619.000
208.516;  -72.225; -741.000; -487.000
208.661;  -28.925; -127.000;  -69.000
208.806;  -32.125; -165.000; -171.000
208.952; -127.350;-1044.000; -731.000
209.097;   78.025;  378.000;  349.000
209.242;  -46.500; -307.000; -382.000
209.387;   68.175;  392.000;  350.000
209.533;  -48.100; -321.000; -350.000
209.678;   80.600;  472.000;  543.000
209.823;  -55.050; -408.000; -310.000
209.969; -104.200; -860.000; -757.000
210.114; -111.900; -907.000; -719.000
210.259; -107.925; -939.000; -889.000
210.404;  -14.225; -171.000;  103.000
210.549;   25.975;  108.000;    3.000
210.695;  -15.400;   -3.000;  -95.000
210.840;   37.100;   94.000;   67.000
210.985;  -62.200; -484.000; -303.000
211.130;   68.200;  268.000;  406.000
211.275;   21.600;  207.000;  199.000
211.420;  -52.825; -300.000; -289.000
211.566;  -69.425; -536.000; -489.000
211.711;   29.625;  218.000;  157.000
211.856;  -65.000; -545.000; -519.000
212.001;   20.900;  151.000;   44.000
212.146;   35.850;  153.000;   49.000
212.291;  -28.750; -210.000; -186.000
212.436;   -8.150; -280.000;   -6.000
212.581;  -93.975; -685.000; -653.000
212.726;  -83.000; -487.000; -538.000
212.871;  -46.900; -552.000; -217.000
213.016; -152.000;-1172.000;-1029.000
213.161;   62.150;  406.000;  291.000
213.306;  -68.425; -435.000; -577.000
213.451;  -92.225; -778.000; -689.000
213.596;  -54.300; -455.000; -347.000
213.741;  -50.975; -448.000; -538.000
213.886;  -75.600; -498.000; -517.000
214.031;  -19.175; -294.000; -124.000
214.176;  -44.800; -408.000; -341.000
214.321;  -13.550; -296.000; -157.000
214.466;  -17.425; -163.000;  -43.000
214.611;    7.825;  -61.000;  -10.000
214.756; -122.150; -948.000; -858.000
214.901;  -17.275; -388.000; -226.000
215.046; -122.650; -797.000; -825.000
215.191;   24.275;  128.000;   35.000
215.336;   -8.800; -157.000;  -19.000
215.480;  -66.350; -684.000; -505.000
215.625;  -17.125; -175.000;  -19.000
215.770;  -83.775; -757.000; -662.000
215.915;   -4.975;   -5.000;  -97.000
216.060;  -10.000; -113.000;  -21.000
216.205; -118.000; -731.000; -779.000
216.349;  -73.700; -470.000; -533.000
216.494; -136.600; -939.000; -867.000
216.639; -107.775; -823.000; -888.000
216.784;  -90.675; -577.000; -525.000
216.929;   57.650;  392.000;  281.000
217.073;  -16.550; -244.000;  -31.000
217.218;   10.025;   78.000;  -47.000
217.363;  -82.600; -656.000; -618.000
217.507;  -80.000; -623.000; -588.000
217.652; -126.475; -845.000; -874.000
217.797;  -79.125; -708.000; -659.000
217.942; -114.575; -856.000; -720.000
218.086;   78.500;  608.000;  539.000
218.231;  -13.000; -174.000;  -26.000
218.376;   -5.575; -337.000; -229.000
218.520;   -2.350;  -41.000;   96.000
218.665;  -30.700; -338.000; -204.000
218.810;  -30.025; -275.000; -233.000
218.954;   36.675;  201.000;   35.000
219.099; -118.900; -713.000; -963.000
219.243;  -65.775; -589.000; -554.000
219.388;  -25.800; -264.000; -136.000
219.532;    3.425; -116.000; -116.000
219.677;  -67.025; -564.000; -521.000
219.822;   17.925;   33.000;   89.000
219.966;   -5.000;   17.000;  -99.000
220.111;  -34.100; -328.000;  -40.000
220.255;  -99.000; -797.000; -750.000
220.400;  -16.600; -180.000; -146.000
220.544;  -70.075; -516.000; -450.000
220.689;  -41.700; -422.000; -451.000
220.833;  -16.225; -123.000;  -58.000
220.978;  -44.925; -393.000; -563.000
221.122;   10.850;  319.000;  307.000
221.267;  -99.425; -906.000; -837.000
221.411;  -67.500; -478.000; -394.000
221.555;   -8.350; -104.000;  -23.000
221.700;  -64.575; -329.000; -222.000
221.844;   43.100;  255.000;  272.000
221.989;  -36.125; -328.000; -311.000
222.133;  -24.825; -289.000; -307.000
222.277;   -9.725;    5.000;   78.000
222.422;   18.350;  227.000;  113.000
222.566;  -48.000; -381.000; -214.000
222.711;  -50.975; -414.000; -479.000
222.855;  -73.275; -643.000; -586.000
222.999;  -77.925; -642.000; -717.000
223.144;  -31.450; -195.000; -194.000
223.288;   54.225;  423.000;  251.000
223.432;   28.900;  184.000;  230.000
223.576;   17.550;  152.000;  -21.000
223.721;   46.300;  364.000;  273.000
223.865;  -41.750; -472.000; -475.000
224.009;  222.050; 1673.000; 1631.000
224.153;  -78.150; -660.000; -671.000
224.298;  -65.925; -531.000; -489.000
224.442;  -18.800;  -74.000;  -33.000
224.586;  -13.000; -169.000; -106.000
224.730;  -90.000; -858.000; -670.000
224.875; -100.475; -739.000; -688.000
225.019;   19.950;  102.000;  188.000
225.163;   43.750;  208.000;  341.000
225.307;   18.200;   97.000;  -91.000
225.451;   41.650;  360.000;  481.000
225.595;   33.525;  264.000;  176.000
225.739;  -13.400; -170.000;  -94.000
225.884;   18.350;   86.000;    5.000
226.028; -101.100; -760.000; -626.000
226.172;  -29.975; -260.000; -273.000
226.316; -128.500; -941.000; -902.000
226.460;  -73.300; -645.000; -493.000
226.604;  -63.300; -406.000; -400.000
226.748;  -82.400; -836.000; -733.000
226.892;  -39.800; -227.000; -181.000
227.036;  -56.400; -537.000; -447.000
227.180;  -58.275; -551.000; -375.000
227.324;  -78.850; -561.000; -580.000
227.468; -125.300; -819.000; -717.000
227.612;   27.700;  242.000;  -28.000
227.756; -116.825; -845.000; -698.000
227.900;   47.425;  342.000;  441.000
228.044;  -58.800; -509.000; -290.000
228.188;   71.000;  448.000;  568.000
228.332;  -93.825; -546.000; -472.000
228.476;  -26.425; -223.000; -149.000
228.620;  -32.375; -210.000; -150.000
228.764;   67.275;  431.000;  349.000
228.908;  -12.025; -155.000;   30.000
229.052;  -58.100; -615.000; -528.000
229.195;  -16.700; -172.000;   13.000
229.339;  -18.525; -235.000; -305.000
229.483;  -17.925;    5.000; -162.000
229.627;    2.100; -156.000;  139.000
229.771;  -60.550; -218.000; -294.000
229.915;   22.650;  230.000;   79.000
230.059;  -92.025; -648.000; -663.000
230.202;  -32.800; -370.000; -317.000
230.346;  -12.700; -107.000;  107.000
230.490;  -68.400; -489.000; -521.000
230.634; -104.175; -736.000; -553.000
230.777;   72.325;  478.000;  509.000
230.921;  -57.150; -450.000; -359.000
231.065;  -43.525; -246.000; -286.000
231.209;   26.975;  261.000;  265.000
231.352;   21.625;   54.000;   40.000
231.496;    9.125;  568.000;  188.000
231.640;  -76.625; -693.000; -621.000
231.783;   64.200;  546.000;  525.000
231.927;  -38.000; -294.000; -365.000
232.071; -135.175; -962.000; -736.000
232.214;  -93.075; -980.000; -764.000
232.358;  -91.100; -683.000; -599.000
232.502;   11.900;  -19.000;    7.000
232.645; -133.300;-1090.000; -927.000
232.789;  -16.850; -257.000; -218.000
232.933;  -41.050; -407.000; -224.000
233.076; -135.825;-1038.000; -897.000
233.220; -101.550; -752.000; -777.000
233.363;  -78.950; -669.000; -477.000
233.507;   74.825;  371.000;  129.000
233.650;  -94.825; -764.000; -834.000
233.794;   49.500;  438.000;  461.000
233.938;  -52.875; -530.000; -362.000
234.081;  -14.725;  -93.000;   31.000
234.225;  -65.200; -631.000; -539.000
234.368; -119.825; -773.000; -723.000
234.512;  -36.175; -385.000; -299.000
234.655;  -93.375; -582.000; -555.000
234.798;  -75.350; -493.000; -466.000
234.942; -124.750; -884.000;-1002.000
235.085;  -69.775; -651.000; -443.000
235.229;  -85.225; -405.000; -410.000
235.372;  -43.575; -247.000; -191.000
235.516;  -58.425; -397.000; -321.000
235.659;   28.375;   92.000;  121.000
235.802;   -8.000;  -38.000;  -22.000
235.946;   19.900;  335.000;  215.000
236.089;   27.175;  126.000;  250.000
236.233;   43.725;  275.000;  298.000
236.376;  -51.175; -235.000; -378.000
236.519;  -40.450; -297.000; -319.000
236.663;  -26.375; -215.000; -117.000
236.806; -138.975;-1029.000; -999.000
236.949;   67.575;  543.000;  431.000
237.092;   69.450;  412.000;  391.000
237.236;  -84.525; -589.000; -502.000
237.379;   78.900;  352.000;  428.000
237.522; -131.775; -879.000; -768.000
237.666;  -25.300; -271.000;   18.000
237.809; -127.850; -851.000; -823.000
237.952;   49.375;  469.000;  271.000
238.095;  -66.750; -447.000; -442.000
238.238;   79.350;  688.000;  700.000
238.382;    1.600;  166.000;  103.000
238.525;  -58.475; -598.000; -511.000
238.668; -136.375;-1060.000; -985.000
238.811;  -73.850; -638.000; -643.000
238.954;  -57.400; -483.000; -334.000
239.097;   95.375;  617.000;  664.000
239.241;   20.125;  394.000;  326.000
239.384;  -35.625; -254.000; -214.000
239.527;  -57.300; -424.000; -224.000
239.670; -130.875; -994.000;-1091.000
239.813; -111.025; -696.000; -658.000
239.956;   94.850;  579.000;  473.000
240.099; -117.950; -778.000; -725.000
240.242;   67.175;  428.000;  432.000
240.385;   35.625;  466.000;  450.000
240.528;  -65.075; -706.000; -473.000
240.671;    8.100;  189.000;  134.000
240.814;  -47.825; -441.000; -158.000
240.957; -103.275; -767.000; -578.000
241.100;  -96.250; -779.000; -755.000
241.243; -150.925;-1234.000; -893.000
241.386;  -59.550; -508.000; -379.000
241.529;  -93.100; -735.000; -547.000
241.672;  -57.275; -566.000; -495.000
241.815; -118.750; -832.000; -808.000
241.958;  -16.600; -125.000; -182.000
242.101;  -80.800; -545.000; -390.000
242.244;  -44.450; -270.000; -325.000
242.387;  -43.000; -304.000; -246.000
242.530;   59.325;  470.000;  134.000
242.673;  -43.400; -381.000; -309.000
242.815; -110.300; -925.000; -899.000
242.958;  -63.225; -482.000; -381.000
243.101;   27.700;  132.000;  187.000
243.244;  -80.900; -564.000; -521.000
243.387;  -41.400; -313.000; -316.000
243.530;  -99.750; -657.000; -674.000
243.672;    6.675;   43.000;  -92.000
243.815;  -46.500; -355.000; -283.000
243.958;    0.900;   98.000;  -26.000
244.101;   13.475;   59.000;  -16.000
244.243;   -4.100;  -47.000;  101.000
244.386; -126.075; -761.000; -630.000
244.529;  -28.375; -132.000; -139.000
244.672; -150.775;-1154.000; -951.000
244.814;  -94.200; -621.000; -794.000
244.957;  -59.025; -380.000; -304.000
245.100;  -80.150; -489.000; -489.000
245.242;  -62.300; -387.000; -374.000
245.385;  -12.250;  -59.000;  -39.000
245.528; -108.175; -871.000; -705.000
245.670;  105.325;  612.000;  634.000
245.813;  -84.025; -599.000; -547.000
245.956;  -23.350; -324.000; -275.000
246.098;  -59.725; -508.000; -650.000
246.241;   11.900;  194.000;   48.000
246.383;  -28.725; -119.000;  -73.000
246.526;  -75.675; -454.000; -525.000
246.669; -118.225; -889.000; -780.000
246.811;   21.625;  172.000;   -1.000
246.954;  -62.325; -512.000; -426.000
247.096;  -25.300;  -84.000;   -6.000
247.239;  -78.275; -482.000; -445.000
247.381;  -74.000; -647.000; -488.000
247.524;   92.750;  645.000;  679.000
247.666;   -4.300;   58.000;   11.000
247.809; -125.900; -887.000; -691.000
247.951;   -8.175;  -75.000;  138.000
248.094;   23.025;  432.000;  308.000
248.236; -156.975;-1262.000;-1238.000
248.378;    4.275; -356.000;  -81.000
248.521;  -21.125; -334.000; -337.000
248.663;  -48.900; -236.000; -267.000
248.806;  -25.175; -300.000; -266.000
248.948;  -97.950; -886.000; -763.000
249.090;  -42.325; -428.000; -398.000
249.233;  -53.725; -344.000; -381.000
249.375;  -60.175; -474.000; -451.000
249.518;  -15.200;  -83.000; -133.000
249.660;   -0.650; -103.000;    3.000
249.802; -174.400;-1303.000;-1189.000
249.945;  -73.950; -612.000; -540.000
250.087; -108.775; -834.000; -768.000
250.229;  -53.175; -362.000; -480.000
250.371;  -77.325; -494.000; -439.000
250.514;  -48.825; -310.000; -244.000
250.656;  -13.025;   69.000;  102.000
250.798; -120.975; -849.000; -800.000
250.940;  -65.175; -322.000; -322.000
251.083;  -21.825; -335.000; -111.000
251.225;   61.750;  338.000;  310.000
251.367;  -39.475; -274.000; -373.000
251.509;  -24.175; -265.000; -210.000
251.651; -106.000; -731.000; -671.000
251.794;   71.350;  538.000;  632.000
251.936; -109.900; -821.000; -747.000
252.078;  -81.550; -540.000; -461.000
252.220;  -66.025; -645.000; -477.000
252.362;   76.225;  344.000;  462.000
252.504;  -68.025; -677.000; -584.000
252.646; -108.550; -875.000; -722.000
252.788;   11.275;   14.000; -128.000
252.931;  -47.150; -257.000; -253.000
253.073;  -28.650; -376.000; -317.000
253.215;   -6.100;  141.000;  122.000
253.357;   -3.925;   82.000; -153.000
253.499;  -59.750; -374.000; -234.000
253.641;  -85.000; -749.000; -594.000
253.783;  -85.325; -609.000; -527.000
253.925;  -94.500; -586.000; -591.000
254.067; -112.525; -744.000; -667.000
254.209;  -29.150; -391.000; -259.000
254.351; -138.300; -865.000; -883.000
254.493;  -62.900; -441.000; -417.000
254.635; -136.425; -936.000; -818.000
254.777;  -99.450; -752.000; -687.000
254.918;  -67.950; -512.000; -430.000
255.060;  -68.275; -551.000; -395.000
255.202;  -60.625; -473.000; -261.000
255.344;  -69.125; -658.000; -455.000
255.486;  -61.450; -471.000; -406.000
255.628; -124.225; -780.000; -781.000
255.770; -102.150; -676.000; -536.000
255.912;  -58.900; -559.000; -468.000
256.053;  -96.850; -730.000; -508.000
256.195;  160.600; 1008.000;  903.000
256.337; -102.100; -861.000; -595.000
256.479;   53.475;  532.000;  416.000
256.621;  -46.875; -394.000; -212.000
256.762;  -94.650; -789.000; -742.000
256.904;   57.025;  485.000;  487.000
257.046;  -45.400; -381.000; -271.000
257.188;  -47.650; -351.000; -264.000
257.329;  -70.025; -525.000; -464.000
257.471; -127.825; -939.000; -807.000
257.613;  -68.675; -584.000; -498.000
257.755; -147.850;-1073.000; -982.000
257.896;   36.900;  286.000;  392.000
258.038;  -74.175; -403.000; -352.000
258.180;  -48.000; -354.000; -279.000
258.321;  -72.500; -581.000; -457.000
258.463;    1.425;  -71.000;  133.000
258.605;  -93.200; -562.000; -570.000
258.746; -106.650; -886.000; -772.000
258.888; -165.000;-1026.000;-1020.000
259.029;   25.550;  121.000;   -8.000
259.171;  -88.550; -614.000; -550.000
259.313;   -8.850;  -49.000;  -47.000
259.454;  -80.025; -536.000; -414.000
259.596;  -45.525; -483.000; -390.000
259.737;  -72.950; -590.000; -474.000
259.879;   52.300;  217.000;  311.000
260.020;   92.875;  901.000;  636.000
260.162;  -20.875; -146.000; -253.000
260.303; -122.875; -768.000; -687.000
260.445;  -83.000; -609.000; -613.000
260.586;   21.200;  392.000;  157.000
260.728;  -42.875; -360.000; -248.000
260.869; -122.450; -350.000; -343.000
261.011;   81.375;  706.000;  537.000
261.152;  -63.475; -479.000; -319.000
261.293;  -75.500; -576.000; -595.000
261.435;  -27.225; -219.000; -184.000
261.576;  -56.300; -455.000; -325.000
261.718;   62.675;  420.000;  470.000
261.859; -124.800; -940.000; -949.000
262.000; -133.000; -951.000;-1016.000
262.142;  -21.300;  -52.000;  -60.000
262.283; -120.025; -808.000; -691.000
262.424;  -99.100; -666.000; -625.000
262.566; -148.750;-1161.000; -983.000
262.707; -119.175; -840.000; -830.000
262.848; -131.875; -769.000; -726.000
262.990;  -43.575; -362.000; -345.000
263.131;   75.275;  650.000;  681.000
263.272;   -3.225;  -61.000;  -41.000
263.413; -100.800; -589.000; -561.000
263.555;  -59.175; -669.000; -143.000
263.696;  -86.650; -550.000; -641.000
263.837;  -61.450; -449.000; -551.000
263.978;  -12.025;   -5.000;  -77.000
264.119;  -41.975; -283.000; -264.000
264.261; -117.575; -847.000; -630.000
264.402;   -1.050;   33.000;   40.000
264.543;  -75.575; -509.000; -524.000
264.684;   -3.625;   61.000;  -50.000
264.825;  -79.400; -816.000; -538.000
264.966;    5.625;  -84.000;  -67.000
265.107; -113.125; -646.000; -670.000
265.248; -119.575; -825.000; -812.000
265.390;  -14.450;  152.000;   -9.000
265.531;  -16.900; -238.000; -107.000
265.672;  -89.175; -557.000; -630.000
265.813;   67.900;  563.000;  439.000
265.954; -142.500; -959.000; -940.000
266.095;  -17.375; -372.000; -322.000
266.236; -110.025; -686.000; -548.000
266.377;  -58.650; -243.000; -297.000
266.518;  -78.150; -619.000; -547.000
266.659;   23.550;  170.000;  268.000
266.800;    8.900;   83.000;   85.000
266.941;  -77.450; -487.000; -478.000
267.082;   41.625;  354.000;   99.000
267.223;  -58.275; -344.000; -273.000
267.364; -112.750; -892.000; -686.000
267.504;  -15.225;    3.000;  135.000
267.645;   -3.475;  160.000;   67.000
267.786;  -23.150; -147.000;  -86.000
267.927;  -70.325; -473.000; -379.000
268.068;   -1.550; -186.000;  -61.000
268.209;  -51.625; -175.000; -413.000
268.350;  -43.275; -388.000; -532.000
268.490;  -89.650; -648.000; -521.000
268.631;   26.525;  127.000;  225.000
268.772; -116.275; -874.000; -647.000
268.913;  -50.550; -328.000; -476.000
269.054;  -16.275; -117.000;   12.000
269.194;  -52.400; -418.000; -402.000
269.335; -154.800;-1137.000;-1074.000
269.476;  -25.750;   33.000;  -35.000
269.617;  -41.250; -347.000; -392.000
269.757;  -93.125; -713.000; -646.000
269.898; -103.175; -856.000; -613.000
270.039;  -53.700; -415.000; -405.000
270.180; -141.750; -952.000; -816.000
270.320;  -24.375; -190.000; -250.000
270.461;  -38.225; -277.000; -249.000
270.602;   -6.100; -186.000; -156.000
270.742; -123.275; -868.000; -943.000
270.883;  -49.150; -442.000; -390.000
271.023;  -58.625; -358.000; -357.000
271.164;  -67.725; -607.000; -528.000
271.305; -109.350; -666.000; -654.000
271.445;  -93.450; -722.000; -683.000
271.586;  -72.425; -462.000; -283.000
271.726;  -41.950; -397.000; -322.000
271.867;  -79.225; -594.000; -534.000
272.008;  158.750; -473.000; -285.000
272.148;  113.175;  462.000;  468.000
272.289;   18.625; -113.000; -181.000
272.429;   15.375;   19.000;  185.000
272.570;  -89.225; -633.000; -737.000
272.710; -107.175; -825.000; -775.000
272.851;  -25.625;  113.000; -130.000
272.991; -156.850;-1173.000;-1077.000
273.131;  -65.050; -419.000; -459.000
273.272; -102.800; -683.000; -723.000
273.412;    3.300; -143.000;  -31.000
273.553;  -65.300; -488.000; -507.000
273.693;  138.100;  913.000;  858.000
273.834;  -95.875; -894.000; -692.000
273.974;  -80.775; -664.000; -615.000
274.114;  -95.500; -772.000; -560.000
274.255;   77.550;  414.000;  373.000
274.395;    4.175; -180.000; -125.000
274.535;   36.075;  199.000;  350.000
274.676;   29.575;  225.000;   94.000
274.816;    9.250;  110.000;   34.000
274.956;  -85.950; -624.000; -690.000
275.097;  -76.325;-1014.000; -922.000
275.237; -108.400; -913.000; -803.000
275.377;  -99.500; -778.000; -689.000
275.517; -156.100; -878.000; -937.000
275.658;  -61.700; -590.000; -555.000
275.798;  -69.225; -606.000; -413.000
275.938;   16.950;  215.000;  323.000
276.078;  -99.400; -626.000; -395.000
276.218;    8.425;   99.000;  104.000
276.359; -137.350;-1026.000;-1024.000
276.499;  -81.950; -605.000; -446.000
276.639;  -26.575; -305.000; -151.000
276.779;  -54.600; -475.000; -357.000
276.919; -126.500; -783.000; -624.000
277.059;  -12.325; -261.000; -212.000
277.199;  -55.725; -357.000; -259.000
277.340;   42.575;  287.000;  175.000
277.480; -105.525; -840.000; -693.000
277.620;   25.075;  192.000;   16.000
277.760; -197.000;-1533.000;-1294.000
277.900;    4.025;  113.000;   33.000
278.040;   13.350;  137.000;  159.000
278.180;   30.100;  270.000;  170.000
278.320;    9.475;   21.000;   56.000
278.460;  -69.300; -443.000; -469.000
278.600;  -89.900; -708.000; -598.000
278.740;   50.100;  448.000;  224.000
278.880;  -88.300; -768.000; -791.000
279.020;   -1.400; -194.000; -144.000
279.160;  -94.725; -672.000; -595.000
279.300; -118.450; -926.000; -873.000
279.440;  -93.825; -709.000; -622.000
279.579;  -49.400;-1014.000; -929.000
279.719;  -60.075; -410.000; -394.000
279.859;   61.400;   -4.000;   41.000
279.999;   24.075; -208.000;  101.000
280.139;  -19.700; -435.000; -387.000
280.279;  -84.450; -708.000; -745.000
280.419;  -13.525; -229.000; -147.000
280.559;  -38.875; -259.000; -180.000
280.698;  -92.400; -790.000; -639.000
280.838;  -96.150; -778.000; -800.000
280.978; -100.700; -846.000; -790.000
281.118; -114.950; -811.000; -704.000
281.257;   19.650;   24.000;    6.000
281.397; -144.625;-1094.000; -960.000
281.537;  -99.050; -599.000; -712.000
281.677;  -26.225; -150.000; -101.000
281.816;  -78.375; -700.000; -630.000
281.956;  -38.075; -193.000; -257.000
282.096;  -61.950; -539.000; -396.000
282.235;  -91.600; -672.000; -638.000
282.375;  -19.850; -243.000;  -98.000
282.515; -121.200; -715.000; -707.000
282.654;   31.075;   29.000;  106.000
282.794;   12.050;  388.000;  244.000
282.934;  -61.025; -530.000; -491.000
283.073; -145.800;-1030.000; -857.000
283.213;  -53.675; -460.000; -467.000
283.353;  -43.175; -408.000; -349.000
283.492;  -32.150; -264.000; -296.000
283.632;  -50.700; -254.000; -168.000
283.771; -105.750; -859.000; -730.000
283.911;  -68.050; -369.000; -260.000
284.050; -104.425; -794.000; -748.000
284.190; -173.725;-1229.000;-1096.000
284.329; -146.350;-1055.000; -964.000
284.469;  -75.350; -516.000; -591.000
284.608;  -57.900; -559.000; -598.000
284.748;  -80.650; -614.000; -570.000
284.887;  -14.800;  -87.000;  -20.000
285.027; -131.400; -844.000; -892.000
285.166;  -40.375; -192.000; -249.000
285.306;  -14.650; -116.000;  -33.000
285.445;  -37.675; -229.000; -343.000
285.584;  -98.525; -630.000; -494.000
285.724;  -47.825; -282.000; -322.000
285.863; -112.275; -857.000; -507.000
286.002;  -51.525; -366.000; -276.000
286.142; -115.350; -715.000; -622.000
286.281;  -65.325; -525.000; -493.000
286.420;  -81.425; -554.000; -417.000
286.560;  100.150;  653.000;  623.000
286.699; -125.400; -958.000; -912.000
286.838;  -81.375; -590.000; -591.000
286.978;  -90.425; -533.000; -537.000
287.117; -144.425;-1085.000; -950.000
287.256;  -54.550; -228.000; -211.000
287.395;  -41.300; -197.000; -378.000
287.535;  -51.050; -370.000; -298.000
287.674;  -68.425; -509.000; -484.000
287.813;   43.925;  661.000;  533.000
287.952; -139.500;-1010.000; -871.000
288.091; -145.125;-1049.000; -915.000
288.231;    9.775;   13.000;   15.000
288.370; -182.675;-1217.000;-1200.000
288.509;  -79.925; -728.000; -645.000
288.648; -108.775; -770.000; -548.000
288.787;  -29.825; -243.000;  -87.000
288.926;  -75.325; -454.000; -475.000
289.065;  116.550;  859.000;  672.000
289.204;  -55.100; -377.000; -217.000
289.344;  -96.850; -791.000; -690.000
289.483;   13.575;  416.000;  304.000
289.622;  -27.700; -291.000; -149.000
289.761;  -17.050; -309.000; -166.000
289.900; -104.900; -785.000; -626.000
290.039;  -15.050;  -12.000;  -95.000
290.178;  -40.075; -274.000; -180.000
290.317;  -85.050; -618.000; -479.000
290.456;  -60.525; -463.000; -451.000
290.595; -134.400; -961.000; -833.000
290.734; -144.175; -904.000; -891.000
290.873;  -71.000; -456.000; -420.000
291.011; -107.250; -833.000; -843.000
291.150; -101.225; -770.000; -682.000
291.289;  -27.900; -343.000; -110.000
291.428;  -93.600; -599.000; -480.000
291.567;  -63.300; -370.000; -442.000
291.706;  -24.225;  109.000;  154.000
291.845; -103.200; -597.000; -505.000
291.984; -181.325;-1234.000;-1061.000
292.122;   72.975;  602.000;  582.000
292.261;   33.650;  620.000;  463.000
292.400;   -1.075; -144.000;  211.000
292.539; -131.900; -959.000; -813.000
292.678;  -29.250; -325.000; -300.000
292.816; -164.175;-1136.000; -965.000
292.955;  -86.875; -844.000; -684.000
293.094;  -35.375; -173.000; -337.000
293.233;  -45.925; -556.000; -400.000
293.371;  -32.675; -225.000;  -84.000
293.510; -104.775; -866.000; -780.000
293.649; -124.000; -959.000; -924.000
293.787;  -63.875;-1083.000;-1012.000
293.926;   -6.600; -113.000;  -32.000
294.065;  -56.550; -379.000; -290.000
294.203;   44.725;  298.000;  406.000
294.342;   15.950;   74.000;  156.000
294.481; 5070.425;51180.000; -836.000
294.619;  -26.275; -425.000; -582.000
294.758; -156.100;-1230.000;-1137.000
294.896;   52.600; -125.000;    5.000
295.035; -133.750;-1040.000;-1006.000
295.174; -122.050;-1082.000; -954.000
295.312;  -54.225; -323.000; -203.000
295.451;  -17.800; -307.000; -428.000
295.589;  -72.250; -389.000; -518.000
295.728;   18.200; -292.000; -165.000
295.866;    2.625;  -36.000;  -51.000
296.005;  -63.625; -584.000; -341.000
296.143;  -74.700; -558.000; -596.000
296.282; -113.750; -957.000; -881.000
296.420;  -99.925; -657.000; -557.000
296.559;  -89.750; -892.000; -633.000
296.697;   -6.700; -847.000; -665.000
296.835;   33.500;-1141.000;-1002.000
296.974;   49.300;  -23.000;   39.000
297.112;  -10.250; -443.000; -504.000
297.251;  -91.075; -815.000; -755.000
297.389;   63.700; -576.000; -438.000
297.527;   24.250; -145.000;  -83.000
297.666;  -52.300; -486.000; -438.000
297.804;  -54.875; -404.000; -264.000
297.942;   -4.625; -136.000; -161.000
298.081;  -21.150; -183.000;   63.000
298.219;   53.550;  -17.000;  -19.000
298.357;   39.250; -144.000;  -71.000
298.495;   15.750; -810.000; -812.000
298.634;   51.075;  245.000;  219.000
298.772;   26.125; -220.000; -338.000
298.910;  -40.750; -309.000; -182.000
299.048;  -12.825; -130.000; -153.000
299.187;  -33.475; -350.000; -250.000
299.325;   10.675;   52.000;  122.000
299.463;   19.425; -389.000; -299.000
299.601;   88.600; -327.000; -271.000
299.739; -122.675; -908.000; -883.000
299.877;  -77.925; -791.000; -703.000
300.016;  -63.925;-1095.000; -935.000
300.154;  135.600;  -19.000; -161.000
300.292;   27.700; -428.000; -348.000
300.430;   19.500; -408.000; -291.000
300.568; -118.075; -940.000; -874.000
300.706;  -60.325; -366.000; -469.000
300.844;  -89.100;-1108.000; -979.000
300.982;  113.975;  246.000;  282.000
301.120; -115.375; -965.000; -866.000
301.258;  -86.625; -812.000; -705.000
301.396;   23.400;  104.000;  -41.000
301.534;   55.650; -218.000; -293.000
301.672;  -38.050; -664.000; -521.000
301.810;    9.575; -613.000; -545.000
301.948;  105.575;   53.000;  149.000
302.086;  515.900; -250.000;  -32.000
302.224;  805.525; -610.000; -585.000
302.362;   17.425; -558.000; -622.000
302.500;  -57.125; -923.000; -893.000
302.638;   82.875;  128.000;  245.000
302.776;  -24.725; -352.000; -408.000
302.913;   44.850;  447.000;  236.000
303.051;   -3.650;  -86.000;  -23.000
303.189;   52.025;   90.000;  118.000
303.327;  -44.500; -341.000; -256.000
303.465;  -72.875; -832.000; -588.000
303.603; -115.150; -805.000; -604.000
303.740;  100.325;  417.000;  241.000
303.878;   -2.975; -800.000; -759.000
304.016;  -94.950; -915.000; -790.000
304.154; -134.425;-1123.000;-1152.000
304.291;  -46.125; -505.000; -554.000
304.429;   18.000;  102.000;   74.000
304.567; -116.525; -908.000; -893.000
304.705;  -53.100; -408.000; -515.000
304.842;   59.475; -616.000; -540.000
304.980;   53.050;  215.000;   35.000
305.118;   25.300; -367.000; -365.000
305.255;  -99.625; -945.000; -927.000
305.393;   55.200;  178.000;  239.000
305.531; -108.250;-1173.000; -956.000
305.668;  -74.100; -663.000; -582.000
305.806;   92.375; -358.000; -439.000
305.943;   78.875; -629.000; -637.000
306.081;   43.300; -378.000; -267.000
306.219; -115.000; -863.000; -748.000
306.356;   10.775;  158.000;   27.000
306.494;   95.975;  981.000;  761.000
306.631;  -11.800;  -11.000;  -55.000
306.769;   -3.225; -613.000; -485.000
306.906;  -39.775; -284.000; -258.000
307.044;  -74.050; -473.000; -488.000
307.181;  -71.975; -410.000; -332.000
307.319;   -4.350;  112.000;   87.000
307.456; -168.175;-1191.000;-1153.000
307.594;  -99.200; -980.000; -727.000
307.731;  -25.750; -371.000; -164.000
307.868;    2.825;  -15.000;   20.000
308.006; -138.000; -961.000; -847.000
308.143;  -65.200; -618.000; -330.000
308.281;   87.075;  -37.000; -254.000
308.418;  -31.700; -748.000; -640.000
308.555;  -85.425; -400.000; -250.000
308.693;  -74.425; -577.000; -573.000
308.830; -116.000; -712.000; -657.000
308.967;  -14.625; -215.000;  -95.000
309.105;  -47.925; -507.000; -396.000
309.242;    5.125; -468.000; -367.000
309.379;  171.625; -577.000; -655.000
309.517;  -80.025; -936.000; -948.000
309.654; -112.625; -910.000; -734.000
309.791;  -80.350; -662.000; -580.000
309.928; -121.425; -977.000; -914.000
310.065;  162.950;  819.000;  697.000
310.203;  -38.075; -825.000; -850.000
310.340;  -12.275; -465.000; -321.000
310.477;  -95.150; -412.000; -516.000
310.614;  -81.525; -383.000; -473.000
310.751;  -77.925; -427.000; -518.000
310.889;  -19.750;    1.000;   11.000
311.026; -168.625;-1161.000; -939.000
311.163;  -57.000; -386.000; -380.000
311.300;  -82.325; -512.000; -479.000
311.437;  -78.850; -658.000; -619.000
311.574; -158.500;-1226.000; -985.000
311.711;  -58.050; -595.000; -433.000
311.848;  -43.175; -380.000; -388.000
311.985;   12.650;  270.000;   93.000
312.122; -129.025; -932.000; -762.000
312.259; -134.875; -941.000; -994.000
312.396;  -88.625; -508.000; -551.000
312.533;  -92.450; -812.000; -790.000
312.670; -136.075;-1070.000; -898.000
312.807;  -48.325; -352.000; -367.000
312.944;  -92.575; -513.000; -611.000
313.081;  -33.125; -150.000; -415.000
313.218; -103.150;-1111.000; -867.000
313.355;   -6.650; -531.000; -449.000
313.492;  -11.575; -455.000; -292.000
313.629;  119.200;  815.000;  735.000
313.766; -167.875;-1176.000;-1008.000
313.902;  -21.400; -186.000;   21.000
314.039;  -49.725; -372.000; -289.000
314.176;   39.575;  286.000;  192.000
314.313;  -85.100; -569.000; -473.000
314.450;  -70.425; -788.000; -684.000
314.587;  -66.575; -468.000; -480.000
314.723;  -11.975;  -78.000;  130.000
314.860;    9.850;  318.000;  332.000
314.997;   32.600;  223.000;  142.000
315.134;  -46.050; -385.000; -368.000
315.270;  -40.050; -480.000; -496.000
315.407; -137.200;-1094.000; -967.000
315.544;  -58.675; -657.000; -538.000
315.681;  -64.925; -681.000; -565.000
315.817;   27.150; -133.000; -176.000
315.954;   -1.550; -613.000; -392.000
316.091; -135.700;-1045.000;-1023.000
316.227;  -27.700;  -71.000; -179.000
316.364;   -2.325;   23.000;    6.000
316.500;  -60.925; -113.000; -300.000
316.637;  -30.100; -181.000; -302.000
316.774;  -84.700; -625.000; -358.000
316.910; -102.475; -598.000; -629.000
317.047;  -69.400; -487.000; -351.000
317.183;  -48.850; -435.000; -566.000
317.320;  -28.125; -367.000; -321.000
317.456;  -68.300; -733.000; -805.000
317.593;  -99.475; -598.000; -641.000
317.729;    1.275;  168.000;  -67.000
317.866; -205.100;-1434.000;-1285.000
318.002;  -96.875; -708.000; -948.000
318.139; -123.800; -883.000; -867.000
318.275; -107.950;-1003.000; -738.000
318.412;  -71.475; -517.000; -336.000
318.548;  -39.275; -751.000; -720.000
318.685; -116.600; -985.000; -888.000
318.821; -113.550; -762.000; -735.000
318.957;  -29.300;   34.000;  -23.000
319.094;   40.825;  297.000;  154.000
319.230;  -87.075; -756.000; -742.000
319.367;   97.675; -471.000; -520.000
319.503;   29.250; -538.000; -436.000
319.639; -105.350; -877.000; -793.000
319.775;  -82.500; -750.000; -685.000
319.912;  -58.550; -424.000; -519.000
320.048; -104.125;-1184.000;-1184.000
320.184;   73.100;   59.000;   70.000
320.321;  -70.375; -497.000; -467.000
320.457;   56.300;  475.000;  662.000
320.593;  -59.150; -375.000; -382.000
320.729; -110.200; -732.000; -734.000
320.866;  -79.075; -577.000; -635.000
321.002;  -80.750; -759.000; -809.000
321.138;  -17.950; -135.000; -211.000
321.274;   53.850; -148.000; -115.000
321.410;  -36.425; -585.000; -353.000
321.546;  -45.325;-1011.000; -911.000
321.683;   36.425;  400.000;  185.000
321.819;    2.825;  -48.000; -117.000
321.955; -117.700; -743.000; -722.000
322.091;  -51.325; -585.000; -540.000
322.227;  -17.900; -382.000; -202.000
322.363;  -19.075; -320.000; -215.000
322.499;  -51.450; -343.000; -331.000
322.635;  144.175;  636.000;  443.000
322.771;   17.250; -139.000;   12.000
322.907;   78.300;  129.000;  327.000
323.043;  -33.450; -115.000; -206.000
323.179;  -48.500; -394.000; -363.000
323.315;   -1.700; -401.000; -371.000
323.451;   63.025; -328.000; -236.000
323.587;   69.325;  -60.000;  -77.000
323.723;    1.925; -682.000; -601.000
323.859;  -15.750; -258.000;  -76.000
323.995;  -45.350; -467.000; -409.000
324.131; -135.375; -967.000; -892.000
324.267;  -39.125; -254.000; -276.000
324.402; -142.500; -960.000; -983.000
324.538;  -18.375; -279.000; -104.000
324.674;    8.150;  164.000;   77.000
324.810;   91.100;  226.000;  308.000
324.946;  -28.350; -810.000; -658.000
325.082;  -75.400; -568.000; -475.000
325.217;  -20.300;  -62.000;   16.000
325.353; -107.775; -764.000; -659.000
325.489;  -89.650; -540.000; -506.000
325.625;  -80.425; -579.000; -525.000
325.760;   57.200;  517.000;  376.000
325.896;  -35.600; -515.000; -702.000
326.032;  -57.600; -403.000; -352.000
326.168;  -72.350; -462.000; -369.000
326.303;  -70.675; -352.000; -461.000
326.439;  -22.225; -336.000; -276.000
326.575;   -4.500; -190.000;  -29.000
326.710;  -11.475; -156.000;  -30.000
326.846;  -12.400;  146.000;  103.000
326.982;  -94.475; -530.000; -548.000
327.117;  -78.675; -481.000; -442.000
327.253;  -93.625; -745.000; -742.000
327.388; -166.925;-1137.000;-1153.000
327.524;  -70.350; -811.000; -578.000
327.659;  -20.100;  -58.000;  -22.000
327.795;  -14.550;   69.000;   45.000
327.931;  -84.850; -723.000; -499.000
328.066;  -27.600; -417.000; -276.000
328.202;  -34.275;   12.000; -129.000
328.337;   92.775;  957.000;  713.000
328.473;   22.975;  -12.000;  -74.000
328.608;  -15.625; -256.000; -267.000
328.743;  -95.750; -799.000; -664.000
328.879;    2.300;  214.000;  114.000
329.014;  -45.950; -102.000; -122.000
329.150;  -73.850; -358.000; -483.000
329.285;  -83.050; -465.000; -466.000
329.421;  -56.725; -548.000; -246.000
329.556;  -27.525;  -36.000;   85.000
329.691;  -95.800; -633.000; -615.000
329.827;  -94.100; -626.000; -480.000
329.962;  -39.825;  131.000; -301.000
330.097;  -99.975; -673.000; -585.000
330.233;  -46.775; -410.000; -223.000
330.368; -132.275; -839.000; -628.000
330.503;  -21.925;    3.000;   98.000
330.638;   -4.150;  -93.000; -125.000
330.774;  -72.175; -609.000; -530.000
330.909;  -43.825; -434.000; -244.000
331.044;  -98.450; -714.000; -708.000
331.179; -182.300;-1217.000;-1109.000
331.315;   15.925;   77.000;   20.000
331.450;   17.500;  157.000;  285.000
331.585;  -92.350; -805.000; -706.000
331.720;  -92.550; -510.000; -460.000
331.855;   -8.125;  -35.000; -102.000
331.990;  257.450;   62.000;  138.000
332.126;  134.650; -110.000;   71.000
332.261;  -22.325; -379.000; -265.000
332.396;   -2.175; -135.000; -242.000
332.531; -107.050;-1074.000;-1031.000
332.666;   42.700; -519.000; -363.000
332.801; -118.450; -726.000; -807.000
332.936;  -27.900; -192.000; -122.000
333.071; -131.050; -870.000; -817.000
333.206;   25.725;  307.000;  379.000
333.341;   15.875;  344.000;  418.000
333.476;  -92.300; -627.000; -623.000
333.611;  -51.850; -251.000; -173.000
333.746;  -53.250; -381.000; -464.000
333.881; -122.075; -973.000; -935.000
334.016; -135.500; -936.000; -917.000
334.151; -129.350; -746.000; -702.000
334.286;   27.900;  152.000;  186.000
334.421;  -33.825; -125.000; -178.000
334.556;  -81.000; -611.000; -567.000
334.690;  -88.800; -631.000; -577.000
334.825;   55.775;  381.000;   83.000
334.960;  -70.125; -285.000; -413.000
335.095;    0.100;  135.000;  -91.000
335.230; -121.975; -722.000; -738.000
335.365; -148.275;-1084.000; -990.000
335.499; -144.225;-1108.000;-1037.000
335.634;   11.825;    9.000;  534.000
335.769; -113.750; -755.000; -720.000
335.904;  -69.350; -603.000; -561.000
336.038;  -79.475; -735.000; -657.000
336.173; -134.375;-1206.000;-1194.000
336.308;  -11.000; -116.000; -189.000
336.443;   20.350; -544.000; -634.000
336.577;  -94.200; -936.000; -787.000
336.712;   44.625;   -4.000;  -12.000
336.847;  -60.150; -724.000; -607.000
336.981;   47.450; -272.000; -208.000
337.116;  245.125;  615.000;  501.000
337.250;  102.325; -434.000; -421.000
337.385;  268.950; -297.000; -208.000
337.520;  110.250; -632.000; -603.000
337.654;  -34.975; -215.000; -126.000
337.789; -135.900; -989.000; -933.000
337.923;  -37.200; -104.000; -205.000
338.058; -100.100; -673.000; -738.000
338.192;  -44.075; -611.000; -488.000
338.327;  -10.600;  -18.000; -155.000
338.461;  -88.950; -299.000; -469.000
338.596;  -99.600; -780.000; -638.000
338.730; -108.150; -767.000; -803.000
338.865;   97.475;  -46.000; -140.000
338.999;  -52.425; -846.000; -702.000
339.134;  -17.725; -634.000; -536.000
339.268;   11.925; -741.000; -603.000
339.403;  362.775; -740.000; -775.000
339.537;  124.150; -894.000; -820.000
339.671; -106.125; -829.000; -813.000
339.806;  -53.775; -556.000; -512.000
339.940;   13.750; -261.000; -235.000
340.074; -100.225; -685.000; -510.000
340.209;  -53.225; -351.000; -230.000
340.343; -106.475; -517.000; -573.000
340.477;  145.325;  998.000; 1036.000
340.612;  -55.225;-1033.000; -900.000
340.746;  143.800; -199.000; -243.000
340.880;  -97.025; -924.000; -785.000
341.014;  -32.275;  -45.000; -154.000
341.149; -133.200; -756.000; -718.000
341.283; -112.550; -839.000; -754.000
341.417; -110.025;-1124.000; -938.000
341.551;   76.275; -768.000; -708.000
341.685;  -53.675; -633.000; -611.000
341.820;  -60.825; -562.000; -493.000
341.954;  -68.000; -218.000; -349.000
342.088; -151.175;-1102.000;-1019.000
342.222;   49.325;  565.000;  618.000
342.356;  -76.450; -395.000; -335.000
342.490; -108.200; -880.000; -841.000
342.624;  -55.550; -339.000; -242.000
342.758;  -21.125; -364.000; -312.000
342.892;  -85.100; -710.000; -585.000
343.026;  -43.575;  -58.000; -116.000
343.160;  -62.450; -426.000; -376.000
343.294;  -82.500; -474.000; -337.000
343.428;  -35.700; -488.000; -448.000
343.562;  -14.775; -172.000;  -23.000
343.696;  -39.125; -385.000; -314.000
343.830;  -32.925; -362.000; -356.000
343.964;    9.900; -231.000; -168.000
344.098;  767.725;  199.000;   70.000
344.232;  638.875; -266.000; -127.000
344.366;   74.725; -567.000; -453.000
344.500;   19.175; -665.000; -744.000
344.634;    2.300; -324.000; -164.000
344.768;  -21.500; -531.000; -341.000
344.902;    7.850;  278.000;  256.000
345.035;  -79.050; -556.000; -496.000
345.169; -135.025; -933.000; -656.000
345.303;  -31.350; -308.000; -482.000
345.437;  -93.350; -826.000; -717.000
345.571;  -80.175; -675.000; -594.000
345.704;  -53.400; -309.000; -532.000
345.838;  -14.800; -331.000; -284.000
345.972;  -45.750; -543.000; -495.000
346.106;  161.425; -179.000; -190.000
346.239;  375.975; -312.000; -243.000
346.373;   -3.925; -343.000; -302.000
346.507; -145.350; -950.000; -962.000
346.640;  106.075;  -30.000;   13.000
346.774;  -64.450; -650.000; -797.000
346.908;  -20.925; -138.000;  -11.000
347.041; -111.675; -646.000; -593.000
347.175;   -1.950;  259.000;   27.000
347.309;  -80.250; -698.000; -628.000
347.442; -108.750; -883.000; -732.000
347.576;  247.750;  670.000;  668.000
347.709;  147.225; -123.000;  -52.000
347.843; -110.150; -933.000; -825.000
347.976;   34.450;  235.000;  294.000
348.110; -186.400;-1268.000;-1186.000
348.243;  -98.950; -679.000; -772.000
348.377;    5.425;  -26.000;   60.000
348.510;   52.000;  403.000;  540.000
348.644;  -54.825;  -37.000; -159.000
348.777;    0.750;  180.000;  191.000
348.911;  -62.150; -142.000; -112.000
349.044;  142.675;  471.000;  448.000
349.178;  109.900;-1069.000;-1006.000
349.311;  110.975;  141.000;  255.000
349.444;  -18.350; -927.000; -813.000
349.578;  -15.250; -347.000; -200.000
349.711; -112.200; -959.000; -862.000
349.845;  -18.375; -661.000; -591.000
349.978; -151.875;-1224.000;-1137.000
350.111;  -89.000; -546.000; -612.000
350.244;  -97.550; -596.000; -700.000
350.378;   -8.275; -392.000; -393.000
350.511;  -77.425; -393.000; -426.000
350.644; -102.575; -808.000; -806.000
350.778;   12.125;  168.000;  104.000
350.911;   -2.850;  134.000;  140.000
351.044;  -95.300; -685.000; -615.000
351.177;  -30.100; -321.000; -281.000
351.310;  -29.500;    3.000; -131.000
351.444;  -91.200; -888.000; -788.000
351.577;   78.400;  140.000;   90.000
351.710;  103.175;  593.000;  417.000
351.843;  -28.475; -165.000;  -77.000
351.976;   -5.450;  149.000;  -79.000
352.109;  -91.875; -621.000; -612.000
352.242;  -38.375; -464.000; -419.000
352.376;  -80.050; -580.000; -636.000
352.509;  122.800; -437.000; -356.000
352.642;  -33.550; -654.000; -604.000
352.775;   43.725; -141.000;  -98.000
352.908; -131.450; -933.000; -904.000
353.041; -102.500; -814.000; -824.000
353.174;  -62.800; -551.000; -424.000
353.307;  -98.700; -753.000; -764.000
353.440;   55.300;  541.000;  453.000
353.573; -119.325; -957.000;-1008.000
353.706;  -73.075; -384.000; -558.000
353.839;  -29.075; -264.000; -220.000
353.971;  -96.000; -657.000; -512.000
354.104;  -79.625; -896.000; -835.000
354.237;  -55.325; -627.000; -662.000
354.370; -103.700; -846.000; -879.000
354.503; -197.475;-1231.000;-1308.000
354.636;  -33.225; -529.000; -348.000
354.769; -133.350; -937.000; -860.000
354.902;  -26.300; -230.000; -139.000
355.034;  -18.175; -164.000; -220.000
355.167;  -26.800; -262.000; -162.000
355.300; -103.675;-1061.000; -880.000
355.433;  994.725;  -71.000;  -14.000
355.565; 1535.700; -402.000; -384.000
355.698;  390.775; -356.000; -296.000
355.831;  -22.675; -882.000; -801.000
355.964;   60.750; -285.000; -170.000
356.096;  -92.900; -856.000; -843.000
356.229;   -7.150; -523.000; -530.000
356.362;  337.725; -373.000; -266.000
356.494;  616.775; -229.000; -162.000
356.627;  401.600;  269.000;  377.000
356.760;  668.275;  120.000;   53.000
356.892;  974.550; -286.000; -601.000
357.025;  544.700;  403.000;  389.000
357.157;  487.125; -167.000; -179.000
357.290;  723.200; -856.000; -713.000
357.423;  193.725; -667.000; -556.000
357.555;   99.850; -217.000; -228.000
357.688;  103.775; -483.000; -364.000
357.820;  396.975; -870.000; -877.000
357.953; 3306.625; -563.000; -589.000
358.085;  668.500; -632.000; -612.000
358.218;  822.350;-1131.000; -932.000
358.350;  156.350;  -58.000;  312.000
358.483; -134.625;-1300.000;-1187.000
358.615;  -50.800;-1182.000;-1078.000
358.747;  -91.725;-1187.000;-1058.000
358.880;  -10.650; -810.000; -744.000
359.012;  -19.150; -376.000; -202.000
359.145;  -58.275; -480.000; -511.000
359.277;   35.450; -962.000; -913.000
359.409; 2754.725;  536.000;  231.000
359.542;  709.375; -738.000; -688.000
359.674;   66.750;   46.000;   13.000
359.806;  -72.800; -565.000; -438.000
359.939;  -56.150; -617.000; -516.000
360.071;  -24.325; -583.000; -579.000
360.203;  -27.950; -411.000; -364.000
360.335;   37.550;  164.000;  -16.000
360.468;  154.175; -249.000; -307.000
360.600; 2235.500; -547.000; -454.000
360.732; 2985.500; -546.000; -423.000
360.864;  386.550;-1216.000;-1044.000
360.996;  216.475; -516.000; -554.000
361.129;   13.600; -389.000; -598.000
361.261;   16.575;  110.000; -113.000
361.393;  -43.250; -252.000; -214.000
361.525;   29.100;   94.000;  244.000
361.657;  -71.300; -821.000; -703.000
361.789;    0.425; -139.000; -155.000
361.921;  144.475; -642.000; -593.000
362.053;  208.700;  524.000;  541.000
362.185;   36.875;  288.000;   72.000
362.318; -100.125; -709.000; -705.000
362.450;   92.275;  294.000;  444.000
362.582;   13.950; -913.000; -870.000
362.714;  -47.800; -353.000; -332.000
362.846;  -86.025; -606.000; -490.000
362.978; -148.450; -941.000; -811.000
363.109;   30.600; -161.000; -260.000
363.241;  317.075; -739.000; -749.000
363.373;  419.600; -649.000; -564.000
363.505;  706.425; -186.000;  -91.000
363.637;  153.500; -787.000; -601.000
363.769; -136.050;-1067.000;-1080.000
363.901;  -81.975; -596.000; -654.000
364.033; -138.275;-1103.000;-1062.000
364.165;  -22.825; -283.000; -283.000
364.296;   64.300; -316.000; -177.000
364.428;   60.150;-1344.000;-1220.000
364.560;  -81.250; -679.000; -661.000
364.692;  -72.325; -738.000; -835.000
364.824;  177.900; -588.000; -456.000
364.955;  417.150; -402.000; -564.000
365.087;  986.075;-1097.000; -852.000
365.219;   24.700; -686.000; -816.000
365.351;  -73.450; -526.000; -572.000
365.482;   46.025;  300.000;  240.000
365.614;  -50.800; -402.000; -314.000
365.746; -108.000; -729.000; -752.000
365.877;  -95.475; -706.000; -672.000
366.009;  274.000;  -35.000;  -62.000
366.141;  -95.025;-1249.000;-1134.000
366.272; -102.350; -803.000; -719.000
366.404; -120.600;-1005.000; -874.000
366.535;  -23.075; -139.000;  -12.000
366.667; -116.875; -644.000; -649.000
366.799;   40.250;  353.000;  203.000
366.930; -134.050; -862.000; -996.000
367.062;  116.925; -639.000; -613.000
367.193;  164.850; -872.000; -842.000
367.325;  -63.375; -580.000; -684.000
367.456;   26.100; -246.000;   31.000
367.588;  157.025; -371.000; -318.000
367.719;   19.825;  -44.000;  -45.000
367.851;  -19.200; -222.000; -241.000
367.982;  -81.125; -875.000; -732.000
368.113;   62.450; -475.000; -358.000
368.245; -143.225; -960.000; -841.000
368.376;  -21.000; -254.000; -302.000
368.508;  -51.675; -188.000; -263.000
368.639; -151.550;-1166.000;-1034.000
368.770;  -28.225; -670.000; -589.000
368.902;  -79.000; -836.000; -926.000
369.033; -118.750; -906.000; -855.000
369.164;  -52.275; -720.000; -653.000
369.296; -116.475; -452.000; -601.000
369.427;  -12.900; -209.000; -144.000
369.558;  -66.900; -593.000; -377.000
369.689;  -98.300; -721.000; -569.000
369.821; -140.850; -951.000; -845.000
369.952;   -3.950;   42.000; -108.000
370.083;  -64.925; -229.000; -108.000
370.214;  -94.125; -735.000; -650.000
370.345;  -11.000;   65.000;   81.000
370.477;  -92.925; -810.000; -790.000
370.608;  170.225; -328.000; -264.000
370.739;  -69.100;-1233.000;-1292.000
370.870;  -59.625;-1102.000; -923.000
371.001;   55.775; -378.000; -467.000
371.132;  -92.200; -754.000; -735.000
371.263;  -23.975;  -42.000; -148.000
371.394; -144.700; -841.000; -748.000
371.525;   15.225;  345.000;  225.000
371.657; -101.000; -808.000; -670.000
371.788;   66.525;  103.000;  199.000
371.919;  123.025; -384.000; -304.000
372.050; 3146.350;  -91.000; -156.000
372.181;  909.300; -188.000; -294.000
372.311;  297.050;   42.000; -127.000
372.442;    5.900; -457.000; -451.000
372.573;  -19.925; -444.000; -340.000
372.704; -151.825;-1008.000; -980.000
372.835;   55.850; -228.000; -289.000
372.966;  -93.200; -646.000; -554.000
373.097;  -86.075; -575.000; -711.000
373.228;  -55.725; -717.000; -542.000
373.359;   82.250; -824.000; -536.000
373.490;  737.625; -881.000; -727.000
373.620;  934.800;-1001.000; -803.000
373.751; 1470.325; -332.000; -396.000
373.882;  637.050; -663.000; -733.000
374.013;   20.775; -449.000; -262.000
374.143;  -54.700; -581.000; -659.000
374.274; -128.300; -987.000; -908.000
374.405;  137.375; -388.000; -276.000
374.536;  340.950; -526.000; -387.000
374.666;  880.775; -759.000; -807.000
374.797;  143.325; -817.000; -868.000
374.928;  664.550; -710.000; -560.000
375.058;  690.250; -535.000; -500.000
375.189;   44.875;  -59.000;  -93.000
375.320; -124.075; -928.000;-1034.000
375.450;  -48.375; -625.000; -616.000
375.581;  -52.250; -526.000; -436.000
375.712;  -40.350; -574.000; -250.000
375.842;  220.100; -438.000; -415.000
375.973;  146.400; -554.000; -513.000
376.103;  -67.650; -665.000; -648.000
376.234;  -78.250; -531.000; -552.000
376.364;  -61.375; -944.000; -867.000
376.495;  273.525;  925.000;  529.000
376.625;  -56.600; -472.000; -485.000
376.756;   18.975; -709.000; -678.000
376.886;  -99.800;-1178.000;-1026.000
377.017;   56.525;-1048.000;-1061.000
377.147;  370.075; -786.000; -782.000
377.278;   72.400;  174.000;  228.000
377.408; -148.275; -801.000; -815.000
377.538; -106.525; -707.000; -693.000
377.669;  -93.875; -537.000; -613.000
377.799; -105.100; -645.000; -635.000
377.929;  -84.700; -610.000; -428.000
378.060; -133.150; -781.000; -847.000
378.190;  -80.200; -726.000; -531.000
378.320;  -68.425; -401.000; -406.000
378.451;  -37.400; -131.000;  -22.000
378.581;  -12.775;  -67.000; -110.000
378.711;  132.150; 1035.000;  866.000
378.841;  -49.750; -533.000; -675.000
378.972; -101.825; -871.000; -751.000
379.102;  -28.100; -652.000; -579.000
379.232;  -29.300; -126.000;  -73.000
379.362; -118.175;-1001.000; -885.000
379.492;  -30.625; -373.000; -424.000
379.623;   79.000;    0.000;  111.000
379.753; -110.150;-1107.000; -974.000
379.883;  150.075;   59.000;  156.000
380.013;  -42.275;-1081.000;-1017.000
380.143; -119.650;-1097.000;-1056.000
380.273; -120.325; -985.000; -861.000
380.403;  -14.250; -344.000; -257.000
380.533;  -53.250; -651.000; -664.000
380.663;   50.725;  173.000;  128.000
380.793; -121.650;-1027.000;-1074.000
380.923;  -28.825; -103.000;  -34.000
381.053; -102.025; -613.000; -623.000
381.183;  -45.725; -106.000; -248.000
381.313;    8.475; -656.000; -470.000
381.443;   -0.975; -692.000; -473.000
381.573;  122.450; -402.000; -409.000
381.703;  170.000;-1249.000;-1095.000
381.833; -157.775;-1454.000;-1336.000
381.963;   83.850; -134.000;  -87.000
382.093; 1193.475; -925.000; -909.000
382.223;  333.550; -713.000; -602.000
382.353;  -38.750; -801.000; -608.000
382.482;  262.700;-1091.000; -964.000
382.612;  615.600; -872.000; -644.000
382.742;  331.200; -695.000; -622.000
382.872;  166.550; -565.000; -551.000
383.002;   42.900;  347.000; -132.000
383.131;  -30.925; -226.000; -160.000
383.261;  -57.775; -706.000; -768.000
383.391;  265.125; -552.000; -377.000
383.521; 3395.100;  451.000;  263.000
383.650;  776.575; -947.000; -904.000
383.780;  -20.625; -783.000; -656.000
383.910;   96.125;  880.000;  802.000
384.039;  -21.375; -794.000; -656.000
384.169;  106.475;-1205.000;-1017.000
384.299;  -50.200; -650.000; -662.000
384.428;  -99.750; -764.000; -680.000
384.558;  -48.325; -308.000; -275.000
384.687;  -54.175; -414.000; -334.000
384.817;   10.700;   75.000;   -2.000
384.947;   -4.650; -234.000; -141.000
385.076;  245.175;  982.000;  912.000
385.206;   78.825;  369.000;  480.000
385.335;  -36.325; -549.000; -417.000
385.465; -102.525; -655.000; -663.000
385.594;  101.550;  -53.000;  -44.000
385.724;  305.025; -868.000; -838.000
385.853;   76.000; -296.000; -270.000
385.982; 1123.700; -743.000; -787.000
386.112; 1757.475;-1052.000; -871.000
386.241;   84.400; -307.000; -312.000
386.371;   11.825; -174.000;  -87.000
386.500;  -37.525; -825.000; -789.000
386.629;   12.750; -874.000; -817.000
386.759;   65.800;  -43.000;   68.000
386.888;  -29.850; -170.000; -250.000
387.017; -102.725; -648.000; -620.000
387.147; -104.075; -771.000; -798.000
387.276;  -36.900; -410.000; -397.000
387.405;   -5.600; -398.000; -342.000
387.535;  -61.050; -452.000; -361.000
387.664;  -73.300; -692.000; -620.000
387.793;   41.100; -198.000; -113.000
387.922;  417.300;  255.000;  200.000
388.052;  -24.350; -576.000; -423.000
388.181;  -15.325; -342.000; -472.000
388.310;  -39.975; -889.000; -710.000
388.439;  -78.375; -749.000; -742.000
388.568;  144.375;  365.000;  244.000
388.697;  832.625; -756.000; -653.000
388.826;  142.875; -768.000; -666.000
388.956;   25.200; -285.000; -307.000
389.085;  -38.025; -347.000; -287.000
389.214; -118.025; -842.000; -872.000
389.343;  -66.675; -645.000; -413.000
389.472;  416.600;  126.000;  149.000
389.601;  478.100;   91.000;    0.000
389.730;  -31.625; -568.000; -687.000
389.859;   45.200;  226.000;   46.000
389.988;  131.325; -423.000; -408.000
390.117;  102.775; -168.000; -146.000
390.246;  -18.925; -331.000; -320.000
390.375;   39.500; -673.000; -626.000
390.504;  -73.100; -703.000; -621.000
390.633; -124.975; -672.000; -726.000
390.761;  -85.000; -732.000; -645.000
390.890;   16.275;   -4.000; -130.000
391.019;  -43.825; -421.000; -441.000
391.148; -132.300; -826.000; -855.000
391.277;  -77.425; -576.000; -493.000
391.406; -103.625; -821.000; -805.000
391.534;   12.300;  574.000; -301.000
391.663;  -86.175; -583.000; -645.000
391.792;  -89.775; -673.000; -701.000
391.921;   65.025;   -3.000;   15.000
392.050;  117.850; -287.000; -228.000
392.178;  -81.500;-1206.000;-1061.000
392.307;  101.525; -758.000; -712.000
392.436;   35.300; -427.000; -641.000
392.564;   14.350;  166.000;   -6.000
392.693;  -99.875; -860.000; -682.000
392.822;  144.675; -529.000; -534.000
392.950;   35.775; -880.000; -714.000
393.079;  241.675; -188.000; -328.000
393.208;    2.400; -488.000; -511.000
393.336;  -27.375; -170.000; -145.000
393.465;  -56.975; -317.000; -199.000
393.593;    6.250;   62.000;   79.000
393.722; -157.050;-1121.000; -916.000
393.850;  -31.450; -188.000;  -61.000
393.979; -148.175; -926.000; -805.000
394.107;  -72.950; -517.000; -537.000
394.236;  -43.625; -570.000; -507.000
394.364;  167.000;  383.000;  206.000
394.493;  191.425; -911.000; -767.000
394.621;  -31.150; -955.000; -916.000
394.750;  768.350; -873.000; -923.000
394.878; 3076.125; -247.000; -149.000
395.007; 4075.550; -721.000; -807.000
395.135;  293.500; -790.000; -721.000
395.263;  -97.475;-1038.000;-1040.000
395.392;  -19.900;  -25.000; -107.000
395.520; -143.575; -818.000; -679.000
395.648; -108.425; -865.000; -915.000
395.777;  -44.400; -366.000; -405.000
395.905;  -71.200; -449.000; -564.000
396.033;   -8.400;  217.000;  172.000
396.162;  352.300; -399.000; -453.000
396.290;  313.425;  -17.000;   -2.000
396.418;   54.450; -555.000; -514.000
396.546;  -99.250; -571.000; -466.000
396.674; -113.275; -850.000; -878.000
396.803;   -7.150;  -72.000;  -23.000
396.931;   57.250; -179.000; -199.000
397.059;   -1.050;-1026.000; -989.000
397.187; -117.275;-1026.000; -975.000
397.315; -141.200; -884.000; -649.000
397.443;  -95.175; -592.000; -443.000
397.572; -108.775; -578.000; -424.000
397.700;  -40.850; -607.000; -614.000
397.828;  -20.275;  120.000;  -90.000
397.956;  -44.250; -508.000; -478.000
398.084;  -75.825; -767.000; -626.000
398.212;   23.950;  137.000;  124.000
398.340;   -2.950;  -56.000;  159.000
398.468;   -3.850; -390.000; -169.000
398.596; -144.925; -993.000; -953.000
398.724; -130.275; -762.000; -767.000
398.852; -190.500;-1024.000; -976.000
398.980;  -68.550; -560.000; -560.000
399.108;  -74.700; -982.000; -735.000
399.236;   17.800;   13.000;    8.000
399.363;   13.675;  222.000;  196.000
399.491;  -77.850; -404.000; -398.000
399.619; -139.975; -829.000; -800.000
399.747; -111.900; -859.000; -771.000
399.875;   59.200;  220.000;  234.000
400.003;  -53.275; -359.000; -284.000
400.130; -106.875; -421.000; -341.000
400.258;  -35.675;  -83.000;   38.000
400.386;  -73.425; -352.000; -168.000
400.514;  -63.150; -526.000; -587.000
400.641; -105.775; -928.000; -802.000
400.769; -149.775; -979.000; -888.000
400.897; -137.450; -838.000; -793.000
401.025;  -20.525; -166.000; -152.000
401.152;   -3.275;  220.000;   38.000
401.280;  -97.125; -430.000; -429.000
401.408; -116.900; -712.000; -576.000
401.535; -101.225; -735.000; -758.000
401.663; -199.325;-1134.000;-1054.000
401.790;  -95.525; -514.000; -525.000
401.918;   19.450;  436.000;  405.000
402.046;  -24.100;  134.000;  122.000
402.173;  -40.150;  -18.000;    7.000
402.301;  -74.100; -519.000; -397.000
402.428;   45.600;  528.000;  383.000
402.556; -137.975;-1188.000; -913.000
402.683;  -43.375;  -20.000;   -1.000
402.811;  -25.100;  -37.000; -206.000
402.938;  -18.050;   20.000;   27.000
403.066;  149.075; -574.000; -558.000
403.193;  252.025;  299.000;  239.000
403.321;  205.525; -396.000; -574.000
403.448;  256.975;   83.000;   27.000
403.575;  107.550;  -90.000;  -46.000
403.703; -108.025; -732.000; -557.000
403.830;  -62.650; -531.000; -496.000
403.957; -144.125;-1117.000;-1023.000
404.085;    4.275;  -61.000; -172.000
404.212;   96.050;  -50.000;   63.000
404.339;  262.750; -566.000; -306.000
404.467; 6085.525; -612.000; -524.000
404.594; 3732.375; -287.000; -227.000
404.721;  790.950; -869.000; -764.000
404.848;   57.575; -113.000; -202.000
404.976; -119.550; -856.000; -783.000
405.103;  -19.250;  -14.000;  -82.000
405.230;   -5.075;  190.000;  226.000
405.357;   17.325;  117.000;   44.000
405.484;  266.800;  -49.000;    5.000
405.612;   48.850; -548.000; -563.000
405.739;  -68.400; -488.000; -243.000
405.866;   79.600;  669.000;  385.000
405.993;  -66.350; -398.000; -102.000
406.120; -137.325; -801.000; -887.000
406.247;  -70.175; -323.000; -342.000
406.374;  347.325;  540.000;  629.000
406.501;   31.375; -632.000; -702.000
406.628;  -84.325; -621.000; -589.000
406.755;  -94.400; -803.000; -620.000
406.882;  -48.900; -228.000; -277.000
407.009; -119.525; -719.000; -628.000
407.136;   25.825; -480.000; -401.000
407.263;   44.925; -939.000; -829.000
407.390;  -94.225; -692.000; -614.000
407.517; -186.075;-1139.000;-1187.000
407.644;  -56.600; -332.000; -256.000
407.771; -147.200; -249.000; -287.000
407.898;    1.400;  168.000;  328.000
408.025;  -79.225; -421.000; -313.000
408.151;    0.025;   82.000;  153.000
408.278;  -89.575; -267.000; -216.000
408.405; -122.925; -931.000; -899.000
408.532;  -65.200; -549.000; -542.000
408.659; -122.450; -677.000; -648.000
408.785; -212.675;-1298.000;-1170.000
408.912;  -68.775; -412.000; -296.000
409.039; -120.850; -610.000; -686.000
409.166; -110.225; -591.000; -555.000
409.292; -113.925; -571.000; -534.000
409.419; -125.500; -665.000; -649.000
409.546;  -91.350; -431.000; -192.000
409.672; -102.125; -713.000; -545.000
409.799;  -40.125;  -36.000;   34.000
409.926;  -38.175; -180.000; -179.000
410.052; -182.650;-1127.000;-1091.000
410.179;  -80.450; -368.000; -392.000
410.305; -101.625; -375.000; -493.000
410.432;  -42.875; -220.000; -333.000
410.558; -102.900; -305.000; -380.000
410.685; -108.825; -688.000; -431.000
410.812; -101.150; -409.000; -588.000
410.938; -144.375; -964.000; -808.000
411.065; -108.250; -671.000; -645.000
411.191;  -26.600; -189.000; -174.000
411.317; -138.250; -823.000; -742.000
411.444;  -67.225; -317.000; -246.000
411.570;  -86.875; -339.000; -294.000
411.697; -138.625; -758.000; -752.000
411.823; -184.125; -989.000; -999.000
411.949;  -44.150;  -56.000;   17.000
412.076; -127.575; -539.000; -519.000
412.202; -121.300; -758.000; -757.000
412.329; -131.300; -798.000; -752.000
412.455; -121.400; -821.000; -657.000
412.581;  -37.400;  -15.000;  172.000
412.707;  -78.325; -540.000; -457.000
412.834;    9.700;  156.000;  219.000
412.960;  -89.875; -785.000; -784.000
413.086; -111.175; -743.000; -701.000
413.212;  132.275;  604.000;  578.000
413.339;  -84.825; -685.000; -701.000
413.465;  -19.100; -364.000; -310.000
413.591; -104.450; -757.000; -474.000
413.717;  -68.925; -358.000; -366.000
413.843; -153.250; -839.000; -861.000
413.969;  -62.550;  -47.000; -292.000
414.096; -111.500; -679.000; -679.000
414.222;   -8.275;  -33.000;   85.000
414.348;  -63.700; -652.000; -385.000
414.474;   49.825;   38.000;  -52.000
414.600;  -28.225; -126.000; -144.000
414.726;  -13.525;  -96.000;  -55.000
414.852;  -65.975; -365.000; -342.000
414.978;   25.175;  104.000;  -18.000
415.104;   30.675;   38.000;   80.000
415.230;   14.275; -329.000; -330.000
415.356;   31.975; -409.000; -514.000
415.482;  195.625;   13.000;  -35.000
415.608;  274.625; -247.000; -323.000
415.734;  996.525;   67.000;   38.000
415.860;20641.425; -875.000; -767.000
415.986;14406.825; -685.000; -607.000
416.111; 1218.475; -798.000; -652.000
416.237;  254.925; -424.000; -571.000
416.363; 1206.000; -765.000; -733.000
416.489; 4354.800; -324.000; -251.000
416.615;  454.425; -707.000; -742.000
416.741;  -18.100; -677.000; -784.000
416.866; -105.800; -673.000; -736.000
416.992; -124.125; -801.000; -818.000
417.118;  -41.825;  -41.000;  -80.000
417.244;  -65.125; -798.000; -531.000
417.369;  -97.125; -801.000; -612.000
417.495;  -30.675; -325.000; -254.000
417.621;  -99.275;-1015.000; -803.000
417.746;  -11.550; -579.000; -572.000
417.872;   37.975; -254.000; -144.000
417.998;   58.450; -515.000; -530.000
418.123; 1133.875;-1073.000; -845.000
418.249; 5611.050; -512.000; -601.000
418.374;  738.825; -916.000; -824.000
418.500;   99.650; -383.000; -482.000
418.626;  105.725;   70.000;  -59.000
418.751;  125.950; -549.000; -448.000
418.877;  195.575; -637.000; -643.000
419.002; 1933.600; -688.000; -560.000
419.128;13164.200; -930.000; -721.000
419.253; 3109.875; -967.000; -837.000
419.379;  417.625; -391.000; -338.000
419.504;  406.350;  325.000;  415.000
419.629;  541.475; -393.000; -212.000
419.755; 3886.350; -317.000; -254.000
419.880;22533.500;  -98.000;   67.000
420.006;12013.775; -280.000; -221.000
420.131;30434.725; -662.000; -775.000
420.256; 4210.150; -315.000; -316.000
420.382;  517.225; -665.000; -687.000
420.507;   43.825; -649.000; -778.000
420.632;   79.325; -337.000; -339.000
420.758;  156.975; -251.000; -425.000
420.883; -102.350; -876.000; -672.000
421.008; -115.375; -775.000; -619.000
421.133;  -85.750; -509.000; -467.000
421.259;  -46.025; -325.000; -259.000
421.384; -134.000; -834.000; -693.000
421.509;  -63.475;-1052.000; -862.000
421.634;  849.950; -936.000; -820.000
421.759;  346.975; -359.000; -327.000
421.885;  -75.475; -717.000; -656.000
422.010;  -85.350; -673.000; -542.000
422.135; -158.300; -695.000; -727.000
422.260;   39.000;  340.000;  280.000
422.385;  -54.025;   12.000;  -98.000
422.510;    3.575;  151.000;  -26.000
422.635;    3.525;  -87.000;  -43.000
422.760;   64.350; -766.000; -791.000
422.885;   45.200;  -57.000;  -80.000
423.010;  -47.200; -112.000; -169.000
423.135; -110.075; -481.000; -561.000
423.260;  -15.000; -150.000; -245.000
423.385;   51.150;  476.000;  222.000
423.510;   13.800;   71.000;  -22.000
423.635;   39.600;  133.000;   45.000
423.760;   58.300;  383.000;  328.000
423.885;   55.150;  336.000;  391.000
424.010;    7.775;  -68.000;  -13.000
424.135;  -25.850;    5.000;  -33.000
424.259;  -89.325; -654.000; -457.000
424.384;  -74.000; -279.000; -272.000
424.509;  -46.675; -260.000; -186.000
424.634; -115.975; -761.000; -623.000
424.759;  -43.250; -688.000; -544.000
424.883;  -12.650; -506.000; -527.000
425.008;  170.675; -502.000; -410.000
425.133; 2073.500; -679.000; -653.000
425.258;  954.375; -517.000; -381.000
425.382;  913.250; -867.000; -774.000
425.507; 2247.025; -487.000; -543.000
425.632;  388.450; -802.000; -663.000
425.756;  481.475; -256.000; -146.000
425.881; 7277.350; -831.000; -857.000
426.006;19050.650; -604.000; -355.000
426.130; 2827.475; -696.000; -508.000
426.255;  358.375; -611.000; -491.000
426.379;  149.775; -189.000; -577.000
426.504;  365.600;  660.000;  544.000
426.629; 4131.025; -519.000; -466.000
426.753; 2763.275;   64.000;  -46.000
426.878;  323.225; -252.000; -288.000
427.002;  172.725; -651.000; -668.000
427.127; 1671.600;  -35.000; -158.000
427.251;11898.675;  372.000;  401.000
427.375; 3243.675; -191.000; -173.000
427.500; 2024.650; -616.000; -610.000
427.624;  642.900; -234.000; -400.000
427.749;   64.350; -216.000; -225.000
427.873;  -54.025; -499.000; -412.000
427.997;  -56.875; -222.000; -230.000
428.122;   64.150;  795.000;  703.000
428.246;   62.125;  433.000;  434.000
428.371; -149.050; -869.000; -773.000
428.495; -114.525; -624.000; -646.000
428.619;  -34.850; -186.000; -117.000
428.743;   -0.300;   65.000;  132.000
428.868;   -4.625; -732.000; -643.000
428.992; 1217.725; -219.000; -326.000
429.116;  449.200; -329.000; -357.000
429.240;  213.275;  419.000;  426.000
429.365;  -45.075; -454.000; -574.000
429.489;  -60.150; -638.000; -647.000
429.613;    8.450; -236.000; -177.000
429.737;   34.050; -563.000; -432.000
429.861;  263.000; -247.000; -133.000
429.985; 5898.550; -425.000; -305.000
430.109; 6187.125; -770.000; -908.000
430.234;  700.550;   76.000;  -50.000
430.358;   51.550; -250.000; -160.000
430.482;  -76.425; -672.000; -564.000
430.606;  -74.050; -655.000; -375.000
430.730;  -14.525; -437.000; -388.000
430.854;   42.925; -909.000; -835.000
430.978;  -89.450; -795.000; -764.000
431.102;  -97.550; -499.000; -422.000
431.226; -127.825; -874.000; -815.000
431.350;    1.200;  345.000;  422.000
431.474;  -95.400; -661.000; -373.000
431.597; -163.125;-1060.000; -848.000
431.721;  -87.975; -276.000; -267.000
431.845; -136.375; -704.000; -472.000
431.969;  -72.750; -304.000; -349.000
432.093; -100.625; -395.000; -317.000
432.217;  -18.150;   32.000;   82.000
432.341; -108.050; -523.000; -518.000
432.464;   -6.575;   96.000;   40.000
432.588;  129.425; -401.000; -329.000
432.712;   61.600;  -52.000;  -52.000
432.836;   47.150;  213.000;  263.000
432.959;  -11.850; -372.000; -311.000
433.083;   97.575;   11.000;    2.000
433.207;  381.950;  285.000;  930.000
433.330; 5442.575; -391.000; -200.000
433.454; 6487.275; -654.000; -638.000
433.578; 3716.725;  583.000;  278.000
433.701;  642.750; -623.000; -675.000
433.825;   88.150; -292.000; -299.000
433.949;  108.750;   28.000;  -72.000
434.072;    6.825; -410.000; -323.000
434.196;  -21.300; -309.000; -117.000
434.319; 3770.025;25482.000;25124.000
434.443;  734.225; -656.000; -603.000
434.566; 2758.500;  281.000;   62.000
434.690;  423.625; -637.000; -383.000
434.813;   54.025; -251.000; -173.000
434.937;  -81.575; -569.000; -696.000
435.060;  -54.725; -423.000; -332.000
435.184;  166.200; -492.000; -217.000
435.307;   98.100;  159.000;  102.000
435.431;  -34.000;  -40.000;   24.000
435.554;  -86.550; -399.000; -240.000
435.677; -101.625; -350.000; -258.000
435.801;  -55.400;  -25.000;   49.000
435.924;  -22.900;    1.000;  -67.000
436.048; -134.200;-1019.000; -732.000
436.171;  -85.000; -240.000;  -66.000
436.294;  -38.750; -248.000; -229.000
436.417;   91.675; -963.000; -849.000
436.541;  -95.150; -814.000; -840.000
436.664;  -45.675; -242.000; -316.000
436.787;  -42.750;   13.000;  113.000
436.910; -127.400; -792.000; -422.000
437.034;    1.950;  142.000;  143.000
437.157;   34.300;  -11.000;    0.000
437.280;  -83.075; -392.000; -292.000
437.403; -114.250; -982.000; -869.000
437.526;  407.025; -903.000; -865.000
437.649; 1639.325; -505.000; -332.000
437.772;  185.275; -692.000; -540.000
437.896;  109.125;  700.000;  544.000
438.019; -126.000; -758.000; -503.000
438.142; -106.275; -596.000; -506.000
438.265;  -50.925; -639.000; -670.000
438.388;  410.975; -520.000; -410.000
438.511;   25.425; -597.000; -394.000
438.634;  -56.050; -247.000; -125.000
438.757; -135.650; -693.000; -619.000
438.880;  -30.650;  -34.000;  -57.000
439.003; -100.725; -417.000; -437.000
439.126;  -68.875; -287.000; -167.000
439.248;  -67.975;  -98.000; -139.000
439.371;  -44.975;    9.000;  -53.000
439.494;   13.300;  510.000;  439.000
439.617;  -51.250;   65.000;  -88.000
439.740; -199.100; -968.000; -816.000
439.863; -149.450; -755.000; -595.000
439.986; -130.200; -476.000; -431.000
440.108;  -58.000; -161.000; -112.000
440.231; -184.100; -950.000; -836.000
440.354;  -41.900;  -64.000; -150.000
440.477;  -20.550; -566.000; -542.000
440.599;  -27.200; -200.000; -225.000
440.722; -128.000; -709.000; -586.000
440.845;   70.850;  751.000;  928.000
440.968; -122.925; -415.000; -311.000
441.090;  -70.225; -199.000;  -33.000
441.213; -177.325;-1021.000; -825.000
441.336;  -58.075; -159.000;   -5.000
441.458;  -99.200; -549.000; -396.000
441.581; -112.125; -628.000; -629.000
441.703;  -74.100; -152.000;   13.000
441.826; -120.375; -557.000; -400.000
441.948;  -49.500;   56.000;   51.000
442.071;   20.000;  555.000;  424.000
442.193; -131.000; -531.000; -485.000
442.316;    7.875;  152.000;   97.000
442.438;   24.550; -233.000;  -10.000
442.561;   69.650;  272.000;  262.000
442.683;  362.825; -809.000; -522.000
442.806;  842.750;   -8.000;   74.000
442.928;  -29.075; -859.000; -604.000
443.051;  -75.950; -577.000; -373.000
443.173; -107.225; -341.000; -339.000
443.295;  -90.700; -263.000; -371.000
443.418;  -79.725; -321.000;  -29.000
443.540;  -20.750; -106.000;   -4.000
443.662; -126.200; -563.000; -465.000
443.785;  -22.075;  335.000;  199.000
443.907; -115.200; -362.000; -208.000
444.029; -125.150; -767.000; -494.000
444.152; -153.200; -644.000; -554.000
444.274;  -34.900;  -18.000;  -24.000
444.396; -121.350; -461.000; -221.000
444.518; -130.775; -691.000; -454.000
444.640; -118.000; -268.000; -111.000
444.763;  -20.350;  388.000;  249.000
444.885; -122.550; -432.000; -392.000
445.007;  -35.075;   35.000;   86.000
445.129; -118.075; -610.000; -515.000
445.251; -115.650; -372.000; -439.000
445.373; -139.575; -537.000; -386.000
445.495;   -3.900;  242.000;  350.000
445.617;   60.800;  853.000;  753.000
445.739;  -77.225; -215.000;  -97.000
445.861;  -61.500; -245.000; -112.000
445.984;  -48.875; -267.000; -101.000
446.105;  117.450; -418.000; -251.000
446.227;  464.475; -176.000;  -19.000
446.349;  -38.475; -358.000; -249.000
446.471; -112.250; -615.000; -448.000
446.593;  -83.325; -316.000;   19.000
446.715;  -14.850;  -67.000;   41.000
446.837;   59.550;  697.000;  832.000
446.959; -109.350; -457.000; -478.000
447.081; -146.325; -628.000; -518.000
447.203;   47.375;  862.000;  834.000
447.325;  -92.675; -270.000;   42.000
447.446;   -8.400;  286.000;  530.000
447.568; -178.600; -921.000; -803.000
447.690;  -84.875; -236.000; -245.000
447.812; -135.000; -798.000; -519.000
447.933;  -33.150;  155.000;  127.000
448.055;  -78.875; -306.000; -261.000
448.177;   98.875;   31.000;   79.000
448.299;   16.775; -935.000; -727.000
448.420;    7.700;  -25.000;  159.000
448.542;  -46.425;   -3.000;   33.000
448.664;  -29.175;  109.000;  322.000
448.785;  -33.700;  265.000;   83.000
448.907;  -86.325; -614.000; -353.000
449.028;  -67.475; -771.000; -471.000
449.150;   64.000;  492.000;  589.000
449.272; -199.225;-1044.000; -913.000
449.393;   25.325;  612.000;  694.000
449.515; -135.875; -634.000; -581.000
449.636;  -68.725; -264.000; -155.000
449.758;   63.550;  763.000;  622.000
449.879;  -91.125; -498.000; -396.000
450.001;  -77.000; -149.000;  -49.000
450.122;  -23.375;  -95.000;  162.000
450.244;  -11.500;   37.000;  364.000
450.365;  -91.150; -495.000; -301.000
450.486;  -42.875;   80.000;  268.000
450.608;   15.250;  393.000;  326.000
450.729;   71.525;  578.000;  645.000
450.850;   11.825; -574.000; -466.000
450.972;  822.150; -552.000; -389.000
451.093; 5328.475;  190.000;  588.000
451.214; 2206.475; -516.000; -337.000
451.336;  427.300;  773.000;  579.000
451.457;   53.275;  264.000;  393.000
451.578;  -42.600; -118.000;  -74.000
451.699; -115.925; -546.000; -540.000
451.821;  -65.900; -284.000;  -50.000
451.942;  -16.675;  278.000;  285.000
452.063;   27.850;  228.000;  419.000
452.184;  589.900;  -54.000;  -49.000
452.305; 1125.700;  103.000;  170.000
452.427;  124.750; -549.000; -301.000
452.548;  -39.050;   23.000;   79.000
452.669;  -62.150; -257.000;  -89.000
452.790;  -51.175;    3.000;  -18.000
452.911;  -13.800;  195.000;  259.000
453.032;  -78.050; -289.000;  -60.000
453.153;  -29.575;  -29.000;   81.000
453.274;   58.200;  737.000;  868.000
453.395;  -60.550;  -51.000;  175.000
453.516;  106.900; 1317.000; 1388.000
453.637;  -76.875; -205.000; -150.000
453.758;  -64.950;   15.000;   69.000
453.879; -123.375; -462.000; -250.000
454.000;   68.350; 1086.000;  948.000
454.121; -135.475; -554.000; -326.000
454.242; -121.625; -599.000; -383.000
454.362;  -60.050;  -99.000;  114.000
454.483;  -59.675; -309.000; -229.000
454.604;   39.600;  512.000;  580.000
454.725; -134.175; -627.000; -555.000
454.846; -153.225; -474.000; -406.000
454.967;  -32.175;  230.000;  539.000
455.087;  -47.175;  179.000;  153.000
455.208;   23.900;  554.000;  856.000
455.329;  -69.975;  -22.000;   82.000
455.450;   40.925;  473.000;  633.000
455.570;  -76.425; -234.000; -211.000
455.691;  -40.100;  201.000;  407.000
455.812; -112.625; -270.000;  -92.000
455.932;  -71.750;  107.000;  -97.000
456.053;  -92.425;   36.000;   24.000
456.173; -110.175; -433.000; -355.000
456.294; -142.750; -476.000; -303.000
456.415;  -65.450;  -73.000;   70.000
456.535;  -42.050;  297.000;  273.000
456.656;  -50.975;  132.000;  240.000
456.776;  -87.750;    3.000;  298.000
456.897;  -10.350;  308.000;  513.000
457.017;  -80.225; -153.000;   -3.000
457.138; -117.850; -402.000; -249.000
457.258;  -37.200;  263.000;  224.000
457.379;  -21.775;  509.000;  521.000
457.499;  -39.775;  443.000;  432.000
457.620; -113.375; -407.000; -231.000
457.740;  -99.825; -132.000;  -11.000
457.860;  -60.075;   87.000;   44.000
457.981;  -63.525;  132.000;  124.000
458.101;  -77.500;  -89.000;   40.000
458.221;   -8.450;  336.000;  402.000
458.342;  -60.625;   -4.000;  -37.000
458.462;   21.125;  617.000;  352.000
458.582;  -34.375; -302.000; -294.000
458.703;   19.300;  303.000;  154.000
458.823;  -21.200;   22.000;  163.000
458.943;    7.375;  341.000;  467.000
459.063;  -20.675; 1124.000;  192.000
459.183;  -37.750;  328.000;  313.000
459.304;   -7.425;  315.000;  517.000
459.424;  -64.125; -246.000;  -89.000
459.544;  356.900;  388.000;  764.000
459.664;  869.825;  499.000;  506.000
459.784;  305.750; 1004.000; 1175.000
459.904;   46.275;  867.000;  744.000
460.024;   67.900;  867.000;  684.000
460.144;   -4.550;  449.000;  554.000
460.264;  -16.275;  515.000;  327.000
460.385; -102.375; -145.000; -119.000
460.505;   28.250;  905.000;  858.000
460.625; -109.625;  -17.000;  -68.000
460.745;  -26.325;  396.000;  541.000
460.864;  -55.400;  153.000;  469.000
460.984;    8.900;  499.000;  573.000
461.104;  131.650; 1656.000; 1775.000
461.224;   10.875;  657.000;  650.000
461.344;  -37.500;  431.000;  360.000
461.464;  -32.425;  258.000;  513.000
461.584;  -25.275;  283.000;  466.000
461.704;  -55.325;   58.000;  108.000
461.824;  -59.725;  238.000;  259.000
461.943;  -48.950;  191.000;  130.000
462.063;  -77.275;    2.000;  324.000
462.183;   12.150;  639.000;  717.000
462.303;   91.175; 1678.000; 1230.000
462.422;   21.425;  781.000;  840.000
462.542;  -51.150;  271.000;  391.000
462.662;   32.725;  353.000;  380.000
462.782;  245.425;  833.000;  572.000
462.901;  494.800;  545.000;  717.000
463.021;  272.500; 1702.000; 1638.000
463.141;   -3.950;  337.000;  770.000
463.260;  -22.975;  614.000;  474.000
463.380;   -3.850;  902.000;  884.000
463.499;  -42.125;  342.000;  332.000
463.619;  -17.475;  581.000;  559.000
463.738;   95.000; 1644.000;  903.000
463.858;   12.525;  657.000;  811.000
463.978;  -28.175;  542.000;  396.000
464.097;   57.725;  921.000; 1114.000
464.217;  106.975; 1196.000; 1143.000
464.336;  121.175; 1068.000; 1130.000
464.455;  -43.525;  328.000;  659.000
464.575;   30.775;  597.000;  602.000
464.694;  153.875; 1204.000; 1179.000
464.814;  126.325; 1190.000; 1138.000
464.933;   60.950; 1095.000; 1027.000
465.052;   84.150; 1412.000; 1054.000
465.172;   56.425;  922.000;  799.000
465.291;  122.350; 1376.000; 1320.000
465.410;   18.075;  462.000;  735.000
465.530;   82.800; 1355.000; 1310.000
465.649;   56.500; 1209.000; 1273.000
465.768;  120.475; 1673.000; 1508.000
465.888;   26.900;  941.000; 1174.000
466.007;   80.200; 1335.000; 1440.000
466.126;  -13.350;  721.000;  641.000
466.245;   33.550; 1176.000; 1187.000
466.364;   10.725;  950.000; 1060.000
466.484;   47.350; 1024.000; 1213.000
466.603;   27.375; 1101.000; 1222.000
466.722;  115.425; 1490.000; 1769.000
466.841;   52.825; 1151.000; 1401.000
466.960;   43.900; 1069.000;  972.000
467.079;  121.125; 1971.000; 1786.000
467.198;   45.400; 1238.000; 1181.000
467.317;   85.325; 1768.000; 1162.000
467.436;   73.250; 1709.000; 1261.000
467.555;  104.250; 1796.000; 1746.000
467.674;   82.625; 1227.000; 1329.000
467.793;   41.175; 1376.000; 1374.000
467.912;   81.200; 1658.000; 1539.000
468.031;  130.950; 2038.000; 1930.000
468.150;  145.725; 1842.000; 1837.000
468.269;  184.375; 2313.000; 2090.000
468.388;  188.350; 2168.000; 2339.000
468.507;  249.925; 2884.000; 2903.000
468.626;  233.250; 2555.000; 2541.000
468.744;  141.550; 2018.000; 2174.000
468.863;  180.850; 2312.000; 2523.000
468.982;   89.050; 1503.000; 1555.000
469.101;  209.550; 2788.000; 2692.000
469.220;  142.900; 2333.000; 2176.000
469.338;  256.400; 2935.000; 3051.000
469.457;  189.300; 2719.000; 2545.000
469.576;  366.825; 3953.000; 3784.000
469.695;  239.425; 2877.000; 3066.000
469.813;  422.525; 4148.000; 4192.000
469.932;  411.200; 4255.000; 4485.000
470.051;  418.675; 4075.000; 4161.000
470.169;  889.975; 4470.000; 4338.000
470.288; 1531.650; 4700.000; 4809.000
470.406;  877.400; 5059.000; 5194.000
470.525;  637.050; 6101.000; 5787.000
470.644;  636.850; 6847.000; 6794.000
470.762;  803.500; 8397.000; 7873.000
470.881;  926.300; 8651.000; 8464.000
470.999; 1041.350; 9685.000; 9151.000
471.118; 1113.775;11174.000;10711.000

