
Integration time [ms]: 100.000
Averaging Nr. [scans]: 40
Smoothing Nr. [pixels]: 0
Data measured with spectrometer [name]: 2101012U2
Wave   ;Sample   ;Dark     ;Reference
[nm]   ;[counts] ;[counts] ;[counts] 

197.733;   60.725;  516.000;  404.000
197.879;  -94.025; -610.000; -634.000
198.025;  -45.625; -475.000; -420.000
198.171;  -65.075; -602.000; -612.000
198.317;  -22.175; -401.000; -316.000
198.463;  -56.700; -655.000; -404.000
198.609;   18.825;  181.000; -137.000
198.755;  -77.475; -644.000; -410.000
198.901;  -67.900; -505.000; -424.000
199.047;  -58.800; -615.000; -488.000
199.193;  -36.275; -230.000; -468.000
199.339;  -31.575; -222.000; -369.000
199.485;   36.575;  330.000;  271.000
199.631;   17.500;  227.000;  310.000
199.777;  -44.075; -466.000; -398.000
199.923;  -66.325; -610.000; -424.000
200.069;    8.000; -141.000;  -58.000
200.215;   58.150;  128.000;  453.000
200.361;   47.950;  243.000;  477.000
200.507;  -60.900; -600.000; -373.000
200.653;  -23.175; -371.000; -194.000
200.798;  -44.150; -215.000; -125.000
200.944;  -12.700; -146.000;  -41.000
201.090;   42.850;   61.000;  222.000
201.236;   -6.000; -116.000; -158.000
201.382;  120.350;  874.000;  903.000
201.528;    8.100;  -58.000;  -48.000
201.674;  -54.175; -386.000; -293.000
201.819;  -55.100; -540.000; -439.000
201.965;  -84.400; -699.000; -447.000
202.111;  -18.500; -273.000; -226.000
202.257;  -27.475; -250.000; -238.000
202.402;    2.150;   13.000;  -36.000
202.548;  -35.025; -169.000; -116.000
202.694;   87.025;  410.000; -183.000
202.840;  -76.325; -603.000; -531.000
202.985;  -71.250; -681.000; -639.000
203.131; -104.100; -832.000; -666.000
203.277;  -19.850; -199.000; -262.000
203.423;  -50.225; -434.000; -520.000
203.568;  -32.375; -462.000; -237.000
203.714;  -66.800; -535.000; -542.000
203.860;  -69.025; -682.000; -641.000
204.005;   11.650;  112.000;  167.000
204.151;   75.700;  561.000;  556.000
204.296;  -54.175; -354.000; -221.000
204.442;  -73.650; -600.000; -547.000
204.588;  -71.850; -592.000; -579.000
204.733;    9.500;  178.000;  168.000
204.879; -136.475;-1018.000; -822.000
205.025;   11.050;  -99.000;  126.000
205.170;    3.900;  -17.000;   94.000
205.316;   81.025;  438.000;  661.000
205.461;  -80.125; -698.000; -554.000
205.607;   88.550;  609.000;  665.000
205.752;  -72.625; -626.000; -551.000
205.898;  -46.600; -501.000; -391.000
206.043;  -57.975; -578.000; -506.000
206.189;  -27.525; -243.000; -285.000
206.334;   68.725;  554.000;  606.000
206.480;   84.925;  409.000;  239.000
206.625;  -92.225; -529.000; -552.000
206.771;  -52.025; -451.000; -373.000
206.916;  -28.650; -210.000; -537.000
207.062;  -65.450; -545.000; -591.000
207.207;  -64.825; -546.000; -443.000
207.353;   47.550;  185.000;  460.000
207.498;   17.000;  196.000;   85.000
207.643;  -48.650; -501.000; -370.000
207.789; -130.400;-1069.000; -910.000
207.934;  -88.175; -665.000; -713.000
208.080;  -34.075; -154.000;   66.000
208.225;   -5.000;  -22.000;  -57.000
208.370;  -82.350; -727.000; -619.000
208.516;  -63.350; -741.000; -487.000
208.661;  -32.725; -127.000;  -69.000
208.806;  -13.900; -165.000; -171.000
208.952; -130.900;-1044.000; -731.000
209.097;   84.075;  378.000;  349.000
209.242;  -44.075; -307.000; -382.000
209.387;   59.250;  392.000;  350.000
209.533;  -57.025; -321.000; -350.000
209.678;   93.600;  472.000;  543.000
209.823;  -62.900; -408.000; -310.000
209.969;  -83.350; -860.000; -757.000
210.114; -110.925; -907.000; -719.000
210.259; -103.625; -939.000; -889.000
210.404;  -10.350; -171.000;  103.000
210.549;   11.250;  108.000;    3.000
210.695;  -11.800;   -3.000;  -95.000
210.840;   30.175;   94.000;   67.000
210.985;  -59.050; -484.000; -303.000
211.130;   66.125;  268.000;  406.000
211.275;   11.525;  207.000;  199.000
211.420;  -47.250; -300.000; -289.000
211.566;  -73.025; -536.000; -489.000
211.711;   31.175;  218.000;  157.000
211.856;  -67.225; -545.000; -519.000
212.001;   17.950;  151.000;   44.000
212.146;   20.100;  153.000;   49.000
212.291;  -13.900; -210.000; -186.000
212.436;  -27.925; -280.000;   -6.000
212.581;  -82.550; -685.000; -653.000
212.726;  -83.100; -487.000; -538.000
212.871;  -48.625; -552.000; -217.000
213.016; -151.450;-1172.000;-1029.000
213.161;   67.425;  406.000;  291.000
213.306;  -80.425; -435.000; -577.000
213.451; -102.575; -778.000; -689.000
213.596;  -40.750; -455.000; -347.000
213.741;  -45.675; -448.000; -538.000
213.886;  -72.775; -498.000; -517.000
214.031;  -19.025; -294.000; -124.000
214.176;  -46.650; -408.000; -341.000
214.321;  -19.425; -296.000; -157.000
214.466;  -18.550; -163.000;  -43.000
214.611;    3.400;  -61.000;  -10.000
214.756; -119.750; -948.000; -858.000
214.901;  -17.600; -388.000; -226.000
215.046; -120.325; -797.000; -825.000
215.191;   27.775;  128.000;   35.000
215.336;  -24.375; -157.000;  -19.000
215.480;  -71.275; -684.000; -505.000
215.625;  -22.925; -175.000;  -19.000
215.770;  -81.850; -757.000; -662.000
215.915;   -1.300;   -5.000;  -97.000
216.060;   -4.950; -113.000;  -21.000
216.205; -111.300; -731.000; -779.000
216.349;  -59.325; -470.000; -533.000
216.494; -128.250; -939.000; -867.000
216.639; -111.675; -823.000; -888.000
216.784;  -82.925; -577.000; -525.000
216.929;   49.300;  392.000;  281.000
217.073;  -13.850; -244.000;  -31.000
217.218;    1.375;   78.000;  -47.000
217.363;  -83.925; -656.000; -618.000
217.507;  -82.000; -623.000; -588.000
217.652; -132.125; -845.000; -874.000
217.797;  -77.000; -708.000; -659.000
217.942; -123.925; -856.000; -720.000
218.086;   81.000;  608.000;  539.000
218.231;   -2.425; -174.000;  -26.000
218.376;  -48.525; -337.000; -229.000
218.520;   -6.075;  -41.000;   96.000
218.665;  -19.150; -338.000; -204.000
218.810;  -51.400; -275.000; -233.000
218.954;   26.475;  201.000;   35.000
219.099; -105.525; -713.000; -963.000
219.243;  -53.025; -589.000; -554.000
219.388;  -38.850; -264.000; -136.000
219.532;   -1.525; -116.000; -116.000
219.677;  -75.550; -564.000; -521.000
219.822;    1.775;   33.000;   89.000
219.966;  -12.850;   17.000;  -99.000
220.111;  -15.050; -328.000;  -40.000
220.255;  -84.325; -797.000; -750.000
220.400;  -17.150; -180.000; -146.000
220.544;  -65.075; -516.000; -450.000
220.689;  -50.000; -422.000; -451.000
220.833;  -20.600; -123.000;  -58.000
220.978;  -49.525; -393.000; -563.000
221.122;    8.075;  319.000;  307.000
221.267; -106.275; -906.000; -837.000
221.411;  -76.425; -478.000; -394.000
221.555;    5.850; -104.000;  -23.000
221.700;  -49.175; -329.000; -222.000
221.844;   22.825;  255.000;  272.000
221.989;  -49.725; -328.000; -311.000
222.133;  -40.900; -289.000; -307.000
222.277;  -14.175;    5.000;   78.000
222.422;   24.175;  227.000;  113.000
222.566;  -32.525; -381.000; -214.000
222.711;  -45.400; -414.000; -479.000
222.855;  -75.425; -643.000; -586.000
222.999;  -71.225; -642.000; -717.000
223.144;  -41.275; -195.000; -194.000
223.288;   54.400;  423.000;  251.000
223.432;   25.550;  184.000;  230.000
223.576;   15.350;  152.000;  -21.000
223.721;   39.175;  364.000;  273.000
223.865;  -56.725; -472.000; -475.000
224.009;  210.800; 1673.000; 1631.000
224.153;  -72.800; -660.000; -671.000
224.298;  -77.175; -531.000; -489.000
224.442;  -10.325;  -74.000;  -33.000
224.586;   -5.000; -169.000; -106.000
224.730;  -89.625; -858.000; -670.000
224.875; -110.000; -739.000; -688.000
225.019;   16.550;  102.000;  188.000
225.163;   45.975;  208.000;  341.000
225.307;   19.975;   97.000;  -91.000
225.451;   42.000;  360.000;  481.000
225.595;   37.100;  264.000;  176.000
225.739;  -11.075; -170.000;  -94.000
225.884;   10.075;   86.000;    5.000
226.028; -101.050; -760.000; -626.000
226.172;  -21.200; -260.000; -273.000
226.316; -118.075; -941.000; -902.000
226.460;  -64.775; -645.000; -493.000
226.604;  -53.875; -406.000; -400.000
226.748;  -98.475; -836.000; -733.000
226.892;  -36.075; -227.000; -181.000
227.036;  -41.425; -537.000; -447.000
227.180;  -65.300; -551.000; -375.000
227.324;  -62.775; -561.000; -580.000
227.468; -122.200; -819.000; -717.000
227.612;   10.025;  242.000;  -28.000
227.756; -105.000; -845.000; -698.000
227.900;   50.600;  342.000;  441.000
228.044;  -65.025; -509.000; -290.000
228.188;   55.050;  448.000;  568.000
228.332;  -82.900; -546.000; -472.000
228.476;  -20.925; -223.000; -149.000
228.620;  -16.700; -210.000; -150.000
228.764;   68.075;  431.000;  349.000
228.908;  -34.450; -155.000;   30.000
229.052;  -60.225; -615.000; -528.000
229.195;  -20.800; -172.000;   13.000
229.339;  -24.825; -235.000; -305.000
229.483;  -23.750;    5.000; -162.000
229.627;    4.475; -156.000;  139.000
229.771;  -40.575; -218.000; -294.000
229.915;    8.550;  230.000;   79.000
230.059; -100.400; -648.000; -663.000
230.202;  -40.650; -370.000; -317.000
230.346;  -10.525; -107.000;  107.000
230.490;  -66.700; -489.000; -521.000
230.634; -124.675; -736.000; -553.000
230.777;   77.275;  478.000;  509.000
230.921;  -65.325; -450.000; -359.000
231.065;  -38.950; -246.000; -286.000
231.209;   14.700;  261.000;  265.000
231.352;   22.650;   54.000;   40.000
231.496;   28.900;  568.000;  188.000
231.640;  -75.200; -693.000; -621.000
231.783;   69.200;  546.000;  525.000
231.927;  -40.925; -294.000; -365.000
232.071; -128.025; -962.000; -736.000
232.214; -112.175; -980.000; -764.000
232.358; -102.225; -683.000; -599.000
232.502;   -2.075;  -19.000;    7.000
232.645; -135.375;-1090.000; -927.000
232.789;  -19.725; -257.000; -218.000
232.933;  -41.450; -407.000; -224.000
233.076; -119.850;-1038.000; -897.000
233.220; -114.525; -752.000; -777.000
233.363;  -70.225; -669.000; -477.000
233.507;   46.075;  371.000;  129.000
233.650;  -85.000; -764.000; -834.000
233.794;   45.675;  438.000;  461.000
233.938;  -57.000; -530.000; -362.000
234.081;  -21.125;  -93.000;   31.000
234.225;  -69.275; -631.000; -539.000
234.368; -108.425; -773.000; -723.000
234.512;  -36.125; -385.000; -299.000
234.655;  -91.100; -582.000; -555.000
234.798;  -67.000; -493.000; -466.000
234.942; -133.150; -884.000;-1002.000
235.085;  -73.275; -651.000; -443.000
235.229;  -77.125; -405.000; -410.000
235.372;  -50.775; -247.000; -191.000
235.516;  -62.550; -397.000; -321.000
235.659;   19.650;   92.000;  121.000
235.802;  -22.700;  -38.000;  -22.000
235.946;   35.750;  335.000;  215.000
236.089;   23.275;  126.000;  250.000
236.233;   39.375;  275.000;  298.000
236.376;  -40.250; -235.000; -378.000
236.519;  -38.425; -297.000; -319.000
236.663;  -27.875; -215.000; -117.000
236.806; -126.875;-1029.000; -999.000
236.949;   68.700;  543.000;  431.000
237.092;   53.425;  412.000;  391.000
237.236;  -85.025; -589.000; -502.000
237.379;   60.650;  352.000;  428.000
237.522; -121.075; -879.000; -768.000
237.666;   -9.100; -271.000;   18.000
237.809; -121.675; -851.000; -823.000
237.952;   32.175;  469.000;  271.000
238.095;  -75.625; -447.000; -442.000
238.238;   79.425;  688.000;  700.000
238.382;   -0.525;  166.000;  103.000
238.525;  -70.175; -598.000; -511.000
238.668; -148.425;-1060.000; -985.000
238.811;  -74.975; -638.000; -643.000
238.954;  -56.575; -483.000; -334.000
239.097;   98.400;  617.000;  664.000
239.241;   24.475;  394.000;  326.000
239.384;  -27.725; -254.000; -214.000
239.527;  -59.400; -424.000; -224.000
239.670; -143.550; -994.000;-1091.000
239.813; -108.150; -696.000; -658.000
239.956;   78.625;  579.000;  473.000
240.099; -118.175; -778.000; -725.000
240.242;   70.350;  428.000;  432.000
240.385;   33.050;  466.000;  450.000
240.528;  -73.800; -706.000; -473.000
240.671;   26.750;  189.000;  134.000
240.814;  -47.975; -441.000; -158.000
240.957;  -79.275; -767.000; -578.000
241.100;  -84.700; -779.000; -755.000
241.243; -141.925;-1234.000; -893.000
241.386;  -57.200; -508.000; -379.000
241.529;  -98.800; -735.000; -547.000
241.672;  -62.500; -566.000; -495.000
241.815; -107.900; -832.000; -808.000
241.958;  -19.400; -125.000; -182.000
242.101;  -83.950; -545.000; -390.000
242.244;  -34.275; -270.000; -325.000
242.387;  -46.450; -304.000; -246.000
242.530;   57.600;  470.000;  134.000
242.673;  -40.500; -381.000; -309.000
242.815; -123.925; -925.000; -899.000
242.958;  -73.225; -482.000; -381.000
243.101;   13.425;  132.000;  187.000
243.244;  -71.525; -564.000; -521.000
243.387;  -43.850; -313.000; -316.000
243.530;  -88.075; -657.000; -674.000
243.672;   11.575;   43.000;  -92.000
243.815;  -46.500; -355.000; -283.000
243.958;    4.825;   98.000;  -26.000
244.101;   -0.125;   59.000;  -16.000
244.243;  -13.350;  -47.000;  101.000
244.386;  -96.350; -761.000; -630.000
244.529;  -18.175; -132.000; -139.000
244.672; -154.400;-1154.000; -951.000
244.814;  -84.375; -621.000; -794.000
244.957;  -37.900; -380.000; -304.000
245.100;  -73.850; -489.000; -489.000
245.242;  -56.400; -387.000; -374.000
245.385;   -9.225;  -59.000;  -39.000
245.528; -125.100; -871.000; -705.000
245.670;   81.850;  612.000;  634.000
245.813;  -84.925; -599.000; -547.000
245.956;  -31.325; -324.000; -275.000
246.098;  -69.125; -508.000; -650.000
246.241;   -8.975;  194.000;   48.000
246.383;  -14.850; -119.000;  -73.000
246.526;  -75.225; -454.000; -525.000
246.669; -129.550; -889.000; -780.000
246.811;   26.100;  172.000;   -1.000
246.954;  -71.300; -512.000; -426.000
247.096;  -22.050;  -84.000;   -6.000
247.239;  -87.850; -482.000; -445.000
247.381;  -65.150; -647.000; -488.000
247.524;   82.725;  645.000;  679.000
247.666;   -9.100;   58.000;   11.000
247.809; -116.350; -887.000; -691.000
247.951;   -5.525;  -75.000;  138.000
248.094;   12.025;  432.000;  308.000
248.236; -157.800;-1262.000;-1238.000
248.378;   11.925; -356.000;  -81.000
248.521;  -19.075; -334.000; -337.000
248.663;  -43.050; -236.000; -267.000
248.806;  -15.550; -300.000; -266.000
248.948;  -90.850; -886.000; -763.000
249.090;  -38.625; -428.000; -398.000
249.233;  -47.275; -344.000; -381.000
249.375;  -54.700; -474.000; -451.000
249.518;  -33.075;  -83.000; -133.000
249.660;  -12.800; -103.000;    3.000
249.802; -167.425;-1303.000;-1189.000
249.945;  -92.750; -612.000; -540.000
250.087; -121.875; -834.000; -768.000
250.229;  -51.200; -362.000; -480.000
250.371;  -68.850; -494.000; -439.000
250.514;  -52.950; -310.000; -244.000
250.656;   -9.425;   69.000;  102.000
250.798; -113.900; -849.000; -800.000
250.940;  -64.950; -322.000; -322.000
251.083;  -23.900; -335.000; -111.000
251.225;   59.375;  338.000;  310.000
251.367;  -31.900; -274.000; -373.000
251.509;  -43.700; -265.000; -210.000
251.651;  -93.000; -731.000; -671.000
251.794;   37.150;  538.000;  632.000
251.936; -102.275; -821.000; -747.000
252.078;  -68.625; -540.000; -461.000
252.220;  -63.475; -645.000; -477.000
252.362;   85.775;  344.000;  462.000
252.504;  -58.250; -677.000; -584.000
252.646; -115.000; -875.000; -722.000
252.788;    9.025;   14.000; -128.000
252.931;  -38.075; -257.000; -253.000
253.073;  -38.225; -376.000; -317.000
253.215;  -14.275;  141.000;  122.000
253.357;   -1.575;   82.000; -153.000
253.499;  -45.850; -374.000; -234.000
253.641; -103.675; -749.000; -594.000
253.783; -101.875; -609.000; -527.000
253.925;  -95.500; -586.000; -591.000
254.067;  -95.800; -744.000; -667.000
254.209;  -33.575; -391.000; -259.000
254.351; -141.225; -865.000; -883.000
254.493;  -55.650; -441.000; -417.000
254.635; -137.250; -936.000; -818.000
254.777;  -77.375; -752.000; -687.000
254.918;  -62.250; -512.000; -430.000
255.060;  -58.475; -551.000; -395.000
255.202;  -73.675; -473.000; -261.000
255.344;  -74.375; -658.000; -455.000
255.486;  -73.600; -471.000; -406.000
255.628; -100.275; -780.000; -781.000
255.770;  -89.425; -676.000; -536.000
255.912;  -63.750; -559.000; -468.000
256.053;  -91.625; -730.000; -508.000
256.195;  157.625; 1008.000;  903.000
256.337; -114.550; -861.000; -595.000
256.479;   68.850;  532.000;  416.000
256.621;  -40.775; -394.000; -212.000
256.762;  -93.050; -789.000; -742.000
256.904;   55.000;  485.000;  487.000
257.046;  -49.700; -381.000; -271.000
257.188;  -37.125; -351.000; -264.000
257.329;  -77.450; -525.000; -464.000
257.471; -113.525; -939.000; -807.000
257.613;  -68.950; -584.000; -498.000
257.755; -146.975;-1073.000; -982.000
257.896;   26.950;  286.000;  392.000
258.038;  -71.550; -403.000; -352.000
258.180;  -43.675; -354.000; -279.000
258.321;  -84.700; -581.000; -457.000
258.463;   -2.825;  -71.000;  133.000
258.605;  -90.725; -562.000; -570.000
258.746; -101.400; -886.000; -772.000
258.888; -153.650;-1026.000;-1020.000
259.029;   23.850;  121.000;   -8.000
259.171;  -96.450; -614.000; -550.000
259.313;   -5.000;  -49.000;  -47.000
259.454;  -59.100; -536.000; -414.000
259.596;  -52.775; -483.000; -390.000
259.737;  -78.300; -590.000; -474.000
259.879;   33.250;  217.000;  311.000
260.020;   86.700;  901.000;  636.000
260.162;  -24.675; -146.000; -253.000
260.303; -117.175; -768.000; -687.000
260.445;  -73.850; -609.000; -613.000
260.586;   21.925;  392.000;  157.000
260.728;  -44.225; -360.000; -248.000
260.869; -106.475; -350.000; -343.000
261.011;   73.775;  706.000;  537.000
261.152;  -60.550; -479.000; -319.000
261.293;  -82.800; -576.000; -595.000
261.435;  -27.000; -219.000; -184.000
261.576;  -67.875; -455.000; -325.000
261.718;   62.250;  420.000;  470.000
261.859; -133.950; -940.000; -949.000
262.000; -133.875; -951.000;-1016.000
262.142;   -5.475;  -52.000;  -60.000
262.283; -120.250; -808.000; -691.000
262.424;  -78.400; -666.000; -625.000
262.566; -160.000;-1161.000; -983.000
262.707; -110.275; -840.000; -830.000
262.848; -125.500; -769.000; -726.000
262.990;  -52.300; -362.000; -345.000
263.131;   69.475;  650.000;  681.000
263.272;  -10.575;  -61.000;  -41.000
263.413;  -82.725; -589.000; -561.000
263.555;  -65.100; -669.000; -143.000
263.696;  -98.950; -550.000; -641.000
263.837;  -58.800; -449.000; -551.000
263.978;  -15.775;   -5.000;  -77.000
264.119;  -40.650; -283.000; -264.000
264.261; -116.725; -847.000; -630.000
264.402;    0.825;   33.000;   40.000
264.543;  -75.775; -509.000; -524.000
264.684;  -14.525;   61.000;  -50.000
264.825;  -74.600; -816.000; -538.000
264.966;  -13.450;  -84.000;  -67.000
265.107; -111.150; -646.000; -670.000
265.248; -114.725; -825.000; -812.000
265.390;  -16.900;  152.000;   -9.000
265.531;  -17.175; -238.000; -107.000
265.672;  -98.575; -557.000; -630.000
265.813;   56.825;  563.000;  439.000
265.954; -153.450; -959.000; -940.000
266.095;   -4.400; -372.000; -322.000
266.236; -100.100; -686.000; -548.000
266.377;  -42.425; -243.000; -297.000
266.518;  -75.825; -619.000; -547.000
266.659;   26.975;  170.000;  268.000
266.800;   -3.825;   83.000;   85.000
266.941;  -72.325; -487.000; -478.000
267.082;   15.425;  354.000;   99.000
267.223;  -46.300; -344.000; -273.000
267.364; -126.775; -892.000; -686.000
267.504;   -8.050;    3.000;  135.000
267.645;  -17.575;  160.000;   67.000
267.786;  -28.900; -147.000;  -86.000
267.927;  -74.075; -473.000; -379.000
268.068;  -27.375; -186.000;  -61.000
268.209;  -50.125; -175.000; -413.000
268.350;  -60.225; -388.000; -532.000
268.490;  -88.100; -648.000; -521.000
268.631;   30.525;  127.000;  225.000
268.772; -107.300; -874.000; -647.000
268.913;  -39.975; -328.000; -476.000
269.054;  -14.025; -117.000;   12.000
269.194;  -50.625; -418.000; -402.000
269.335; -153.325;-1137.000;-1074.000
269.476;  -24.025;   33.000;  -35.000
269.617;  -52.275; -347.000; -392.000
269.757;  -87.775; -713.000; -646.000
269.898; -104.600; -856.000; -613.000
270.039;  -71.200; -415.000; -405.000
270.180; -148.600; -952.000; -816.000
270.320;  -20.125; -190.000; -250.000
270.461;  -49.200; -277.000; -249.000
270.602;  -20.975; -186.000; -156.000
270.742; -115.425; -868.000; -943.000
270.883;  -51.375; -442.000; -390.000
271.023;  -57.375; -358.000; -357.000
271.164;  -68.650; -607.000; -528.000
271.305;  -87.925; -666.000; -654.000
271.445;  -90.950; -722.000; -683.000
271.586;  -64.925; -462.000; -283.000
271.726;  -48.400; -397.000; -322.000
271.867;  -47.075; -594.000; -534.000
272.008;  219.525; -473.000; -285.000
272.148;  131.200;  462.000;  468.000
272.289;    8.025; -113.000; -181.000
272.429;    8.900;   19.000;  185.000
272.570;  -80.250; -633.000; -737.000
272.710;  -92.900; -825.000; -775.000
272.851;  -24.300;  113.000; -130.000
272.991; -166.175;-1173.000;-1077.000
273.131;  -53.625; -419.000; -459.000
273.272;  -92.675; -683.000; -723.000
273.412;    9.525; -143.000;  -31.000
273.553;  -59.750; -488.000; -507.000
273.693;  131.325;  913.000;  858.000
273.834;  -87.550; -894.000; -692.000
273.974;  -73.675; -664.000; -615.000
274.114; -107.700; -772.000; -560.000
274.255;   98.175;  414.000;  373.000
274.395;    3.950; -180.000; -125.000
274.535;   48.225;  199.000;  350.000
274.676;   12.875;  225.000;   94.000
274.816;    9.275;  110.000;   34.000
274.956;  -84.175; -624.000; -690.000
275.097;  -56.400;-1014.000; -922.000
275.237; -110.400; -913.000; -803.000
275.377;  -96.750; -778.000; -689.000
275.517; -150.075; -878.000; -937.000
275.658;  -58.450; -590.000; -555.000
275.798;  -57.275; -606.000; -413.000
275.938;   18.100;  215.000;  323.000
276.078; -108.675; -626.000; -395.000
276.218;    3.125;   99.000;  104.000
276.359; -120.075;-1026.000;-1024.000
276.499;  -65.550; -605.000; -446.000
276.639;  -38.425; -305.000; -151.000
276.779;  -50.000; -475.000; -357.000
276.919; -111.075; -783.000; -624.000
277.059;  -16.025; -261.000; -212.000
277.199;  -44.325; -357.000; -259.000
277.340;   58.825;  287.000;  175.000
277.480; -104.025; -840.000; -693.000
277.620;   25.075;  192.000;   16.000
277.760; -200.150;-1533.000;-1294.000
277.900;   17.175;  113.000;   33.000
278.040;   23.550;  137.000;  159.000
278.180;   35.725;  270.000;  170.000
278.320;   -7.375;   21.000;   56.000
278.460;  -67.975; -443.000; -469.000
278.600;  -91.325; -708.000; -598.000
278.740;   48.200;  448.000;  224.000
278.880;  -53.225; -768.000; -791.000
279.020;   -3.125; -194.000; -144.000
279.160;  -95.175; -672.000; -595.000
279.300; -114.700; -926.000; -873.000
279.440;  -85.375; -709.000; -622.000
279.579;   -2.825;-1014.000; -929.000
279.719;  -35.500; -410.000; -394.000
279.859;   92.075;   -4.000;   41.000
279.999;   40.925; -208.000;  101.000
280.139;    0.300; -435.000; -387.000
280.279;  -77.425; -708.000; -745.000
280.419;  -10.150; -229.000; -147.000
280.559;  -40.900; -259.000; -180.000
280.698;  -85.700; -790.000; -639.000
280.838;  -90.775; -778.000; -800.000
280.978; -100.400; -846.000; -790.000
281.118; -112.775; -811.000; -704.000
281.257;   -1.075;   24.000;    6.000
281.397;  -94.300;-1094.000; -960.000
281.537;  -85.975; -599.000; -712.000
281.677;  -34.750; -150.000; -101.000
281.816; -100.025; -700.000; -630.000
281.956;  -26.700; -193.000; -257.000
282.096;  -68.500; -539.000; -396.000
282.235; -105.475; -672.000; -638.000
282.375;  -24.225; -243.000;  -98.000
282.515; -109.800; -715.000; -707.000
282.654;   34.600;   29.000;  106.000
282.794;   22.950;  388.000;  244.000
282.934;  -60.400; -530.000; -491.000
283.073; -137.600;-1030.000; -857.000
283.213;  -52.500; -460.000; -467.000
283.353;  -38.650; -408.000; -349.000
283.492;  -29.675; -264.000; -296.000
283.632;  -64.650; -254.000; -168.000
283.771;  -88.225; -859.000; -730.000
283.911;  -50.375; -369.000; -260.000
284.050; -106.600; -794.000; -748.000
284.190; -151.525;-1229.000;-1096.000
284.329; -144.200;-1055.000; -964.000
284.469;  -70.600; -516.000; -591.000
284.608;  -56.600; -559.000; -598.000
284.748;  -81.825; -614.000; -570.000
284.887;   11.325;  -87.000;  -20.000
285.027; -127.525; -844.000; -892.000
285.166;  -29.750; -192.000; -249.000
285.306;   17.150; -116.000;  -33.000
285.445;  -34.425; -229.000; -343.000
285.584;  -98.600; -630.000; -494.000
285.724;  -40.625; -282.000; -322.000
285.863; -113.525; -857.000; -507.000
286.002;  -43.150; -366.000; -276.000
286.142; -109.600; -715.000; -622.000
286.281;  -74.800; -525.000; -493.000
286.420;  -88.550; -554.000; -417.000
286.560;   88.175;  653.000;  623.000
286.699; -146.100; -958.000; -912.000
286.838;  -76.525; -590.000; -591.000
286.978;  -91.850; -533.000; -537.000
287.117; -128.950;-1085.000; -950.000
287.256;  -33.850; -228.000; -211.000
287.395;  -41.725; -197.000; -378.000
287.535;  -50.000; -370.000; -298.000
287.674;  -81.075; -509.000; -484.000
287.813;   48.125;  661.000;  533.000
287.952; -118.075;-1010.000; -871.000
288.091; -145.875;-1049.000; -915.000
288.231;   21.975;   13.000;   15.000
288.370; -163.625;-1217.000;-1200.000
288.509;  -88.700; -728.000; -645.000
288.648;  -82.700; -770.000; -548.000
288.787;  -23.375; -243.000;  -87.000
288.926;  -65.050; -454.000; -475.000
289.065;  127.950;  859.000;  672.000
289.204;  -60.675; -377.000; -217.000
289.344;  -88.025; -791.000; -690.000
289.483;   22.250;  416.000;  304.000
289.622;  -39.925; -291.000; -149.000
289.761;  -21.600; -309.000; -166.000
289.900; -105.625; -785.000; -626.000
290.039;  -14.575;  -12.000;  -95.000
290.178;  -34.200; -274.000; -180.000
290.317;  -78.025; -618.000; -479.000
290.456;  -56.975; -463.000; -451.000
290.595; -133.900; -961.000; -833.000
290.734; -129.725; -904.000; -891.000
290.873;  -61.350; -456.000; -420.000
291.011; -102.925; -833.000; -843.000
291.150; -100.050; -770.000; -682.000
291.289;  -14.100; -343.000; -110.000
291.428;  -95.500; -599.000; -480.000
291.567;  -46.725; -370.000; -442.000
291.706;  -12.375;  109.000;  154.000
291.845;  -92.150; -597.000; -505.000
291.984; -172.100;-1234.000;-1061.000
292.122;   69.750;  602.000;  582.000
292.261;   37.450;  620.000;  463.000
292.400;   12.125; -144.000;  211.000
292.539; -122.400; -959.000; -813.000
292.678;  -28.400; -325.000; -300.000
292.816; -157.375;-1136.000; -965.000
292.955;  -72.225; -844.000; -684.000
293.094;  -42.150; -173.000; -337.000
293.233;  -38.150; -556.000; -400.000
293.371;  -43.000; -225.000;  -84.000
293.510;  -98.250; -866.000; -780.000
293.649; -126.350; -959.000; -924.000
293.787;  -41.450;-1083.000;-1012.000
293.926;   -5.525; -113.000;  -32.000
294.065;  -46.375; -379.000; -290.000
294.203;   48.575;  298.000;  406.000
294.342;   26.450;   74.000;  156.000
294.481; 5433.975;51180.000; -836.000
294.619;   -5.575; -425.000; -582.000
294.758; -137.325;-1230.000;-1137.000
294.896;   85.600; -125.000;    5.000
295.035; -129.125;-1040.000;-1006.000
295.174; -126.125;-1082.000; -954.000
295.312;  -40.450; -323.000; -203.000
295.451;    4.025; -307.000; -428.000
295.589;  -58.150; -389.000; -518.000
295.728;   17.900; -292.000; -165.000
295.866;   -4.500;  -36.000;  -51.000
296.005;  -57.425; -584.000; -341.000
296.143;  -70.850; -558.000; -596.000
296.282;  -97.575; -957.000; -881.000
296.420;  -85.525; -657.000; -557.000
296.559;  -80.450; -892.000; -633.000
296.697;   30.950; -847.000; -665.000
296.835;   87.750;-1141.000;-1002.000
296.974;   49.725;  -23.000;   39.000
297.112;   36.725; -443.000; -504.000
297.251;  -69.925; -815.000; -755.000
297.389;  129.925; -576.000; -438.000
297.527;   46.600; -145.000;  -83.000
297.666;  -40.750; -486.000; -438.000
297.804;  -55.825; -404.000; -264.000
297.942;   -7.575; -136.000; -161.000
298.081;   -6.450; -183.000;   63.000
298.219;   85.150;  -17.000;  -19.000
298.357;   67.350; -144.000;  -71.000
298.495;   56.800; -810.000; -812.000
298.634;  101.575;  245.000;  219.000
298.772;   71.800; -220.000; -338.000
298.910;  -34.175; -309.000; -182.000
299.048;   -4.025; -130.000; -153.000
299.187;  -22.200; -350.000; -250.000
299.325;   24.175;   52.000;  122.000
299.463;   79.650; -389.000; -299.000
299.601;  157.250; -327.000; -271.000
299.739; -107.475; -908.000; -883.000
299.877;  -66.325; -791.000; -703.000
300.016;  -31.075;-1095.000; -935.000
300.154;  198.075;  -19.000; -161.000
300.292;   66.775; -428.000; -348.000
300.430;   36.850; -408.000; -291.000
300.568; -106.125; -940.000; -874.000
300.706;  -38.175; -366.000; -469.000
300.844;  -73.500;-1108.000; -979.000
300.982;  135.425;  246.000;  282.000
301.120; -117.050; -965.000; -866.000
301.258;  -70.075; -812.000; -705.000
301.396;   33.525;  104.000;  -41.000
301.534;  106.400; -218.000; -293.000
301.672;    7.375; -664.000; -521.000
301.810;   71.800; -613.000; -545.000
301.948;  138.725;   53.000;  149.000
302.086;  712.750; -250.000;  -32.000
302.224; 1122.450; -610.000; -585.000
302.362;   72.650; -558.000; -622.000
302.500;  -10.975; -923.000; -893.000
302.638;  128.000;  128.000;  245.000
302.776;   -9.400; -352.000; -408.000
302.913;   50.125;  447.000;  236.000
303.051;   -2.925;  -86.000;  -23.000
303.189;   59.700;   90.000;  118.000
303.327;  -27.000; -341.000; -256.000
303.465;  -75.075; -832.000; -588.000
303.603; -100.900; -805.000; -604.000
303.740;  121.450;  417.000;  241.000
303.878;   40.050; -800.000; -759.000
304.016;  -90.550; -915.000; -790.000
304.154; -127.175;-1123.000;-1152.000
304.291;  -28.075; -505.000; -554.000
304.429;    9.350;  102.000;   74.000
304.567; -124.100; -908.000; -893.000
304.705;  -52.550; -408.000; -515.000
304.842;  126.025; -616.000; -540.000
304.980;   68.025;  215.000;   35.000
305.118;   50.225; -367.000; -365.000
305.255;  -75.450; -945.000; -927.000
305.393;   55.425;  178.000;  239.000
305.531;  -84.925;-1173.000; -956.000
305.668;  -60.300; -663.000; -582.000
305.806;  126.350; -358.000; -439.000
305.943;  140.100; -629.000; -637.000
306.081;   77.225; -378.000; -267.000
306.219;  -93.100; -863.000; -748.000
306.356;   11.675;  158.000;   27.000
306.494;   97.850;  981.000;  761.000
306.631;   -8.800;  -11.000;  -55.000
306.769;   28.750; -613.000; -485.000
306.906;  -16.075; -284.000; -258.000
307.044;  -54.650; -473.000; -488.000
307.181;  -73.225; -410.000; -332.000
307.319;   20.375;  112.000;   87.000
307.456; -170.350;-1191.000;-1153.000
307.594;  -79.425; -980.000; -727.000
307.731;  -17.775; -371.000; -164.000
307.868;   -1.075;  -15.000;   20.000
308.006; -133.375; -961.000; -847.000
308.143;  -56.225; -618.000; -330.000
308.281;  189.175;  -37.000; -254.000
308.418;  -14.500; -748.000; -640.000
308.555;  -65.450; -400.000; -250.000
308.693;  -66.000; -577.000; -573.000
308.830; -111.575; -712.000; -657.000
308.967;   -4.125; -215.000;  -95.000
309.105;  -41.475; -507.000; -396.000
309.242;   40.850; -468.000; -367.000
309.379;  350.675; -577.000; -655.000
309.517;  -47.925; -936.000; -948.000
309.654; -106.750; -910.000; -734.000
309.791;  -76.675; -662.000; -580.000
309.928; -125.775; -977.000; -914.000
310.065;  201.650;  819.000;  697.000
310.203;   30.325; -825.000; -850.000
310.340;    2.350; -465.000; -321.000
310.477;  -68.100; -412.000; -516.000
310.614;  -63.300; -383.000; -473.000
310.751;  -82.850; -427.000; -518.000
310.889;  -23.525;    1.000;   11.000
311.026; -147.150;-1161.000; -939.000
311.163;  -43.050; -386.000; -380.000
311.300;  -46.600; -512.000; -479.000
311.437;  -82.625; -658.000; -619.000
311.574; -149.725;-1226.000; -985.000
311.711;  -55.725; -595.000; -433.000
311.848;  -48.075; -380.000; -388.000
311.985;   13.625;  270.000;   93.000
312.122; -117.725; -932.000; -762.000
312.259; -126.975; -941.000; -994.000
312.396;  -93.500; -508.000; -551.000
312.533;  -71.700; -812.000; -790.000
312.670; -128.250;-1070.000; -898.000
312.807;  -25.450; -352.000; -367.000
312.944;  -82.550; -513.000; -611.000
313.081;  -43.900; -150.000; -415.000
313.218;  -96.100;-1111.000; -867.000
313.355;   21.325; -531.000; -449.000
313.492;    5.550; -455.000; -292.000
313.629;  144.675;  815.000;  735.000
313.766; -156.450;-1176.000;-1008.000
313.902;   -2.175; -186.000;   21.000
314.039;  -52.550; -372.000; -289.000
314.176;   34.050;  286.000;  192.000
314.313;  -95.375; -569.000; -473.000
314.450;  -71.825; -788.000; -684.000
314.587;  -55.875; -468.000; -480.000
314.723;    5.175;  -78.000;  130.000
314.860;   21.800;  318.000;  332.000
314.997;   37.750;  223.000;  142.000
315.134;  -41.000; -385.000; -368.000
315.270;  -23.750; -480.000; -496.000
315.407; -128.425;-1094.000; -967.000
315.544;  -43.025; -657.000; -538.000
315.681;  -58.275; -681.000; -565.000
315.817;   35.550; -133.000; -176.000
315.954;   25.650; -613.000; -392.000
316.091; -113.050;-1045.000;-1023.000
316.227;  -19.550;  -71.000; -179.000
316.364;   12.025;   23.000;    6.000
316.500;  -31.000; -113.000; -300.000
316.637;  -50.425; -181.000; -302.000
316.774;  -86.775; -625.000; -358.000
316.910;  -82.075; -598.000; -629.000
317.047;  -68.825; -487.000; -351.000
317.183;  -31.400; -435.000; -566.000
317.320;  -27.350; -367.000; -321.000
317.456;  -67.375; -733.000; -805.000
317.593; -100.325; -598.000; -641.000
317.729;    9.450;  168.000;  -67.000
317.866; -190.125;-1434.000;-1285.000
318.002;  -85.125; -708.000; -948.000
318.139;  -98.875; -883.000; -867.000
318.275;  -86.400;-1003.000; -738.000
318.412;  -73.275; -517.000; -336.000
318.548;  -13.775; -751.000; -720.000
318.685;  -79.625; -985.000; -888.000
318.821;  -88.425; -762.000; -735.000
318.957;  -19.475;   34.000;  -23.000
319.094;   52.475;  297.000;  154.000
319.230;  -32.800; -756.000; -742.000
319.367;  168.975; -471.000; -520.000
319.503;   70.100; -538.000; -436.000
319.639;  -88.525; -877.000; -793.000
319.775;  -49.450; -750.000; -685.000
319.912;  -50.525; -424.000; -519.000
320.048;  -81.050;-1184.000;-1184.000
320.184;   86.075;   59.000;   70.000
320.321;  -63.475; -497.000; -467.000
320.457;   72.950;  475.000;  662.000
320.593;  -66.675; -375.000; -382.000
320.729;  -87.350; -732.000; -734.000
320.866;  -78.550; -577.000; -635.000
321.002;  -73.350; -759.000; -809.000
321.138;  -11.025; -135.000; -211.000
321.274;   88.175; -148.000; -115.000
321.410;  -21.400; -585.000; -353.000
321.546;   -2.250;-1011.000; -911.000
321.683;   49.375;  400.000;  185.000
321.819;    9.300;  -48.000; -117.000
321.955; -103.000; -743.000; -722.000
322.091;  -40.150; -585.000; -540.000
322.227;    1.575; -382.000; -202.000
322.363;  -22.300; -320.000; -215.000
322.499;  -41.725; -343.000; -331.000
322.635;  173.675;  636.000;  443.000
322.771;   37.075; -139.000;   12.000
322.907;  102.275;  129.000;  327.000
323.043;   -9.775; -115.000; -206.000
323.179;  -33.175; -394.000; -363.000
323.315;   43.650; -401.000; -371.000
323.451;  118.400; -328.000; -236.000
323.587;   76.450;  -60.000;  -77.000
323.723;   36.825; -682.000; -601.000
323.859;    0.000; -258.000;  -76.000
323.995;  -35.875; -467.000; -409.000
324.131; -100.825; -967.000; -892.000
324.267;  -29.825; -254.000; -276.000
324.402; -114.800; -960.000; -983.000
324.538;   -6.825; -279.000; -104.000
324.674;   12.550;  164.000;   77.000
324.810;  138.450;  226.000;  308.000
324.946;   31.100; -810.000; -658.000
325.082;  -70.825; -568.000; -475.000
325.217;  -18.225;  -62.000;   16.000
325.353; -110.450; -764.000; -659.000
325.489;  -93.925; -540.000; -506.000
325.625;  -71.850; -579.000; -525.000
325.760;   51.375;  517.000;  376.000
325.896;  -37.950; -515.000; -702.000
326.032;  -50.800; -403.000; -352.000
326.168;  -68.500; -462.000; -369.000
326.303;  -75.725; -352.000; -461.000
326.439;  -26.225; -336.000; -276.000
326.575;   -5.875; -190.000;  -29.000
326.710;   -4.575; -156.000;  -30.000
326.846;  -11.800;  146.000;  103.000
326.982;  -93.625; -530.000; -548.000
327.117;  -73.600; -481.000; -442.000
327.253;  -77.125; -745.000; -742.000
327.388; -161.225;-1137.000;-1153.000
327.524;  -38.550; -811.000; -578.000
327.659;  -22.025;  -58.000;  -22.000
327.795;  -16.250;   69.000;   45.000
327.931;  -87.475; -723.000; -499.000
328.066;  -20.475; -417.000; -276.000
328.202;  -14.225;   12.000; -129.000
328.337;   98.300;  957.000;  713.000
328.473;   28.400;  -12.000;  -74.000
328.608;  -24.675; -256.000; -267.000
328.743;  -71.225; -799.000; -664.000
328.879;   12.275;  214.000;  114.000
329.014;  -40.450; -102.000; -122.000
329.150;  -76.775; -358.000; -483.000
329.285;  -84.575; -465.000; -466.000
329.421;  -36.775; -548.000; -246.000
329.556;  -21.125;  -36.000;   85.000
329.691;  -87.850; -633.000; -615.000
329.827;  -81.225; -626.000; -480.000
329.962;  -44.700;  131.000; -301.000
330.097;  -94.925; -673.000; -585.000
330.233;  -60.025; -410.000; -223.000
330.368; -116.200; -839.000; -628.000
330.503;  -15.100;    3.000;   98.000
330.638;    8.100;  -93.000; -125.000
330.774;  -40.325; -609.000; -530.000
330.909;  -52.975; -434.000; -244.000
331.044;  -87.550; -714.000; -708.000
331.179; -171.275;-1217.000;-1109.000
331.315;   15.625;   77.000;   20.000
331.450;    6.975;  157.000;  285.000
331.585;  -90.800; -805.000; -706.000
331.720;  -65.875; -510.000; -460.000
331.855;   -9.475;  -35.000; -102.000
331.990;  227.075;   62.000;  138.000
332.126;  116.550; -110.000;   71.000
332.261;   -7.850; -379.000; -265.000
332.396;   -7.175; -135.000; -242.000
332.531;  -90.350;-1074.000;-1031.000
332.666;   37.675; -519.000; -363.000
332.801;  -97.300; -726.000; -807.000
332.936;  -20.525; -192.000; -122.000
333.071; -158.175; -870.000; -817.000
333.206;   15.700;  307.000;  379.000
333.341;   26.100;  344.000;  418.000
333.476;  -79.925; -627.000; -623.000
333.611;  -47.075; -251.000; -173.000
333.746;  -41.325; -381.000; -464.000
333.881; -110.125; -973.000; -935.000
334.016; -124.200; -936.000; -917.000
334.151; -117.300; -746.000; -702.000
334.286;   37.250;  152.000;  186.000
334.421;  -21.175; -125.000; -178.000
334.556;  -67.725; -611.000; -567.000
334.690;  -73.150; -631.000; -577.000
334.825;   59.900;  381.000;   83.000
334.960;  -58.975; -285.000; -413.000
335.095;    8.625;  135.000;  -91.000
335.230; -105.175; -722.000; -738.000
335.365; -123.600;-1084.000; -990.000
335.499; -120.400;-1108.000;-1037.000
335.634;   30.225;    9.000;  534.000
335.769; -105.125; -755.000; -720.000
335.904;  -43.575; -603.000; -561.000
336.038;  -55.450; -735.000; -657.000
336.173; -104.300;-1206.000;-1194.000
336.308;   13.425; -116.000; -189.000
336.443;   30.200; -544.000; -634.000
336.577;  -67.175; -936.000; -787.000
336.712;   72.825;   -4.000;  -12.000
336.847;  -38.350; -724.000; -607.000
336.981;   99.825; -272.000; -208.000
337.116;  308.475;  615.000;  501.000
337.250;  188.925; -434.000; -421.000
337.385;  234.325; -297.000; -208.000
337.520;   68.325; -632.000; -603.000
337.654;  -43.500; -215.000; -126.000
337.789; -124.125; -989.000; -933.000
337.923;  -30.500; -104.000; -205.000
338.058;  -87.375; -673.000; -738.000
338.192;  -35.975; -611.000; -488.000
338.327;    0.475;  -18.000; -155.000
338.461;  -61.625; -299.000; -469.000
338.596;  -79.550; -780.000; -638.000
338.730; -100.075; -767.000; -803.000
338.865;   85.475;  -46.000; -140.000
338.999;  -56.125; -846.000; -702.000
339.134;  -18.775; -634.000; -536.000
339.268;   -0.950; -741.000; -603.000
339.403;  360.000; -740.000; -775.000
339.537;  112.825; -894.000; -820.000
339.671; -114.400; -829.000; -813.000
339.806;  -55.350; -556.000; -512.000
339.940;   11.150; -261.000; -235.000
340.074;  -89.500; -685.000; -510.000
340.209;  -29.175; -351.000; -230.000
340.343;  -87.600; -517.000; -573.000
340.477;  163.050;  998.000; 1036.000
340.612;  -50.475;-1033.000; -900.000
340.746;  136.000; -199.000; -243.000
340.880;  -51.325; -924.000; -785.000
341.014;  -21.225;  -45.000; -154.000
341.149; -113.150; -756.000; -718.000
341.283; -100.575; -839.000; -754.000
341.417;  -78.650;-1124.000; -938.000
341.551;  160.875; -768.000; -708.000
341.685;  -28.050; -633.000; -611.000
341.820;  -49.950; -562.000; -493.000
341.954;  -61.975; -218.000; -349.000
342.088; -148.700;-1102.000;-1019.000
342.222;   49.375;  565.000;  618.000
342.356;  -51.625; -395.000; -335.000
342.490;  -87.750; -880.000; -841.000
342.624;  -39.150; -339.000; -242.000
342.758;   13.350; -364.000; -312.000
342.892;  -49.625; -710.000; -585.000
343.026;  -31.750;  -58.000; -116.000
343.160;  -52.625; -426.000; -376.000
343.294;  -84.400; -474.000; -337.000
343.428;   -6.200; -488.000; -448.000
343.562;  -23.500; -172.000;  -23.000
343.696;  -21.400; -385.000; -314.000
343.830;  -24.875; -362.000; -356.000
343.964;   37.800; -231.000; -168.000
344.098; 1080.800;  199.000;   70.000
344.232;  888.300; -266.000; -127.000
344.366;  103.625; -567.000; -453.000
344.500;   99.825; -665.000; -744.000
344.634;   47.775; -324.000; -164.000
344.768;    4.550; -531.000; -341.000
344.902;   16.550;  278.000;  256.000
345.035;  -73.400; -556.000; -496.000
345.169; -135.525; -933.000; -656.000
345.303;  -30.000; -308.000; -482.000
345.437;  -64.000; -826.000; -717.000
345.571;  -81.275; -675.000; -594.000
345.704;  -71.425; -309.000; -532.000
345.838;   -8.325; -331.000; -284.000
345.972;  -25.750; -543.000; -495.000
346.106;  155.075; -179.000; -190.000
346.239;  429.775; -312.000; -243.000
346.373;   18.200; -343.000; -302.000
346.507; -129.275; -950.000; -962.000
346.640;  177.650;  -30.000;   13.000
346.774;  -45.825; -650.000; -797.000
346.908;   -6.350; -138.000;  -11.000
347.041;  -90.200; -646.000; -593.000
347.175;   -3.525;  259.000;   27.000
347.309;  -76.725; -698.000; -628.000
347.442;  -91.525; -883.000; -732.000
347.576;  293.575;  670.000;  668.000
347.709;  236.725; -123.000;  -52.000
347.843;  -72.975; -933.000; -825.000
347.976;   43.575;  235.000;  294.000
348.110; -179.375;-1268.000;-1186.000
348.243;  -99.400; -679.000; -772.000
348.377;   -7.100;  -26.000;   60.000
348.510;   48.800;  403.000;  540.000
348.644;  -28.175;  -37.000; -159.000
348.777;    3.475;  180.000;  191.000
348.911;  -54.425; -142.000; -112.000
349.044;  212.550;  471.000;  448.000
349.178;  209.350;-1069.000;-1006.000
349.311;  142.100;  141.000;  255.000
349.444;  -10.100; -927.000; -813.000
349.578;   -8.425; -347.000; -200.000
349.711; -101.825; -959.000; -862.000
349.845;   10.325; -661.000; -591.000
349.978; -145.950;-1224.000;-1137.000
350.111;  -80.450; -546.000; -612.000
350.244;  -79.325; -596.000; -700.000
350.378;   25.925; -392.000; -393.000
350.511;  -63.250; -393.000; -426.000
350.644;  -98.350; -808.000; -806.000
350.778;    5.050;  168.000;  104.000
350.911;   10.750;  134.000;  140.000
351.044;  -88.600; -685.000; -615.000
351.177;  -13.875; -321.000; -281.000
351.310;  -22.475;    3.000; -131.000
351.444;  -62.275; -888.000; -788.000
351.577;  130.925;  140.000;   90.000
351.710;  119.475;  593.000;  417.000
351.843;  -38.775; -165.000;  -77.000
351.976;  -12.675;  149.000;  -79.000
352.109;  -91.725; -621.000; -612.000
352.242;  -23.175; -464.000; -419.000
352.376;  -43.900; -580.000; -636.000
352.509;  220.775; -437.000; -356.000
352.642;   47.675; -654.000; -604.000
352.775;   72.675; -141.000;  -98.000
352.908; -109.375; -933.000; -904.000
353.041;  -90.275; -814.000; -824.000
353.174;  -61.300; -551.000; -424.000
353.307;  -71.675; -753.000; -764.000
353.440;   62.800;  541.000;  453.000
353.573;  -92.625; -957.000;-1008.000
353.706;  -51.075; -384.000; -558.000
353.839;   -8.350; -264.000; -220.000
353.971;  -95.250; -657.000; -512.000
354.104;  -77.925; -896.000; -835.000
354.237;  -26.925; -627.000; -662.000
354.370;  -69.325; -846.000; -879.000
354.503; -175.000;-1231.000;-1308.000
354.636;  -39.050; -529.000; -348.000
354.769; -134.200; -937.000; -860.000
354.902;  -20.550; -230.000; -139.000
355.034;  -23.500; -164.000; -220.000
355.167;   -9.250; -262.000; -162.000
355.300;  -93.075;-1061.000; -880.000
355.433;  923.500;  -71.000;  -14.000
355.565; 1459.600; -402.000; -384.000
355.698;  356.575; -356.000; -296.000
355.831;    6.600; -882.000; -801.000
355.964;  104.850; -285.000; -170.000
356.096;  -78.275; -856.000; -843.000
356.229;   15.750; -523.000; -530.000
356.362;  323.725; -373.000; -266.000
356.494;  580.975; -229.000; -162.000
356.627;  528.400;  269.000;  377.000
356.760;  640.050;  120.000;   53.000
356.892;  902.375; -286.000; -601.000
357.025;  753.100;  403.000;  389.000
357.157;  685.925; -167.000; -179.000
357.290;  623.775; -856.000; -713.000
357.423;  184.675; -667.000; -556.000
357.555;  132.575; -217.000; -228.000
357.688;  148.275; -483.000; -364.000
357.820;  525.850; -870.000; -877.000
357.953; 4219.150; -563.000; -589.000
358.085;  959.250; -632.000; -612.000
358.218; 1395.025;-1131.000; -932.000
358.350;  255.900;  -58.000;  312.000
358.483; -121.550;-1300.000;-1187.000
358.615;   16.050;-1182.000;-1078.000
358.747;  -41.800;-1187.000;-1058.000
358.880;   46.750; -810.000; -744.000
359.012;    0.300; -376.000; -202.000
359.145;  -32.200; -480.000; -511.000
359.277;   83.225; -962.000; -913.000
359.409; 3490.450;  536.000;  231.000
359.542;  932.050; -738.000; -688.000
359.674;   80.775;   46.000;   13.000
359.806;  -61.500; -565.000; -438.000
359.939;  -47.950; -617.000; -516.000
360.071;  -21.675; -583.000; -579.000
360.203;  -10.700; -411.000; -364.000
360.335;   55.725;  164.000;  -16.000
360.468;  217.450; -249.000; -307.000
360.600; 2763.250; -547.000; -454.000
360.732; 2742.525; -546.000; -423.000
360.864;  382.125;-1216.000;-1044.000
360.996;  353.725; -516.000; -554.000
361.129;   83.175; -389.000; -598.000
361.261;   27.300;  110.000; -113.000
361.393;  -43.450; -252.000; -214.000
361.525;   34.975;   94.000;  244.000
361.657;  -31.300; -821.000; -703.000
361.789;   24.750; -139.000; -155.000
361.921;  266.400; -642.000; -593.000
362.053;  296.150;  524.000;  541.000
362.185;   53.675;  288.000;   72.000
362.318;  -54.250; -709.000; -705.000
362.450;  144.200;  294.000;  444.000
362.582;  165.850; -913.000; -870.000
362.714;  -36.300; -353.000; -332.000
362.846;  -81.250; -606.000; -490.000
362.978; -128.700; -941.000; -811.000
363.109;   78.250; -161.000; -260.000
363.241;  512.225; -739.000; -749.000
363.373;  440.725; -649.000; -564.000
363.505;  617.850; -186.000;  -91.000
363.637;  156.100; -787.000; -601.000
363.769; -112.825;-1067.000;-1080.000
363.901;  -58.525; -596.000; -654.000
364.033; -120.700;-1103.000;-1062.000
364.165;    4.225; -283.000; -283.000
364.296;   83.225; -316.000; -177.000
364.428;   81.400;-1344.000;-1220.000
364.560;  -74.300; -679.000; -661.000
364.692;  -63.850; -738.000; -835.000
364.824;  336.325; -588.000; -456.000
364.955;  461.800; -402.000; -564.000
365.087;  837.775;-1097.000; -852.000
365.219;   25.150; -686.000; -816.000
365.351;  -72.000; -526.000; -572.000
365.482;   67.625;  300.000;  240.000
365.614;  -44.250; -402.000; -314.000
365.746;  -87.500; -729.000; -752.000
365.877;  -92.450; -706.000; -672.000
366.009;  246.750;  -35.000;  -62.000
366.141;  -92.775;-1249.000;-1134.000
366.272; -108.525; -803.000; -719.000
366.404; -116.850;-1005.000; -874.000
366.535;  -11.175; -139.000;  -12.000
366.667;  -95.300; -644.000; -649.000
366.799;   52.425;  353.000;  203.000
366.930; -109.900; -862.000; -996.000
367.062;  110.050; -639.000; -613.000
367.193;  136.650; -872.000; -842.000
367.325;  -60.400; -580.000; -684.000
367.456;   58.575; -246.000;   31.000
367.588;  161.825; -371.000; -318.000
367.719;   21.475;  -44.000;  -45.000
367.851;  -13.650; -222.000; -241.000
367.982;  -28.225; -875.000; -732.000
368.113;  124.175; -475.000; -358.000
368.245; -112.950; -960.000; -841.000
368.376;   -6.800; -254.000; -302.000
368.508;  -23.700; -188.000; -263.000
368.639; -124.800;-1166.000;-1034.000
368.770;   -5.975; -670.000; -589.000
368.902;  -42.400; -836.000; -926.000
369.033;  -94.225; -906.000; -855.000
369.164;  -47.825; -720.000; -653.000
369.296; -114.900; -452.000; -601.000
369.427;    9.450; -209.000; -144.000
369.558;  -54.725; -593.000; -377.000
369.689;  -76.125; -721.000; -569.000
369.821; -129.875; -951.000; -845.000
369.952;  -22.650;   42.000; -108.000
370.083;  -53.725; -229.000; -108.000
370.214;  -73.600; -735.000; -650.000
370.345;   -5.225;   65.000;   81.000
370.477;  -66.175; -810.000; -790.000
370.608;  257.475; -328.000; -264.000
370.739;  -15.525;-1233.000;-1292.000
370.870;  -19.050;-1102.000; -923.000
371.001;  115.550; -378.000; -467.000
371.132;  -59.300; -754.000; -735.000
371.263;  -18.825;  -42.000; -148.000
371.394; -135.925; -841.000; -748.000
371.525;   50.750;  345.000;  225.000
371.657;  -80.225; -808.000; -670.000
371.788;   82.800;  103.000;  199.000
371.919;  199.025; -384.000; -304.000
372.050; 4177.600;  -91.000; -156.000
372.181; 1283.250; -188.000; -294.000
372.311;  466.025;   42.000; -127.000
372.442;   65.450; -457.000; -451.000
372.573;  -11.325; -444.000; -340.000
372.704; -122.475;-1008.000; -980.000
372.835;  113.425; -228.000; -289.000
372.966;  -60.100; -646.000; -554.000
373.097;  -56.875; -575.000; -711.000
373.228;  -30.575; -717.000; -542.000
373.359;  173.750; -824.000; -536.000
373.490; 1099.925; -881.000; -727.000
373.620; 1414.150;-1001.000; -803.000
373.751; 2073.175; -332.000; -396.000
373.882;  954.425; -663.000; -733.000
374.013;   90.975; -449.000; -262.000
374.143;  -23.875; -581.000; -659.000
374.274;  -93.925; -987.000; -908.000
374.405;  218.650; -388.000; -276.000
374.536;  523.900; -526.000; -387.000
374.666; 1334.475; -759.000; -807.000
374.797;  280.175; -817.000; -868.000
374.928; 1031.925; -710.000; -560.000
375.058; 1048.850; -535.000; -500.000
375.189;   95.600;  -59.000;  -93.000
375.320;  -95.750; -928.000;-1034.000
375.450;  -28.425; -625.000; -616.000
375.581;  -54.150; -526.000; -436.000
375.712;  -13.075; -574.000; -250.000
375.842;  374.275; -438.000; -415.000
375.973;  262.400; -554.000; -513.000
376.103;  -27.700; -665.000; -648.000
376.234;  -59.450; -531.000; -552.000
376.364;  -33.050; -944.000; -867.000
376.495;  361.225;  925.000;  529.000
376.625;   22.325; -472.000; -485.000
376.756;   97.600; -709.000; -678.000
376.886;  -57.575;-1178.000;-1026.000
377.017;   40.000;-1048.000;-1061.000
377.147;  332.500; -786.000; -782.000
377.278;   78.225;  174.000;  228.000
377.408; -122.875; -801.000; -815.000
377.538; -105.550; -707.000; -693.000
377.669;  -71.125; -537.000; -613.000
377.799;  -78.625; -645.000; -635.000
377.929;  -37.575; -610.000; -428.000
378.060; -122.725; -781.000; -847.000
378.190;  -61.975; -726.000; -531.000
378.320;  -52.675; -401.000; -406.000
378.451;  -12.950; -131.000;  -22.000
378.581;    3.825;  -67.000; -110.000
378.711;  159.650; 1035.000;  866.000
378.841;    0.400; -533.000; -675.000
378.972;  -56.475; -871.000; -751.000
379.102;   20.175; -652.000; -579.000
379.232;  -17.800; -126.000;  -73.000
379.362;  -91.825;-1001.000; -885.000
379.492;   22.775; -373.000; -424.000
379.623;  115.050;    0.000;  111.000
379.753;  -88.950;-1107.000; -974.000
379.883;  241.375;   59.000;  156.000
380.013;   38.450;-1081.000;-1017.000
380.143;  -96.600;-1097.000;-1056.000
380.273; -106.725; -985.000; -861.000
380.403;   10.550; -344.000; -257.000
380.533;  -11.350; -651.000; -664.000
380.663;   93.850;  173.000;  128.000
380.793;  -90.275;-1027.000;-1074.000
380.923;  -11.200; -103.000;  -34.000
381.053; -101.600; -613.000; -623.000
381.183;  -25.150; -106.000; -248.000
381.313;   46.375; -656.000; -470.000
381.443;   67.050; -692.000; -473.000
381.573;  256.925; -402.000; -409.000
381.703;  391.100;-1249.000;-1095.000
381.833; -123.950;-1454.000;-1336.000
381.963;  133.875; -134.000;  -87.000
382.093; 1608.400; -925.000; -909.000
382.223;  530.200; -713.000; -602.000
382.353;   -3.350; -801.000; -608.000
382.482;  469.200;-1091.000; -964.000
382.612;  913.225; -872.000; -644.000
382.742;  515.200; -695.000; -622.000
382.872;  337.000; -565.000; -551.000
383.002;   85.650;  347.000; -132.000
383.131;  -19.400; -226.000; -160.000
383.261;  -24.450; -706.000; -768.000
383.391;  289.600; -552.000; -377.000
383.521; 3021.175;  451.000;  263.000
383.650;  698.075; -947.000; -904.000
383.780;   -8.200; -783.000; -656.000
383.910;  108.950;  880.000;  802.000
384.039;   34.525; -794.000; -656.000
384.169;  264.825;-1205.000;-1017.000
384.299;   -7.750; -650.000; -662.000
384.428;  -77.875; -764.000; -680.000
384.558;  -41.875; -308.000; -275.000
384.687;  -37.400; -414.000; -334.000
384.817;   34.900;   75.000;   -2.000
384.947;   27.150; -234.000; -141.000
385.076;  316.450;  982.000;  912.000
385.206;  115.075;  369.000;  480.000
385.335;  -28.150; -549.000; -417.000
385.465;  -73.425; -655.000; -663.000
385.594;  170.450;  -53.000;  -44.000
385.724;  526.250; -868.000; -838.000
385.853;  152.325; -296.000; -270.000
385.982; 1612.400; -743.000; -787.000
386.112; 2567.050;-1052.000; -871.000
386.241;  187.150; -307.000; -312.000
386.371;   18.075; -174.000;  -87.000
386.500;   19.225; -825.000; -789.000
386.629;   39.000; -874.000; -817.000
386.759;   75.675;  -43.000;   68.000
386.888;    1.350; -170.000; -250.000
387.017;  -68.675; -648.000; -620.000
387.147;  -80.750; -771.000; -798.000
387.276;   10.400; -410.000; -397.000
387.405;   31.250; -398.000; -342.000
387.535;  -46.150; -452.000; -361.000
387.664;  -60.825; -692.000; -620.000
387.793;   68.075; -198.000; -113.000
387.922;  604.600;  255.000;  200.000
388.052;   45.475; -576.000; -423.000
388.181;   29.500; -342.000; -472.000
388.310;   15.925; -889.000; -710.000
388.439;  -17.525; -749.000; -742.000
388.568;  203.150;  365.000;  244.000
388.697; 1271.350; -756.000; -653.000
388.826;  269.050; -768.000; -666.000
388.956;   87.850; -285.000; -307.000
389.085;  -33.175; -347.000; -287.000
389.214;  -97.075; -842.000; -872.000
389.343;  -65.675; -645.000; -413.000
389.472;  380.050;  126.000;  149.000
389.601;  536.950;   91.000;    0.000
389.730;   40.825; -568.000; -687.000
389.859;   77.475;  226.000;   46.000
389.988;  231.375; -423.000; -408.000
390.117;  187.250; -168.000; -146.000
390.246;    6.425; -331.000; -320.000
390.375;  155.100; -673.000; -626.000
390.504;  -44.125; -703.000; -621.000
390.633;  -96.475; -672.000; -726.000
390.761;  -42.550; -732.000; -645.000
390.890;   37.700;   -4.000; -130.000
391.019;  -15.025; -421.000; -441.000
391.148; -121.175; -826.000; -855.000
391.277;  -62.000; -576.000; -493.000
391.406;  -80.450; -821.000; -805.000
391.534;   20.925;  574.000; -301.000
391.663;  -75.575; -583.000; -645.000
391.792;  -74.900; -673.000; -701.000
391.921;  124.025;   -3.000;   15.000
392.050;  225.925; -287.000; -228.000
392.178;  -16.575;-1206.000;-1061.000
392.307;  200.075; -758.000; -712.000
392.436;   99.225; -427.000; -641.000
392.564;   19.100;  166.000;   -6.000
392.693;  -91.575; -860.000; -682.000
392.822;  267.475; -529.000; -534.000
392.950;  123.425; -880.000; -714.000
393.079;  398.950; -188.000; -328.000
393.208;   40.775; -488.000; -511.000
393.336;   -6.575; -170.000; -145.000
393.465;  -51.100; -317.000; -199.000
393.593;    2.150;   62.000;   79.000
393.722; -141.675;-1121.000; -916.000
393.850;  -38.400; -188.000;  -61.000
393.979; -158.875; -926.000; -805.000
394.107;  -44.700; -517.000; -537.000
394.236;  -18.925; -570.000; -507.000
394.364;  239.600;  383.000;  206.000
394.493;  394.075; -911.000; -767.000
394.621;    1.100; -955.000; -916.000
394.750;  653.100; -873.000; -923.000
394.878; 2800.100; -247.000; -149.000
395.007; 3863.775; -721.000; -807.000
395.135;  305.500; -790.000; -721.000
395.263;  -81.000;-1038.000;-1040.000
395.392;    8.425;  -25.000; -107.000
395.520; -146.250; -818.000; -679.000
395.648;  -72.300; -865.000; -915.000
395.777;   -4.425; -366.000; -405.000
395.905;  -28.825; -449.000; -564.000
396.033;   19.500;  217.000;  172.000
396.162;  660.600; -399.000; -453.000
396.290;  583.000;  -17.000;   -2.000
396.418;  145.475; -555.000; -514.000
396.546;  -54.700; -571.000; -466.000
396.674;  -91.250; -850.000; -878.000
396.803;    8.075;  -72.000;  -23.000
396.931;  114.425; -179.000; -199.000
397.059;   92.275;-1026.000; -989.000
397.187;  -86.625;-1026.000; -975.000
397.315; -125.225; -884.000; -649.000
397.443; -103.425; -592.000; -443.000
397.572;  -96.300; -578.000; -424.000
397.700;   -1.825; -607.000; -614.000
397.828;   37.175;  120.000;  -90.000
397.956;  -43.700; -508.000; -478.000
398.084;  -69.850; -767.000; -626.000
398.212;   50.000;  137.000;  124.000
398.340;   13.700;  -56.000;  159.000
398.468;   55.650; -390.000; -169.000
398.596; -127.350; -993.000; -953.000
398.724; -113.025; -762.000; -767.000
398.852; -160.100;-1024.000; -976.000
398.980;  -56.275; -560.000; -560.000
399.108;  -33.225; -982.000; -735.000
399.236;   40.175;   13.000;    8.000
399.363;   16.750;  222.000;  196.000
399.491;  -63.950; -404.000; -398.000
399.619; -128.300; -829.000; -800.000
399.747;  -92.975; -859.000; -771.000
399.875;   84.225;  220.000;  234.000
400.003;  -39.500; -359.000; -284.000
400.130;  -86.350; -421.000; -341.000
400.258;  -22.200;  -83.000;   38.000
400.386;  -69.825; -352.000; -168.000
400.514;  -34.950; -526.000; -587.000
400.641;  -77.950; -928.000; -802.000
400.769; -125.850; -979.000; -888.000
400.897; -123.025; -838.000; -793.000
401.025;   -8.075; -166.000; -152.000
401.152;  -17.000;  220.000;   38.000
401.280;  -77.200; -430.000; -429.000
401.408; -106.600; -712.000; -576.000
401.535; -116.875; -735.000; -758.000
401.663; -190.300;-1134.000;-1054.000
401.790;  -82.475; -514.000; -525.000
401.918;   22.250;  436.000;  405.000
402.046;  -17.525;  134.000;  122.000
402.173;  -48.275;  -18.000;    7.000
402.301;  -73.675; -519.000; -397.000
402.428;   38.325;  528.000;  383.000
402.556; -134.775;-1188.000; -913.000
402.683;  -33.975;  -20.000;   -1.000
402.811;  -10.300;  -37.000; -206.000
402.938;  -24.575;   20.000;   27.000
403.066;  242.325; -574.000; -558.000
403.193;  396.425;  299.000;  239.000
403.321;  300.350; -396.000; -574.000
403.448;  370.800;   83.000;   27.000
403.575;  177.175;  -90.000;  -46.000
403.703; -101.375; -732.000; -557.000
403.830;  -68.575; -531.000; -496.000
403.957; -151.350;-1117.000;-1023.000
404.085;   11.475;  -61.000; -172.000
404.212;  107.275;  -50.000;   63.000
404.339;  251.925; -566.000; -306.000
404.467; 5459.850; -612.000; -524.000
404.594; 3899.775; -287.000; -227.000
404.721;  975.325; -869.000; -764.000
404.848;   71.975; -113.000; -202.000
404.976;  -97.550; -856.000; -783.000
405.103;   -9.125;  -14.000;  -82.000
405.230;  -10.350;  190.000;  226.000
405.357;   20.750;  117.000;   44.000
405.484;  231.400;  -49.000;    5.000
405.612;   50.325; -548.000; -563.000
405.739;  -60.150; -488.000; -243.000
405.866;   87.350;  669.000;  385.000
405.993;  -36.675; -398.000; -102.000
406.120; -130.325; -801.000; -887.000
406.247;  -46.175; -323.000; -342.000
406.374;  499.700;  540.000;  629.000
406.501;  161.125; -632.000; -702.000
406.628;  -77.775; -621.000; -589.000
406.755;  -99.225; -803.000; -620.000
406.882;  -45.050; -228.000; -277.000
407.009; -111.700; -719.000; -628.000
407.136;   65.825; -480.000; -401.000
407.263;  194.475; -939.000; -829.000
407.390;  -66.000; -692.000; -614.000
407.517; -171.550;-1139.000;-1187.000
407.644;  -51.375; -332.000; -256.000
407.771; -131.525; -249.000; -287.000
407.898;   -3.700;  168.000;  328.000
408.025;  -55.325; -421.000; -313.000
408.151;   -8.950;   82.000;  153.000
408.278;  -78.825; -267.000; -216.000
408.405;  -98.825; -931.000; -899.000
408.532;  -67.550; -549.000; -542.000
408.659; -107.900; -677.000; -648.000
408.785; -211.000;-1298.000;-1170.000
408.912;  -68.725; -412.000; -296.000
409.039; -102.775; -610.000; -686.000
409.166; -103.575; -591.000; -555.000
409.292; -116.000; -571.000; -534.000
409.419; -120.750; -665.000; -649.000
409.546;  -94.975; -431.000; -192.000
409.672; -107.175; -713.000; -545.000
409.799;  -17.875;  -36.000;   34.000
409.926;  -34.250; -180.000; -179.000
410.052; -165.925;-1127.000;-1091.000
410.179;  -57.600; -368.000; -392.000
410.305; -105.525; -375.000; -493.000
410.432;  -34.350; -220.000; -333.000
410.558;  -90.775; -305.000; -380.000
410.685; -103.400; -688.000; -431.000
410.812; -103.300; -409.000; -588.000
410.938; -145.525; -964.000; -808.000
411.065; -100.925; -671.000; -645.000
411.191;    2.500; -189.000; -174.000
411.317; -114.900; -823.000; -742.000
411.444;  -64.525; -317.000; -246.000
411.570;  -90.775; -339.000; -294.000
411.697; -131.675; -758.000; -752.000
411.823; -169.525; -989.000; -999.000
411.949;  -20.375;  -56.000;   17.000
412.076; -115.175; -539.000; -519.000
412.202; -120.975; -758.000; -757.000
412.329; -123.600; -798.000; -752.000
412.455; -117.075; -821.000; -657.000
412.581;  -36.075;  -15.000;  172.000
412.707;  -65.275; -540.000; -457.000
412.834;   10.600;  156.000;  219.000
412.960;  -92.875; -785.000; -784.000
413.086; -106.325; -743.000; -701.000
413.212;  168.575;  604.000;  578.000
413.339;  -63.925; -685.000; -701.000
413.465;   21.075; -364.000; -310.000
413.591;  -92.700; -757.000; -474.000
413.717;  -50.800; -358.000; -366.000
413.843; -143.775; -839.000; -861.000
413.969;  -57.900;  -47.000; -292.000
414.096;  -94.925; -679.000; -679.000
414.222;   -7.450;  -33.000;   85.000
414.348;  -21.125; -652.000; -385.000
414.474;  124.275;   38.000;  -52.000
414.600;  -18.900; -126.000; -144.000
414.726;  -21.050;  -96.000;  -55.000
414.852;  -70.300; -365.000; -342.000
414.978;   40.450;  104.000;  -18.000
415.104;   39.375;   38.000;   80.000
415.230;   23.850; -329.000; -330.000
415.356;   47.150; -409.000; -514.000
415.482;  208.125;   13.000;  -35.000
415.608;  253.375; -247.000; -323.000
415.734;  928.850;   67.000;   38.000
415.860;19193.550; -875.000; -767.000
415.986;14495.625; -685.000; -607.000
416.111; 1221.900; -798.000; -652.000
416.237;  255.750; -424.000; -571.000
416.363; 1045.175; -765.000; -733.000
416.489; 4023.675; -324.000; -251.000
416.615;  426.350; -707.000; -742.000
416.741;  -34.200; -677.000; -784.000
416.866;  -94.825; -673.000; -736.000
416.992; -133.475; -801.000; -818.000
417.118;  -40.925;  -41.000;  -80.000
417.244;  -72.800; -798.000; -531.000
417.369;  -81.250; -801.000; -612.000
417.495;   -2.775; -325.000; -254.000
417.621;  -73.675;-1015.000; -803.000
417.746;    2.900; -579.000; -572.000
417.872;   48.575; -254.000; -144.000
417.998;   38.400; -515.000; -530.000
418.123;  966.100;-1073.000; -845.000
418.249; 5212.250; -512.000; -601.000
418.374;  745.225; -916.000; -824.000
418.500;  101.200; -383.000; -482.000
418.626;   97.375;   70.000;  -59.000
418.751;  110.550; -549.000; -448.000
418.877;  192.750; -637.000; -643.000
419.002; 1680.100; -688.000; -560.000
419.128;11988.800; -930.000; -721.000
419.253; 3037.775; -967.000; -837.000
419.379;  397.450; -391.000; -338.000
419.504;  390.375;  325.000;  415.000
419.629;  480.000; -393.000; -212.000
419.755; 3271.125; -317.000; -254.000
419.880;19968.475;  -98.000;   67.000
420.006;10918.025; -280.000; -221.000
420.131;28584.575; -662.000; -775.000
420.256; 4275.700; -315.000; -316.000
420.382;  543.875; -665.000; -687.000
420.507;   65.950; -649.000; -778.000
420.632;  156.800; -337.000; -339.000
420.758;  314.825; -251.000; -425.000
420.883;  -82.300; -876.000; -672.000
421.008;  -92.525; -775.000; -619.000
421.133;  -83.325; -509.000; -467.000
421.259;  -50.700; -325.000; -259.000
421.384; -109.575; -834.000; -693.000
421.509;  -32.725;-1052.000; -862.000
421.634; 1410.600; -936.000; -820.000
421.759;  639.525; -359.000; -327.000
421.885;  -40.050; -717.000; -656.000
422.010;  -80.525; -673.000; -542.000
422.135; -151.850; -695.000; -727.000
422.260;   39.625;  340.000;  280.000
422.385;  -47.775;   12.000;  -98.000
422.510;   12.625;  151.000;  -26.000
422.635;   23.850;  -87.000;  -43.000
422.760;  118.525; -766.000; -791.000
422.885;   60.050;  -57.000;  -80.000
423.010;  -34.925; -112.000; -169.000
423.135;  -92.450; -481.000; -561.000
423.260;   -4.775; -150.000; -245.000
423.385;   73.600;  476.000;  222.000
423.510;   46.200;   71.000;  -22.000
423.635;   97.500;  133.000;   45.000
423.760;   60.275;  383.000;  328.000
423.885;   60.200;  336.000;  391.000
424.010;   28.550;  -68.000;  -13.000
424.135;  -13.200;    5.000;  -33.000
424.259;  -81.500; -654.000; -457.000
424.384;  -62.850; -279.000; -272.000
424.509;  -32.150; -260.000; -186.000
424.634; -101.325; -761.000; -623.000
424.759;  -10.775; -688.000; -544.000
424.883;   -4.425; -506.000; -527.000
425.008;  166.925; -502.000; -410.000
425.133; 1926.350; -679.000; -653.000
425.258;  945.775; -517.000; -381.000
425.382; 1168.225; -867.000; -774.000
425.507; 3066.050; -487.000; -543.000
425.632;  516.425; -802.000; -663.000
425.756;  450.775; -256.000; -146.000
425.881; 5997.675; -831.000; -857.000
426.006;16699.025; -604.000; -355.000
426.130; 2757.575; -696.000; -508.000
426.255;  347.100; -611.000; -491.000
426.379;  143.475; -189.000; -577.000
426.504;  367.475;  660.000;  544.000
426.629; 3892.350; -519.000; -466.000
426.753; 2810.000;   64.000;  -46.000
426.878;  327.525; -252.000; -288.000
427.002;  150.800; -651.000; -668.000
427.127; 1504.500;  -35.000; -158.000
427.251;10904.050;  372.000;  401.000
427.375; 3264.425; -191.000; -173.000
427.500; 2643.975; -616.000; -610.000
427.624;  943.625; -234.000; -400.000
427.749;  118.350; -216.000; -225.000
427.873;  -27.425; -499.000; -412.000
427.997;  -41.000; -222.000; -230.000
428.122;   60.750;  795.000;  703.000
428.246;   78.750;  433.000;  434.000
428.371; -129.750; -869.000; -773.000
428.495;  -97.200; -624.000; -646.000
428.619;  -28.575; -186.000; -117.000
428.743;   37.400;   65.000;  132.000
428.868;   40.850; -732.000; -643.000
428.992; 1632.975; -219.000; -326.000
429.116;  692.500; -329.000; -357.000
429.240;  336.000;  419.000;  426.000
429.365;   -3.750; -454.000; -574.000
429.489;  -45.475; -638.000; -647.000
429.613;   22.550; -236.000; -177.000
429.737;   42.250; -563.000; -432.000
429.861;  266.000; -247.000; -133.000
429.985; 5316.875; -425.000; -305.000
430.109; 6043.875; -770.000; -908.000
430.234;  701.875;   76.000;  -50.000
430.358;   55.025; -250.000; -160.000
430.482;  -70.025; -672.000; -564.000
430.606;  -69.050; -655.000; -375.000
430.730;   28.625; -437.000; -388.000
430.854;  165.100; -909.000; -835.000
430.978;  -72.575; -795.000; -764.000
431.102;  -95.450; -499.000; -422.000
431.226; -111.450; -874.000; -815.000
431.350;   21.475;  345.000;  422.000
431.474;  -71.900; -661.000; -373.000
431.597; -151.400;-1060.000; -848.000
431.721;  -80.800; -276.000; -267.000
431.845; -139.500; -704.000; -472.000
431.969;  -79.100; -304.000; -349.000
432.093; -102.325; -395.000; -317.000
432.217;  -20.825;   32.000;   82.000
432.341;  -95.700; -523.000; -518.000
432.464;    7.550;   96.000;   40.000
432.588;  239.625; -401.000; -329.000
432.712;  129.725;  -52.000;  -52.000
432.836;   39.375;  213.000;  263.000
432.959;  -10.475; -372.000; -311.000
433.083;   72.200;   11.000;    2.000
433.207;  357.650;  285.000;  930.000
433.330; 4746.775; -391.000; -200.000
433.454; 6075.300; -654.000; -638.000
433.578; 3484.375;  583.000;  278.000
433.701;  675.975; -623.000; -675.000
433.825;  166.175; -292.000; -299.000
433.949;  222.150;   28.000;  -72.000
434.072;   82.500; -410.000; -323.000
434.196;  -16.000; -309.000; -117.000
434.319; 3669.400;25482.000;25124.000
434.443;  728.825; -656.000; -603.000
434.566; 2544.650;  281.000;   62.000
434.690;  468.200; -637.000; -383.000
434.813;   49.225; -251.000; -173.000
434.937;  -85.725; -569.000; -696.000
435.060;  -41.600; -423.000; -332.000
435.184;  384.975; -492.000; -217.000
435.307;  218.850;  159.000;  102.000
435.431;   -3.625;  -40.000;   24.000
435.554;  -78.525; -399.000; -240.000
435.677;  -90.650; -350.000; -258.000
435.801;  -55.275;  -25.000;   49.000
435.924;   -7.075;    1.000;  -67.000
436.048; -103.650;-1019.000; -732.000
436.171;  -70.250; -240.000;  -66.000
436.294;  -28.975; -248.000; -229.000
436.417;   90.550; -963.000; -849.000
436.541;  -89.475; -814.000; -840.000
436.664;  -49.775; -242.000; -316.000
436.787;  -35.325;   13.000;  113.000
436.910; -116.725; -792.000; -422.000
437.034;    5.300;  142.000;  143.000
437.157;   82.575;  -11.000;    0.000
437.280;  -48.600; -392.000; -292.000
437.403;  -73.350; -982.000; -869.000
437.526;  752.950; -903.000; -865.000
437.649; 2794.525; -505.000; -332.000
437.772;  458.900; -692.000; -540.000
437.896;  141.800;  700.000;  544.000
438.019;  -97.425; -758.000; -503.000
438.142;  -89.475; -596.000; -506.000
438.265;    2.350; -639.000; -670.000
438.388;  675.750; -520.000; -410.000
438.511;  147.550; -597.000; -394.000
438.634;  -46.800; -247.000; -125.000
438.757; -146.950; -693.000; -619.000
438.880;  -21.575;  -34.000;  -57.000
439.003;  -76.900; -417.000; -437.000
439.126;  -66.950; -287.000; -167.000
439.248;  -57.475;  -98.000; -139.000
439.371;  -50.750;    9.000;  -53.000
439.494;   34.225;  510.000;  439.000
439.617;  -43.800;   65.000;  -88.000
439.740; -195.225; -968.000; -816.000
439.863; -139.450; -755.000; -595.000
439.986; -120.125; -476.000; -431.000
440.108;  -53.900; -161.000; -112.000
440.231; -172.975; -950.000; -836.000
440.354;  -40.675;  -64.000; -150.000
440.477;   58.650; -566.000; -542.000
440.599;   20.500; -200.000; -225.000
440.722; -124.800; -709.000; -586.000
440.845;   64.425;  751.000;  928.000
440.968; -113.000; -415.000; -311.000
441.090;  -65.175; -199.000;  -33.000
441.213; -173.525;-1021.000; -825.000
441.336;  -49.400; -159.000;   -5.000
441.458;  -86.250; -549.000; -396.000
441.581;  -80.325; -628.000; -629.000
441.703;  -73.300; -152.000;   13.000
441.826; -107.500; -557.000; -400.000
441.948;  -63.600;   56.000;   51.000
442.071;   21.850;  555.000;  424.000
442.193; -111.375; -531.000; -485.000
442.316;   18.275;  152.000;   97.000
442.438;   31.675; -233.000;  -10.000
442.561;   77.525;  272.000;  262.000
442.683;  626.275; -809.000; -522.000
442.806; 1406.075;   -8.000;   74.000
442.928;   69.175; -859.000; -604.000
443.051;  -61.450; -577.000; -373.000
443.173;  -97.050; -341.000; -339.000
443.295;  -88.175; -263.000; -371.000
443.418;  -66.275; -321.000;  -29.000
443.540;   -9.175; -106.000;   -4.000
443.662; -121.200; -563.000; -465.000
443.785;  -10.075;  335.000;  199.000
443.907; -103.900; -362.000; -208.000
444.029; -134.050; -767.000; -494.000
444.152; -153.525; -644.000; -554.000
444.274;  -47.250;  -18.000;  -24.000
444.396; -114.550; -461.000; -221.000
444.518; -135.050; -691.000; -454.000
444.640; -101.125; -268.000; -111.000
444.763;  -31.700;  388.000;  249.000
444.885; -120.975; -432.000; -392.000
445.007;  -25.225;   35.000;   86.000
445.129; -117.075; -610.000; -515.000
445.251; -107.600; -372.000; -439.000
445.373; -143.300; -537.000; -386.000
445.495;    7.650;  242.000;  350.000
445.617;   63.100;  853.000;  753.000
445.739;  -59.225; -215.000;  -97.000
445.861;  -25.375; -245.000; -112.000
445.984;  -31.200; -267.000; -101.000
446.105;  241.825; -418.000; -251.000
446.227;  730.625; -176.000;  -19.000
446.349;   25.425; -358.000; -249.000
446.471; -102.700; -615.000; -448.000
446.593;  -68.925; -316.000;   19.000
446.715;    8.600;  -67.000;   41.000
446.837;   66.150;  697.000;  832.000
446.959;  -94.300; -457.000; -478.000
447.081; -123.000; -628.000; -518.000
447.203;   46.975;  862.000;  834.000
447.325;  -89.925; -270.000;   42.000
447.446;    1.450;  286.000;  530.000
447.568; -169.225; -921.000; -803.000
447.690;  -77.250; -236.000; -245.000
447.812; -164.825; -798.000; -519.000
447.933;  -35.525;  155.000;  127.000
448.055;  -84.025; -306.000; -261.000
448.177;  159.825;   31.000;   79.000
448.299;  124.900; -935.000; -727.000
448.420;   23.075;  -25.000;  159.000
448.542;  -50.675;   -3.000;   33.000
448.664;   -5.900;  109.000;  322.000
448.785;  -38.750;  265.000;   83.000
448.907;  -79.550; -614.000; -353.000
449.028;  -32.275; -771.000; -471.000
449.150;   55.075;  492.000;  589.000
449.272; -174.950;-1044.000; -913.000
449.393;   27.475;  612.000;  694.000
449.515; -146.950; -634.000; -581.000
449.636;  -46.725; -264.000; -155.000
449.758;   84.400;  763.000;  622.000
449.879;  -92.575; -498.000; -396.000
450.001;  -79.175; -149.000;  -49.000
450.122;  -35.750;  -95.000;  162.000
450.244;  -35.200;   37.000;  364.000
450.365;  -90.675; -495.000; -301.000
450.486;  -40.325;   80.000;  268.000
450.608;    0.050;  393.000;  326.000
450.729;   60.825;  578.000;  645.000
450.850;   -7.250; -574.000; -466.000
450.972;  698.175; -552.000; -389.000
451.093; 4614.800;  190.000;  588.000
451.214; 2097.650; -516.000; -337.000
451.336;  369.600;  773.000;  579.000
451.457;   54.575;  264.000;  393.000
451.578;  -46.725; -118.000;  -74.000
451.699; -122.975; -546.000; -540.000
451.821;  -67.125; -284.000;  -50.000
451.942;  -18.500;  278.000;  285.000
452.063;   24.150;  228.000;  419.000
452.184;  519.275;  -54.000;  -49.000
452.305; 1062.875;  103.000;  170.000
452.427;  134.575; -549.000; -301.000
452.548;  -14.825;   23.000;   79.000
452.669;  -57.100; -257.000;  -89.000
452.790;  -39.300;    3.000;  -18.000
452.911;  -21.325;  195.000;  259.000
453.032;  -72.300; -289.000;  -60.000
453.153;  -35.325;  -29.000;   81.000
453.274;   58.900;  737.000;  868.000
453.395;  -62.450;  -51.000;  175.000
453.516;  133.775; 1317.000; 1388.000
453.637;  -58.775; -205.000; -150.000
453.758;  -49.675;   15.000;   69.000
453.879; -133.800; -462.000; -250.000
454.000;   76.025; 1086.000;  948.000
454.121; -114.675; -554.000; -326.000
454.242; -128.025; -599.000; -383.000
454.362;  -63.575;  -99.000;  114.000
454.483;  -26.400; -309.000; -229.000
454.604;   49.425;  512.000;  580.000
454.725; -118.775; -627.000; -555.000
454.846; -119.500; -474.000; -406.000
454.967;  -32.175;  230.000;  539.000
455.087;  -45.525;  179.000;  153.000
455.208;    1.250;  554.000;  856.000
455.329;  -70.275;  -22.000;   82.000
455.450;   25.575;  473.000;  633.000
455.570;  -87.200; -234.000; -211.000
455.691;  -42.850;  201.000;  407.000
455.812;  -92.625; -270.000;  -92.000
455.932;  -65.425;  107.000;  -97.000
456.053;  -94.450;   36.000;   24.000
456.173; -118.650; -433.000; -355.000
456.294; -131.425; -476.000; -303.000
456.415;  -70.975;  -73.000;   70.000
456.535;  -53.775;  297.000;  273.000
456.656;  -42.500;  132.000;  240.000
456.776;  -83.200;    3.000;  298.000
456.897;   -4.625;  308.000;  513.000
457.017;  -77.800; -153.000;   -3.000
457.138; -110.975; -402.000; -249.000
457.258;  -26.300;  263.000;  224.000
457.379;  -27.200;  509.000;  521.000
457.499;  -33.700;  443.000;  432.000
457.620; -134.300; -407.000; -231.000
457.740; -106.250; -132.000;  -11.000
457.860;  -56.950;   87.000;   44.000
457.981;  -50.700;  132.000;  124.000
458.101;  -71.950;  -89.000;   40.000
458.221;  -34.350;  336.000;  402.000
458.342;  -72.575;   -4.000;  -37.000
458.462;   11.400;  617.000;  352.000
458.582;  -40.875; -302.000; -294.000
458.703;   -9.000;  303.000;  154.000
458.823;  -34.425;   22.000;  163.000
458.943;   19.000;  341.000;  467.000
459.063;  -17.275; 1124.000;  192.000
459.183;  -27.325;  328.000;  313.000
459.304;    5.525;  315.000;  517.000
459.424;  -69.125; -246.000;  -89.000
459.544;  288.100;  388.000;  764.000
459.664;  799.150;  499.000;  506.000
459.784;  322.475; 1004.000; 1175.000
459.904;   57.725;  867.000;  744.000
460.024;   66.000;  867.000;  684.000
460.144;    8.825;  449.000;  554.000
460.264;   -3.650;  515.000;  327.000
460.385; -100.050; -145.000; -119.000
460.505;   36.050;  905.000;  858.000
460.625;  -88.750;  -17.000;  -68.000
460.745;  -21.700;  396.000;  541.000
460.864;  -70.500;  153.000;  469.000
460.984;   18.925;  499.000;  573.000
461.104;  119.800; 1656.000; 1775.000
461.224;   12.275;  657.000;  650.000
461.344;  -42.325;  431.000;  360.000
461.464;  -17.325;  258.000;  513.000
461.584;  -22.325;  283.000;  466.000
461.704;  -47.325;   58.000;  108.000
461.824;  -63.050;  238.000;  259.000
461.943;  -39.025;  191.000;  130.000
462.063;  -81.450;    2.000;  324.000
462.183;   39.125;  639.000;  717.000
462.303;  104.375; 1678.000; 1230.000
462.422;   39.900;  781.000;  840.000
462.542;  -46.575;  271.000;  391.000
462.662;   42.200;  353.000;  380.000
462.782;  233.200;  833.000;  572.000
462.901;  452.575;  545.000;  717.000
463.021;  265.900; 1702.000; 1638.000
463.141;    0.475;  337.000;  770.000
463.260;  -17.950;  614.000;  474.000
463.380;   14.500;  902.000;  884.000
463.499;  -42.900;  342.000;  332.000
463.619;  -43.925;  581.000;  559.000
463.738;   96.300; 1644.000;  903.000
463.858;   13.475;  657.000;  811.000
463.978;  -37.550;  542.000;  396.000
464.097;   47.425;  921.000; 1114.000
464.217;  120.100; 1196.000; 1143.000
464.336;  115.850; 1068.000; 1130.000
464.455;  -40.725;  328.000;  659.000
464.575;   55.650;  597.000;  602.000
464.694;  193.075; 1204.000; 1179.000
464.814;  122.675; 1190.000; 1138.000
464.933;   66.400; 1095.000; 1027.000
465.052;  101.100; 1412.000; 1054.000
465.172;   72.500;  922.000;  799.000
465.291;  160.675; 1376.000; 1320.000
465.410;    9.250;  462.000;  735.000
465.530;   82.800; 1355.000; 1310.000
465.649;   70.200; 1209.000; 1273.000
465.768;  149.775; 1673.000; 1508.000
465.888;   44.725;  941.000; 1174.000
466.007;   96.150; 1335.000; 1440.000
466.126;  -17.475;  721.000;  641.000
466.245;   35.225; 1176.000; 1187.000
466.364;   24.450;  950.000; 1060.000
466.484;   54.325; 1024.000; 1213.000
466.603;   30.475; 1101.000; 1222.000
466.722;  116.975; 1490.000; 1769.000
466.841;   71.925; 1151.000; 1401.000
466.960;   38.850; 1069.000;  972.000
467.079;  124.400; 1971.000; 1786.000
467.198;   45.400; 1238.000; 1181.000
467.317;   86.425; 1768.000; 1162.000
467.436;   89.400; 1709.000; 1261.000
467.555;  118.450; 1796.000; 1746.000
467.674;   50.375; 1227.000; 1329.000
467.793;   35.175; 1376.000; 1374.000
467.912;   71.925; 1658.000; 1539.000
468.031;  126.350; 2038.000; 1930.000
468.150;  150.900; 1842.000; 1837.000
468.269;  179.825; 2313.000; 2090.000
468.388;  193.225; 2168.000; 2339.000
468.507;  248.875; 2884.000; 2903.000
468.626;  268.900; 2555.000; 2541.000
468.744;  124.100; 2018.000; 2174.000
468.863;  206.200; 2312.000; 2523.000
468.982;   90.600; 1503.000; 1555.000
469.101;  237.200; 2788.000; 2692.000
469.220;  148.400; 2333.000; 2176.000
469.338;  249.525; 2935.000; 3051.000
469.457;  194.800; 2719.000; 2545.000
469.576;  347.775; 3953.000; 3784.000
469.695;  242.075; 2877.000; 3066.000
469.813;  430.275; 4148.000; 4192.000
469.932;  410.025; 4255.000; 4485.000
470.051;  402.150; 4075.000; 4161.000
470.169;  812.950; 4470.000; 4338.000
470.288; 1418.950; 4700.000; 4809.000
470.406;  879.375; 5059.000; 5194.000
470.525;  657.675; 6101.000; 5787.000
470.644;  626.725; 6847.000; 6794.000
470.762;  817.525; 8397.000; 7873.000
470.881;  859.400; 8651.000; 8464.000
470.999; 1038.875; 9685.000; 9151.000
471.118; 1093.925;11174.000;10711.000

