
Integration time [ms]: 100.000
Averaging Nr. [scans]: 40
Smoothing Nr. [pixels]: 0
Data measured with spectrometer [name]: 2101012U2
Wave   ;Sample   ;Dark     ;Reference
[nm]   ;[counts] ;[counts] ;[counts] 

197.733;   71.000;  516.000;  404.000
197.879;  -70.550; -610.000; -634.000
198.025;  -42.625; -475.000; -420.000
198.171;  -82.750; -602.000; -612.000
198.317;  -41.300; -401.000; -316.000
198.463;  -65.675; -655.000; -404.000
198.609;   31.875;  181.000; -137.000
198.755;  -87.825; -644.000; -410.000
198.901;  -52.050; -505.000; -424.000
199.047;  -63.125; -615.000; -488.000
199.193;  -36.900; -230.000; -468.000
199.339;  -36.475; -222.000; -369.000
199.485;   32.750;  330.000;  271.000
199.631;   24.675;  227.000;  310.000
199.777;  -56.825; -466.000; -398.000
199.923;  -51.675; -610.000; -424.000
200.069;  -15.450; -141.000;  -58.000
200.215;   65.850;  128.000;  453.000
200.361;   41.850;  243.000;  477.000
200.507;  -61.650; -600.000; -373.000
200.653;  -32.675; -371.000; -194.000
200.798;  -33.150; -215.000; -125.000
200.944;   -7.550; -146.000;  -41.000
201.090;   33.800;   61.000;  222.000
201.236;   -3.200; -116.000; -158.000
201.382;  131.050;  874.000;  903.000
201.528;    3.075;  -58.000;  -48.000
201.674;  -29.850; -386.000; -293.000
201.819;  -64.150; -540.000; -439.000
201.965;  -78.275; -699.000; -447.000
202.111;  -15.350; -273.000; -226.000
202.257;  -33.700; -250.000; -238.000
202.402;   16.150;   13.000;  -36.000
202.548;  -37.025; -169.000; -116.000
202.694;   87.600;  410.000; -183.000
202.840;  -69.675; -603.000; -531.000
202.985;  -65.975; -681.000; -639.000
203.131; -104.625; -832.000; -666.000
203.277;  -25.900; -199.000; -262.000
203.423;  -44.775; -434.000; -520.000
203.568;  -30.500; -462.000; -237.000
203.714;  -60.850; -535.000; -542.000
203.860;  -70.150; -682.000; -641.000
204.005;   26.100;  112.000;  167.000
204.151;   73.075;  561.000;  556.000
204.296;  -32.575; -354.000; -221.000
204.442;  -62.275; -600.000; -547.000
204.588;  -83.400; -592.000; -579.000
204.733;   26.200;  178.000;  168.000
204.879; -126.750;-1018.000; -822.000
205.025;   13.725;  -99.000;  126.000
205.170;    2.250;  -17.000;   94.000
205.316;   87.075;  438.000;  661.000
205.461;  -78.150; -698.000; -554.000
205.607;   90.650;  609.000;  665.000
205.752;  -82.775; -626.000; -551.000
205.898;  -47.375; -501.000; -391.000
206.043;  -52.775; -578.000; -506.000
206.189;  -39.425; -243.000; -285.000
206.334;   83.575;  554.000;  606.000
206.480;   91.150;  409.000;  239.000
206.625;  -92.000; -529.000; -552.000
206.771;  -39.350; -451.000; -373.000
206.916;  -29.250; -210.000; -537.000
207.062;  -66.250; -545.000; -591.000
207.207;  -58.350; -546.000; -443.000
207.353;   60.550;  185.000;  460.000
207.498;   24.675;  196.000;   85.000
207.643;  -44.800; -501.000; -370.000
207.789; -134.875;-1069.000; -910.000
207.934;  -90.350; -665.000; -713.000
208.080;  -14.275; -154.000;   66.000
208.225;    0.400;  -22.000;  -57.000
208.370;  -83.600; -727.000; -619.000
208.516;  -75.050; -741.000; -487.000
208.661;  -31.525; -127.000;  -69.000
208.806;   -3.475; -165.000; -171.000
208.952; -118.100;-1044.000; -731.000
209.097;   91.100;  378.000;  349.000
209.242;  -36.775; -307.000; -382.000
209.387;   64.975;  392.000;  350.000
209.533;  -45.900; -321.000; -350.000
209.678;   85.600;  472.000;  543.000
209.823;  -47.675; -408.000; -310.000
209.969;  -92.150; -860.000; -757.000
210.114; -110.900; -907.000; -719.000
210.259; -112.925; -939.000; -889.000
210.404;   -9.950; -171.000;  103.000
210.549;   14.875;  108.000;    3.000
210.695;  -11.175;   -3.000;  -95.000
210.840;   34.775;   94.000;   67.000
210.985;  -59.875; -484.000; -303.000
211.130;   73.250;  268.000;  406.000
211.275;   15.775;  207.000;  199.000
211.420;  -43.200; -300.000; -289.000
211.566;  -70.000; -536.000; -489.000
211.711;   26.300;  218.000;  157.000
211.856;  -62.775; -545.000; -519.000
212.001;    6.550;  151.000;   44.000
212.146;   34.300;  153.000;   49.000
212.291;  -24.000; -210.000; -186.000
212.436;  -29.750; -280.000;   -6.000
212.581;  -86.350; -685.000; -653.000
212.726;  -75.200; -487.000; -538.000
212.871;  -46.000; -552.000; -217.000
213.016; -143.000;-1172.000;-1029.000
213.161;   76.075;  406.000;  291.000
213.306;  -73.800; -435.000; -577.000
213.451;  -96.925; -778.000; -689.000
213.596;  -38.350; -455.000; -347.000
213.741;  -51.300; -448.000; -538.000
213.886;  -65.650; -498.000; -517.000
214.031;  -13.950; -294.000; -124.000
214.176;  -52.700; -408.000; -341.000
214.321;  -27.850; -296.000; -157.000
214.466;  -24.400; -163.000;  -43.000
214.611;   20.800;  -61.000;  -10.000
214.756; -120.150; -948.000; -858.000
214.901;  -20.100; -388.000; -226.000
215.046; -114.475; -797.000; -825.000
215.191;   20.075;  128.000;   35.000
215.336;  -15.200; -157.000;  -19.000
215.480;  -59.350; -684.000; -505.000
215.625;  -15.450; -175.000;  -19.000
215.770;  -94.475; -757.000; -662.000
215.915;    8.850;   -5.000;  -97.000
216.060;    4.875; -113.000;  -21.000
216.205; -100.750; -731.000; -779.000
216.349;  -62.000; -470.000; -533.000
216.494; -122.450; -939.000; -867.000
216.639; -124.500; -823.000; -888.000
216.784;  -92.375; -577.000; -525.000
216.929;   56.875;  392.000;  281.000
217.073;  -15.525; -244.000;  -31.000
217.218;    6.525;   78.000;  -47.000
217.363;  -87.850; -656.000; -618.000
217.507;  -69.425; -623.000; -588.000
217.652; -115.650; -845.000; -874.000
217.797;  -87.775; -708.000; -659.000
217.942; -100.950; -856.000; -720.000
218.086;   77.125;  608.000;  539.000
218.231;  -12.925; -174.000;  -26.000
218.376;  -26.900; -337.000; -229.000
218.520;    1.250;  -41.000;   96.000
218.665;  -36.250; -338.000; -204.000
218.810;  -23.625; -275.000; -233.000
218.954;   20.700;  201.000;   35.000
219.099; -121.500; -713.000; -963.000
219.243;  -55.150; -589.000; -554.000
219.388;  -33.725; -264.000; -136.000
219.532;    1.775; -116.000; -116.000
219.677;  -78.325; -564.000; -521.000
219.822;   13.325;   33.000;   89.000
219.966;   23.425;   17.000;  -99.000
220.111;  -30.800; -328.000;  -40.000
220.255;  -85.625; -797.000; -750.000
220.400;  -14.475; -180.000; -146.000
220.544;  -72.025; -516.000; -450.000
220.689;  -49.725; -422.000; -451.000
220.833;  -12.625; -123.000;  -58.000
220.978;  -44.000; -393.000; -563.000
221.122;   30.375;  319.000;  307.000
221.267; -110.850; -906.000; -837.000
221.411;  -59.900; -478.000; -394.000
221.555;   -9.225; -104.000;  -23.000
221.700;  -37.825; -329.000; -222.000
221.844;   47.100;  255.000;  272.000
221.989;  -37.475; -328.000; -311.000
222.133;  -26.475; -289.000; -307.000
222.277;    4.550;    5.000;   78.000
222.422;   17.800;  227.000;  113.000
222.566;  -33.425; -381.000; -214.000
222.711;  -57.550; -414.000; -479.000
222.855;  -82.925; -643.000; -586.000
222.999;  -77.625; -642.000; -717.000
223.144;  -29.850; -195.000; -194.000
223.288;   55.150;  423.000;  251.000
223.432;   29.900;  184.000;  230.000
223.576;   20.225;  152.000;  -21.000
223.721;   36.175;  364.000;  273.000
223.865;  -54.375; -472.000; -475.000
224.009;  239.650; 1673.000; 1631.000
224.153;  -69.250; -660.000; -671.000
224.298;  -66.750; -531.000; -489.000
224.442;   -9.400;  -74.000;  -33.000
224.586;   -3.900; -169.000; -106.000
224.730;  -88.725; -858.000; -670.000
224.875; -107.825; -739.000; -688.000
225.019;    4.725;  102.000;  188.000
225.163;   47.800;  208.000;  341.000
225.307;   20.475;   97.000;  -91.000
225.451;   30.650;  360.000;  481.000
225.595;   38.700;  264.000;  176.000
225.739;   -6.650; -170.000;  -94.000
225.884;    2.675;   86.000;    5.000
226.028; -107.025; -760.000; -626.000
226.172;  -37.225; -260.000; -273.000
226.316; -118.650; -941.000; -902.000
226.460;  -66.950; -645.000; -493.000
226.604;  -46.275; -406.000; -400.000
226.748;  -87.700; -836.000; -733.000
226.892;  -31.475; -227.000; -181.000
227.036;  -51.900; -537.000; -447.000
227.180;  -52.425; -551.000; -375.000
227.324;  -63.750; -561.000; -580.000
227.468; -110.725; -819.000; -717.000
227.612;   15.625;  242.000;  -28.000
227.756;  -94.400; -845.000; -698.000
227.900;   50.000;  342.000;  441.000
228.044;  -59.325; -509.000; -290.000
228.188;   53.800;  448.000;  568.000
228.332;  -75.025; -546.000; -472.000
228.476;  -21.875; -223.000; -149.000
228.620;  -29.925; -210.000; -150.000
228.764;   81.025;  431.000;  349.000
228.908;   -9.525; -155.000;   30.000
229.052;  -67.150; -615.000; -528.000
229.195;   -7.375; -172.000;   13.000
229.339;  -10.200; -235.000; -305.000
229.483;  -22.725;    5.000; -162.000
229.627;   -2.250; -156.000;  139.000
229.771;  -48.400; -218.000; -294.000
229.915;   15.275;  230.000;   79.000
230.059;  -95.225; -648.000; -663.000
230.202;  -39.300; -370.000; -317.000
230.346;   -9.775; -107.000;  107.000
230.490;  -65.400; -489.000; -521.000
230.634; -113.625; -736.000; -553.000
230.777;   78.925;  478.000;  509.000
230.921;  -63.200; -450.000; -359.000
231.065;  -28.450; -246.000; -286.000
231.209;   29.350;  261.000;  265.000
231.352;   17.125;   54.000;   40.000
231.496;   10.425;  568.000;  188.000
231.640;  -79.525; -693.000; -621.000
231.783;   62.475;  546.000;  525.000
231.927;  -38.125; -294.000; -365.000
232.071; -123.800; -962.000; -736.000
232.214;  -96.400; -980.000; -764.000
232.358;  -90.100; -683.000; -599.000
232.502;   12.850;  -19.000;    7.000
232.645; -142.725;-1090.000; -927.000
232.789;  -15.350; -257.000; -218.000
232.933;  -28.200; -407.000; -224.000
233.076; -116.975;-1038.000; -897.000
233.220;  -97.425; -752.000; -777.000
233.363;  -79.225; -669.000; -477.000
233.507;   63.350;  371.000;  129.000
233.650;  -89.650; -764.000; -834.000
233.794;   53.625;  438.000;  461.000
233.938;  -67.125; -530.000; -362.000
234.081;  -12.350;  -93.000;   31.000
234.225;  -55.700; -631.000; -539.000
234.368; -107.325; -773.000; -723.000
234.512;  -43.550; -385.000; -299.000
234.655;  -74.525; -582.000; -555.000
234.798;  -62.550; -493.000; -466.000
234.942; -124.550; -884.000;-1002.000
235.085;  -74.625; -651.000; -443.000
235.229;  -69.325; -405.000; -410.000
235.372;  -48.350; -247.000; -191.000
235.516;  -68.175; -397.000; -321.000
235.659;   35.525;   92.000;  121.000
235.802;   -9.875;  -38.000;  -22.000
235.946;   20.775;  335.000;  215.000
236.089;   28.800;  126.000;  250.000
236.233;   58.325;  275.000;  298.000
236.376;  -38.825; -235.000; -378.000
236.519;  -57.400; -297.000; -319.000
236.663;  -11.375; -215.000; -117.000
236.806; -139.200;-1029.000; -999.000
236.949;   73.000;  543.000;  431.000
237.092;   63.600;  412.000;  391.000
237.236;  -88.350; -589.000; -502.000
237.379;   61.000;  352.000;  428.000
237.522; -131.550; -879.000; -768.000
237.666;  -18.575; -271.000;   18.000
237.809; -111.025; -851.000; -823.000
237.952;   35.850;  469.000;  271.000
238.095;  -53.100; -447.000; -442.000
238.238;  106.025;  688.000;  700.000
238.382;   -1.975;  166.000;  103.000
238.525;  -58.725; -598.000; -511.000
238.668; -130.600;-1060.000; -985.000
238.811;  -78.925; -638.000; -643.000
238.954;  -60.925; -483.000; -334.000
239.097;   98.475;  617.000;  664.000
239.241;   39.475;  394.000;  326.000
239.384;  -49.425; -254.000; -214.000
239.527;  -57.950; -424.000; -224.000
239.670; -133.775; -994.000;-1091.000
239.813; -113.000; -696.000; -658.000
239.956;   86.750;  579.000;  473.000
240.099; -103.750; -778.000; -725.000
240.242;   64.950;  428.000;  432.000
240.385;   52.400;  466.000;  450.000
240.528;  -70.625; -706.000; -473.000
240.671;   14.450;  189.000;  134.000
240.814;  -34.150; -441.000; -158.000
240.957;  -89.025; -767.000; -578.000
241.100;  -90.225; -779.000; -755.000
241.243; -137.125;-1234.000; -893.000
241.386;  -62.625; -508.000; -379.000
241.529;  -81.225; -735.000; -547.000
241.672;  -58.050; -566.000; -495.000
241.815; -123.325; -832.000; -808.000
241.958;  -23.675; -125.000; -182.000
242.101;  -67.450; -545.000; -390.000
242.244;  -48.650; -270.000; -325.000
242.387;  -49.050; -304.000; -246.000
242.530;   63.425;  470.000;  134.000
242.673;  -56.525; -381.000; -309.000
242.815; -114.325; -925.000; -899.000
242.958;  -80.375; -482.000; -381.000
243.101;   22.225;  132.000;  187.000
243.244;  -86.675; -564.000; -521.000
243.387;  -36.975; -313.000; -316.000
243.530; -107.450; -657.000; -674.000
243.672;    8.200;   43.000;  -92.000
243.815;  -54.200; -355.000; -283.000
243.958;    4.325;   98.000;  -26.000
244.101;   -3.400;   59.000;  -16.000
244.243;   -7.950;  -47.000;  101.000
244.386; -109.525; -761.000; -630.000
244.529;  -22.925; -132.000; -139.000
244.672; -150.650;-1154.000; -951.000
244.814;  -87.650; -621.000; -794.000
244.957;  -56.350; -380.000; -304.000
245.100;  -70.575; -489.000; -489.000
245.242;  -64.800; -387.000; -374.000
245.385;    0.800;  -59.000;  -39.000
245.528; -106.425; -871.000; -705.000
245.670;   85.100;  612.000;  634.000
245.813;  -89.225; -599.000; -547.000
245.956;  -32.150; -324.000; -275.000
246.098;  -73.850; -508.000; -650.000
246.241;    5.825;  194.000;   48.000
246.383;  -17.100; -119.000;  -73.000
246.526;  -71.275; -454.000; -525.000
246.669; -115.975; -889.000; -780.000
246.811;   20.250;  172.000;   -1.000
246.954;  -63.475; -512.000; -426.000
247.096;  -24.100;  -84.000;   -6.000
247.239;  -68.350; -482.000; -445.000
247.381;  -81.375; -647.000; -488.000
247.524;   87.150;  645.000;  679.000
247.666;   -2.050;   58.000;   11.000
247.809; -106.400; -887.000; -691.000
247.951;   -3.700;  -75.000;  138.000
248.094;   34.075;  432.000;  308.000
248.236; -158.350;-1262.000;-1238.000
248.378;    9.600; -356.000;  -81.000
248.521;  -24.625; -334.000; -337.000
248.663;  -38.200; -236.000; -267.000
248.806;  -22.675; -300.000; -266.000
248.948; -103.325; -886.000; -763.000
249.090;  -40.700; -428.000; -398.000
249.233;  -42.750; -344.000; -381.000
249.375;  -51.775; -474.000; -451.000
249.518;  -24.000;  -83.000; -133.000
249.660;   -4.000; -103.000;    3.000
249.802; -157.750;-1303.000;-1189.000
249.945;  -85.125; -612.000; -540.000
250.087; -110.200; -834.000; -768.000
250.229;  -46.600; -362.000; -480.000
250.371;  -67.200; -494.000; -439.000
250.514;  -49.625; -310.000; -244.000
250.656;  -59.650;   69.000;  102.000
250.798; -117.925; -849.000; -800.000
250.940;  -61.325; -322.000; -322.000
251.083;  -36.425; -335.000; -111.000
251.225;   45.925;  338.000;  310.000
251.367;  -36.175; -274.000; -373.000
251.509;  -23.650; -265.000; -210.000
251.651;  -92.125; -731.000; -671.000
251.794;   89.200;  538.000;  632.000
251.936; -105.550; -821.000; -747.000
252.078;  -80.450; -540.000; -461.000
252.220;  -68.325; -645.000; -477.000
252.362;   94.175;  344.000;  462.000
252.504;  -58.275; -677.000; -584.000
252.646; -103.000; -875.000; -722.000
252.788;   -2.725;   14.000; -128.000
252.931;  -41.475; -257.000; -253.000
253.073;  -36.850; -376.000; -317.000
253.215;   -0.750;  141.000;  122.000
253.357;   -4.225;   82.000; -153.000
253.499;  -46.675; -374.000; -234.000
253.641;  -89.350; -749.000; -594.000
253.783;  -87.600; -609.000; -527.000
253.925;  -89.600; -586.000; -591.000
254.067; -107.700; -744.000; -667.000
254.209;  -22.800; -391.000; -259.000
254.351; -135.000; -865.000; -883.000
254.493;  -47.975; -441.000; -417.000
254.635; -130.375; -936.000; -818.000
254.777;  -84.675; -752.000; -687.000
254.918;  -77.325; -512.000; -430.000
255.060;  -63.625; -551.000; -395.000
255.202;  -54.375; -473.000; -261.000
255.344;  -73.150; -658.000; -455.000
255.486;  -73.125; -471.000; -406.000
255.628; -116.700; -780.000; -781.000
255.770;  -83.925; -676.000; -536.000
255.912;  -71.175; -559.000; -468.000
256.053;  -90.200; -730.000; -508.000
256.195;  161.375; 1008.000;  903.000
256.337;  -95.625; -861.000; -595.000
256.479;   60.275;  532.000;  416.000
256.621;  -48.175; -394.000; -212.000
256.762; -101.425; -789.000; -742.000
256.904;   56.775;  485.000;  487.000
257.046;  -51.100; -381.000; -271.000
257.188;  -43.200; -351.000; -264.000
257.329;  -76.475; -525.000; -464.000
257.471; -110.450; -939.000; -807.000
257.613;  -67.950; -584.000; -498.000
257.755; -138.375;-1073.000; -982.000
257.896;   33.250;  286.000;  392.000
258.038;  -74.800; -403.000; -352.000
258.180;  -30.925; -354.000; -279.000
258.321;  -83.150; -581.000; -457.000
258.463;   -5.550;  -71.000;  133.000
258.605;  -89.950; -562.000; -570.000
258.746; -117.550; -886.000; -772.000
258.888; -144.675;-1026.000;-1020.000
259.029;   17.525;  121.000;   -8.000
259.171;  -84.350; -614.000; -550.000
259.313;   -0.625;  -49.000;  -47.000
259.454;  -69.250; -536.000; -414.000
259.596;  -44.200; -483.000; -390.000
259.737;  -82.650; -590.000; -474.000
259.879;   43.125;  217.000;  311.000
260.020;   85.500;  901.000;  636.000
260.162;  -22.800; -146.000; -253.000
260.303; -118.825; -768.000; -687.000
260.445;  -90.875; -609.000; -613.000
260.586;   19.700;  392.000;  157.000
260.728;  -38.975; -360.000; -248.000
260.869; -104.900; -350.000; -343.000
261.011;   91.075;  706.000;  537.000
261.152;  -66.550; -479.000; -319.000
261.293;  -72.075; -576.000; -595.000
261.435;  -36.750; -219.000; -184.000
261.576;  -52.975; -455.000; -325.000
261.718;   66.325;  420.000;  470.000
261.859; -123.775; -940.000; -949.000
262.000; -135.025; -951.000;-1016.000
262.142;  -12.400;  -52.000;  -60.000
262.283; -116.450; -808.000; -691.000
262.424;  -96.825; -666.000; -625.000
262.566; -158.825;-1161.000; -983.000
262.707; -113.675; -840.000; -830.000
262.848; -112.425; -769.000; -726.000
262.990;  -41.400; -362.000; -345.000
263.131;   70.350;  650.000;  681.000
263.272;    7.525;  -61.000;  -41.000
263.413;  -87.150; -589.000; -561.000
263.555;  -64.900; -669.000; -143.000
263.696;  -76.700; -550.000; -641.000
263.837;  -53.675; -449.000; -551.000
263.978;  -12.625;   -5.000;  -77.000
264.119;  -43.550; -283.000; -264.000
264.261; -118.225; -847.000; -630.000
264.402;    4.000;   33.000;   40.000
264.543;  -62.575; -509.000; -524.000
264.684;  -19.000;   61.000;  -50.000
264.825;  -67.000; -816.000; -538.000
264.966;   -4.100;  -84.000;  -67.000
265.107; -118.700; -646.000; -670.000
265.248; -120.050; -825.000; -812.000
265.390;    0.475;  152.000;   -9.000
265.531;  -19.425; -238.000; -107.000
265.672;  -95.325; -557.000; -630.000
265.813;   63.650;  563.000;  439.000
265.954; -145.500; -959.000; -940.000
266.095;   -5.850; -372.000; -322.000
266.236;  -92.925; -686.000; -548.000
266.377;  -45.475; -243.000; -297.000
266.518;  -78.550; -619.000; -547.000
266.659;   34.875;  170.000;  268.000
266.800;   -3.875;   83.000;   85.000
266.941;  -78.450; -487.000; -478.000
267.082;    8.125;  354.000;   99.000
267.223;  -52.125; -344.000; -273.000
267.364; -112.400; -892.000; -686.000
267.504;   -8.500;    3.000;  135.000
267.645;    0.875;  160.000;   67.000
267.786;  -34.050; -147.000;  -86.000
267.927;  -66.150; -473.000; -379.000
268.068;  -24.200; -186.000;  -61.000
268.209;  -28.450; -175.000; -413.000
268.350;  -65.525; -388.000; -532.000
268.490;  -86.175; -648.000; -521.000
268.631;   13.200;  127.000;  225.000
268.772; -109.625; -874.000; -647.000
268.913;  -52.800; -328.000; -476.000
269.054;   -0.825; -117.000;   12.000
269.194;  -35.250; -418.000; -402.000
269.335; -165.875;-1137.000;-1074.000
269.476;  -19.750;   33.000;  -35.000
269.617;  -47.250; -347.000; -392.000
269.757;  -97.625; -713.000; -646.000
269.898; -102.750; -856.000; -613.000
270.039;  -62.475; -415.000; -405.000
270.180; -147.050; -952.000; -816.000
270.320;  -16.325; -190.000; -250.000
270.461;  -27.350; -277.000; -249.000
270.602;  -12.550; -186.000; -156.000
270.742; -116.450; -868.000; -943.000
270.883;  -58.625; -442.000; -390.000
271.023;  -64.350; -358.000; -357.000
271.164;  -56.200; -607.000; -528.000
271.305; -103.650; -666.000; -654.000
271.445;  -74.800; -722.000; -683.000
271.586;  -62.725; -462.000; -283.000
271.726;  -43.975; -397.000; -322.000
271.867;  -63.150; -594.000; -534.000
272.008;  167.250; -473.000; -285.000
272.148;  117.075;  462.000;  468.000
272.289;    4.050; -113.000; -181.000
272.429;   27.125;   19.000;  185.000
272.570;  -88.850; -633.000; -737.000
272.710;  -87.250; -825.000; -775.000
272.851;  -31.475;  113.000; -130.000
272.991; -159.000;-1173.000;-1077.000
273.131;  -69.400; -419.000; -459.000
273.272;  -94.325; -683.000; -723.000
273.412;    6.900; -143.000;  -31.000
273.553;  -65.025; -488.000; -507.000
273.693;  134.575;  913.000;  858.000
273.834; -112.975; -894.000; -692.000
273.974;  -75.300; -664.000; -615.000
274.114; -110.800; -772.000; -560.000
274.255;   72.875;  414.000;  373.000
274.395;   12.775; -180.000; -125.000
274.535;   41.875;  199.000;  350.000
274.676;   11.125;  225.000;   94.000
274.816;   14.450;  110.000;   34.000
274.956;  -87.300; -624.000; -690.000
275.097;  -58.950;-1014.000; -922.000
275.237; -115.500; -913.000; -803.000
275.377; -111.625; -778.000; -689.000
275.517; -162.225; -878.000; -937.000
275.658;  -52.650; -590.000; -555.000
275.798;  -73.100; -606.000; -413.000
275.938;   27.975;  215.000;  323.000
276.078;  -93.250; -626.000; -395.000
276.218;   13.025;   99.000;  104.000
276.359; -141.800;-1026.000;-1024.000
276.499;  -84.725; -605.000; -446.000
276.639;  -28.825; -305.000; -151.000
276.779;  -43.875; -475.000; -357.000
276.919; -110.825; -783.000; -624.000
277.059;  -42.200; -261.000; -212.000
277.199;  -43.475; -357.000; -259.000
277.340;   33.225;  287.000;  175.000
277.480; -113.775; -840.000; -693.000
277.620;   25.650;  192.000;   16.000
277.760; -208.150;-1533.000;-1294.000
277.900;   10.450;  113.000;   33.000
278.040;   10.425;  137.000;  159.000
278.180;   45.750;  270.000;  170.000
278.320;   12.400;   21.000;   56.000
278.460;  -81.300; -443.000; -469.000
278.600;  -82.725; -708.000; -598.000
278.740;   30.875;  448.000;  224.000
278.880;  -63.125; -768.000; -791.000
279.020;   -7.025; -194.000; -144.000
279.160;  -97.700; -672.000; -595.000
279.300; -124.650; -926.000; -873.000
279.440;  -85.375; -709.000; -622.000
279.579;  -29.650;-1014.000; -929.000
279.719;  -47.200; -410.000; -394.000
279.859;   61.550;   -4.000;   41.000
279.999;   30.550; -208.000;  101.000
280.139;  -17.300; -435.000; -387.000
280.279;  -77.800; -708.000; -745.000
280.419;  -15.275; -229.000; -147.000
280.559;  -44.775; -259.000; -180.000
280.698;  -83.550; -790.000; -639.000
280.838;  -98.825; -778.000; -800.000
280.978;  -95.500; -846.000; -790.000
281.118; -111.725; -811.000; -704.000
281.257;   12.075;   24.000;    6.000
281.397; -122.350;-1094.000; -960.000
281.537; -104.900; -599.000; -712.000
281.677;  -25.125; -150.000; -101.000
281.816;  -89.750; -700.000; -630.000
281.956;  -43.875; -193.000; -257.000
282.096;  -64.175; -539.000; -396.000
282.235; -111.825; -672.000; -638.000
282.375;  -14.750; -243.000;  -98.000
282.515;  -95.000; -715.000; -707.000
282.654;   30.075;   29.000;  106.000
282.794;   37.150;  388.000;  244.000
282.934;  -50.000; -530.000; -491.000
283.073; -128.500;-1030.000; -857.000
283.213;  -55.525; -460.000; -467.000
283.353;  -37.050; -408.000; -349.000
283.492;  -28.750; -264.000; -296.000
283.632;  -53.475; -254.000; -168.000
283.771;  -97.075; -859.000; -730.000
283.911;  -49.850; -369.000; -260.000
284.050; -104.250; -794.000; -748.000
284.190; -159.625;-1229.000;-1096.000
284.329; -137.525;-1055.000; -964.000
284.469;  -70.150; -516.000; -591.000
284.608;  -65.050; -559.000; -598.000
284.748;  -80.150; -614.000; -570.000
284.887;  -13.175;  -87.000;  -20.000
285.027; -120.475; -844.000; -892.000
285.166;  -32.525; -192.000; -249.000
285.306;    3.675; -116.000;  -33.000
285.445;  -41.300; -229.000; -343.000
285.584;  -93.625; -630.000; -494.000
285.724;  -46.425; -282.000; -322.000
285.863; -110.800; -857.000; -507.000
286.002;  -63.775; -366.000; -276.000
286.142; -112.975; -715.000; -622.000
286.281;  -79.250; -525.000; -493.000
286.420;  -72.650; -554.000; -417.000
286.560;   97.125;  653.000;  623.000
286.699; -141.000; -958.000; -912.000
286.838;  -82.600; -590.000; -591.000
286.978;  -83.250; -533.000; -537.000
287.117; -136.850;-1085.000; -950.000
287.256;  -34.150; -228.000; -211.000
287.395;  -57.300; -197.000; -378.000
287.535;  -50.050; -370.000; -298.000
287.674;  -75.550; -509.000; -484.000
287.813;   66.475;  661.000;  533.000
287.952; -130.200;-1010.000; -871.000
288.091; -143.525;-1049.000; -915.000
288.231;    6.700;   13.000;   15.000
288.370; -162.150;-1217.000;-1200.000
288.509;  -87.850; -728.000; -645.000
288.648;  -96.550; -770.000; -548.000
288.787;  -38.125; -243.000;  -87.000
288.926;  -64.750; -454.000; -475.000
289.065;  116.575;  859.000;  672.000
289.204;  -55.800; -377.000; -217.000
289.344;  -88.425; -791.000; -690.000
289.483;   23.075;  416.000;  304.000
289.622;  -33.325; -291.000; -149.000
289.761;  -17.000; -309.000; -166.000
289.900; -108.225; -785.000; -626.000
290.039;  -20.275;  -12.000;  -95.000
290.178;  -39.175; -274.000; -180.000
290.317;  -77.250; -618.000; -479.000
290.456;  -47.225; -463.000; -451.000
290.595; -142.850; -961.000; -833.000
290.734; -130.875; -904.000; -891.000
290.873;  -75.425; -456.000; -420.000
291.011; -120.925; -833.000; -843.000
291.150; -102.475; -770.000; -682.000
291.289;  -38.350; -343.000; -110.000
291.428;  -86.400; -599.000; -480.000
291.567;  -55.150; -370.000; -442.000
291.706;   -4.000;  109.000;  154.000
291.845;  -90.450; -597.000; -505.000
291.984; -172.400;-1234.000;-1061.000
292.122;   75.950;  602.000;  582.000
292.261;   43.225;  620.000;  463.000
292.400;    7.400; -144.000;  211.000
292.539; -130.500; -959.000; -813.000
292.678;  -23.550; -325.000; -300.000
292.816; -159.375;-1136.000; -965.000
292.955;  -91.825; -844.000; -684.000
293.094;  -38.600; -173.000; -337.000
293.233;  -60.550; -556.000; -400.000
293.371;  -37.575; -225.000;  -84.000
293.510; -104.025; -866.000; -780.000
293.649; -121.375; -959.000; -924.000
293.787;  -81.850;-1083.000;-1012.000
293.926;   -9.150; -113.000;  -32.000
294.065;  -49.700; -379.000; -290.000
294.203;   48.200;  298.000;  406.000
294.342;    9.350;   74.000;  156.000
294.481; 5484.075;51180.000; -836.000
294.619;  -28.800; -425.000; -582.000
294.758; -142.850;-1230.000;-1137.000
294.896;   48.475; -125.000;    5.000
295.035; -123.800;-1040.000;-1006.000
295.174; -120.625;-1082.000; -954.000
295.312;  -48.825; -323.000; -203.000
295.451;   -1.125; -307.000; -428.000
295.589;  -52.000; -389.000; -518.000
295.728;   11.850; -292.000; -165.000
295.866;   -0.825;  -36.000;  -51.000
296.005;  -65.300; -584.000; -341.000
296.143;  -71.000; -558.000; -596.000
296.282;  -95.950; -957.000; -881.000
296.420;  -75.800; -657.000; -557.000
296.559;  -85.950; -892.000; -633.000
296.697;   -9.625; -847.000; -665.000
296.835;   28.600;-1141.000;-1002.000
296.974;   41.525;  -23.000;   39.000
297.112;    0.000; -443.000; -504.000
297.251;  -79.200; -815.000; -755.000
297.389;   68.325; -576.000; -438.000
297.527;   22.075; -145.000;  -83.000
297.666;  -56.075; -486.000; -438.000
297.804;  -50.100; -404.000; -264.000
297.942;    1.075; -136.000; -161.000
298.081;   -4.800; -183.000;   63.000
298.219;   51.600;  -17.000;  -19.000
298.357;   41.600; -144.000;  -71.000
298.495;   14.100; -810.000; -812.000
298.634;   62.275;  245.000;  219.000
298.772;   29.950; -220.000; -338.000
298.910;  -37.900; -309.000; -182.000
299.048;  -11.475; -130.000; -153.000
299.187;  -27.550; -350.000; -250.000
299.325;   23.000;   52.000;  122.000
299.463;   33.050; -389.000; -299.000
299.601;   95.975; -327.000; -271.000
299.739; -115.275; -908.000; -883.000
299.877;  -75.575; -791.000; -703.000
300.016;  -69.225;-1095.000; -935.000
300.154;  139.450;  -19.000; -161.000
300.292;   21.900; -428.000; -348.000
300.430;   16.575; -408.000; -291.000
300.568;  -95.425; -940.000; -874.000
300.706;  -61.950; -366.000; -469.000
300.844;  -91.825;-1108.000; -979.000
300.982;  114.175;  246.000;  282.000
301.120; -115.775; -965.000; -866.000
301.258;  -72.025; -812.000; -705.000
301.396;   23.475;  104.000;  -41.000
301.534;   55.875; -218.000; -293.000
301.672;  -14.225; -664.000; -521.000
301.810;   15.375; -613.000; -545.000
301.948;   94.350;   53.000;  149.000
302.086;  562.075; -250.000;  -32.000
302.224;  814.450; -610.000; -585.000
302.362;   30.175; -558.000; -622.000
302.500;  -40.175; -923.000; -893.000
302.638;   83.350;  128.000;  245.000
302.776;  -11.075; -352.000; -408.000
302.913;   39.400;  447.000;  236.000
303.051;   -0.500;  -86.000;  -23.000
303.189;   52.300;   90.000;  118.000
303.327;  -39.825; -341.000; -256.000
303.465;  -76.175; -832.000; -588.000
303.603;  -95.275; -805.000; -604.000
303.740;   99.675;  417.000;  241.000
303.878;    6.050; -800.000; -759.000
304.016;  -91.075; -915.000; -790.000
304.154; -121.525;-1123.000;-1152.000
304.291;  -33.775; -505.000; -554.000
304.429;   12.000;  102.000;   74.000
304.567; -127.175; -908.000; -893.000
304.705;  -45.650; -408.000; -515.000
304.842;   90.725; -616.000; -540.000
304.980;   42.275;  215.000;   35.000
305.118;   27.075; -367.000; -365.000
305.255;  -77.825; -945.000; -927.000
305.393;   66.050;  178.000;  239.000
305.531; -112.800;-1173.000; -956.000
305.668;  -71.275; -663.000; -582.000
305.806;  100.100; -358.000; -439.000
305.943;   91.400; -629.000; -637.000
306.081;   25.750; -378.000; -267.000
306.219;  -95.300; -863.000; -748.000
306.356;   15.375;  158.000;   27.000
306.494;  113.950;  981.000;  761.000
306.631;    1.925;  -11.000;  -55.000
306.769;   -2.625; -613.000; -485.000
306.906;  -17.025; -284.000; -258.000
307.044;  -58.325; -473.000; -488.000
307.181;  -66.600; -410.000; -332.000
307.319;    0.300;  112.000;   87.000
307.456; -167.475;-1191.000;-1153.000
307.594; -103.125; -980.000; -727.000
307.731;   -8.025; -371.000; -164.000
307.868;  -10.750;  -15.000;   20.000
308.006; -149.700; -961.000; -847.000
308.143;  -70.550; -618.000; -330.000
308.281;  124.750;  -37.000; -254.000
308.418;  -18.150; -748.000; -640.000
308.555;  -76.175; -400.000; -250.000
308.693;  -78.675; -577.000; -573.000
308.830; -118.300; -712.000; -657.000
308.967;  -10.425; -215.000;  -95.000
309.105;  -50.025; -507.000; -396.000
309.242;   15.925; -468.000; -367.000
309.379;  241.125; -577.000; -655.000
309.517;  -76.625; -936.000; -948.000
309.654; -103.025; -910.000; -734.000
309.791;  -71.875; -662.000; -580.000
309.928; -129.025; -977.000; -914.000
310.065;  156.675;  819.000;  697.000
310.203;  -16.725; -825.000; -850.000
310.340;  -25.500; -465.000; -321.000
310.477;  -80.550; -412.000; -516.000
310.614;  -79.900; -383.000; -473.000
310.751;  -76.825; -427.000; -518.000
310.889;  -32.800;    1.000;   11.000
311.026; -152.325;-1161.000; -939.000
311.163;  -41.400; -386.000; -380.000
311.300;  -86.750; -512.000; -479.000
311.437;  -72.975; -658.000; -619.000
311.574; -155.625;-1226.000; -985.000
311.711;  -54.050; -595.000; -433.000
311.848;  -58.000; -380.000; -388.000
311.985;   23.575;  270.000;   93.000
312.122; -120.200; -932.000; -762.000
312.259; -114.300; -941.000; -994.000
312.396;  -89.450; -508.000; -551.000
312.533;  -79.825; -812.000; -790.000
312.670; -132.150;-1070.000; -898.000
312.807;  -42.525; -352.000; -367.000
312.944;  -84.900; -513.000; -611.000
313.081;  -33.475; -150.000; -415.000
313.218; -118.200;-1111.000; -867.000
313.355;    7.050; -531.000; -449.000
313.492;   -9.575; -455.000; -292.000
313.629;  105.700;  815.000;  735.000
313.766; -165.375;-1176.000;-1008.000
313.902;  -20.125; -186.000;   21.000
314.039;  -45.425; -372.000; -289.000
314.176;   40.550;  286.000;  192.000
314.313;  -76.300; -569.000; -473.000
314.450;  -84.825; -788.000; -684.000
314.587;  -58.675; -468.000; -480.000
314.723;    8.925;  -78.000;  130.000
314.860;   24.525;  318.000;  332.000
314.997;   27.575;  223.000;  142.000
315.134;  -54.850; -385.000; -368.000
315.270;  -36.775; -480.000; -496.000
315.407; -129.525;-1094.000; -967.000
315.544;  -51.350; -657.000; -538.000
315.681;  -56.000; -681.000; -565.000
315.817;   27.750; -133.000; -176.000
315.954;    8.275; -613.000; -392.000
316.091; -122.700;-1045.000;-1023.000
316.227;  -23.375;  -71.000; -179.000
316.364;   -1.425;   23.000;    6.000
316.500;  -47.000; -113.000; -300.000
316.637;  -44.675; -181.000; -302.000
316.774;  -94.575; -625.000; -358.000
316.910;  -90.375; -598.000; -629.000
317.047;  -63.175; -487.000; -351.000
317.183;  -66.600; -435.000; -566.000
317.320;   -6.075; -367.000; -321.000
317.456;  -56.775; -733.000; -805.000
317.593; -100.825; -598.000; -641.000
317.729;   -1.250;  168.000;  -67.000
317.866; -196.950;-1434.000;-1285.000
318.002; -100.725; -708.000; -948.000
318.139; -113.325; -883.000; -867.000
318.275; -105.625;-1003.000; -738.000
318.412;  -70.650; -517.000; -336.000
318.548;  -41.425; -751.000; -720.000
318.685; -104.425; -985.000; -888.000
318.821;  -90.850; -762.000; -735.000
318.957;  -27.825;   34.000;  -23.000
319.094;   36.225;  297.000;  154.000
319.230;  -76.875; -756.000; -742.000
319.367;  105.825; -471.000; -520.000
319.503;   46.050; -538.000; -436.000
319.639;  -96.575; -877.000; -793.000
319.775;  -65.900; -750.000; -685.000
319.912;  -56.900; -424.000; -519.000
320.048;  -98.950;-1184.000;-1184.000
320.184;   83.950;   59.000;   70.000
320.321;  -52.250; -497.000; -467.000
320.457;   74.125;  475.000;  662.000
320.593;  -55.925; -375.000; -382.000
320.729; -105.150; -732.000; -734.000
320.866;  -75.775; -577.000; -635.000
321.002;  -89.475; -759.000; -809.000
321.138;  -21.425; -135.000; -211.000
321.274;   73.600; -148.000; -115.000
321.410;  -29.275; -585.000; -353.000
321.546;  -50.025;-1011.000; -911.000
321.683;   59.200;  400.000;  185.000
321.819;    9.625;  -48.000; -117.000
321.955; -127.650; -743.000; -722.000
322.091;  -44.775; -585.000; -540.000
322.227;  -12.225; -382.000; -202.000
322.363;  -16.875; -320.000; -215.000
322.499;  -47.275; -343.000; -331.000
322.635;  146.875;  636.000;  443.000
322.771;   15.825; -139.000;   12.000
322.907;   86.925;  129.000;  327.000
323.043;  -27.425; -115.000; -206.000
323.179;  -43.975; -394.000; -363.000
323.315;    3.350; -401.000; -371.000
323.451;   64.500; -328.000; -236.000
323.587;   59.275;  -60.000;  -77.000
323.723;   -0.875; -682.000; -601.000
323.859;  -14.950; -258.000;  -76.000
323.995;  -35.925; -467.000; -409.000
324.131; -129.125; -967.000; -892.000
324.267;  -33.800; -254.000; -276.000
324.402; -134.000; -960.000; -983.000
324.538;  -12.625; -279.000; -104.000
324.674;   13.000;  164.000;   77.000
324.810;   98.575;  226.000;  308.000
324.946;  -13.975; -810.000; -658.000
325.082;  -65.550; -568.000; -475.000
325.217;   -6.200;  -62.000;   16.000
325.353; -112.400; -764.000; -659.000
325.489;  -92.600; -540.000; -506.000
325.625;  -69.225; -579.000; -525.000
325.760;   61.750;  517.000;  376.000
325.896;  -20.725; -515.000; -702.000
326.032;  -58.350; -403.000; -352.000
326.168;  -65.275; -462.000; -369.000
326.303;  -62.125; -352.000; -461.000
326.439;  -31.150; -336.000; -276.000
326.575;   -5.300; -190.000;  -29.000
326.710;   -1.550; -156.000;  -30.000
326.846;  -11.400;  146.000;  103.000
326.982;  -96.775; -530.000; -548.000
327.117;  -70.450; -481.000; -442.000
327.253;  -78.125; -745.000; -742.000
327.388; -128.325;-1137.000;-1153.000
327.524;  -65.225; -811.000; -578.000
327.659;  -18.600;  -58.000;  -22.000
327.795;    0.450;   69.000;   45.000
327.931;  -95.550; -723.000; -499.000
328.066;  -21.375; -417.000; -276.000
328.202;  -22.275;   12.000; -129.000
328.337;  100.800;  957.000;  713.000
328.473;   46.450;  -12.000;  -74.000
328.608;   -0.650; -256.000; -267.000
328.743;  -82.900; -799.000; -664.000
328.879;   17.050;  214.000;  114.000
329.014;  -46.575; -102.000; -122.000
329.150;  -95.850; -358.000; -483.000
329.285;  -82.550; -465.000; -466.000
329.421;  -66.775; -548.000; -246.000
329.556;  -16.725;  -36.000;   85.000
329.691;  -89.050; -633.000; -615.000
329.827;  -77.650; -626.000; -480.000
329.962;  -42.000;  131.000; -301.000
330.097;  -83.550; -673.000; -585.000
330.233;  -64.200; -410.000; -223.000
330.368; -124.650; -839.000; -628.000
330.503;  -17.750;    3.000;   98.000
330.638;   -2.825;  -93.000; -125.000
330.774;  -61.550; -609.000; -530.000
330.909;  -37.125; -434.000; -244.000
331.044;  -99.350; -714.000; -708.000
331.179; -176.525;-1217.000;-1109.000
331.315;   10.675;   77.000;   20.000
331.450;    5.075;  157.000;  285.000
331.585;  -86.150; -805.000; -706.000
331.720;  -94.350; -510.000; -460.000
331.855;   -2.375;  -35.000; -102.000
331.990;  254.475;   62.000;  138.000
332.126;  139.625; -110.000;   71.000
332.261;  -17.550; -379.000; -265.000
332.396;  -18.225; -135.000; -242.000
332.531;  -90.775;-1074.000;-1031.000
332.666;   45.275; -519.000; -363.000
332.801; -101.475; -726.000; -807.000
332.936;  -19.200; -192.000; -122.000
333.071; -155.450; -870.000; -817.000
333.206;    8.875;  307.000;  379.000
333.341;   27.550;  344.000;  418.000
333.476;  -86.075; -627.000; -623.000
333.611;  -35.875; -251.000; -173.000
333.746;  -46.825; -381.000; -464.000
333.881; -122.475; -973.000; -935.000
334.016; -132.800; -936.000; -917.000
334.151; -124.675; -746.000; -702.000
334.286;   20.175;  152.000;  186.000
334.421;  -17.125; -125.000; -178.000
334.556;  -77.050; -611.000; -567.000
334.690; -100.375; -631.000; -577.000
334.825;   52.425;  381.000;   83.000
334.960;  -61.025; -285.000; -413.000
335.095;    0.800;  135.000;  -91.000
335.230; -108.575; -722.000; -738.000
335.365; -145.825;-1084.000; -990.000
335.499; -144.150;-1108.000;-1037.000
335.634;   25.800;    9.000;  534.000
335.769; -105.000; -755.000; -720.000
335.904;  -64.500; -603.000; -561.000
336.038;  -58.775; -735.000; -657.000
336.173; -120.225;-1206.000;-1194.000
336.308;    2.000; -116.000; -189.000
336.443;    9.900; -544.000; -634.000
336.577;  -85.350; -936.000; -787.000
336.712;   57.200;   -4.000;  -12.000
336.847;  -36.650; -724.000; -607.000
336.981;   43.100; -272.000; -208.000
337.116;  266.050;  615.000;  501.000
337.250;  124.675; -434.000; -421.000
337.385;  266.525; -297.000; -208.000
337.520;   95.250; -632.000; -603.000
337.654;  -35.150; -215.000; -126.000
337.789; -130.925; -989.000; -933.000
337.923;  -44.225; -104.000; -205.000
338.058;  -85.200; -673.000; -738.000
338.192;  -45.600; -611.000; -488.000
338.327;   -9.775;  -18.000; -155.000
338.461;  -55.000; -299.000; -469.000
338.596;  -97.900; -780.000; -638.000
338.730; -102.125; -767.000; -803.000
338.865;  103.975;  -46.000; -140.000
338.999;  -48.825; -846.000; -702.000
339.134;  -29.100; -634.000; -536.000
339.268;   30.950; -741.000; -603.000
339.403;  369.950; -740.000; -775.000
339.537;  110.525; -894.000; -820.000
339.671; -114.775; -829.000; -813.000
339.806;  -53.250; -556.000; -512.000
339.940;   11.425; -261.000; -235.000
340.074; -105.050; -685.000; -510.000
340.209;  -41.800; -351.000; -230.000
340.343;  -88.375; -517.000; -573.000
340.477;  151.475;  998.000; 1036.000
340.612;  -49.225;-1033.000; -900.000
340.746;  134.325; -199.000; -243.000
340.880;  -84.125; -924.000; -785.000
341.014;  -20.675;  -45.000; -154.000
341.149; -117.225; -756.000; -718.000
341.283; -110.325; -839.000; -754.000
341.417; -105.800;-1124.000; -938.000
341.551;   85.625; -768.000; -708.000
341.685;  -41.600; -633.000; -611.000
341.820;  -55.150; -562.000; -493.000
341.954;  -55.725; -218.000; -349.000
342.088; -150.150;-1102.000;-1019.000
342.222;   48.275;  565.000;  618.000
342.356;  -57.050; -395.000; -335.000
342.490; -100.475; -880.000; -841.000
342.624;  -52.150; -339.000; -242.000
342.758;  -11.650; -364.000; -312.000
342.892;  -69.575; -710.000; -585.000
343.026;  -32.425;  -58.000; -116.000
343.160;  -65.025; -426.000; -376.000
343.294;  -76.800; -474.000; -337.000
343.428;  -31.800; -488.000; -448.000
343.562;  -20.025; -172.000;  -23.000
343.696;  -42.775; -385.000; -314.000
343.830;  -35.350; -362.000; -356.000
343.964;    1.425; -231.000; -168.000
344.098;  808.900;  199.000;   70.000
344.232;  673.825; -266.000; -127.000
344.366;   85.575; -567.000; -453.000
344.500;   35.825; -665.000; -744.000
344.634;   21.975; -324.000; -164.000
344.768;  -39.425; -531.000; -341.000
344.902;   10.950;  278.000;  256.000
345.035;  -75.925; -556.000; -496.000
345.169; -130.125; -933.000; -656.000
345.303;  -36.550; -308.000; -482.000
345.437;  -74.525; -826.000; -717.000
345.571;  -82.350; -675.000; -594.000
345.704;  -76.650; -309.000; -532.000
345.838;  -29.125; -331.000; -284.000
345.972;  -58.875; -543.000; -495.000
346.106;  172.300; -179.000; -190.000
346.239;  399.025; -312.000; -243.000
346.373;   12.150; -343.000; -302.000
346.507; -149.250; -950.000; -962.000
346.640;  144.650;  -30.000;   13.000
346.774;  -59.500; -650.000; -797.000
346.908;  -19.525; -138.000;  -11.000
347.041; -106.525; -646.000; -593.000
347.175;    2.950;  259.000;   27.000
347.309;  -87.700; -698.000; -628.000
347.442;  -97.950; -883.000; -732.000
347.576;  252.150;  670.000;  668.000
347.709;  173.475; -123.000;  -52.000
347.843;  -99.025; -933.000; -825.000
347.976;   28.075;  235.000;  294.000
348.110; -191.100;-1268.000;-1186.000
348.243; -108.025; -679.000; -772.000
348.377;  -10.650;  -26.000;   60.000
348.510;   53.700;  403.000;  540.000
348.644;  -40.150;  -37.000; -159.000
348.777;    6.275;  180.000;  191.000
348.911;  -41.925; -142.000; -112.000
349.044;  165.875;  471.000;  448.000
349.178;  145.900;-1069.000;-1006.000
349.311;  101.350;  141.000;  255.000
349.444;  -11.600; -927.000; -813.000
349.578;  -30.250; -347.000; -200.000
349.711; -104.100; -959.000; -862.000
349.845;   -4.550; -661.000; -591.000
349.978; -150.175;-1224.000;-1137.000
350.111;  -89.825; -546.000; -612.000
350.244;  -87.675; -596.000; -700.000
350.378;   -0.500; -392.000; -393.000
350.511;  -71.650; -393.000; -426.000
350.644; -114.050; -808.000; -806.000
350.778;   16.375;  168.000;  104.000
350.911;   -2.800;  134.000;  140.000
351.044;  -95.425; -685.000; -615.000
351.177;  -28.675; -321.000; -281.000
351.310;  -36.675;    3.000; -131.000
351.444;  -80.725; -888.000; -788.000
351.577;  104.125;  140.000;   90.000
351.710;  100.800;  593.000;  417.000
351.843;  -39.425; -165.000;  -77.000
351.976;   -4.150;  149.000;  -79.000
352.109;  -91.575; -621.000; -612.000
352.242;  -41.250; -464.000; -419.000
352.376;  -64.075; -580.000; -636.000
352.509;  146.275; -437.000; -356.000
352.642;   -8.450; -654.000; -604.000
352.775;   59.425; -141.000;  -98.000
352.908; -133.625; -933.000; -904.000
353.041; -103.350; -814.000; -824.000
353.174;  -69.525; -551.000; -424.000
353.307;  -85.400; -753.000; -764.000
353.440;   70.625;  541.000;  453.000
353.573; -118.650; -957.000;-1008.000
353.706;  -28.075; -384.000; -558.000
353.839;  -30.525; -264.000; -220.000
353.971;  -93.625; -657.000; -512.000
354.104;  -88.425; -896.000; -835.000
354.237;  -50.925; -627.000; -662.000
354.370;  -91.575; -846.000; -879.000
354.503; -176.250;-1231.000;-1308.000
354.636;  -47.000; -529.000; -348.000
354.769; -133.650; -937.000; -860.000
354.902;  -20.550; -230.000; -139.000
355.034;   -7.025; -164.000; -220.000
355.167;  -19.400; -262.000; -162.000
355.300;  -98.325;-1061.000; -880.000
355.433;  990.225;  -71.000;  -14.000
355.565; 1538.100; -402.000; -384.000
355.698;  383.075; -356.000; -296.000
355.831;  -11.250; -882.000; -801.000
355.964;   59.375; -285.000; -170.000
356.096;  -90.650; -856.000; -843.000
356.229;  -15.600; -523.000; -530.000
356.362;  327.775; -373.000; -266.000
356.494;  624.200; -229.000; -162.000
356.627;  436.425;  269.000;  377.000
356.760;  658.125;  120.000;   53.000
356.892;  979.025; -286.000; -601.000
357.025;  573.025;  403.000;  389.000
357.157;  530.950; -167.000; -179.000
357.290;  691.575; -856.000; -713.000
357.423;  208.175; -667.000; -556.000
357.555;  104.250; -217.000; -228.000
357.688;  115.675; -483.000; -364.000
357.820;  425.875; -870.000; -877.000
357.953; 3393.925; -563.000; -589.000
358.085;  701.425; -632.000; -612.000
358.218;  947.125;-1131.000; -932.000
358.350;  170.375;  -58.000;  312.000
358.483; -140.900;-1300.000;-1187.000
358.615;  -28.725;-1182.000;-1078.000
358.747;  -79.775;-1187.000;-1058.000
358.880;    4.300; -810.000; -744.000
359.012;  -19.125; -376.000; -202.000
359.145;  -38.375; -480.000; -511.000
359.277;   41.850; -962.000; -913.000
359.409; 2797.475;  536.000;  231.000
359.542;  730.175; -738.000; -688.000
359.674;   68.225;   46.000;   13.000
359.806;  -75.075; -565.000; -438.000
359.939;  -39.125; -617.000; -516.000
360.071;   -4.175; -583.000; -579.000
360.203;  -23.325; -411.000; -364.000
360.335;   50.150;  164.000;  -16.000
360.468;  172.875; -249.000; -307.000
360.600; 2281.700; -547.000; -454.000
360.732; 2907.925; -546.000; -423.000
360.864;  401.425;-1216.000;-1044.000
360.996;  221.325; -516.000; -554.000
361.129;   25.850; -389.000; -598.000
361.261;   14.075;  110.000; -113.000
361.393;  -51.675; -252.000; -214.000
361.525;   28.975;   94.000;  244.000
361.657;  -34.650; -821.000; -703.000
361.789;    9.375; -139.000; -155.000
361.921;  173.650; -642.000; -593.000
362.053;  230.925;  524.000;  541.000
362.185;   56.250;  288.000;   72.000
362.318;  -92.575; -709.000; -705.000
362.450;   92.300;  294.000;  444.000
362.582;   50.600; -913.000; -870.000
362.714;  -33.850; -353.000; -332.000
362.846;  -76.575; -606.000; -490.000
362.978; -137.400; -941.000; -811.000
363.109;   27.375; -161.000; -260.000
363.241;  364.625; -739.000; -749.000
363.373;  422.775; -649.000; -564.000
363.505;  666.875; -186.000;  -91.000
363.637;  154.950; -787.000; -601.000
363.769; -128.450;-1067.000;-1080.000
363.901;  -80.550; -596.000; -654.000
364.033; -128.575;-1103.000;-1062.000
364.165;    4.575; -283.000; -283.000
364.296;   61.900; -316.000; -177.000
364.428;   72.250;-1344.000;-1220.000
364.560;  -87.175; -679.000; -661.000
364.692;  -75.075; -738.000; -835.000
364.824;  195.575; -588.000; -456.000
364.955;  412.900; -402.000; -564.000
365.087;  984.475;-1097.000; -852.000
365.219;   42.650; -686.000; -816.000
365.351;  -73.075; -526.000; -572.000
365.482;   54.275;  300.000;  240.000
365.614;  -42.525; -402.000; -314.000
365.746; -101.450; -729.000; -752.000
365.877;  -90.450; -706.000; -672.000
366.009;  264.600;  -35.000;  -62.000
366.141;  -84.650;-1249.000;-1134.000
366.272;  -92.000; -803.000; -719.000
366.404; -110.100;-1005.000; -874.000
366.535;  -11.050; -139.000;  -12.000
366.667; -117.975; -644.000; -649.000
366.799;   29.150;  353.000;  203.000
366.930; -133.725; -862.000; -996.000
367.062;  128.550; -639.000; -613.000
367.193;  147.750; -872.000; -842.000
367.325;  -60.250; -580.000; -684.000
367.456;   33.350; -246.000;   31.000
367.588;  162.200; -371.000; -318.000
367.719;   17.325;  -44.000;  -45.000
367.851;  -14.000; -222.000; -241.000
367.982;  -65.500; -875.000; -732.000
368.113;   77.100; -475.000; -358.000
368.245; -124.125; -960.000; -841.000
368.376;  -24.975; -254.000; -302.000
368.508;  -39.175; -188.000; -263.000
368.639; -141.550;-1166.000;-1034.000
368.770;  -29.975; -670.000; -589.000
368.902;  -88.150; -836.000; -926.000
369.033; -114.050; -906.000; -855.000
369.164;  -53.625; -720.000; -653.000
369.296; -112.200; -452.000; -601.000
369.427;  -21.275; -209.000; -144.000
369.558;  -49.625; -593.000; -377.000
369.689;  -89.075; -721.000; -569.000
369.821; -132.975; -951.000; -845.000
369.952;  -12.250;   42.000; -108.000
370.083;  -41.650; -229.000; -108.000
370.214;  -87.050; -735.000; -650.000
370.345;  -17.150;   65.000;   81.000
370.477;  -93.075; -810.000; -790.000
370.608;  202.875; -328.000; -264.000
370.739;  -64.025;-1233.000;-1292.000
370.870;  -38.150;-1102.000; -923.000
371.001;   55.350; -378.000; -467.000
371.132;  -93.925; -754.000; -735.000
371.263;  -13.350;  -42.000; -148.000
371.394; -132.175; -841.000; -748.000
371.525;   28.300;  345.000;  225.000
371.657;  -97.050; -808.000; -670.000
371.788;   53.900;  103.000;  199.000
371.919;  118.300; -384.000; -304.000
372.050; 3243.575;  -91.000; -156.000
372.181;  983.150; -188.000; -294.000
372.311;  330.900;   42.000; -127.000
372.442;   22.500; -457.000; -451.000
372.573;  -37.850; -444.000; -340.000
372.704; -119.450;-1008.000; -980.000
372.835;   64.000; -228.000; -289.000
372.966;  -74.675; -646.000; -554.000
373.097;  -71.000; -575.000; -711.000
373.228;  -46.850; -717.000; -542.000
373.359;   93.900; -824.000; -536.000
373.490;  807.825; -881.000; -727.000
373.620; 1006.950;-1001.000; -803.000
373.751; 1571.575; -332.000; -396.000
373.882;  697.050; -663.000; -733.000
374.013;   33.500; -449.000; -262.000
374.143;  -45.125; -581.000; -659.000
374.274; -116.525; -987.000; -908.000
374.405;  144.200; -388.000; -276.000
374.536;  373.800; -526.000; -387.000
374.666;  967.300; -759.000; -807.000
374.797;  190.500; -817.000; -868.000
374.928;  743.800; -710.000; -560.000
375.058;  781.800; -535.000; -500.000
375.189;   70.825;  -59.000;  -93.000
375.320; -109.925; -928.000;-1034.000
375.450;  -52.475; -625.000; -616.000
375.581;  -70.150; -526.000; -436.000
375.712;  -31.675; -574.000; -250.000
375.842;  247.225; -438.000; -415.000
375.973;  179.725; -554.000; -513.000
376.103;  -58.200; -665.000; -648.000
376.234;  -76.500; -531.000; -552.000
376.364;  -49.525; -944.000; -867.000
376.495;  284.525;  925.000;  529.000
376.625;  -18.025; -472.000; -485.000
376.756;   36.000; -709.000; -678.000
376.886;  -92.300;-1178.000;-1026.000
377.017;   55.925;-1048.000;-1061.000
377.147;  361.125; -786.000; -782.000
377.278;   57.325;  174.000;  228.000
377.408; -131.225; -801.000; -815.000
377.538; -112.650; -707.000; -693.000
377.669;  -80.000; -537.000; -613.000
377.799; -101.775; -645.000; -635.000
377.929;  -63.650; -610.000; -428.000
378.060; -125.900; -781.000; -847.000
378.190;  -60.925; -726.000; -531.000
378.320;  -53.150; -401.000; -406.000
378.451;   -7.525; -131.000;  -22.000
378.581;  -22.875;  -67.000; -110.000
378.711;  134.300; 1035.000;  866.000
378.841;  -32.800; -533.000; -675.000
378.972;  -76.075; -871.000; -751.000
379.102;  -10.450; -652.000; -579.000
379.232;  -37.700; -126.000;  -73.000
379.362; -114.850;-1001.000; -885.000
379.492;   -6.375; -373.000; -424.000
379.623;   83.450;    0.000;  111.000
379.753;  -99.625;-1107.000; -974.000
379.883;  155.325;   59.000;  156.000
380.013;  -16.075;-1081.000;-1017.000
380.143; -112.150;-1097.000;-1056.000
380.273; -106.300; -985.000; -861.000
380.403;  -15.050; -344.000; -257.000
380.533;  -37.725; -651.000; -664.000
380.663;   58.275;  173.000;  128.000
380.793; -111.400;-1027.000;-1074.000
380.923;  -28.425; -103.000;  -34.000
381.053; -107.450; -613.000; -623.000
381.183;  -37.275; -106.000; -248.000
381.313;   21.525; -656.000; -470.000
381.443;   16.075; -692.000; -473.000
381.573;  147.400; -402.000; -409.000
381.703;  196.200;-1249.000;-1095.000
381.833; -150.800;-1454.000;-1336.000
381.963;   89.425; -134.000;  -87.000
382.093; 1248.550; -925.000; -909.000
382.223;  379.550; -713.000; -602.000
382.353;  -34.675; -801.000; -608.000
382.482;  310.975;-1091.000; -964.000
382.612;  671.825; -872.000; -644.000
382.742;  378.725; -695.000; -622.000
382.872;  202.475; -565.000; -551.000
383.002;   58.550;  347.000; -132.000
383.131;  -13.275; -226.000; -160.000
383.261;  -39.750; -706.000; -768.000
383.391;  280.275; -552.000; -377.000
383.521; 3374.150;  451.000;  263.000
383.650;  805.150; -947.000; -904.000
383.780;  -16.225; -783.000; -656.000
383.910;   98.975;  880.000;  802.000
384.039;   -2.500; -794.000; -656.000
384.169;  149.000;-1205.000;-1017.000
384.299;  -36.650; -650.000; -662.000
384.428; -100.825; -764.000; -680.000
384.558;  -54.600; -308.000; -275.000
384.687;  -57.025; -414.000; -334.000
384.817;   11.100;   75.000;   -2.000
384.947;    8.250; -234.000; -141.000
385.076;  262.275;  982.000;  912.000
385.206;   76.850;  369.000;  480.000
385.335;  -36.400; -549.000; -417.000
385.465;  -79.325; -655.000; -663.000
385.594;  112.425;  -53.000;  -44.000
385.724;  333.450; -868.000; -838.000
385.853;   98.150; -296.000; -270.000
385.982; 1187.650; -743.000; -787.000
386.112; 1892.350;-1052.000; -871.000
386.241;  121.775; -307.000; -312.000
386.371;   14.350; -174.000;  -87.000
386.500;  -22.000; -825.000; -789.000
386.629;    4.425; -874.000; -817.000
386.759;   61.825;  -43.000;   68.000
386.888;  -28.225; -170.000; -250.000
387.017;  -87.025; -648.000; -620.000
387.147;  -91.500; -771.000; -798.000
387.276;  -13.625; -410.000; -397.000
387.405;   -4.025; -398.000; -342.000
387.535;  -48.275; -452.000; -361.000
387.664;  -74.150; -692.000; -620.000
387.793;   28.550; -198.000; -113.000
387.922;  443.425;  255.000;  200.000
388.052;   -7.450; -576.000; -423.000
388.181;   -0.975; -342.000; -472.000
388.310;  -28.800; -889.000; -710.000
388.439;  -73.550; -749.000; -742.000
388.568;  148.200;  365.000;  244.000
388.697;  912.000; -756.000; -653.000
388.826;  165.425; -768.000; -666.000
388.956;   31.725; -285.000; -307.000
389.085;  -45.025; -347.000; -287.000
389.214; -113.575; -842.000; -872.000
389.343;  -77.950; -645.000; -413.000
389.472;  393.925;  126.000;  149.000
389.601;  499.575;   91.000;    0.000
389.730;    5.650; -568.000; -687.000
389.859;   47.750;  226.000;   46.000
389.988;  127.050; -423.000; -408.000
390.117;  109.950; -168.000; -146.000
390.246;  -16.925; -331.000; -320.000
390.375;   65.025; -673.000; -626.000
390.504;  -64.750; -703.000; -621.000
390.633;  -97.975; -672.000; -726.000
390.761;  -64.875; -732.000; -645.000
390.890;    4.900;   -4.000; -130.000
391.019;  -33.300; -421.000; -441.000
391.148; -127.975; -826.000; -855.000
391.277;  -81.725; -576.000; -493.000
391.406;  -95.875; -821.000; -805.000
391.534;   23.775;  574.000; -301.000
391.663;  -66.125; -583.000; -645.000
391.792;  -81.950; -673.000; -701.000
391.921;   73.325;   -3.000;   15.000
392.050;  144.325; -287.000; -228.000
392.178;  -65.975;-1206.000;-1061.000
392.307;  113.975; -758.000; -712.000
392.436;   48.000; -427.000; -641.000
392.564;    2.725;  166.000;   -6.000
392.693; -106.825; -860.000; -682.000
392.822;  156.850; -529.000; -534.000
392.950;   55.100; -880.000; -714.000
393.079;  265.500; -188.000; -328.000
393.208;   -0.775; -488.000; -511.000
393.336;   -4.425; -170.000; -145.000
393.465;  -51.000; -317.000; -199.000
393.593;  -14.375;   62.000;   79.000
393.722; -153.350;-1121.000; -916.000
393.850;  -38.200; -188.000;  -61.000
393.979; -161.950; -926.000; -805.000
394.107;  -72.400; -517.000; -537.000
394.236;  -47.275; -570.000; -507.000
394.364;  181.775;  383.000;  206.000
394.493;  258.350; -911.000; -767.000
394.621;  -28.150; -955.000; -916.000
394.750;  718.450; -873.000; -923.000
394.878; 3048.875; -247.000; -149.000
395.007; 4121.375; -721.000; -807.000
395.135;  319.925; -790.000; -721.000
395.263; -102.025;-1038.000;-1040.000
395.392;   -5.675;  -25.000; -107.000
395.520; -141.000; -818.000; -679.000
395.648;  -94.575; -865.000; -915.000
395.777;  -38.125; -366.000; -405.000
395.905;  -52.750; -449.000; -564.000
396.033;    6.125;  217.000;  172.000
396.162;  446.300; -399.000; -453.000
396.290;  407.350;  -17.000;   -2.000
396.418;   73.075; -555.000; -514.000
396.546;  -81.875; -571.000; -466.000
396.674; -100.725; -850.000; -878.000
396.803;   -6.575;  -72.000;  -23.000
396.931;   61.275; -179.000; -199.000
397.059;    3.225;-1026.000; -989.000
397.187; -110.150;-1026.000; -975.000
397.315; -136.900; -884.000; -649.000
397.443; -103.750; -592.000; -443.000
397.572;  -95.475; -578.000; -424.000
397.700;  -37.300; -607.000; -614.000
397.828;   -9.975;  120.000;  -90.000
397.956;  -42.150; -508.000; -478.000
398.084;  -59.050; -767.000; -626.000
398.212;   33.225;  137.000;  124.000
398.340;    1.825;  -56.000;  159.000
398.468;   10.425; -390.000; -169.000
398.596; -131.400; -993.000; -953.000
398.724; -129.775; -762.000; -767.000
398.852; -166.200;-1024.000; -976.000
398.980;  -51.900; -560.000; -560.000
399.108;  -63.550; -982.000; -735.000
399.236;   13.075;   13.000;    8.000
399.363;    2.575;  222.000;  196.000
399.491;  -73.500; -404.000; -398.000
399.619; -131.750; -829.000; -800.000
399.747;  -96.225; -859.000; -771.000
399.875;   66.550;  220.000;  234.000
400.003;  -59.500; -359.000; -284.000
400.130; -101.025; -421.000; -341.000
400.258;  -35.150;  -83.000;   38.000
400.386;  -74.225; -352.000; -168.000
400.514;  -49.425; -526.000; -587.000
400.641; -110.475; -928.000; -802.000
400.769; -152.100; -979.000; -888.000
400.897; -122.850; -838.000; -793.000
401.025;  -25.625; -166.000; -152.000
401.152;  -26.225;  220.000;   38.000
401.280;  -83.700; -430.000; -429.000
401.408; -113.625; -712.000; -576.000
401.535; -110.875; -735.000; -758.000
401.663; -196.975;-1134.000;-1054.000
401.790;  -85.025; -514.000; -525.000
401.918;   37.775;  436.000;  405.000
402.046;  -15.750;  134.000;  122.000
402.173;  -45.675;  -18.000;    7.000
402.301;  -82.325; -519.000; -397.000
402.428;   38.325;  528.000;  383.000
402.556; -145.525;-1188.000; -913.000
402.683;  -36.100;  -20.000;   -1.000
402.811;  -29.425;  -37.000; -206.000
402.938;  -13.850;   20.000;   27.000
403.066;  153.475; -574.000; -558.000
403.193;  302.475;  299.000;  239.000
403.321;  216.225; -396.000; -574.000
403.448;  281.825;   83.000;   27.000
403.575;  126.450;  -90.000;  -46.000
403.703; -107.875; -732.000; -557.000
403.830;  -56.225; -531.000; -496.000
403.957; -136.925;-1117.000;-1023.000
404.085;   17.875;  -61.000; -172.000
404.212;   94.050;  -50.000;   63.000
404.339;  272.975; -566.000; -306.000
404.467; 5960.325; -612.000; -524.000
404.594; 3817.375; -287.000; -227.000
404.721;  856.700; -869.000; -764.000
404.848;   87.800; -113.000; -202.000
404.976; -111.900; -856.000; -783.000
405.103;   -6.725;  -14.000;  -82.000
405.230;   -0.325;  190.000;  226.000
405.357;   24.375;  117.000;   44.000
405.484;  264.725;  -49.000;    5.000
405.612;   49.125; -548.000; -563.000
405.739;  -57.575; -488.000; -243.000
405.866;   75.200;  669.000;  385.000
405.993;  -55.500; -398.000; -102.000
406.120; -143.800; -801.000; -887.000
406.247;  -66.500; -323.000; -342.000
406.374;  383.050;  540.000;  629.000
406.501;   73.750; -632.000; -702.000
406.628;  -76.975; -621.000; -589.000
406.755; -100.175; -803.000; -620.000
406.882;  -40.075; -228.000; -277.000
407.009; -114.225; -719.000; -628.000
407.136;   31.225; -480.000; -401.000
407.263;   74.050; -939.000; -829.000
407.390;  -82.950; -692.000; -614.000
407.517; -184.875;-1139.000;-1187.000
407.644;  -73.150; -332.000; -256.000
407.771;  -68.825; -249.000; -287.000
407.898;   -4.050;  168.000;  328.000
408.025;  -72.725; -421.000; -313.000
408.151;   -4.000;   82.000;  153.000
408.278;  -63.700; -267.000; -216.000
408.405; -120.675; -931.000; -899.000
408.532;  -70.300; -549.000; -542.000
408.659; -120.100; -677.000; -648.000
408.785; -194.925;-1298.000;-1170.000
408.912;  -71.550; -412.000; -296.000
409.039; -113.800; -610.000; -686.000
409.166; -111.125; -591.000; -555.000
409.292; -103.700; -571.000; -534.000
409.419; -135.550; -665.000; -649.000
409.546;  -92.575; -431.000; -192.000
409.672; -111.800; -713.000; -545.000
409.799;  -26.950;  -36.000;   34.000
409.926;  -48.775; -180.000; -179.000
410.052; -167.675;-1127.000;-1091.000
410.179;  -66.650; -368.000; -392.000
410.305;  -87.800; -375.000; -493.000
410.432;  -44.475; -220.000; -333.000
410.558;  -90.875; -305.000; -380.000
410.685; -110.800; -688.000; -431.000
410.812; -115.775; -409.000; -588.000
410.938; -143.950; -964.000; -808.000
411.065; -106.250; -671.000; -645.000
411.191;  -26.275; -189.000; -174.000
411.317; -122.650; -823.000; -742.000
411.444;  -67.075; -317.000; -246.000
411.570;  -82.050; -339.000; -294.000
411.697; -124.875; -758.000; -752.000
411.823; -181.050; -989.000; -999.000
411.949;  -44.875;  -56.000;   17.000
412.076; -131.200; -539.000; -519.000
412.202; -125.975; -758.000; -757.000
412.329; -133.600; -798.000; -752.000
412.455; -131.725; -821.000; -657.000
412.581;  -23.100;  -15.000;  172.000
412.707;  -73.675; -540.000; -457.000
412.834;    2.125;  156.000;  219.000
412.960;  -90.325; -785.000; -784.000
413.086; -111.575; -743.000; -701.000
413.212;  131.875;  604.000;  578.000
413.339;  -85.675; -685.000; -701.000
413.465;  -18.675; -364.000; -310.000
413.591; -102.400; -757.000; -474.000
413.717;  -56.500; -358.000; -366.000
413.843; -145.000; -839.000; -861.000
413.969;  -66.025;  -47.000; -292.000
414.096; -109.100; -679.000; -679.000
414.222;  -17.450;  -33.000;   85.000
414.348;  -41.325; -652.000; -385.000
414.474;   74.650;   38.000;  -52.000
414.600;  -17.625; -126.000; -144.000
414.726;  -22.650;  -96.000;  -55.000
414.852;  -54.875; -365.000; -342.000
414.978;   20.450;  104.000;  -18.000
415.104;   41.125;   38.000;   80.000
415.230;   23.750; -329.000; -330.000
415.356;   22.375; -409.000; -514.000
415.482;  188.400;   13.000;  -35.000
415.608;  281.900; -247.000; -323.000
415.734;  968.700;   67.000;   38.000
415.860;20264.300; -875.000; -767.000
415.986;14831.225; -685.000; -607.000
416.111; 1280.350; -798.000; -652.000
416.237;  262.825; -424.000; -571.000
416.363; 1179.475; -765.000; -733.000
416.489; 4341.450; -324.000; -251.000
416.615;  463.925; -707.000; -742.000
416.741;  -10.250; -677.000; -784.000
416.866;  -82.550; -673.000; -736.000
416.992; -115.775; -801.000; -818.000
417.118;  -21.500;  -41.000;  -80.000
417.244;  -78.325; -798.000; -531.000
417.369; -100.675; -801.000; -612.000
417.495;  -18.800; -325.000; -254.000
417.621;  -81.325;-1015.000; -803.000
417.746;    3.750; -579.000; -572.000
417.872;   31.175; -254.000; -144.000
417.998;   47.100; -515.000; -530.000
418.123; 1098.425;-1073.000; -845.000
418.249; 5535.950; -512.000; -601.000
418.374;  781.150; -916.000; -824.000
418.500;  117.500; -383.000; -482.000
418.626;  100.550;   70.000;  -59.000
418.751;  117.750; -549.000; -448.000
418.877;  216.600; -637.000; -643.000
419.002; 1831.450; -688.000; -560.000
419.128;13000.450; -930.000; -721.000
419.253; 3225.225; -967.000; -837.000
419.379;  424.450; -391.000; -338.000
419.504;  401.400;  325.000;  415.000
419.629;  537.950; -393.000; -212.000
419.755; 3717.425; -317.000; -254.000
419.880;22131.850;  -98.000;   67.000
420.006;11830.700; -280.000; -221.000
420.131;30257.050; -662.000; -775.000
420.256; 4354.375; -315.000; -316.000
420.382;  580.550; -665.000; -687.000
420.507;   72.700; -649.000; -778.000
420.632;   94.525; -337.000; -339.000
420.758;  208.550; -251.000; -425.000
420.883;  -87.925; -876.000; -672.000
421.008; -103.100; -775.000; -619.000
421.133;  -91.200; -509.000; -467.000
421.259;  -42.550; -325.000; -259.000
421.384; -111.750; -834.000; -693.000
421.509;  -66.675;-1052.000; -862.000
421.634;  927.650; -936.000; -820.000
421.759;  394.275; -359.000; -327.000
421.885;  -74.600; -717.000; -656.000
422.010;  -94.500; -673.000; -542.000
422.135; -146.150; -695.000; -727.000
422.260;   25.125;  340.000;  280.000
422.385;  -38.225;   12.000;  -98.000
422.510;   11.700;  151.000;  -26.000
422.635;   14.750;  -87.000;  -43.000
422.760;   81.225; -766.000; -791.000
422.885;   39.625;  -57.000;  -80.000
423.010;  -34.650; -112.000; -169.000
423.135; -107.050; -481.000; -561.000
423.260;  -23.875; -150.000; -245.000
423.385;   43.400;  476.000;  222.000
423.510;   21.575;   71.000;  -22.000
423.635;   49.725;  133.000;   45.000
423.760;   47.650;  383.000;  328.000
423.885;   41.550;  336.000;  391.000
424.010;    1.800;  -68.000;  -13.000
424.135;  -16.850;    5.000;  -33.000
424.259; -101.450; -654.000; -457.000
424.384;  -55.300; -279.000; -272.000
424.509;  -41.350; -260.000; -186.000
424.634; -103.425; -761.000; -623.000
424.759;  -42.575; -688.000; -544.000
424.883;  -21.925; -506.000; -527.000
425.008;  155.050; -502.000; -410.000
425.133; 2051.125; -679.000; -653.000
425.258;  963.625; -517.000; -381.000
425.382;  925.025; -867.000; -774.000
425.507; 2364.575; -487.000; -543.000
425.632;  407.125; -802.000; -663.000
425.756;  487.675; -256.000; -146.000
425.881; 6886.625; -831.000; -857.000
426.006;18891.925; -604.000; -355.000
426.130; 2921.200; -696.000; -508.000
426.255;  381.150; -611.000; -491.000
426.379;  169.600; -189.000; -577.000
426.504;  391.625;  660.000;  544.000
426.629; 4039.375; -519.000; -466.000
426.753; 2860.200;   64.000;  -46.000
426.878;  331.700; -252.000; -288.000
427.002;  147.925; -651.000; -668.000
427.127; 1593.300;  -35.000; -158.000
427.251;11756.425;  372.000;  401.000
427.375; 3356.375; -191.000; -173.000
427.500; 2113.350; -616.000; -610.000
427.624;  702.975; -234.000; -400.000
427.749;   78.600; -216.000; -225.000
427.873;  -36.000; -499.000; -412.000
427.997;  -42.525; -222.000; -230.000
428.122;   59.225;  795.000;  703.000
428.246;   72.575;  433.000;  434.000
428.371; -143.800; -869.000; -773.000
428.495; -124.375; -624.000; -646.000
428.619;  -34.100; -186.000; -117.000
428.743;   15.675;   65.000;  132.000
428.868;   -9.575; -732.000; -643.000
428.992; 1269.100; -219.000; -326.000
429.116;  493.725; -329.000; -357.000
429.240;  238.950;  419.000;  426.000
429.365;  -34.125; -454.000; -574.000
429.489;  -55.075; -638.000; -647.000
429.613;   16.425; -236.000; -177.000
429.737;   34.625; -563.000; -432.000
429.861;  253.400; -247.000; -133.000
429.985; 5664.150; -425.000; -305.000
430.109; 6321.950; -770.000; -908.000
430.234;  723.425;   76.000;  -50.000
430.358;   58.700; -250.000; -160.000
430.482;  -63.900; -672.000; -564.000
430.606;  -68.400; -655.000; -375.000
430.730;   -0.975; -437.000; -388.000
430.854;   54.525; -909.000; -835.000
430.978;  -76.950; -795.000; -764.000
431.102;  -83.175; -499.000; -422.000
431.226; -129.075; -874.000; -815.000
431.350;   16.275;  345.000;  422.000
431.474;  -96.750; -661.000; -373.000
431.597; -166.300;-1060.000; -848.000
431.721;  -84.775; -276.000; -267.000
431.845; -131.850; -704.000; -472.000
431.969;  -76.650; -304.000; -349.000
432.093;  -89.575; -395.000; -317.000
432.217;  -14.825;   32.000;   82.000
432.341; -102.775; -523.000; -518.000
432.464;   -4.425;   96.000;   40.000
432.588;  144.625; -401.000; -329.000
432.712;   97.600;  -52.000;  -52.000
432.836;   42.625;  213.000;  263.000
432.959;  -15.350; -372.000; -311.000
433.083;   87.850;   11.000;    2.000
433.207;  364.575;  285.000;  930.000
433.330; 5245.425; -391.000; -200.000
433.454; 6508.800; -654.000; -638.000
433.578; 3727.275;  583.000;  278.000
433.701;  685.375; -623.000; -675.000
433.825;  118.450; -292.000; -299.000
433.949;  135.325;   28.000;  -72.000
434.072;   17.825; -410.000; -323.000
434.196;  -17.000; -309.000; -117.000
434.319; 3705.175;25482.000;25124.000
434.443;  708.375; -656.000; -603.000
434.566; 2755.450;  281.000;   62.000
434.690;  465.175; -637.000; -383.000
434.813;   35.150; -251.000; -173.000
434.937;  -80.100; -569.000; -696.000
435.060;  -56.325; -423.000; -332.000
435.184;  222.525; -492.000; -217.000
435.307;  110.400;  159.000;  102.000
435.431;  -27.100;  -40.000;   24.000
435.554;  -81.800; -399.000; -240.000
435.677;  -97.150; -350.000; -258.000
435.801;  -37.750;  -25.000;   49.000
435.924;  -28.825;    1.000;  -67.000
436.048; -135.125;-1019.000; -732.000
436.171;  -64.525; -240.000;  -66.000
436.294;  -32.350; -248.000; -229.000
436.417;   99.275; -963.000; -849.000
436.541;  -85.400; -814.000; -840.000
436.664;  -45.525; -242.000; -316.000
436.787;  -31.600;   13.000;  113.000
436.910; -133.275; -792.000; -422.000
437.034;   -4.950;  142.000;  143.000
437.157;   34.675;  -11.000;    0.000
437.280;  -67.100; -392.000; -292.000
437.403;  -99.725; -982.000; -869.000
437.526;  464.575; -903.000; -865.000
437.649; 1808.425; -505.000; -332.000
437.772;  252.200; -692.000; -540.000
437.896;  111.350;  700.000;  544.000
438.019;  -94.650; -758.000; -503.000
438.142;  -95.050; -596.000; -506.000
438.265;  -40.525; -639.000; -670.000
438.388;  440.675; -520.000; -410.000
438.511;   68.900; -597.000; -394.000
438.634;  -66.750; -247.000; -125.000
438.757; -142.325; -693.000; -619.000
438.880;  -23.900;  -34.000;  -57.000
439.003;  -87.025; -417.000; -437.000
439.126;  -66.825; -287.000; -167.000
439.248;  -71.125;  -98.000; -139.000
439.371;  -53.900;    9.000;  -53.000
439.494;   28.725;  510.000;  439.000
439.617;  -58.050;   65.000;  -88.000
439.740; -176.975; -968.000; -816.000
439.863; -150.400; -755.000; -595.000
439.986; -119.725; -476.000; -431.000
440.108;  -56.650; -161.000; -112.000
440.231; -173.450; -950.000; -836.000
440.354;  -42.100;  -64.000; -150.000
440.477;    0.425; -566.000; -542.000
440.599;  -20.550; -200.000; -225.000
440.722; -128.525; -709.000; -586.000
440.845;   59.325;  751.000;  928.000
440.968; -117.975; -415.000; -311.000
441.090;  -76.350; -199.000;  -33.000
441.213; -169.400;-1021.000; -825.000
441.336;  -49.600; -159.000;   -5.000
441.458;  -83.100; -549.000; -396.000
441.581; -101.675; -628.000; -629.000
441.703;  -64.475; -152.000;   13.000
441.826; -122.475; -557.000; -400.000
441.948;  -53.525;   56.000;   51.000
442.071;   32.450;  555.000;  424.000
442.193; -128.450; -531.000; -485.000
442.316;   18.600;  152.000;   97.000
442.438;   15.225; -233.000;  -10.000
442.561;   47.100;  272.000;  262.000
442.683;  416.425; -809.000; -522.000
442.806;  933.700;   -8.000;   74.000
442.928;    1.300; -859.000; -604.000
443.051;  -61.350; -577.000; -373.000
443.173;  -93.575; -341.000; -339.000
443.295;  -88.425; -263.000; -371.000
443.418;  -89.175; -321.000;  -29.000
443.540;  -21.875; -106.000;   -4.000
443.662; -121.525; -563.000; -465.000
443.785;  -19.250;  335.000;  199.000
443.907;  -94.525; -362.000; -208.000
444.029; -125.950; -767.000; -494.000
444.152; -134.650; -644.000; -554.000
444.274;  -33.150;  -18.000;  -24.000
444.396; -115.325; -461.000; -221.000
444.518; -138.700; -691.000; -454.000
444.640; -119.950; -268.000; -111.000
444.763;  -28.500;  388.000;  249.000
444.885; -123.675; -432.000; -392.000
445.007;  -31.700;   35.000;   86.000
445.129; -139.325; -610.000; -515.000
445.251; -105.125; -372.000; -439.000
445.373; -131.675; -537.000; -386.000
445.495;   -7.950;  242.000;  350.000
445.617;   40.750;  853.000;  753.000
445.739;  -69.700; -215.000;  -97.000
445.861;  -32.225; -245.000; -112.000
445.984;  -52.150; -267.000; -101.000
446.105;  120.475; -418.000; -251.000
446.227;  510.425; -176.000;  -19.000
446.349;   -6.200; -358.000; -249.000
446.471; -114.750; -615.000; -448.000
446.593;  -70.400; -316.000;   19.000
446.715;  -14.400;  -67.000;   41.000
446.837;   55.250;  697.000;  832.000
446.959; -103.750; -457.000; -478.000
447.081; -125.325; -628.000; -518.000
447.203;   49.775;  862.000;  834.000
447.325;  -97.350; -270.000;   42.000
447.446;  -15.200;  286.000;  530.000
447.568; -171.675; -921.000; -803.000
447.690;  -86.125; -236.000; -245.000
447.812; -153.425; -798.000; -519.000
447.933;  -23.325;  155.000;  127.000
448.055;  -62.075; -306.000; -261.000
448.177;  109.950;   31.000;   79.000
448.299;   58.325; -935.000; -727.000
448.420;   13.850;  -25.000;  159.000
448.542;  -42.125;   -3.000;   33.000
448.664;  -46.875;  109.000;  322.000
448.785;  -40.125;  265.000;   83.000
448.907;  -87.925; -614.000; -353.000
449.028;  -61.150; -771.000; -471.000
449.150;   59.500;  492.000;  589.000
449.272; -173.975;-1044.000; -913.000
449.393;   26.675;  612.000;  694.000
449.515; -139.650; -634.000; -581.000
449.636;  -63.325; -264.000; -155.000
449.758;   54.775;  763.000;  622.000
449.879;  -93.450; -498.000; -396.000
450.001;  -77.100; -149.000;  -49.000
450.122;  -43.700;  -95.000;  162.000
450.244;  -23.800;   37.000;  364.000
450.365;  -93.550; -495.000; -301.000
450.486;  -35.225;   80.000;  268.000
450.608;   29.025;  393.000;  326.000
450.729;   50.200;  578.000;  645.000
450.850;    8.200; -574.000; -466.000
450.972;  779.850; -552.000; -389.000
451.093; 5127.550;  190.000;  588.000
451.214; 2280.675; -516.000; -337.000
451.336;  375.025;  773.000;  579.000
451.457;   56.925;  264.000;  393.000
451.578;  -23.475; -118.000;  -74.000
451.699; -123.675; -546.000; -540.000
451.821;  -68.400; -284.000;  -50.000
451.942;  -10.850;  278.000;  285.000
452.063;   39.950;  228.000;  419.000
452.184;  565.800;  -54.000;  -49.000
452.305; 1156.425;  103.000;  170.000
452.427;  144.400; -549.000; -301.000
452.548;  -15.825;   23.000;   79.000
452.669;  -45.775; -257.000;  -89.000
452.790;  -45.100;    3.000;  -18.000
452.911;   -3.650;  195.000;  259.000
453.032;  -68.425; -289.000;  -60.000
453.153;  -57.875;  -29.000;   81.000
453.274;   60.300;  737.000;  868.000
453.395;  -56.300;  -51.000;  175.000
453.516;  120.700; 1317.000; 1388.000
453.637;  -77.625; -205.000; -150.000
453.758;  -67.075;   15.000;   69.000
453.879; -124.975; -462.000; -250.000
454.000;   70.000; 1086.000;  948.000
454.121; -124.975; -554.000; -326.000
454.242; -115.425; -599.000; -383.000
454.362;  -56.850;  -99.000;  114.000
454.483;  -52.100; -309.000; -229.000
454.604;   34.425;  512.000;  580.000
454.725; -147.700; -627.000; -555.000
454.846; -135.250; -474.000; -406.000
454.967;  -33.200;  230.000;  539.000
455.087;  -36.850;  179.000;  153.000
455.208;    7.300;  554.000;  856.000
455.329;  -64.150;  -22.000;   82.000
455.450;   37.175;  473.000;  633.000
455.570;  -83.325; -234.000; -211.000
455.691;  -56.725;  201.000;  407.000
455.812; -105.425; -270.000;  -92.000
455.932;  -55.575;  107.000;  -97.000
456.053;  -82.075;   36.000;   24.000
456.173; -128.800; -433.000; -355.000
456.294; -144.675; -476.000; -303.000
456.415;  -64.950;  -73.000;   70.000
456.535;  -43.925;  297.000;  273.000
456.656;  -43.850;  132.000;  240.000
456.776;  -77.100;    3.000;  298.000
456.897;  -14.625;  308.000;  513.000
457.017;  -85.650; -153.000;   -3.000
457.138; -117.050; -402.000; -249.000
457.258;  -36.750;  263.000;  224.000
457.379;   -8.475;  509.000;  521.000
457.499;  -38.000;  443.000;  432.000
457.620; -126.600; -407.000; -231.000
457.740;  -94.900; -132.000;  -11.000
457.860;  -60.725;   87.000;   44.000
457.981;  -55.350;  132.000;  124.000
458.101;  -73.000;  -89.000;   40.000
458.221;  -18.275;  336.000;  402.000
458.342;  -66.700;   -4.000;  -37.000
458.462;   20.850;  617.000;  352.000
458.582;  -48.575; -302.000; -294.000
458.703;    2.500;  303.000;  154.000
458.823;  -27.500;   22.000;  163.000
458.943;   15.500;  341.000;  467.000
459.063;  -51.600; 1124.000;  192.000
459.183;  -28.025;  328.000;  313.000
459.304;    0.150;  315.000;  517.000
459.424;  -60.600; -246.000;  -89.000
459.544;  335.675;  388.000;  764.000
459.664;  867.950;  499.000;  506.000
459.784;  320.675; 1004.000; 1175.000
459.904;   48.225;  867.000;  744.000
460.024;   60.250;  867.000;  684.000
460.144;    3.300;  449.000;  554.000
460.264;  -18.725;  515.000;  327.000
460.385; -109.525; -145.000; -119.000
460.505;   43.050;  905.000;  858.000
460.625;  -79.200;  -17.000;  -68.000
460.745;  -20.675;  396.000;  541.000
460.864;  -45.700;  153.000;  469.000
460.984;   14.925;  499.000;  573.000
461.104;  130.850; 1656.000; 1775.000
461.224;   21.475;  657.000;  650.000
461.344;  -38.500;  431.000;  360.000
461.464;  -36.175;  258.000;  513.000
461.584;  -29.925;  283.000;  466.000
461.704;  -47.725;   58.000;  108.000
461.824;  -43.225;  238.000;  259.000
461.943;  -38.675;  191.000;  130.000
462.063;  -80.750;    2.000;  324.000
462.183;   16.225;  639.000;  717.000
462.303;  109.650; 1678.000; 1230.000
462.422;   27.600;  781.000;  840.000
462.542;  -34.750;  271.000;  391.000
462.662;   46.375;  353.000;  380.000
462.782;  233.075;  833.000;  572.000
462.901;  481.175;  545.000;  717.000
463.021;  302.975; 1702.000; 1638.000
463.141;    0.525;  337.000;  770.000
463.260;   -4.725;  614.000;  474.000
463.380;   15.975;  902.000;  884.000
463.499;  -27.500;  342.000;  332.000
463.619;  -34.300;  581.000;  559.000
463.738;  120.575; 1644.000;  903.000
463.858;   21.550;  657.000;  811.000
463.978;  -42.575;  542.000;  396.000
464.097;   57.700;  921.000; 1114.000
464.217;  116.650; 1196.000; 1143.000
464.336;  119.650; 1068.000; 1130.000
464.455;  -28.650;  328.000;  659.000
464.575;   26.575;  597.000;  602.000
464.694;  155.625; 1204.000; 1179.000
464.814;  126.675; 1190.000; 1138.000
464.933;   70.975; 1095.000; 1027.000
465.052;   89.775; 1412.000; 1054.000
465.172;   67.725;  922.000;  799.000
465.291;  123.200; 1376.000; 1320.000
465.410;    0.875;  462.000;  735.000
465.530;   74.850; 1355.000; 1310.000
465.649;   58.750; 1209.000; 1273.000
465.768;  141.025; 1673.000; 1508.000
465.888;   44.300;  941.000; 1174.000
466.007;   98.625; 1335.000; 1440.000
466.126;   -4.775;  721.000;  641.000
466.245;   38.900; 1176.000; 1187.000
466.364;   11.800;  950.000; 1060.000
466.484;   50.375; 1024.000; 1213.000
466.603;   48.075; 1101.000; 1222.000
466.722;  115.400; 1490.000; 1769.000
466.841;   93.550; 1151.000; 1401.000
466.960;   27.400; 1069.000;  972.000
467.079;  121.800; 1971.000; 1786.000
467.198;   40.400; 1238.000; 1181.000
467.317;   86.725; 1768.000; 1162.000
467.436;   55.400; 1709.000; 1261.000
467.555;  119.200; 1796.000; 1746.000
467.674;   52.325; 1227.000; 1329.000
467.793;   49.450; 1376.000; 1374.000
467.912;   86.300; 1658.000; 1539.000
468.031;  139.500; 2038.000; 1930.000
468.150;  127.550; 1842.000; 1837.000
468.269;  179.300; 2313.000; 2090.000
468.388;  183.175; 2168.000; 2339.000
468.507;  263.900; 2884.000; 2903.000
468.626;  222.650; 2555.000; 2541.000
468.744;  127.150; 2018.000; 2174.000
468.863;  183.725; 2312.000; 2523.000
468.982;  106.425; 1503.000; 1555.000
469.101;  206.275; 2788.000; 2692.000
469.220;  143.775; 2333.000; 2176.000
469.338;  252.475; 2935.000; 3051.000
469.457;  202.975; 2719.000; 2545.000
469.576;  345.050; 3953.000; 3784.000
469.695;  240.900; 2877.000; 3066.000
469.813;  421.425; 4148.000; 4192.000
469.932;  403.675; 4255.000; 4485.000
470.051;  438.725; 4075.000; 4161.000
470.169;  859.250; 4470.000; 4338.000
470.288; 1482.075; 4700.000; 4809.000
470.406;  907.400; 5059.000; 5194.000
470.525;  621.525; 6101.000; 5787.000
470.644;  634.875; 6847.000; 6794.000
470.762;  812.675; 8397.000; 7873.000
470.881;  899.750; 8651.000; 8464.000
470.999; 1025.000; 9685.000; 9151.000
471.118; 1098.800;11174.000;10711.000

