
Integration time [ms]: 100.000
Averaging Nr. [scans]: 40
Smoothing Nr. [pixels]: 0
Data measured with spectrometer [name]: 2101012U2
Wave   ;Sample   ;Dark     ;Reference
[nm]   ;[counts] ;[counts] ;[counts] 

197.733;   62.950;  516.000;  404.000
197.879;  -84.875; -610.000; -634.000
198.025;  -43.200; -475.000; -420.000
198.171;  -64.025; -602.000; -612.000
198.317;  -37.025; -401.000; -316.000
198.463;  -60.125; -655.000; -404.000
198.609;   24.575;  181.000; -137.000
198.755;  -73.150; -644.000; -410.000
198.901;  -65.700; -505.000; -424.000
199.047;  -48.875; -615.000; -488.000
199.193;  -55.800; -230.000; -468.000
199.339;  -33.875; -222.000; -369.000
199.485;   43.850;  330.000;  271.000
199.631;   30.000;  227.000;  310.000
199.777;  -45.800; -466.000; -398.000
199.923;  -61.400; -610.000; -424.000
200.069;    5.675; -141.000;  -58.000
200.215;   49.050;  128.000;  453.000
200.361;   46.200;  243.000;  477.000
200.507;  -57.625; -600.000; -373.000
200.653;  -30.750; -371.000; -194.000
200.798;  -39.800; -215.000; -125.000
200.944;    1.750; -146.000;  -41.000
201.090;   30.125;   61.000;  222.000
201.236;  -11.625; -116.000; -158.000
201.382;  138.925;  874.000;  903.000
201.528;  -19.900;  -58.000;  -48.000
201.674;  -51.375; -386.000; -293.000
201.819;  -56.000; -540.000; -439.000
201.965;  -89.575; -699.000; -447.000
202.111;  -21.125; -273.000; -226.000
202.257;  -20.050; -250.000; -238.000
202.402;    2.550;   13.000;  -36.000
202.548;  -21.125; -169.000; -116.000
202.694;   73.625;  410.000; -183.000
202.840;  -66.750; -603.000; -531.000
202.985;  -80.425; -681.000; -639.000
203.131;  -93.500; -832.000; -666.000
203.277;  -23.075; -199.000; -262.000
203.423;  -51.550; -434.000; -520.000
203.568;  -41.800; -462.000; -237.000
203.714;  -50.900; -535.000; -542.000
203.860;  -92.400; -682.000; -641.000
204.005;   17.950;  112.000;  167.000
204.151;   74.775;  561.000;  556.000
204.296;  -38.425; -354.000; -221.000
204.442;  -75.575; -600.000; -547.000
204.588;  -83.625; -592.000; -579.000
204.733;   13.625;  178.000;  168.000
204.879; -137.200;-1018.000; -822.000
205.025;    9.125;  -99.000;  126.000
205.170;    0.725;  -17.000;   94.000
205.316;   84.900;  438.000;  661.000
205.461;  -82.800; -698.000; -554.000
205.607;   92.975;  609.000;  665.000
205.752;  -78.650; -626.000; -551.000
205.898;  -60.775; -501.000; -391.000
206.043;  -66.650; -578.000; -506.000
206.189;  -38.850; -243.000; -285.000
206.334;   78.475;  554.000;  606.000
206.480;   79.975;  409.000;  239.000
206.625;  -89.325; -529.000; -552.000
206.771;  -53.450; -451.000; -373.000
206.916;  -31.825; -210.000; -537.000
207.062;  -80.750; -545.000; -591.000
207.207;  -66.750; -546.000; -443.000
207.353;   64.075;  185.000;  460.000
207.498;   14.825;  196.000;   85.000
207.643;  -56.625; -501.000; -370.000
207.789; -121.200;-1069.000; -910.000
207.934;  -94.750; -665.000; -713.000
208.080;  -29.025; -154.000;   66.000
208.225;   -6.750;  -22.000;  -57.000
208.370; -102.550; -727.000; -619.000
208.516;  -87.700; -741.000; -487.000
208.661;  -23.575; -127.000;  -69.000
208.806;  -22.700; -165.000; -171.000
208.952; -122.200;-1044.000; -731.000
209.097;   65.575;  378.000;  349.000
209.242;  -60.975; -307.000; -382.000
209.387;   75.450;  392.000;  350.000
209.533;  -53.650; -321.000; -350.000
209.678;   75.425;  472.000;  543.000
209.823;  -53.125; -408.000; -310.000
209.969; -111.825; -860.000; -757.000
210.114; -102.650; -907.000; -719.000
210.259; -126.525; -939.000; -889.000
210.404;    1.150; -171.000;  103.000
210.549;    7.200;  108.000;    3.000
210.695;  -11.275;   -3.000;  -95.000
210.840;   24.975;   94.000;   67.000
210.985;  -69.075; -484.000; -303.000
211.130;   74.925;  268.000;  406.000
211.275;   18.200;  207.000;  199.000
211.420;  -61.950; -300.000; -289.000
211.566;  -63.350; -536.000; -489.000
211.711;   25.075;  218.000;  157.000
211.856;  -63.925; -545.000; -519.000
212.001;    1.200;  151.000;   44.000
212.146;   20.700;  153.000;   49.000
212.291;  -12.150; -210.000; -186.000
212.436;  -45.225; -280.000;   -6.000
212.581;  -91.750; -685.000; -653.000
212.726;  -63.075; -487.000; -538.000
212.871;  -47.200; -552.000; -217.000
213.016; -146.725;-1172.000;-1029.000
213.161;   68.975;  406.000;  291.000
213.306;  -67.125; -435.000; -577.000
213.451; -100.400; -778.000; -689.000
213.596;  -41.425; -455.000; -347.000
213.741;  -63.050; -448.000; -538.000
213.886;  -80.250; -498.000; -517.000
214.031;  -31.925; -294.000; -124.000
214.176;  -61.375; -408.000; -341.000
214.321;  -17.400; -296.000; -157.000
214.466;  -29.225; -163.000;  -43.000
214.611;   -5.675;  -61.000;  -10.000
214.756; -115.375; -948.000; -858.000
214.901;  -31.475; -388.000; -226.000
215.046; -126.025; -797.000; -825.000
215.191;    7.900;  128.000;   35.000
215.336;  -13.025; -157.000;  -19.000
215.480;  -67.175; -684.000; -505.000
215.625;   -8.575; -175.000;  -19.000
215.770;  -85.100; -757.000; -662.000
215.915;  -15.475;   -5.000;  -97.000
216.060;  -11.625; -113.000;  -21.000
216.205; -121.375; -731.000; -779.000
216.349;  -72.300; -470.000; -533.000
216.494; -127.925; -939.000; -867.000
216.639; -120.775; -823.000; -888.000
216.784;  -85.100; -577.000; -525.000
216.929;   59.075;  392.000;  281.000
217.073;  -21.000; -244.000;  -31.000
217.218;   -1.400;   78.000;  -47.000
217.363;  -86.475; -656.000; -618.000
217.507;  -88.250; -623.000; -588.000
217.652; -124.750; -845.000; -874.000
217.797;  -92.150; -708.000; -659.000
217.942; -106.825; -856.000; -720.000
218.086;   64.850;  608.000;  539.000
218.231;  -12.350; -174.000;  -26.000
218.376;  -30.625; -337.000; -229.000
218.520;    5.450;  -41.000;   96.000
218.665;  -35.550; -338.000; -204.000
218.810;  -48.925; -275.000; -233.000
218.954;   14.675;  201.000;   35.000
219.099; -109.050; -713.000; -963.000
219.243;  -82.000; -589.000; -554.000
219.388;  -32.375; -264.000; -136.000
219.532;  -15.225; -116.000; -116.000
219.677;  -84.100; -564.000; -521.000
219.822;    6.250;   33.000;   89.000
219.966;   -0.100;   17.000;  -99.000
220.111;  -23.650; -328.000;  -40.000
220.255;  -98.275; -797.000; -750.000
220.400;  -23.700; -180.000; -146.000
220.544;  -56.400; -516.000; -450.000
220.689;  -67.550; -422.000; -451.000
220.833;  -23.300; -123.000;  -58.000
220.978;  -40.175; -393.000; -563.000
221.122;   31.125;  319.000;  307.000
221.267; -124.650; -906.000; -837.000
221.411;  -60.150; -478.000; -394.000
221.555;  -19.000; -104.000;  -23.000
221.700;  -53.300; -329.000; -222.000
221.844;   37.750;  255.000;  272.000
221.989;  -54.300; -328.000; -311.000
222.133;  -42.575; -289.000; -307.000
222.277;  -11.350;    5.000;   78.000
222.422;   21.825;  227.000;  113.000
222.566;  -31.900; -381.000; -214.000
222.711;  -63.725; -414.000; -479.000
222.855;  -76.250; -643.000; -586.000
222.999;  -84.425; -642.000; -717.000
223.144;  -30.275; -195.000; -194.000
223.288;   46.650;  423.000;  251.000
223.432;   23.325;  184.000;  230.000
223.576;   16.800;  152.000;  -21.000
223.721;   40.700;  364.000;  273.000
223.865;  -71.325; -472.000; -475.000
224.009;  256.250; 1673.000; 1631.000
224.153;  -80.325; -660.000; -671.000
224.298;  -71.075; -531.000; -489.000
224.442;  -13.650;  -74.000;  -33.000
224.586;   -6.225; -169.000; -106.000
224.730; -104.975; -858.000; -670.000
224.875; -108.650; -739.000; -688.000
225.019;   17.350;  102.000;  188.000
225.163;   63.050;  208.000;  341.000
225.307;   13.375;   97.000;  -91.000
225.451;   47.200;  360.000;  481.000
225.595;   21.775;  264.000;  176.000
225.739;  -23.125; -170.000;  -94.000
225.884;   -7.275;   86.000;    5.000
226.028; -101.075; -760.000; -626.000
226.172;  -49.675; -260.000; -273.000
226.316; -116.600; -941.000; -902.000
226.460;  -70.100; -645.000; -493.000
226.604;  -57.450; -406.000; -400.000
226.748;  -95.025; -836.000; -733.000
226.892;  -32.250; -227.000; -181.000
227.036;  -55.100; -537.000; -447.000
227.180;  -53.400; -551.000; -375.000
227.324;  -74.225; -561.000; -580.000
227.468; -118.700; -819.000; -717.000
227.612;   11.400;  242.000;  -28.000
227.756; -114.850; -845.000; -698.000
227.900;   62.050;  342.000;  441.000
228.044;  -64.950; -509.000; -290.000
228.188;   63.325;  448.000;  568.000
228.332;  -72.525; -546.000; -472.000
228.476;  -32.125; -223.000; -149.000
228.620;  -30.800; -210.000; -150.000
228.764;   76.675;  431.000;  349.000
228.908;  -21.750; -155.000;   30.000
229.052;  -62.275; -615.000; -528.000
229.195;  -20.900; -172.000;   13.000
229.339;  -25.900; -235.000; -305.000
229.483;  -30.325;    5.000; -162.000
229.627;    6.725; -156.000;  139.000
229.771;  -42.925; -218.000; -294.000
229.915;    3.375;  230.000;   79.000
230.059;  -98.600; -648.000; -663.000
230.202;  -36.300; -370.000; -317.000
230.346;  -18.525; -107.000;  107.000
230.490;  -84.575; -489.000; -521.000
230.634; -105.300; -736.000; -553.000
230.777;   66.650;  478.000;  509.000
230.921;  -52.575; -450.000; -359.000
231.065;  -34.300; -246.000; -286.000
231.209;   17.100;  261.000;  265.000
231.352;   13.825;   54.000;   40.000
231.496;   16.775;  568.000;  188.000
231.640;  -90.375; -693.000; -621.000
231.783;   52.625;  546.000;  525.000
231.927;  -49.100; -294.000; -365.000
232.071; -122.825; -962.000; -736.000
232.214; -120.925; -980.000; -764.000
232.358;  -92.525; -683.000; -599.000
232.502;   11.450;  -19.000;    7.000
232.645; -132.050;-1090.000; -927.000
232.789;  -20.775; -257.000; -218.000
232.933;  -48.975; -407.000; -224.000
233.076; -144.250;-1038.000; -897.000
233.220; -105.675; -752.000; -777.000
233.363;  -86.075; -669.000; -477.000
233.507;   56.950;  371.000;  129.000
233.650; -101.675; -764.000; -834.000
233.794;   50.300;  438.000;  461.000
233.938;  -66.725; -530.000; -362.000
234.081;  -26.800;  -93.000;   31.000
234.225;  -76.550; -631.000; -539.000
234.368; -117.750; -773.000; -723.000
234.512;  -42.000; -385.000; -299.000
234.655; -102.625; -582.000; -555.000
234.798;  -77.375; -493.000; -466.000
234.942; -137.600; -884.000;-1002.000
235.085;  -83.725; -651.000; -443.000
235.229;  -86.900; -405.000; -410.000
235.372;  -49.200; -247.000; -191.000
235.516;  -63.675; -397.000; -321.000
235.659;    5.225;   92.000;  121.000
235.802;    2.125;  -38.000;  -22.000
235.946;   20.600;  335.000;  215.000
236.089;   14.675;  126.000;  250.000
236.233;   55.700;  275.000;  298.000
236.376;  -53.700; -235.000; -378.000
236.519;  -39.300; -297.000; -319.000
236.663;  -41.900; -215.000; -117.000
236.806; -149.500;-1029.000; -999.000
236.949;   58.575;  543.000;  431.000
237.092;   59.575;  412.000;  391.000
237.236;  -93.875; -589.000; -502.000
237.379;   71.350;  352.000;  428.000
237.522; -118.975; -879.000; -768.000
237.666;  -29.050; -271.000;   18.000
237.809; -127.825; -851.000; -823.000
237.952;   25.675;  469.000;  271.000
238.095;  -66.650; -447.000; -442.000
238.238;   90.250;  688.000;  700.000
238.382;    4.925;  166.000;  103.000
238.525;  -64.350; -598.000; -511.000
238.668; -141.300;-1060.000; -985.000
238.811;  -85.725; -638.000; -643.000
238.954;  -58.625; -483.000; -334.000
239.097;   80.475;  617.000;  664.000
239.241;   22.150;  394.000;  326.000
239.384;  -31.275; -254.000; -214.000
239.527;  -57.250; -424.000; -224.000
239.670; -144.125; -994.000;-1091.000
239.813; -103.050; -696.000; -658.000
239.956;   92.100;  579.000;  473.000
240.099; -116.625; -778.000; -725.000
240.242;   51.575;  428.000;  432.000
240.385;   43.375;  466.000;  450.000
240.528;  -78.025; -706.000; -473.000
240.671;   23.100;  189.000;  134.000
240.814;  -45.575; -441.000; -158.000
240.957;  -93.825; -767.000; -578.000
241.100; -104.950; -779.000; -755.000
241.243; -141.750;-1234.000; -893.000
241.386;  -62.375; -508.000; -379.000
241.529;  -85.850; -735.000; -547.000
241.672;  -59.850; -566.000; -495.000
241.815; -113.650; -832.000; -808.000
241.958;  -25.900; -125.000; -182.000
242.101;  -83.625; -545.000; -390.000
242.244;  -32.725; -270.000; -325.000
242.387;  -37.525; -304.000; -246.000
242.530;   71.150;  470.000;  134.000
242.673;  -50.075; -381.000; -309.000
242.815; -123.325; -925.000; -899.000
242.958;  -59.525; -482.000; -381.000
243.101;    6.900;  132.000;  187.000
243.244;  -80.750; -564.000; -521.000
243.387;  -48.225; -313.000; -316.000
243.530;  -99.975; -657.000; -674.000
243.672;    5.150;   43.000;  -92.000
243.815;  -56.225; -355.000; -283.000
243.958;    2.100;   98.000;  -26.000
244.101;    4.750;   59.000;  -16.000
244.243;  -22.050;  -47.000;  101.000
244.386;  -91.275; -761.000; -630.000
244.529;  -31.250; -132.000; -139.000
244.672; -156.150;-1154.000; -951.000
244.814; -107.500; -621.000; -794.000
244.957;  -51.475; -380.000; -304.000
245.100;  -81.750; -489.000; -489.000
245.242;  -64.125; -387.000; -374.000
245.385;  -24.775;  -59.000;  -39.000
245.528; -120.475; -871.000; -705.000
245.670;   89.675;  612.000;  634.000
245.813;  -88.100; -599.000; -547.000
245.956;  -34.700; -324.000; -275.000
246.098;  -75.675; -508.000; -650.000
246.241;    6.225;  194.000;   48.000
246.383;  -22.975; -119.000;  -73.000
246.526;  -96.450; -454.000; -525.000
246.669; -128.075; -889.000; -780.000
246.811;   15.800;  172.000;   -1.000
246.954;  -68.550; -512.000; -426.000
247.096;  -12.275;  -84.000;   -6.000
247.239;  -85.000; -482.000; -445.000
247.381;  -72.575; -647.000; -488.000
247.524;   94.825;  645.000;  679.000
247.666;   -6.600;   58.000;   11.000
247.809; -126.000; -887.000; -691.000
247.951;  -12.025;  -75.000;  138.000
248.094;   17.075;  432.000;  308.000
248.236; -164.000;-1262.000;-1238.000
248.378;   11.725; -356.000;  -81.000
248.521;  -26.500; -334.000; -337.000
248.663;  -47.525; -236.000; -267.000
248.806;  -18.050; -300.000; -266.000
248.948; -100.825; -886.000; -763.000
249.090;  -53.425; -428.000; -398.000
249.233;  -42.500; -344.000; -381.000
249.375;  -75.025; -474.000; -451.000
249.518;  -28.525;  -83.000; -133.000
249.660;  -15.925; -103.000;    3.000
249.802; -175.950;-1303.000;-1189.000
249.945;  -80.775; -612.000; -540.000
250.087; -124.450; -834.000; -768.000
250.229;  -60.650; -362.000; -480.000
250.371;  -73.450; -494.000; -439.000
250.514;  -54.325; -310.000; -244.000
250.656;  -75.800;   69.000;  102.000
250.798; -120.300; -849.000; -800.000
250.940;  -71.325; -322.000; -322.000
251.083;  -31.250; -335.000; -111.000
251.225;   55.375;  338.000;  310.000
251.367;  -53.500; -274.000; -373.000
251.509;  -28.250; -265.000; -210.000
251.651; -105.175; -731.000; -671.000
251.794;   62.075;  538.000;  632.000
251.936; -117.225; -821.000; -747.000
252.078;  -64.575; -540.000; -461.000
252.220;  -78.350; -645.000; -477.000
252.362;   77.950;  344.000;  462.000
252.504;  -80.450; -677.000; -584.000
252.646; -119.900; -875.000; -722.000
252.788;   -3.975;   14.000; -128.000
252.931;  -47.275; -257.000; -253.000
253.073;  -42.400; -376.000; -317.000
253.215;   -5.075;  141.000;  122.000
253.357;  -22.850;   82.000; -153.000
253.499;  -49.675; -374.000; -234.000
253.641; -102.025; -749.000; -594.000
253.783;  -99.000; -609.000; -527.000
253.925;  -93.800; -586.000; -591.000
254.067; -110.600; -744.000; -667.000
254.209;  -41.000; -391.000; -259.000
254.351; -144.575; -865.000; -883.000
254.493;  -81.625; -441.000; -417.000
254.635; -131.900; -936.000; -818.000
254.777; -100.000; -752.000; -687.000
254.918;  -76.525; -512.000; -430.000
255.060;  -64.025; -551.000; -395.000
255.202;  -59.100; -473.000; -261.000
255.344;  -84.475; -658.000; -455.000
255.486;  -79.525; -471.000; -406.000
255.628; -106.775; -780.000; -781.000
255.770;  -89.650; -676.000; -536.000
255.912;  -74.675; -559.000; -468.000
256.053;  -96.475; -730.000; -508.000
256.195;  149.100; 1008.000;  903.000
256.337; -105.250; -861.000; -595.000
256.479;   59.225;  532.000;  416.000
256.621;  -43.775; -394.000; -212.000
256.762;  -94.800; -789.000; -742.000
256.904;   49.900;  485.000;  487.000
257.046;  -38.975; -381.000; -271.000
257.188;  -57.875; -351.000; -264.000
257.329;  -75.750; -525.000; -464.000
257.471; -118.875; -939.000; -807.000
257.613;  -72.025; -584.000; -498.000
257.755; -158.300;-1073.000; -982.000
257.896;   15.675;  286.000;  392.000
258.038;  -72.200; -403.000; -352.000
258.180;  -63.325; -354.000; -279.000
258.321;  -74.400; -581.000; -457.000
258.463;  -11.750;  -71.000;  133.000
258.605;  -90.800; -562.000; -570.000
258.746; -113.425; -886.000; -772.000
258.888; -151.075;-1026.000;-1020.000
259.029;   18.250;  121.000;   -8.000
259.171;  -98.000; -614.000; -550.000
259.313;   -4.350;  -49.000;  -47.000
259.454;  -67.325; -536.000; -414.000
259.596;  -69.850; -483.000; -390.000
259.737;  -76.175; -590.000; -474.000
259.879;   35.500;  217.000;  311.000
260.020;   80.725;  901.000;  636.000
260.162;  -37.400; -146.000; -253.000
260.303; -117.625; -768.000; -687.000
260.445;  -99.700; -609.000; -613.000
260.586;   25.200;  392.000;  157.000
260.728;  -54.550; -360.000; -248.000
260.869; -122.550; -350.000; -343.000
261.011;   73.150;  706.000;  537.000
261.152;  -59.125; -479.000; -319.000
261.293;  -84.275; -576.000; -595.000
261.435;  -22.075; -219.000; -184.000
261.576;  -60.200; -455.000; -325.000
261.718;   51.025;  420.000;  470.000
261.859; -131.325; -940.000; -949.000
262.000; -144.225; -951.000;-1016.000
262.142;  -27.250;  -52.000;  -60.000
262.283; -123.475; -808.000; -691.000
262.424;  -94.575; -666.000; -625.000
262.566; -153.575;-1161.000; -983.000
262.707; -128.250; -840.000; -830.000
262.848; -116.475; -769.000; -726.000
262.990;  -48.725; -362.000; -345.000
263.131;   78.275;  650.000;  681.000
263.272;  -18.525;  -61.000;  -41.000
263.413;  -92.475; -589.000; -561.000
263.555;  -67.975; -669.000; -143.000
263.696;  -84.000; -550.000; -641.000
263.837;  -53.425; -449.000; -551.000
263.978;   -7.750;   -5.000;  -77.000
264.119;  -65.150; -283.000; -264.000
264.261; -123.175; -847.000; -630.000
264.402;   -6.375;   33.000;   40.000
264.543;  -68.675; -509.000; -524.000
264.684;  -22.225;   61.000;  -50.000
264.825;  -80.050; -816.000; -538.000
264.966;  -11.650;  -84.000;  -67.000
265.107; -124.225; -646.000; -670.000
265.248; -109.625; -825.000; -812.000
265.390;  -10.150;  152.000;   -9.000
265.531;  -42.600; -238.000; -107.000
265.672;  -96.175; -557.000; -630.000
265.813;   55.125;  563.000;  439.000
265.954; -145.150; -959.000; -940.000
266.095;  -16.700; -372.000; -322.000
266.236; -102.725; -686.000; -548.000
266.377;  -43.000; -243.000; -297.000
266.518;  -66.400; -619.000; -547.000
266.659;   20.950;  170.000;  268.000
266.800;    1.125;   83.000;   85.000
266.941;  -88.800; -487.000; -478.000
267.082;   23.575;  354.000;   99.000
267.223;  -53.050; -344.000; -273.000
267.364; -126.950; -892.000; -686.000
267.504;  -13.625;    3.000;  135.000
267.645;    1.075;  160.000;   67.000
267.786;  -37.450; -147.000;  -86.000
267.927;  -79.275; -473.000; -379.000
268.068;  -35.125; -186.000;  -61.000
268.209;  -50.050; -175.000; -413.000
268.350;  -71.475; -388.000; -532.000
268.490;  -82.800; -648.000; -521.000
268.631;   30.075;  127.000;  225.000
268.772; -101.250; -874.000; -647.000
268.913;  -60.525; -328.000; -476.000
269.054;  -17.700; -117.000;   12.000
269.194;  -43.775; -418.000; -402.000
269.335; -159.150;-1137.000;-1074.000
269.476;  -23.450;   33.000;  -35.000
269.617;  -47.500; -347.000; -392.000
269.757;  -99.725; -713.000; -646.000
269.898; -100.025; -856.000; -613.000
270.039;  -67.050; -415.000; -405.000
270.180; -139.575; -952.000; -816.000
270.320;  -20.625; -190.000; -250.000
270.461;  -47.150; -277.000; -249.000
270.602;  -21.950; -186.000; -156.000
270.742; -117.175; -868.000; -943.000
270.883;  -53.800; -442.000; -390.000
271.023;  -68.050; -358.000; -357.000
271.164;  -84.100; -607.000; -528.000
271.305; -102.350; -666.000; -654.000
271.445; -103.900; -722.000; -683.000
271.586;  -79.625; -462.000; -283.000
271.726;  -59.175; -397.000; -322.000
271.867;  -74.125; -594.000; -534.000
272.008;  146.575; -473.000; -285.000
272.148;  116.225;  462.000;  468.000
272.289;    9.275; -113.000; -181.000
272.429;   10.675;   19.000;  185.000
272.570; -107.950; -633.000; -737.000
272.710; -102.975; -825.000; -775.000
272.851;  -37.925;  113.000; -130.000
272.991; -172.475;-1173.000;-1077.000
273.131;  -74.350; -419.000; -459.000
273.272;  -98.750; -683.000; -723.000
273.412;   -4.800; -143.000;  -31.000
273.553;  -56.950; -488.000; -507.000
273.693;  125.075;  913.000;  858.000
273.834;  -94.550; -894.000; -692.000
273.974;  -85.100; -664.000; -615.000
274.114;  -95.600; -772.000; -560.000
274.255;   65.625;  414.000;  373.000
274.395;   -4.400; -180.000; -125.000
274.535;   35.550;  199.000;  350.000
274.676;   22.275;  225.000;   94.000
274.816;   -6.625;  110.000;   34.000
274.956;  -82.725; -624.000; -690.000
275.097;  -94.750;-1014.000; -922.000
275.237; -119.250; -913.000; -803.000
275.377; -107.750; -778.000; -689.000
275.517; -157.700; -878.000; -937.000
275.658;  -63.325; -590.000; -555.000
275.798;  -65.550; -606.000; -413.000
275.938;    7.550;  215.000;  323.000
276.078; -111.775; -626.000; -395.000
276.218;   10.575;   99.000;  104.000
276.359; -146.975;-1026.000;-1024.000
276.499;  -76.625; -605.000; -446.000
276.639;  -42.200; -305.000; -151.000
276.779;  -46.775; -475.000; -357.000
276.919; -102.750; -783.000; -624.000
277.059;  -27.850; -261.000; -212.000
277.199;  -45.225; -357.000; -259.000
277.340;   50.525;  287.000;  175.000
277.480; -116.350; -840.000; -693.000
277.620;   16.950;  192.000;   16.000
277.760; -198.550;-1533.000;-1294.000
277.900;   18.725;  113.000;   33.000
278.040;    0.225;  137.000;  159.000
278.180;   23.325;  270.000;  170.000
278.320;   -9.975;   21.000;   56.000
278.460;  -65.875; -443.000; -469.000
278.600;  -86.200; -708.000; -598.000
278.740;   42.625;  448.000;  224.000
278.880;  -71.300; -768.000; -791.000
279.020;    4.500; -194.000; -144.000
279.160;  -85.000; -672.000; -595.000
279.300; -129.575; -926.000; -873.000
279.440;  -92.725; -709.000; -622.000
279.579;  -30.250;-1014.000; -929.000
279.719;  -53.925; -410.000; -394.000
279.859;   58.900;   -4.000;   41.000
279.999;   18.975; -208.000;  101.000
280.139;  -30.750; -435.000; -387.000
280.279;  -86.450; -708.000; -745.000
280.419;  -23.975; -229.000; -147.000
280.559;  -32.900; -259.000; -180.000
280.698;  -93.875; -790.000; -639.000
280.838; -104.175; -778.000; -800.000
280.978;  -94.225; -846.000; -790.000
281.118; -111.325; -811.000; -704.000
281.257;   -3.775;   24.000;    6.000
281.397; -129.950;-1094.000; -960.000
281.537;  -90.350; -599.000; -712.000
281.677;  -18.475; -150.000; -101.000
281.816; -102.850; -700.000; -630.000
281.956;  -22.975; -193.000; -257.000
282.096;  -77.950; -539.000; -396.000
282.235; -109.175; -672.000; -638.000
282.375;  -29.625; -243.000;  -98.000
282.515; -109.925; -715.000; -707.000
282.654;   29.600;   29.000;  106.000
282.794;   24.350;  388.000;  244.000
282.934;  -70.725; -530.000; -491.000
283.073; -129.125;-1030.000; -857.000
283.213;  -63.375; -460.000; -467.000
283.353;  -41.250; -408.000; -349.000
283.492;  -36.300; -264.000; -296.000
283.632;  -49.450; -254.000; -168.000
283.771; -106.075; -859.000; -730.000
283.911;  -53.550; -369.000; -260.000
284.050; -123.725; -794.000; -748.000
284.190; -169.300;-1229.000;-1096.000
284.329; -152.400;-1055.000; -964.000
284.469;  -81.375; -516.000; -591.000
284.608;  -58.525; -559.000; -598.000
284.748;  -79.550; -614.000; -570.000
284.887;  -16.250;  -87.000;  -20.000
285.027; -130.225; -844.000; -892.000
285.166;  -27.875; -192.000; -249.000
285.306;    0.625; -116.000;  -33.000
285.445;  -48.950; -229.000; -343.000
285.584; -110.175; -630.000; -494.000
285.724;  -42.825; -282.000; -322.000
285.863; -110.525; -857.000; -507.000
286.002;  -68.300; -366.000; -276.000
286.142; -109.975; -715.000; -622.000
286.281;  -63.375; -525.000; -493.000
286.420;  -77.975; -554.000; -417.000
286.560;   79.475;  653.000;  623.000
286.699; -152.125; -958.000; -912.000
286.838;  -89.775; -590.000; -591.000
286.978;  -99.750; -533.000; -537.000
287.117; -133.825;-1085.000; -950.000
287.256;  -40.325; -228.000; -211.000
287.395;  -59.850; -197.000; -378.000
287.535;  -60.850; -370.000; -298.000
287.674;  -87.425; -509.000; -484.000
287.813;   47.200;  661.000;  533.000
287.952; -143.975;-1010.000; -871.000
288.091; -161.400;-1049.000; -915.000
288.231;    2.075;   13.000;   15.000
288.370; -178.275;-1217.000;-1200.000
288.509;  -90.075; -728.000; -645.000
288.648;  -96.800; -770.000; -548.000
288.787;  -42.300; -243.000;  -87.000
288.926;  -69.975; -454.000; -475.000
289.065;  109.825;  859.000;  672.000
289.204;  -67.400; -377.000; -217.000
289.344; -116.600; -791.000; -690.000
289.483;    8.575;  416.000;  304.000
289.622;  -26.800; -291.000; -149.000
289.761;  -16.900; -309.000; -166.000
289.900; -108.400; -785.000; -626.000
290.039;  -26.525;  -12.000;  -95.000
290.178;  -48.500; -274.000; -180.000
290.317;  -88.150; -618.000; -479.000
290.456;  -81.600; -463.000; -451.000
290.595; -141.875; -961.000; -833.000
290.734; -147.600; -904.000; -891.000
290.873;  -70.800; -456.000; -420.000
291.011; -123.475; -833.000; -843.000
291.150;  -98.875; -770.000; -682.000
291.289;  -42.475; -343.000; -110.000
291.428;  -81.300; -599.000; -480.000
291.567;  -57.775; -370.000; -442.000
291.706;  -18.225;  109.000;  154.000
291.845;  -98.825; -597.000; -505.000
291.984; -178.950;-1234.000;-1061.000
292.122;   60.875;  602.000;  582.000
292.261;   50.750;  620.000;  463.000
292.400;   -0.625; -144.000;  211.000
292.539; -138.300; -959.000; -813.000
292.678;  -56.050; -325.000; -300.000
292.816; -155.400;-1136.000; -965.000
292.955;  -97.625; -844.000; -684.000
293.094;  -32.725; -173.000; -337.000
293.233;  -70.700; -556.000; -400.000
293.371;  -49.250; -225.000;  -84.000
293.510; -112.775; -866.000; -780.000
293.649; -144.275; -959.000; -924.000
293.787;  -85.750;-1083.000;-1012.000
293.926;   -0.450; -113.000;  -32.000
294.065;  -52.800; -379.000; -290.000
294.203;   52.475;  298.000;  406.000
294.342;   -1.725;   74.000;  156.000
294.481; 6405.925;51180.000; -836.000
294.619;  -37.250; -425.000; -582.000
294.758; -154.200;-1230.000;-1137.000
294.896;   53.275; -125.000;    5.000
295.035; -149.375;-1040.000;-1006.000
295.174; -132.150;-1082.000; -954.000
295.312;  -59.125; -323.000; -203.000
295.451;  -29.775; -307.000; -428.000
295.589;  -54.875; -389.000; -518.000
295.728;    3.950; -292.000; -165.000
295.866;   -5.825;  -36.000;  -51.000
296.005;  -66.175; -584.000; -341.000
296.143;  -72.375; -558.000; -596.000
296.282; -116.000; -957.000; -881.000
296.420; -100.025; -657.000; -557.000
296.559;  -85.100; -892.000; -633.000
296.697;   16.375; -847.000; -665.000
296.835;   10.250;-1141.000;-1002.000
296.974;   37.575;  -23.000;   39.000
297.112;   -7.025; -443.000; -504.000
297.251;  -83.375; -815.000; -755.000
297.389;   58.425; -576.000; -438.000
297.527;   12.025; -145.000;  -83.000
297.666;  -49.175; -486.000; -438.000
297.804;  -53.875; -404.000; -264.000
297.942;  -23.250; -136.000; -161.000
298.081;  -12.675; -183.000;   63.000
298.219;   63.000;  -17.000;  -19.000
298.357;   28.350; -144.000;  -71.000
298.495;   13.150; -810.000; -812.000
298.634;   55.275;  245.000;  219.000
298.772;   43.325; -220.000; -338.000
298.910;  -41.950; -309.000; -182.000
299.048;  -20.750; -130.000; -153.000
299.187;  -43.525; -350.000; -250.000
299.325;   13.125;   52.000;  122.000
299.463;   28.150; -389.000; -299.000
299.601;   72.475; -327.000; -271.000
299.739; -111.225; -908.000; -883.000
299.877;  -90.175; -791.000; -703.000
300.016;  -55.075;-1095.000; -935.000
300.154;  128.250;  -19.000; -161.000
300.292;   17.775; -428.000; -348.000
300.430;   15.350; -408.000; -291.000
300.568; -116.050; -940.000; -874.000
300.706;  -54.500; -366.000; -469.000
300.844;  -84.250;-1108.000; -979.000
300.982;  105.525;  246.000;  282.000
301.120; -129.500; -965.000; -866.000
301.258;  -85.525; -812.000; -705.000
301.396;   19.100;  104.000;  -41.000
301.534;   57.025; -218.000; -293.000
301.672;  -37.575; -664.000; -521.000
301.810;   -1.925; -613.000; -545.000
301.948;  102.700;   53.000;  149.000
302.086;  539.725; -250.000;  -32.000
302.224;  828.250; -610.000; -585.000
302.362;    6.975; -558.000; -622.000
302.500;  -43.050; -923.000; -893.000
302.638;   91.800;  128.000;  245.000
302.776;  -20.750; -352.000; -408.000
302.913;   36.825;  447.000;  236.000
303.051;  -20.100;  -86.000;  -23.000
303.189;   29.175;   90.000;  118.000
303.327;  -31.100; -341.000; -256.000
303.465;  -89.025; -832.000; -588.000
303.603; -106.650; -805.000; -604.000
303.740;   96.625;  417.000;  241.000
303.878;   -2.550; -800.000; -759.000
304.016; -100.125; -915.000; -790.000
304.154; -130.650;-1123.000;-1152.000
304.291;  -49.125; -505.000; -554.000
304.429;   -7.675;  102.000;   74.000
304.567; -128.425; -908.000; -893.000
304.705;  -55.200; -408.000; -515.000
304.842;   63.625; -616.000; -540.000
304.980;   56.175;  215.000;   35.000
305.118;   17.400; -367.000; -365.000
305.255;  -87.125; -945.000; -927.000
305.393;   38.325;  178.000;  239.000
305.531; -115.375;-1173.000; -956.000
305.668;  -84.400; -663.000; -582.000
305.806;   88.475; -358.000; -439.000
305.943;   90.425; -629.000; -637.000
306.081;   27.650; -378.000; -267.000
306.219; -111.675; -863.000; -748.000
306.356;    5.325;  158.000;   27.000
306.494;  109.875;  981.000;  761.000
306.631;  -18.275;  -11.000;  -55.000
306.769;  -10.725; -613.000; -485.000
306.906;  -32.075; -284.000; -258.000
307.044;  -67.825; -473.000; -488.000
307.181;  -70.975; -410.000; -332.000
307.319;    3.175;  112.000;   87.000
307.456; -187.450;-1191.000;-1153.000
307.594; -103.325; -980.000; -727.000
307.731;   -9.275; -371.000; -164.000
307.868;   -2.150;  -15.000;   20.000
308.006; -137.700; -961.000; -847.000
308.143;  -73.900; -618.000; -330.000
308.281;  113.500;  -37.000; -254.000
308.418;  -41.950; -748.000; -640.000
308.555;  -86.375; -400.000; -250.000
308.693;  -78.625; -577.000; -573.000
308.830; -110.050; -712.000; -657.000
308.967;  -22.500; -215.000;  -95.000
309.105;  -67.050; -507.000; -396.000
309.242;   -2.750; -468.000; -367.000
309.379;  185.700; -577.000; -655.000
309.517;  -82.525; -936.000; -948.000
309.654; -113.400; -910.000; -734.000
309.791;  -80.000; -662.000; -580.000
309.928; -132.550; -977.000; -914.000
310.065;  173.650;  819.000;  697.000
310.203;  -31.450; -825.000; -850.000
310.340;  -25.700; -465.000; -321.000
310.477;  -76.525; -412.000; -516.000
310.614;  -68.900; -383.000; -473.000
310.751;  -78.200; -427.000; -518.000
310.889;  -32.850;    1.000;   11.000
311.026; -154.025;-1161.000; -939.000
311.163;  -45.625; -386.000; -380.000
311.300;  -80.050; -512.000; -479.000
311.437;  -88.050; -658.000; -619.000
311.574; -156.775;-1226.000; -985.000
311.711;  -75.275; -595.000; -433.000
311.848;  -40.800; -380.000; -388.000
311.985;   -0.675;  270.000;   93.000
312.122; -125.675; -932.000; -762.000
312.259; -129.600; -941.000; -994.000
312.396;  -79.150; -508.000; -551.000
312.533; -104.725; -812.000; -790.000
312.670; -140.950;-1070.000; -898.000
312.807;  -48.200; -352.000; -367.000
312.944;  -91.675; -513.000; -611.000
313.081;  -34.900; -150.000; -415.000
313.218; -108.550;-1111.000; -867.000
313.355;   -3.100; -531.000; -449.000
313.492;  -13.125; -455.000; -292.000
313.629;  122.850;  815.000;  735.000
313.766; -156.050;-1176.000;-1008.000
313.902;  -22.425; -186.000;   21.000
314.039;  -63.025; -372.000; -289.000
314.176;   23.225;  286.000;  192.000
314.313;  -86.450; -569.000; -473.000
314.450;  -80.975; -788.000; -684.000
314.587;  -65.800; -468.000; -480.000
314.723;   -2.275;  -78.000;  130.000
314.860;   18.000;  318.000;  332.000
314.997;   22.550;  223.000;  142.000
315.134;  -46.550; -385.000; -368.000
315.270;  -45.300; -480.000; -496.000
315.407; -126.225;-1094.000; -967.000
315.544;  -63.900; -657.000; -538.000
315.681;  -60.700; -681.000; -565.000
315.817;   21.450; -133.000; -176.000
315.954;    3.950; -613.000; -392.000
316.091; -134.350;-1045.000;-1023.000
316.227;  -38.800;  -71.000; -179.000
316.364;   -6.675;   23.000;    6.000
316.500;  -41.375; -113.000; -300.000
316.637;  -54.500; -181.000; -302.000
316.774;  -78.600; -625.000; -358.000
316.910; -100.850; -598.000; -629.000
317.047;  -74.925; -487.000; -351.000
317.183;  -61.575; -435.000; -566.000
317.320;  -12.525; -367.000; -321.000
317.456;  -78.800; -733.000; -805.000
317.593;  -94.175; -598.000; -641.000
317.729;    6.075;  168.000;  -67.000
317.866; -216.025;-1434.000;-1285.000
318.002;  -99.550; -708.000; -948.000
318.139; -123.625; -883.000; -867.000
318.275; -112.500;-1003.000; -738.000
318.412;  -65.575; -517.000; -336.000
318.548;  -48.850; -751.000; -720.000
318.685;  -98.850; -985.000; -888.000
318.821;  -93.275; -762.000; -735.000
318.957;  -14.800;   34.000;  -23.000
319.094;   37.800;  297.000;  154.000
319.230;  -79.500; -756.000; -742.000
319.367;   99.725; -471.000; -520.000
319.503;   25.925; -538.000; -436.000
319.639;  -99.100; -877.000; -793.000
319.775;  -71.525; -750.000; -685.000
319.912;  -72.275; -424.000; -519.000
320.048; -100.375;-1184.000;-1184.000
320.184;   70.825;   59.000;   70.000
320.321;  -55.775; -497.000; -467.000
320.457;   58.975;  475.000;  662.000
320.593;  -67.350; -375.000; -382.000
320.729; -119.300; -732.000; -734.000
320.866;  -74.825; -577.000; -635.000
321.002;  -90.525; -759.000; -809.000
321.138;  -21.350; -135.000; -211.000
321.274;   57.225; -148.000; -115.000
321.410;  -29.125; -585.000; -353.000
321.546;  -52.325;-1011.000; -911.000
321.683;   54.200;  400.000;  185.000
321.819;   -0.600;  -48.000; -117.000
321.955; -120.300; -743.000; -722.000
322.091;  -50.800; -585.000; -540.000
322.227;  -25.975; -382.000; -202.000
322.363;  -33.775; -320.000; -215.000
322.499;  -54.675; -343.000; -331.000
322.635;  137.550;  636.000;  443.000
322.771;   24.650; -139.000;   12.000
322.907;   78.850;  129.000;  327.000
323.043;  -24.325; -115.000; -206.000
323.179;  -46.900; -394.000; -363.000
323.315;  -12.350; -401.000; -371.000
323.451;   78.600; -328.000; -236.000
323.587;   49.075;  -60.000;  -77.000
323.723;    4.525; -682.000; -601.000
323.859;  -19.600; -258.000;  -76.000
323.995;  -42.525; -467.000; -409.000
324.131; -129.850; -967.000; -892.000
324.267;  -52.800; -254.000; -276.000
324.402; -132.100; -960.000; -983.000
324.538;  -19.875; -279.000; -104.000
324.674;   -0.975;  164.000;   77.000
324.810;   87.375;  226.000;  308.000
324.946;  -22.875; -810.000; -658.000
325.082;  -72.100; -568.000; -475.000
325.217;  -17.275;  -62.000;   16.000
325.353; -107.975; -764.000; -659.000
325.489;  -88.575; -540.000; -506.000
325.625;  -79.375; -579.000; -525.000
325.760;   74.425;  517.000;  376.000
325.896;  -30.825; -515.000; -702.000
326.032;  -56.325; -403.000; -352.000
326.168;  -57.050; -462.000; -369.000
326.303;  -57.100; -352.000; -461.000
326.439;  -26.225; -336.000; -276.000
326.575;   -7.025; -190.000;  -29.000
326.710;  -11.775; -156.000;  -30.000
326.846;  -13.100;  146.000;  103.000
326.982; -101.400; -530.000; -548.000
327.117;  -66.225; -481.000; -442.000
327.253;  -94.350; -745.000; -742.000
327.388; -180.825;-1137.000;-1153.000
327.524;  -74.575; -811.000; -578.000
327.659;  -14.625;  -58.000;  -22.000
327.795;  -20.975;   69.000;   45.000
327.931;  -88.000; -723.000; -499.000
328.066;  -36.725; -417.000; -276.000
328.202;  -13.050;   12.000; -129.000
328.337;   84.450;  957.000;  713.000
328.473;   34.525;  -12.000;  -74.000
328.608;  -29.650; -256.000; -267.000
328.743;  -95.850; -799.000; -664.000
328.879;    0.950;  214.000;  114.000
329.014;  -37.650; -102.000; -122.000
329.150;  -90.625; -358.000; -483.000
329.285;  -75.875; -465.000; -466.000
329.421;  -58.250; -548.000; -246.000
329.556;  -24.875;  -36.000;   85.000
329.691;  -92.875; -633.000; -615.000
329.827;  -87.025; -626.000; -480.000
329.962;  -37.225;  131.000; -301.000
330.097;  -89.150; -673.000; -585.000
330.233;  -51.000; -410.000; -223.000
330.368; -132.075; -839.000; -628.000
330.503;  -20.300;    3.000;   98.000
330.638;    4.525;  -93.000; -125.000
330.774;  -78.600; -609.000; -530.000
330.909;  -48.125; -434.000; -244.000
331.044; -111.000; -714.000; -708.000
331.179; -178.375;-1217.000;-1109.000
331.315;    1.450;   77.000;   20.000
331.450;    3.800;  157.000;  285.000
331.585;  -88.100; -805.000; -706.000
331.720;  -91.050; -510.000; -460.000
331.855;  -24.975;  -35.000; -102.000
331.990;  248.800;   62.000;  138.000
332.126;  122.625; -110.000;   71.000
332.261;  -25.475; -379.000; -265.000
332.396;  -11.150; -135.000; -242.000
332.531; -108.200;-1074.000;-1031.000
332.666;   14.850; -519.000; -363.000
332.801; -110.225; -726.000; -807.000
332.936;  -32.100; -192.000; -122.000
333.071; -133.225; -870.000; -817.000
333.206;    4.525;  307.000;  379.000
333.341;   41.450;  344.000;  418.000
333.476;  -91.950; -627.000; -623.000
333.611;  -42.825; -251.000; -173.000
333.746;  -53.125; -381.000; -464.000
333.881; -123.625; -973.000; -935.000
334.016; -143.225; -936.000; -917.000
334.151; -132.725; -746.000; -702.000
334.286;    8.275;  152.000;  186.000
334.421;  -28.550; -125.000; -178.000
334.556;  -95.875; -611.000; -567.000
334.690; -103.850; -631.000; -577.000
334.825;   50.925;  381.000;   83.000
334.960;  -76.350; -285.000; -413.000
335.095;   -1.975;  135.000;  -91.000
335.230;  -98.950; -722.000; -738.000
335.365; -158.600;-1084.000; -990.000
335.499; -144.325;-1108.000;-1037.000
335.634;   16.475;    9.000;  534.000
335.769; -102.325; -755.000; -720.000
335.904;  -70.400; -603.000; -561.000
336.038;  -66.825; -735.000; -657.000
336.173; -133.350;-1206.000;-1194.000
336.308;   -1.350; -116.000; -189.000
336.443;   18.125; -544.000; -634.000
336.577;  -81.600; -936.000; -787.000
336.712;   39.625;   -4.000;  -12.000
336.847;  -63.375; -724.000; -607.000
336.981;   41.450; -272.000; -208.000
337.116;  272.950;  615.000;  501.000
337.250;  118.200; -434.000; -421.000
337.385;  262.475; -297.000; -208.000
337.520;   83.550; -632.000; -603.000
337.654;  -37.875; -215.000; -126.000
337.789; -128.775; -989.000; -933.000
337.923;  -27.825; -104.000; -205.000
338.058;  -91.625; -673.000; -738.000
338.192;  -44.425; -611.000; -488.000
338.327;  -34.350;  -18.000; -155.000
338.461;  -67.950; -299.000; -469.000
338.596;  -91.725; -780.000; -638.000
338.730;  -96.275; -767.000; -803.000
338.865;   72.875;  -46.000; -140.000
338.999;  -60.650; -846.000; -702.000
339.134;  -38.425; -634.000; -536.000
339.268;    2.000; -741.000; -603.000
339.403;  352.950; -740.000; -775.000
339.537;  113.300; -894.000; -820.000
339.671; -123.625; -829.000; -813.000
339.806;  -51.550; -556.000; -512.000
339.940;   -6.000; -261.000; -235.000
340.074; -112.325; -685.000; -510.000
340.209;  -58.975; -351.000; -230.000
340.343;  -94.425; -517.000; -573.000
340.477;  133.500;  998.000; 1036.000
340.612;  -51.375;-1033.000; -900.000
340.746;  136.700; -199.000; -243.000
340.880;  -93.575; -924.000; -785.000
341.014;  -26.650;  -45.000; -154.000
341.149; -116.650; -756.000; -718.000
341.283; -122.325; -839.000; -754.000
341.417; -115.725;-1124.000; -938.000
341.551;   88.950; -768.000; -708.000
341.685;  -37.525; -633.000; -611.000
341.820;  -63.375; -562.000; -493.000
341.954;  -58.275; -218.000; -349.000
342.088; -158.900;-1102.000;-1019.000
342.222;   46.725;  565.000;  618.000
342.356;  -79.200; -395.000; -335.000
342.490;  -98.325; -880.000; -841.000
342.624;  -40.825; -339.000; -242.000
342.758;  -16.800; -364.000; -312.000
342.892;  -84.400; -710.000; -585.000
343.026;  -46.050;  -58.000; -116.000
343.160;  -58.975; -426.000; -376.000
343.294;  -78.125; -474.000; -337.000
343.428;  -36.075; -488.000; -448.000
343.562;   -7.200; -172.000;  -23.000
343.696;  -39.275; -385.000; -314.000
343.830;  -23.875; -362.000; -356.000
343.964;   -1.275; -231.000; -168.000
344.098;  776.900;  199.000;   70.000
344.232;  651.900; -266.000; -127.000
344.366;   58.575; -567.000; -453.000
344.500;   22.200; -665.000; -744.000
344.634;   11.050; -324.000; -164.000
344.768;  -33.950; -531.000; -341.000
344.902;   27.625;  278.000;  256.000
345.035;  -79.025; -556.000; -496.000
345.169; -135.950; -933.000; -656.000
345.303;  -28.175; -308.000; -482.000
345.437;  -93.375; -826.000; -717.000
345.571;  -83.500; -675.000; -594.000
345.704;  -80.600; -309.000; -532.000
345.838;  -18.125; -331.000; -284.000
345.972;  -57.375; -543.000; -495.000
346.106;  158.425; -179.000; -190.000
346.239;  414.225; -312.000; -243.000
346.373;  -10.025; -343.000; -302.000
346.507; -147.575; -950.000; -962.000
346.640;  114.200;  -30.000;   13.000
346.774;  -58.300; -650.000; -797.000
346.908;  -30.325; -138.000;  -11.000
347.041; -102.275; -646.000; -593.000
347.175;   -2.875;  259.000;   27.000
347.309;  -79.150; -698.000; -628.000
347.442; -102.900; -883.000; -732.000
347.576;  250.050;  670.000;  668.000
347.709;  162.725; -123.000;  -52.000
347.843; -107.175; -933.000; -825.000
347.976;   27.875;  235.000;  294.000
348.110; -182.800;-1268.000;-1186.000
348.243; -107.950; -679.000; -772.000
348.377;   -0.600;  -26.000;   60.000
348.510;   41.350;  403.000;  540.000
348.644;  -40.925;  -37.000; -159.000
348.777;    2.250;  180.000;  191.000
348.911;  -52.825; -142.000; -112.000
349.044;  138.175;  471.000;  448.000
349.178;  103.200;-1069.000;-1006.000
349.311;  113.650;  141.000;  255.000
349.444;    2.950; -927.000; -813.000
349.578;  -32.825; -347.000; -200.000
349.711; -114.175; -959.000; -862.000
349.845;  -15.200; -661.000; -591.000
349.978; -153.725;-1224.000;-1137.000
350.111;  -90.675; -546.000; -612.000
350.244;  -81.625; -596.000; -700.000
350.378;   -7.425; -392.000; -393.000
350.511;  -72.525; -393.000; -426.000
350.644; -102.425; -808.000; -806.000
350.778;    8.025;  168.000;  104.000
350.911;   -3.125;  134.000;  140.000
351.044; -111.275; -685.000; -615.000
351.177;  -36.425; -321.000; -281.000
351.310;  -20.475;    3.000; -131.000
351.444;  -92.250; -888.000; -788.000
351.577;  101.475;  140.000;   90.000
351.710;   80.150;  593.000;  417.000
351.843;  -30.925; -165.000;  -77.000
351.976;  -13.050;  149.000;  -79.000
352.109;  -98.300; -621.000; -612.000
352.242;  -49.375; -464.000; -419.000
352.376;  -71.175; -580.000; -636.000
352.509;  137.525; -437.000; -356.000
352.642;   -4.725; -654.000; -604.000
352.775;   35.900; -141.000;  -98.000
352.908; -127.650; -933.000; -904.000
353.041; -119.100; -814.000; -824.000
353.174;  -68.675; -551.000; -424.000
353.307;  -93.350; -753.000; -764.000
353.440;   80.250;  541.000;  453.000
353.573; -131.700; -957.000;-1008.000
353.706;  -62.400; -384.000; -558.000
353.839;  -24.050; -264.000; -220.000
353.971;  -90.150; -657.000; -512.000
354.104;  -95.050; -896.000; -835.000
354.237;  -54.600; -627.000; -662.000
354.370;  -90.625; -846.000; -879.000
354.503; -190.600;-1231.000;-1308.000
354.636;  -50.125; -529.000; -348.000
354.769; -141.425; -937.000; -860.000
354.902;  -25.775; -230.000; -139.000
355.034;  -32.750; -164.000; -220.000
355.167;  -25.750; -262.000; -162.000
355.300;  -98.325;-1061.000; -880.000
355.433;  972.125;  -71.000;  -14.000
355.565; 1525.300; -402.000; -384.000
355.698;  364.575; -356.000; -296.000
355.831;   -0.925; -882.000; -801.000
355.964;   59.475; -285.000; -170.000
356.096;  -92.425; -856.000; -843.000
356.229;  -16.400; -523.000; -530.000
356.362;  305.550; -373.000; -266.000
356.494;  602.675; -229.000; -162.000
356.627;  424.800;  269.000;  377.000
356.760;  648.250;  120.000;   53.000
356.892;  972.500; -286.000; -601.000
357.025;  558.200;  403.000;  389.000
357.157;  502.650; -167.000; -179.000
357.290;  682.475; -856.000; -713.000
357.423;  197.850; -667.000; -556.000
357.555;   87.725; -217.000; -228.000
357.688;  106.500; -483.000; -364.000
357.820;  375.575; -870.000; -877.000
357.953; 3341.125; -563.000; -589.000
358.085;  681.675; -632.000; -612.000
358.218;  918.550;-1131.000; -932.000
358.350;  157.525;  -58.000;  312.000
358.483; -135.700;-1300.000;-1187.000
358.615;  -60.550;-1182.000;-1078.000
358.747;  -89.750;-1187.000;-1058.000
358.880;    4.825; -810.000; -744.000
359.012;   -8.750; -376.000; -202.000
359.145;  -61.325; -480.000; -511.000
359.277;   31.075; -962.000; -913.000
359.409; 2759.150;  536.000;  231.000
359.542;  690.500; -738.000; -688.000
359.674;   61.300;   46.000;   13.000
359.806;  -78.425; -565.000; -438.000
359.939;  -50.450; -617.000; -516.000
360.071;  -21.250; -583.000; -579.000
360.203;  -41.325; -411.000; -364.000
360.335;   48.250;  164.000;  -16.000
360.468;  175.575; -249.000; -307.000
360.600; 2287.175; -547.000; -454.000
360.732; 2896.575; -546.000; -423.000
360.864;  381.200;-1216.000;-1044.000
360.996;  213.075; -516.000; -554.000
361.129;   18.375; -389.000; -598.000
361.261;   14.600;  110.000; -113.000
361.393;  -31.425; -252.000; -214.000
361.525;   11.200;   94.000;  244.000
361.657;  -51.275; -821.000; -703.000
361.789;   -7.675; -139.000; -155.000
361.921;  171.550; -642.000; -593.000
362.053;  224.425;  524.000;  541.000
362.185;   33.150;  288.000;   72.000
362.318;  -99.850; -709.000; -705.000
362.450;   92.925;  294.000;  444.000
362.582;   42.225; -913.000; -870.000
362.714;  -46.825; -353.000; -332.000
362.846; -104.100; -606.000; -490.000
362.978; -148.600; -941.000; -811.000
363.109;   20.950; -161.000; -260.000
363.241;  350.950; -739.000; -749.000
363.373;  436.225; -649.000; -564.000
363.505;  691.650; -186.000;  -91.000
363.637;  140.775; -787.000; -601.000
363.769; -133.475;-1067.000;-1080.000
363.901;  -81.500; -596.000; -654.000
364.033; -117.750;-1103.000;-1062.000
364.165;  -10.450; -283.000; -283.000
364.296;   62.200; -316.000; -177.000
364.428;   59.125;-1344.000;-1220.000
364.560;  -78.475; -679.000; -661.000
364.692;  -89.200; -738.000; -835.000
364.824;  207.550; -588.000; -456.000
364.955;  429.650; -402.000; -564.000
365.087;  967.575;-1097.000; -852.000
365.219;   27.000; -686.000; -816.000
365.351;  -69.550; -526.000; -572.000
365.482;   45.275;  300.000;  240.000
365.614;  -59.825; -402.000; -314.000
365.746; -105.125; -729.000; -752.000
365.877; -113.775; -706.000; -672.000
366.009;  279.075;  -35.000;  -62.000
366.141;  -97.850;-1249.000;-1134.000
366.272; -117.425; -803.000; -719.000
366.404; -125.000;-1005.000; -874.000
366.535;  -20.175; -139.000;  -12.000
366.667; -104.700; -644.000; -649.000
366.799;   34.200;  353.000;  203.000
366.930; -128.025; -862.000; -996.000
367.062;  116.525; -639.000; -613.000
367.193;  151.700; -872.000; -842.000
367.325;  -71.625; -580.000; -684.000
367.456;   39.425; -246.000;   31.000
367.588;  146.750; -371.000; -318.000
367.719;   18.475;  -44.000;  -45.000
367.851;  -27.425; -222.000; -241.000
367.982;  -68.725; -875.000; -732.000
368.113;   59.600; -475.000; -358.000
368.245; -130.200; -960.000; -841.000
368.376;  -34.000; -254.000; -302.000
368.508;  -35.475; -188.000; -263.000
368.639; -151.875;-1166.000;-1034.000
368.770;  -38.600; -670.000; -589.000
368.902;  -83.800; -836.000; -926.000
369.033; -116.725; -906.000; -855.000
369.164;  -52.600; -720.000; -653.000
369.296; -118.225; -452.000; -601.000
369.427;   -3.475; -209.000; -144.000
369.558;  -75.025; -593.000; -377.000
369.689;  -94.500; -721.000; -569.000
369.821; -143.750; -951.000; -845.000
369.952;  -30.525;   42.000; -108.000
370.083;  -60.200; -229.000; -108.000
370.214; -101.950; -735.000; -650.000
370.345;    1.150;   65.000;   81.000
370.477; -105.050; -810.000; -790.000
370.608;  178.050; -328.000; -264.000
370.739;  -85.700;-1233.000;-1292.000
370.870;  -68.275;-1102.000; -923.000
371.001;   64.775; -378.000; -467.000
371.132;  -83.925; -754.000; -735.000
371.263;  -23.925;  -42.000; -148.000
371.394; -134.925; -841.000; -748.000
371.525;   19.375;  345.000;  225.000
371.657; -105.300; -808.000; -670.000
371.788;   50.875;  103.000;  199.000
371.919;  124.950; -384.000; -304.000
372.050; 3220.150;  -91.000; -156.000
372.181;  929.975; -188.000; -294.000
372.311;  301.950;   42.000; -127.000
372.442;    8.625; -457.000; -451.000
372.573;  -28.975; -444.000; -340.000
372.704; -131.775;-1008.000; -980.000
372.835;   64.700; -228.000; -289.000
372.966;  -61.800; -646.000; -554.000
373.097;  -90.950; -575.000; -711.000
373.228;  -43.575; -717.000; -542.000
373.359;   94.700; -824.000; -536.000
373.490;  765.900; -881.000; -727.000
373.620;  951.300;-1001.000; -803.000
373.751; 1520.675; -332.000; -396.000
373.882;  656.225; -663.000; -733.000
374.013;   41.175; -449.000; -262.000
374.143;  -51.750; -581.000; -659.000
374.274; -126.150; -987.000; -908.000
374.405;  130.200; -388.000; -276.000
374.536;  362.325; -526.000; -387.000
374.666;  927.550; -759.000; -807.000
374.797;  166.825; -817.000; -868.000
374.928;  699.350; -710.000; -560.000
375.058;  759.800; -535.000; -500.000
375.189;   55.900;  -59.000;  -93.000
375.320; -119.975; -928.000;-1034.000
375.450;  -57.950; -625.000; -616.000
375.581;  -50.725; -526.000; -436.000
375.712;  -36.775; -574.000; -250.000
375.842;  238.875; -438.000; -415.000
375.973;  172.125; -554.000; -513.000
376.103;  -56.275; -665.000; -648.000
376.234;  -85.200; -531.000; -552.000
376.364;  -56.150; -944.000; -867.000
376.495;  294.575;  925.000;  529.000
376.625;  -25.925; -472.000; -485.000
376.756;   26.875; -709.000; -678.000
376.886;  -98.375;-1178.000;-1026.000
377.017;   56.125;-1048.000;-1061.000
377.147;  385.925; -786.000; -782.000
377.278;   57.375;  174.000;  228.000
377.408; -127.175; -801.000; -815.000
377.538; -125.300; -707.000; -693.000
377.669;  -81.375; -537.000; -613.000
377.799;  -92.525; -645.000; -635.000
377.929;  -72.550; -610.000; -428.000
378.060; -142.975; -781.000; -847.000
378.190;  -69.575; -726.000; -531.000
378.320;  -70.350; -401.000; -406.000
378.451;   -9.225; -131.000;  -22.000
378.581;  -16.600;  -67.000; -110.000
378.711;  139.025; 1035.000;  866.000
378.841;  -43.200; -533.000; -675.000
378.972;  -73.350; -871.000; -751.000
379.102;  -39.825; -652.000; -579.000
379.232;  -37.425; -126.000;  -73.000
379.362; -124.900;-1001.000; -885.000
379.492;  -22.925; -373.000; -424.000
379.623;   83.675;    0.000;  111.000
379.753; -110.100;-1107.000; -974.000
379.883;  154.950;   59.000;  156.000
380.013;  -38.250;-1081.000;-1017.000
380.143; -120.550;-1097.000;-1056.000
380.273; -112.100; -985.000; -861.000
380.403;  -15.275; -344.000; -257.000
380.533;  -49.200; -651.000; -664.000
380.663;   61.150;  173.000;  128.000
380.793; -114.700;-1027.000;-1074.000
380.923;  -25.850; -103.000;  -34.000
381.053; -101.150; -613.000; -623.000
381.183;  -47.050; -106.000; -248.000
381.313;    7.400; -656.000; -470.000
381.443;   15.825; -692.000; -473.000
381.573;  154.025; -402.000; -409.000
381.703;  193.025;-1249.000;-1095.000
381.833; -137.900;-1454.000;-1336.000
381.963;   78.700; -134.000;  -87.000
382.093; 1215.725; -925.000; -909.000
382.223;  357.250; -713.000; -602.000
382.353;  -39.150; -801.000; -608.000
382.482;  284.150;-1091.000; -964.000
382.612;  654.000; -872.000; -644.000
382.742;  326.175; -695.000; -622.000
382.872;  187.575; -565.000; -551.000
383.002;   31.950;  347.000; -132.000
383.131;  -25.000; -226.000; -160.000
383.261;  -61.575; -706.000; -768.000
383.391;  272.200; -552.000; -377.000
383.521; 3339.750;  451.000;  263.000
383.650;  771.525; -947.000; -904.000
383.780;  -26.700; -783.000; -656.000
383.910;  119.500;  880.000;  802.000
384.039;  -15.050; -794.000; -656.000
384.169;  147.600;-1205.000;-1017.000
384.299;  -49.975; -650.000; -662.000
384.428; -108.625; -764.000; -680.000
384.558;  -52.025; -308.000; -275.000
384.687;  -55.325; -414.000; -334.000
384.817;   -3.525;   75.000;   -2.000
384.947;   -4.050; -234.000; -141.000
385.076;  242.900;  982.000;  912.000
385.206;   90.100;  369.000;  480.000
385.335;  -53.025; -549.000; -417.000
385.465;  -91.300; -655.000; -663.000
385.594;  103.425;  -53.000;  -44.000
385.724;  324.175; -868.000; -838.000
385.853;   89.950; -296.000; -270.000
385.982; 1171.425; -743.000; -787.000
386.112; 1817.000;-1052.000; -871.000
386.241;  105.400; -307.000; -312.000
386.371;   -5.250; -174.000;  -87.000
386.500;  -18.600; -825.000; -789.000
386.629;   -7.150; -874.000; -817.000
386.759;   67.800;  -43.000;   68.000
386.888;  -16.475; -170.000; -250.000
387.017;  -89.850; -648.000; -620.000
387.147;  -98.025; -771.000; -798.000
387.276;  -29.725; -410.000; -397.000
387.405;  -14.875; -398.000; -342.000
387.535;  -65.300; -452.000; -361.000
387.664;  -66.150; -692.000; -620.000
387.793;   31.925; -198.000; -113.000
387.922;  432.775;  255.000;  200.000
388.052;   -4.425; -576.000; -423.000
388.181;  -17.825; -342.000; -472.000
388.310;  -27.350; -889.000; -710.000
388.439;  -76.575; -749.000; -742.000
388.568;  156.200;  365.000;  244.000
388.697;  878.400; -756.000; -653.000
388.826;  167.800; -768.000; -666.000
388.956;   39.175; -285.000; -307.000
389.085;  -39.450; -347.000; -287.000
389.214; -118.075; -842.000; -872.000
389.343;  -84.550; -645.000; -413.000
389.472;  415.800;  126.000;  149.000
389.601;  508.350;   91.000;    0.000
389.730;   -1.025; -568.000; -687.000
389.859;   51.950;  226.000;   46.000
389.988;  152.675; -423.000; -408.000
390.117;   98.600; -168.000; -146.000
390.246;  -38.625; -331.000; -320.000
390.375;   54.725; -673.000; -626.000
390.504;  -84.825; -703.000; -621.000
390.633; -106.050; -672.000; -726.000
390.761;  -92.925; -732.000; -645.000
390.890;   -6.225;   -4.000; -130.000
391.019;  -58.150; -421.000; -441.000
391.148; -132.625; -826.000; -855.000
391.277;  -88.500; -576.000; -493.000
391.406;  -86.875; -821.000; -805.000
391.534;    4.700;  574.000; -301.000
391.663;  -81.325; -583.000; -645.000
391.792; -103.875; -673.000; -701.000
391.921;   67.700;   -3.000;   15.000
392.050;  126.225; -287.000; -228.000
392.178;  -61.725;-1206.000;-1061.000
392.307;   96.900; -758.000; -712.000
392.436;   32.075; -427.000; -641.000
392.564;    9.375;  166.000;   -6.000
392.693;  -85.500; -860.000; -682.000
392.822;  167.375; -529.000; -534.000
392.950;   53.475; -880.000; -714.000
393.079;  258.825; -188.000; -328.000
393.208;   -8.150; -488.000; -511.000
393.336;  -29.725; -170.000; -145.000
393.465;  -64.875; -317.000; -199.000
393.593;    1.150;   62.000;   79.000
393.722; -158.950;-1121.000; -916.000
393.850;  -42.300; -188.000;  -61.000
393.979; -169.000; -926.000; -805.000
394.107;  -68.625; -517.000; -537.000
394.236;  -25.975; -570.000; -507.000
394.364;  154.575;  383.000;  206.000
394.493;  214.825; -911.000; -767.000
394.621;  -36.450; -955.000; -916.000
394.750;  737.650; -873.000; -923.000
394.878; 3024.950; -247.000; -149.000
395.007; 4061.800; -721.000; -807.000
395.135;  268.500; -790.000; -721.000
395.263;  -77.150;-1038.000;-1040.000
395.392;  -10.200;  -25.000; -107.000
395.520; -149.000; -818.000; -679.000
395.648; -100.100; -865.000; -915.000
395.777;  -43.000; -366.000; -405.000
395.905;  -63.075; -449.000; -564.000
396.033;    9.075;  217.000;  172.000
396.162;  378.850; -399.000; -453.000
396.290;  321.850;  -17.000;   -2.000
396.418;   59.350; -555.000; -514.000
396.546;  -86.475; -571.000; -466.000
396.674; -114.925; -850.000; -878.000
396.803;   -1.400;  -72.000;  -23.000
396.931;   52.775; -179.000; -199.000
397.059;    2.375;-1026.000; -989.000
397.187; -132.825;-1026.000; -975.000
397.315; -152.100; -884.000; -649.000
397.443; -104.525; -592.000; -443.000
397.572; -100.675; -578.000; -424.000
397.700;  -32.975; -607.000; -614.000
397.828;    5.500;  120.000;  -90.000
397.956;  -53.950; -508.000; -478.000
398.084;  -74.100; -767.000; -626.000
398.212;   13.900;  137.000;  124.000
398.340;   -4.800;  -56.000;  159.000
398.468;   18.650; -390.000; -169.000
398.596; -147.900; -993.000; -953.000
398.724; -144.825; -762.000; -767.000
398.852; -175.575;-1024.000; -976.000
398.980;  -73.450; -560.000; -560.000
399.108;  -78.325; -982.000; -735.000
399.236;   25.325;   13.000;    8.000
399.363;    2.075;  222.000;  196.000
399.491;  -77.875; -404.000; -398.000
399.619; -136.250; -829.000; -800.000
399.747; -105.550; -859.000; -771.000
399.875;   75.500;  220.000;  234.000
400.003;  -63.975; -359.000; -284.000
400.130; -107.025; -421.000; -341.000
400.258;  -20.150;  -83.000;   38.000
400.386;  -68.750; -352.000; -168.000
400.514;  -56.675; -526.000; -587.000
400.641; -104.075; -928.000; -802.000
400.769; -159.725; -979.000; -888.000
400.897; -123.725; -838.000; -793.000
401.025;  -31.150; -166.000; -152.000
401.152;    4.050;  220.000;   38.000
401.280;  -80.550; -430.000; -429.000
401.408; -124.600; -712.000; -576.000
401.535; -121.925; -735.000; -758.000
401.663; -196.375;-1134.000;-1054.000
401.790; -100.600; -514.000; -525.000
401.918;   33.950;  436.000;  405.000
402.046;  -30.100;  134.000;  122.000
402.173;  -26.125;  -18.000;    7.000
402.301;  -88.450; -519.000; -397.000
402.428;   27.675;  528.000;  383.000
402.556; -158.925;-1188.000; -913.000
402.683;  -36.125;  -20.000;   -1.000
402.811;  -22.975;  -37.000; -206.000
402.938;  -21.375;   20.000;   27.000
403.066;  154.250; -574.000; -558.000
403.193;  289.725;  299.000;  239.000
403.321;  221.650; -396.000; -574.000
403.448;  290.725;   83.000;   27.000
403.575;  126.375;  -90.000;  -46.000
403.703; -108.150; -732.000; -557.000
403.830;  -66.025; -531.000; -496.000
403.957; -147.375;-1117.000;-1023.000
404.085;   -8.875;  -61.000; -172.000
404.212;  110.850;  -50.000;   63.000
404.339;  260.975; -566.000; -306.000
404.467; 6054.625; -612.000; -524.000
404.594; 3708.850; -287.000; -227.000
404.721;  807.175; -869.000; -764.000
404.848;   65.925; -113.000; -202.000
404.976; -101.475; -856.000; -783.000
405.103;  -25.750;  -14.000;  -82.000
405.230;   -2.975;  190.000;  226.000
405.357;   20.300;  117.000;   44.000
405.484;  270.625;  -49.000;    5.000
405.612;   25.700; -548.000; -563.000
405.739;  -72.650; -488.000; -243.000
405.866;   79.725;  669.000;  385.000
405.993;  -46.750; -398.000; -102.000
406.120; -140.425; -801.000; -887.000
406.247;  -56.925; -323.000; -342.000
406.374;  362.300;  540.000;  629.000
406.501;   54.000; -632.000; -702.000
406.628;  -83.200; -621.000; -589.000
406.755; -107.400; -803.000; -620.000
406.882;  -63.225; -228.000; -277.000
407.009; -116.675; -719.000; -628.000
407.136;   16.600; -480.000; -401.000
407.263;   68.600; -939.000; -829.000
407.390; -108.450; -692.000; -614.000
407.517; -180.600;-1139.000;-1187.000
407.644;  -68.000; -332.000; -256.000
407.771;  -80.375; -249.000; -287.000
407.898;    4.075;  168.000;  328.000
408.025;  -69.200; -421.000; -313.000
408.151;  -21.625;   82.000;  153.000
408.278;  -74.375; -267.000; -216.000
408.405; -125.075; -931.000; -899.000
408.532;  -82.800; -549.000; -542.000
408.659; -120.750; -677.000; -648.000
408.785; -201.700;-1298.000;-1170.000
408.912;  -72.375; -412.000; -296.000
409.039; -116.900; -610.000; -686.000
409.166; -114.650; -591.000; -555.000
409.292; -122.075; -571.000; -534.000
409.419; -118.525; -665.000; -649.000
409.546; -101.000; -431.000; -192.000
409.672; -118.575; -713.000; -545.000
409.799;  -18.775;  -36.000;   34.000
409.926;  -64.500; -180.000; -179.000
410.052; -175.275;-1127.000;-1091.000
410.179;  -66.825; -368.000; -392.000
410.305;  -94.300; -375.000; -493.000
410.432;  -55.450; -220.000; -333.000
410.558;  -89.625; -305.000; -380.000
410.685; -113.825; -688.000; -431.000
410.812;  -87.450; -409.000; -588.000
410.938; -149.200; -964.000; -808.000
411.065; -103.200; -671.000; -645.000
411.191;  -33.075; -189.000; -174.000
411.317; -136.325; -823.000; -742.000
411.444;  -85.925; -317.000; -246.000
411.570;  -70.675; -339.000; -294.000
411.697; -141.175; -758.000; -752.000
411.823; -185.000; -989.000; -999.000
411.949;  -46.600;  -56.000;   17.000
412.076; -114.600; -539.000; -519.000
412.202; -134.175; -758.000; -757.000
412.329; -140.800; -798.000; -752.000
412.455; -131.050; -821.000; -657.000
412.581;  -13.900;  -15.000;  172.000
412.707;  -74.750; -540.000; -457.000
412.834;   13.200;  156.000;  219.000
412.960;  -98.300; -785.000; -784.000
413.086;  -93.300; -743.000; -701.000
413.212;  115.175;  604.000;  578.000
413.339;  -86.000; -685.000; -701.000
413.465;  -28.325; -364.000; -310.000
413.591; -114.700; -757.000; -474.000
413.717;  -59.925; -358.000; -366.000
413.843; -145.325; -839.000; -861.000
413.969;  -70.125;  -47.000; -292.000
414.096; -116.525; -679.000; -679.000
414.222;  -13.675;  -33.000;   85.000
414.348;  -34.850; -652.000; -385.000
414.474;   60.850;   38.000;  -52.000
414.600;  -29.325; -126.000; -144.000
414.726;  -27.575;  -96.000;  -55.000
414.852;  -64.975; -365.000; -342.000
414.978;   26.925;  104.000;  -18.000
415.104;   39.400;   38.000;   80.000
415.230;   16.050; -329.000; -330.000
415.356;   39.225; -409.000; -514.000
415.482;  182.550;   13.000;  -35.000
415.608;  262.500; -247.000; -323.000
415.734;  978.950;   67.000;   38.000
415.860;20564.200; -875.000; -767.000
415.986;14429.225; -685.000; -607.000
416.111; 1193.400; -798.000; -652.000
416.237;  256.475; -424.000; -571.000
416.363; 1206.625; -765.000; -733.000
416.489; 4320.475; -324.000; -251.000
416.615;  450.750; -707.000; -742.000
416.741;  -26.275; -677.000; -784.000
416.866;  -96.400; -673.000; -736.000
416.992; -127.050; -801.000; -818.000
417.118;  -37.075;  -41.000;  -80.000
417.244;  -94.825; -798.000; -531.000
417.369;  -94.350; -801.000; -612.000
417.495;  -21.575; -325.000; -254.000
417.621;  -93.925;-1015.000; -803.000
417.746;   -5.150; -579.000; -572.000
417.872;   42.825; -254.000; -144.000
417.998;   46.475; -515.000; -530.000
418.123; 1113.350;-1073.000; -845.000
418.249; 5526.850; -512.000; -601.000
418.374;  740.900; -916.000; -824.000
418.500;   90.975; -383.000; -482.000
418.626;  128.150;   70.000;  -59.000
418.751;  112.875; -549.000; -448.000
418.877;  186.100; -637.000; -643.000
419.002; 1895.775; -688.000; -560.000
419.128;12936.400; -930.000; -721.000
419.253; 3023.775; -967.000; -837.000
419.379;  427.675; -391.000; -338.000
419.504;  400.850;  325.000;  415.000
419.629;  535.475; -393.000; -212.000
419.755; 3823.450; -317.000; -254.000
419.880;22144.050;  -98.000;   67.000
420.006;11864.975; -280.000; -221.000
420.131;30108.750; -662.000; -775.000
420.256; 4169.100; -315.000; -316.000
420.382;  522.700; -665.000; -687.000
420.507;   60.350; -649.000; -778.000
420.632;   97.400; -337.000; -339.000
420.758;  181.500; -251.000; -425.000
420.883;  -88.350; -876.000; -672.000
421.008; -107.375; -775.000; -619.000
421.133;  -89.425; -509.000; -467.000
421.259;  -49.375; -325.000; -259.000
421.384; -119.000; -834.000; -693.000
421.509;  -79.025;-1052.000; -862.000
421.634;  920.275; -936.000; -820.000
421.759;  375.875; -359.000; -327.000
421.885;  -79.725; -717.000; -656.000
422.010;  -81.775; -673.000; -542.000
422.135; -151.450; -695.000; -727.000
422.260;   29.450;  340.000;  280.000
422.385;  -43.750;   12.000;  -98.000
422.510;    6.125;  151.000;  -26.000
422.635;    1.200;  -87.000;  -43.000
422.760;   65.800; -766.000; -791.000
422.885;   46.750;  -57.000;  -80.000
423.010;  -45.050; -112.000; -169.000
423.135; -109.275; -481.000; -561.000
423.260;  -37.100; -150.000; -245.000
423.385;   51.800;  476.000;  222.000
423.510;   28.150;   71.000;  -22.000
423.635;   72.350;  133.000;   45.000
423.760;   41.575;  383.000;  328.000
423.885;   28.525;  336.000;  391.000
424.010;   -8.625;  -68.000;  -13.000
424.135;  -13.075;    5.000;  -33.000
424.259;  -87.200; -654.000; -457.000
424.384;  -63.900; -279.000; -272.000
424.509;  -37.525; -260.000; -186.000
424.634; -102.750; -761.000; -623.000
424.759;  -31.150; -688.000; -544.000
424.883;  -14.475; -506.000; -527.000
425.008;  149.325; -502.000; -410.000
425.133; 2082.575; -679.000; -653.000
425.258;  903.975; -517.000; -381.000
425.382;  925.400; -867.000; -774.000
425.507; 2294.300; -487.000; -543.000
425.632;  398.975; -802.000; -663.000
425.756;  477.200; -256.000; -146.000
425.881; 7075.375; -831.000; -857.000
426.006;18591.150; -604.000; -355.000
426.130; 2779.800; -696.000; -508.000
426.255;  351.475; -611.000; -491.000
426.379;  152.500; -189.000; -577.000
426.504;  393.575;  660.000;  544.000
426.629; 4169.925; -519.000; -466.000
426.753; 2723.725;   64.000;  -46.000
426.878;  309.550; -252.000; -288.000
427.002;  174.575; -651.000; -668.000
427.127; 1659.125;  -35.000; -158.000
427.251;11815.400;  372.000;  401.000
427.375; 3200.950; -191.000; -173.000
427.500; 2043.350; -616.000; -610.000
427.624;  663.150; -234.000; -400.000
427.749;   75.575; -216.000; -225.000
427.873;  -53.375; -499.000; -412.000
427.997;  -51.050; -222.000; -230.000
428.122;   64.275;  795.000;  703.000
428.246;   64.975;  433.000;  434.000
428.371; -138.550; -869.000; -773.000
428.495; -119.100; -624.000; -646.000
428.619;  -40.825; -186.000; -117.000
428.743;   17.625;   65.000;  132.000
428.868;   -6.450; -732.000; -643.000
428.992; 1219.900; -219.000; -326.000
429.116;  477.200; -329.000; -357.000
429.240;  225.425;  419.000;  426.000
429.365;  -25.250; -454.000; -574.000
429.489;  -60.625; -638.000; -647.000
429.613;   -8.475; -236.000; -177.000
429.737;   11.900; -563.000; -432.000
429.861;  278.200; -247.000; -133.000
429.985; 5796.350; -425.000; -305.000
430.109; 6174.125; -770.000; -908.000
430.234;  678.675;   76.000;  -50.000
430.358;   53.950; -250.000; -160.000
430.482;  -79.925; -672.000; -564.000
430.606;  -72.525; -655.000; -375.000
430.730;   -2.650; -437.000; -388.000
430.854;   63.100; -909.000; -835.000
430.978;  -87.300; -795.000; -764.000
431.102; -106.700; -499.000; -422.000
431.226; -138.875; -874.000; -815.000
431.350;   24.450;  345.000;  422.000
431.474;  -87.875; -661.000; -373.000
431.597; -162.350;-1060.000; -848.000
431.721;  -87.075; -276.000; -267.000
431.845; -138.775; -704.000; -472.000
431.969;  -93.625; -304.000; -349.000
432.093;  -95.950; -395.000; -317.000
432.217;  -16.525;   32.000;   82.000
432.341;  -91.750; -523.000; -518.000
432.464;   13.650;   96.000;   40.000
432.588;  141.125; -401.000; -329.000
432.712;   62.075;  -52.000;  -52.000
432.836;   50.075;  213.000;  263.000
432.959;  -11.175; -372.000; -311.000
433.083;   75.350;   11.000;    2.000
433.207;  381.200;  285.000;  930.000
433.330; 5361.500; -391.000; -200.000
433.454; 6361.450; -654.000; -638.000
433.578; 3715.225;  583.000;  278.000
433.701;  648.675; -623.000; -675.000
433.825;  119.100; -292.000; -299.000
433.949;  106.775;   28.000;  -72.000
434.072;    7.500; -410.000; -323.000
434.196;  -27.175; -309.000; -117.000
434.319; 3775.875;25482.000;25124.000
434.443;  718.975; -656.000; -603.000
434.566; 2730.050;  281.000;   62.000
434.690;  445.475; -637.000; -383.000
434.813;   45.125; -251.000; -173.000
434.937; -100.050; -569.000; -696.000
435.060;  -57.175; -423.000; -332.000
435.184;  212.100; -492.000; -217.000
435.307;  117.250;  159.000;  102.000
435.431;  -36.875;  -40.000;   24.000
435.554;  -74.975; -399.000; -240.000
435.677; -100.350; -350.000; -258.000
435.801;  -37.725;  -25.000;   49.000
435.924;  -24.075;    1.000;  -67.000
436.048; -130.175;-1019.000; -732.000
436.171;  -77.850; -240.000;  -66.000
436.294;  -50.675; -248.000; -229.000
436.417;   86.275; -963.000; -849.000
436.541;  -97.150; -814.000; -840.000
436.664;  -65.400; -242.000; -316.000
436.787;  -37.375;   13.000;  113.000
436.910; -117.475; -792.000; -422.000
437.034;   -3.700;  142.000;  143.000
437.157;   32.075;  -11.000;    0.000
437.280;  -55.675; -392.000; -292.000
437.403; -120.300; -982.000; -869.000
437.526;  465.950; -903.000; -865.000
437.649; 1768.300; -505.000; -332.000
437.772;  240.200; -692.000; -540.000
437.896;  103.775;  700.000;  544.000
438.019; -112.550; -758.000; -503.000
438.142; -107.900; -596.000; -506.000
438.265;  -59.825; -639.000; -670.000
438.388;  429.400; -520.000; -410.000
438.511;   32.650; -597.000; -394.000
438.634;  -68.150; -247.000; -125.000
438.757; -135.175; -693.000; -619.000
438.880;  -36.225;  -34.000;  -57.000
439.003;  -82.500; -417.000; -437.000
439.126;  -79.400; -287.000; -167.000
439.248;  -65.250;  -98.000; -139.000
439.371;  -58.575;    9.000;  -53.000
439.494;   25.750;  510.000;  439.000
439.617;  -64.925;   65.000;  -88.000
439.740; -173.300; -968.000; -816.000
439.863; -158.300; -755.000; -595.000
439.986; -115.450; -476.000; -431.000
440.108;  -51.900; -161.000; -112.000
440.231; -170.125; -950.000; -836.000
440.354;  -60.025;  -64.000; -150.000
440.477;   -1.100; -566.000; -542.000
440.599;  -36.325; -200.000; -225.000
440.722; -125.550; -709.000; -586.000
440.845;   57.900;  751.000;  928.000
440.968; -116.300; -415.000; -311.000
441.090;  -58.950; -199.000;  -33.000
441.213; -178.950;-1021.000; -825.000
441.336;  -73.675; -159.000;   -5.000
441.458;  -86.025; -549.000; -396.000
441.581; -100.225; -628.000; -629.000
441.703;  -82.150; -152.000;   13.000
441.826; -116.475; -557.000; -400.000
441.948;  -58.625;   56.000;   51.000
442.071;   21.225;  555.000;  424.000
442.193; -123.150; -531.000; -485.000
442.316;   11.875;  152.000;   97.000
442.438;   44.875; -233.000;  -10.000
442.561;   58.000;  272.000;  262.000
442.683;  424.975; -809.000; -522.000
442.806;  912.750;   -8.000;   74.000
442.928;  -16.025; -859.000; -604.000
443.051;  -84.225; -577.000; -373.000
443.173; -103.200; -341.000; -339.000
443.295; -103.600; -263.000; -371.000
443.418;  -92.175; -321.000;  -29.000
443.540;  -25.500; -106.000;   -4.000
443.662; -123.825; -563.000; -465.000
443.785;  -19.300;  335.000;  199.000
443.907; -121.100; -362.000; -208.000
444.029; -145.975; -767.000; -494.000
444.152; -143.275; -644.000; -554.000
444.274;  -46.525;  -18.000;  -24.000
444.396; -118.575; -461.000; -221.000
444.518; -145.800; -691.000; -454.000
444.640; -107.500; -268.000; -111.000
444.763;  -16.575;  388.000;  249.000
444.885; -122.625; -432.000; -392.000
445.007;  -52.450;   35.000;   86.000
445.129; -134.100; -610.000; -515.000
445.251; -108.650; -372.000; -439.000
445.373; -149.900; -537.000; -386.000
445.495;   -0.075;  242.000;  350.000
445.617;   45.425;  853.000;  753.000
445.739;  -65.700; -215.000;  -97.000
445.861;  -38.550; -245.000; -112.000
445.984;  -57.525; -267.000; -101.000
446.105;  133.500; -418.000; -251.000
446.227;  481.450; -176.000;  -19.000
446.349;  -24.825; -358.000; -249.000
446.471; -115.075; -615.000; -448.000
446.593;  -58.850; -316.000;   19.000
446.715;  -20.350;  -67.000;   41.000
446.837;   68.925;  697.000;  832.000
446.959;  -93.725; -457.000; -478.000
447.081; -128.000; -628.000; -518.000
447.203;   42.125;  862.000;  834.000
447.325;  -92.275; -270.000;   42.000
447.446;  -27.550;  286.000;  530.000
447.568; -171.725; -921.000; -803.000
447.690;  -84.700; -236.000; -245.000
447.812; -164.775; -798.000; -519.000
447.933;  -47.425;  155.000;  127.000
448.055;  -73.100; -306.000; -261.000
448.177;  117.025;   31.000;   79.000
448.299;   29.375; -935.000; -727.000
448.420;    1.050;  -25.000;  159.000
448.542;  -51.375;   -3.000;   33.000
448.664;  -20.050;  109.000;  322.000
448.785;  -39.650;  265.000;   83.000
448.907;  -89.400; -614.000; -353.000
449.028;  -51.250; -771.000; -471.000
449.150;   43.075;  492.000;  589.000
449.272; -184.600;-1044.000; -913.000
449.393;   12.125;  612.000;  694.000
449.515; -143.750; -634.000; -581.000
449.636;  -82.475; -264.000; -155.000
449.758;   59.100;  763.000;  622.000
449.879; -107.850; -498.000; -396.000
450.001;  -86.400; -149.000;  -49.000
450.122;  -52.300;  -95.000;  162.000
450.244;  -30.050;   37.000;  364.000
450.365;  -98.525; -495.000; -301.000
450.486;  -45.675;   80.000;  268.000
450.608;   26.200;  393.000;  326.000
450.729;   78.850;  578.000;  645.000
450.850;   -7.500; -574.000; -466.000
450.972;  812.950; -552.000; -389.000
451.093; 5180.650;  190.000;  588.000
451.214; 2146.150; -516.000; -337.000
451.336;  379.225;  773.000;  579.000
451.457;   56.000;  264.000;  393.000
451.578;  -53.475; -118.000;  -74.000
451.699; -117.150; -546.000; -540.000
451.821;  -64.325; -284.000;  -50.000
451.942;   -1.300;  278.000;  285.000
452.063;   19.275;  228.000;  419.000
452.184;  590.375;  -54.000;  -49.000
452.305; 1109.125;  103.000;  170.000
452.427;  114.075; -549.000; -301.000
452.548;  -32.450;   23.000;   79.000
452.669;  -60.525; -257.000;  -89.000
452.790;  -63.150;    3.000;  -18.000
452.911;   -7.450;  195.000;  259.000
453.032;  -77.475; -289.000;  -60.000
453.153;  -48.975;  -29.000;   81.000
453.274;   51.050;  737.000;  868.000
453.395;  -52.075;  -51.000;  175.000
453.516;   71.275; 1317.000; 1388.000
453.637;  -86.650; -205.000; -150.000
453.758;  -64.400;   15.000;   69.000
453.879; -131.650; -462.000; -250.000
454.000;   74.425; 1086.000;  948.000
454.121; -128.150; -554.000; -326.000
454.242; -126.325; -599.000; -383.000
454.362;  -49.325;  -99.000;  114.000
454.483;  -54.775; -309.000; -229.000
454.604;   49.875;  512.000;  580.000
454.725; -142.975; -627.000; -555.000
454.846; -137.200; -474.000; -406.000
454.967;  -41.325;  230.000;  539.000
455.087;  -48.000;  179.000;  153.000
455.208;   10.325;  554.000;  856.000
455.329;  -53.800;  -22.000;   82.000
455.450;   19.175;  473.000;  633.000
455.570;  -80.800; -234.000; -211.000
455.691;  -63.500;  201.000;  407.000
455.812; -114.825; -270.000;  -92.000
455.932;  -68.600;  107.000;  -97.000
456.053;  -86.250;   36.000;   24.000
456.173; -132.900; -433.000; -355.000
456.294; -134.750; -476.000; -303.000
456.415;  -76.675;  -73.000;   70.000
456.535;  -42.775;  297.000;  273.000
456.656;  -51.425;  132.000;  240.000
456.776;  -75.600;    3.000;  298.000
456.897;  -19.775;  308.000;  513.000
457.017;  -84.750; -153.000;   -3.000
457.138; -119.575; -402.000; -249.000
457.258;  -40.800;  263.000;  224.000
457.379;  -30.900;  509.000;  521.000
457.499;  -34.675;  443.000;  432.000
457.620; -129.050; -407.000; -231.000
457.740; -104.375; -132.000;  -11.000
457.860;  -66.525;   87.000;   44.000
457.981;  -50.775;  132.000;  124.000
458.101;  -78.775;  -89.000;   40.000
458.221;  -14.225;  336.000;  402.000
458.342;  -63.700;   -4.000;  -37.000
458.462;   12.750;  617.000;  352.000
458.582;  -41.050; -302.000; -294.000
458.703;    0.500;  303.000;  154.000
458.823;  -24.825;   22.000;  163.000
458.943;   19.300;  341.000;  467.000
459.063;  -29.125; 1124.000;  192.000
459.183;  -32.875;  328.000;  313.000
459.304;    2.875;  315.000;  517.000
459.424;  -69.625; -246.000;  -89.000
459.544;  333.950;  388.000;  764.000
459.664;  855.225;  499.000;  506.000
459.784;  305.825; 1004.000; 1175.000
459.904;   50.975;  867.000;  744.000
460.024;   45.200;  867.000;  684.000
460.144;   -4.200;  449.000;  554.000
460.264;   -8.700;  515.000;  327.000
460.385; -107.075; -145.000; -119.000
460.505;   39.650;  905.000;  858.000
460.625;  -88.725;  -17.000;  -68.000
460.745;  -30.200;  396.000;  541.000
460.864;  -58.350;  153.000;  469.000
460.984;  -16.225;  499.000;  573.000
461.104;  127.825; 1656.000; 1775.000
461.224;   12.375;  657.000;  650.000
461.344;  -23.300;  431.000;  360.000
461.464;  -48.275;  258.000;  513.000
461.584;  -19.750;  283.000;  466.000
461.704;  -64.075;   58.000;  108.000
461.824;  -75.000;  238.000;  259.000
461.943;  -53.025;  191.000;  130.000
462.063;  -70.450;    2.000;  324.000
462.183;   24.625;  639.000;  717.000
462.303;   85.650; 1678.000; 1230.000
462.422;   18.250;  781.000;  840.000
462.542;  -50.625;  271.000;  391.000
462.662;   23.075;  353.000;  380.000
462.782;  272.625;  833.000;  572.000
462.901;  494.475;  545.000;  717.000
463.021;  262.975; 1702.000; 1638.000
463.141;  -13.000;  337.000;  770.000
463.260;  -27.375;  614.000;  474.000
463.380;   12.675;  902.000;  884.000
463.499;  -41.850;  342.000;  332.000
463.619;  -28.850;  581.000;  559.000
463.738;  113.775; 1644.000;  903.000
463.858;    9.175;  657.000;  811.000
463.978;  -27.875;  542.000;  396.000
464.097;   36.250;  921.000; 1114.000
464.217;  114.025; 1196.000; 1143.000
464.336;  117.525; 1068.000; 1130.000
464.455;  -39.725;  328.000;  659.000
464.575;   23.025;  597.000;  602.000
464.694;  173.125; 1204.000; 1179.000
464.814;  124.075; 1190.000; 1138.000
464.933;   74.075; 1095.000; 1027.000
465.052;   92.350; 1412.000; 1054.000
465.172;   73.800;  922.000;  799.000
465.291;  118.725; 1376.000; 1320.000
465.410;   -0.275;  462.000;  735.000
465.530;   79.450; 1355.000; 1310.000
465.649;   50.000; 1209.000; 1273.000
465.768;  136.325; 1673.000; 1508.000
465.888;   43.900;  941.000; 1174.000
466.007;   88.450; 1335.000; 1440.000
466.126;   -7.000;  721.000;  641.000
466.245;   41.675; 1176.000; 1187.000
466.364;   15.100;  950.000; 1060.000
466.484;   60.225; 1024.000; 1213.000
466.603;   25.275; 1101.000; 1222.000
466.722;  104.175; 1490.000; 1769.000
466.841;   75.450; 1151.000; 1401.000
466.960;   26.100; 1069.000;  972.000
467.079;  125.425; 1971.000; 1786.000
467.198;   45.400; 1238.000; 1181.000
467.317;   85.200; 1768.000; 1162.000
467.436;   72.750; 1709.000; 1261.000
467.555;  116.800; 1796.000; 1746.000
467.674;   71.625; 1227.000; 1329.000
467.793;   52.725; 1376.000; 1374.000
467.912;   86.000; 1658.000; 1539.000
468.031;  145.025; 2038.000; 1930.000
468.150;  142.000; 1842.000; 1837.000
468.269;  197.375; 2313.000; 2090.000
468.388;  171.050; 2168.000; 2339.000
468.507;  250.050; 2884.000; 2903.000
468.626;  242.250; 2555.000; 2541.000
468.744;  137.075; 2018.000; 2174.000
468.863;  197.275; 2312.000; 2523.000
468.982;   99.550; 1503.000; 1555.000
469.101;  211.025; 2788.000; 2692.000
469.220;  143.400; 2333.000; 2176.000
469.338;  251.775; 2935.000; 3051.000
469.457;  204.375; 2719.000; 2545.000
469.576;  341.475; 3953.000; 3784.000
469.695;  262.000; 2877.000; 3066.000
469.813;  403.100; 4148.000; 4192.000
469.932;  412.800; 4255.000; 4485.000
470.051;  416.225; 4075.000; 4161.000
470.169;  883.300; 4470.000; 4338.000
470.288; 1524.325; 4700.000; 4809.000
470.406;  873.325; 5059.000; 5194.000
470.525;  616.850; 6101.000; 5787.000
470.644;  663.100; 6847.000; 6794.000
470.762;  818.575; 8397.000; 7873.000
470.881;  898.475; 8651.000; 8464.000
470.999; 1050.425; 9685.000; 9151.000
471.118; 1119.600;11174.000;10711.000

