
Integration time [ms]: 100.000
Averaging Nr. [scans]: 40
Smoothing Nr. [pixels]: 0
Data measured with spectrometer [name]: 2101012U2
Wave   ;Sample   ;Dark     ;Reference
[nm]   ;[counts] ;[counts] ;[counts] 

197.733;   62.475;  516.000;  404.000
197.879;  -79.725; -610.000; -634.000
198.025;  -44.925; -475.000; -420.000
198.171;  -82.350; -602.000; -612.000
198.317;  -35.725; -401.000; -316.000
198.463;  -73.600; -655.000; -404.000
198.609;   32.875;  181.000; -137.000
198.755;  -76.925; -644.000; -410.000
198.901;  -67.050; -505.000; -424.000
199.047;  -67.400; -615.000; -488.000
199.193;  -40.450; -230.000; -468.000
199.339;  -48.625; -222.000; -369.000
199.485;   27.375;  330.000;  271.000
199.631;   15.100;  227.000;  310.000
199.777;  -57.875; -466.000; -398.000
199.923;  -62.850; -610.000; -424.000
200.069;   -1.000; -141.000;  -58.000
200.215;   59.700;  128.000;  453.000
200.361;   45.700;  243.000;  477.000
200.507;  -59.200; -600.000; -373.000
200.653;  -33.075; -371.000; -194.000
200.798;  -30.750; -215.000; -125.000
200.944;  -11.200; -146.000;  -41.000
201.090;   51.050;   61.000;  222.000
201.236;   -2.650; -116.000; -158.000
201.382;  143.675;  874.000;  903.000
201.528;   -0.225;  -58.000;  -48.000
201.674;  -40.825; -386.000; -293.000
201.819;  -83.850; -540.000; -439.000
201.965;  -85.550; -699.000; -447.000
202.111;  -20.575; -273.000; -226.000
202.257;  -45.775; -250.000; -238.000
202.402;    5.150;   13.000;  -36.000
202.548;  -23.525; -169.000; -116.000
202.694;   83.800;  410.000; -183.000
202.840;  -85.750; -603.000; -531.000
202.985;  -69.825; -681.000; -639.000
203.131; -101.775; -832.000; -666.000
203.277;  -31.075; -199.000; -262.000
203.423;  -51.025; -434.000; -520.000
203.568;  -41.275; -462.000; -237.000
203.714;  -69.500; -535.000; -542.000
203.860;  -84.850; -682.000; -641.000
204.005;   16.800;  112.000;  167.000
204.151;   76.775;  561.000;  556.000
204.296;  -43.625; -354.000; -221.000
204.442;  -74.775; -600.000; -547.000
204.588;  -88.975; -592.000; -579.000
204.733;   13.750;  178.000;  168.000
204.879; -131.925;-1018.000; -822.000
205.025;   14.650;  -99.000;  126.000
205.170;   -1.925;  -17.000;   94.000
205.316;   79.375;  438.000;  661.000
205.461;  -90.825; -698.000; -554.000
205.607;   86.875;  609.000;  665.000
205.752;  -86.950; -626.000; -551.000
205.898;  -47.800; -501.000; -391.000
206.043;  -65.850; -578.000; -506.000
206.189;  -32.325; -243.000; -285.000
206.334;   69.375;  554.000;  606.000
206.480;   63.950;  409.000;  239.000
206.625;  -87.350; -529.000; -552.000
206.771;  -46.775; -451.000; -373.000
206.916;  -28.625; -210.000; -537.000
207.062;  -85.300; -545.000; -591.000
207.207;  -73.625; -546.000; -443.000
207.353;   56.400;  185.000;  460.000
207.498;   13.375;  196.000;   85.000
207.643;  -45.350; -501.000; -370.000
207.789; -133.550;-1069.000; -910.000
207.934;  -80.700; -665.000; -713.000
208.080;  -24.050; -154.000;   66.000
208.225;   -9.900;  -22.000;  -57.000
208.370;  -91.025; -727.000; -619.000
208.516;  -73.275; -741.000; -487.000
208.661;  -37.175; -127.000;  -69.000
208.806;  -28.025; -165.000; -171.000
208.952; -119.575;-1044.000; -731.000
209.097;   70.000;  378.000;  349.000
209.242;  -53.775; -307.000; -382.000
209.387;   54.550;  392.000;  350.000
209.533;  -48.625; -321.000; -350.000
209.678;   78.075;  472.000;  543.000
209.823;  -79.025; -408.000; -310.000
209.969;  -99.275; -860.000; -757.000
210.114;  -94.675; -907.000; -719.000
210.259; -113.025; -939.000; -889.000
210.404;   -0.200; -171.000;  103.000
210.549;   11.100;  108.000;    3.000
210.695;  -18.975;   -3.000;  -95.000
210.840;   32.950;   94.000;   67.000
210.985;  -69.950; -484.000; -303.000
211.130;   58.750;  268.000;  406.000
211.275;    0.400;  207.000;  199.000
211.420;  -44.125; -300.000; -289.000
211.566;  -74.625; -536.000; -489.000
211.711;   29.950;  218.000;  157.000
211.856;  -76.875; -545.000; -519.000
212.001;   11.575;  151.000;   44.000
212.146;   21.450;  153.000;   49.000
212.291;  -28.900; -210.000; -186.000
212.436;  -44.650; -280.000;   -6.000
212.581;  -87.350; -685.000; -653.000
212.726;  -71.175; -487.000; -538.000
212.871;  -34.575; -552.000; -217.000
213.016; -162.725;-1172.000;-1029.000
213.161;   72.075;  406.000;  291.000
213.306;  -70.800; -435.000; -577.000
213.451; -105.275; -778.000; -689.000
213.596;  -50.325; -455.000; -347.000
213.741;  -45.650; -448.000; -538.000
213.886;  -91.600; -498.000; -517.000
214.031;  -29.125; -294.000; -124.000
214.176;  -61.050; -408.000; -341.000
214.321;  -27.650; -296.000; -157.000
214.466;  -37.350; -163.000;  -43.000
214.611;    8.150;  -61.000;  -10.000
214.756; -117.775; -948.000; -858.000
214.901;  -20.625; -388.000; -226.000
215.046; -120.000; -797.000; -825.000
215.191;   14.525;  128.000;   35.000
215.336;  -11.500; -157.000;  -19.000
215.480;  -58.300; -684.000; -505.000
215.625;  -20.925; -175.000;  -19.000
215.770;  -77.075; -757.000; -662.000
215.915;  -14.625;   -5.000;  -97.000
216.060;  -12.150; -113.000;  -21.000
216.205; -110.525; -731.000; -779.000
216.349;  -70.075; -470.000; -533.000
216.494; -144.175; -939.000; -867.000
216.639; -124.175; -823.000; -888.000
216.784;  -81.050; -577.000; -525.000
216.929;   40.325;  392.000;  281.000
217.073;  -11.125; -244.000;  -31.000
217.218;   -1.125;   78.000;  -47.000
217.363;  -91.100; -656.000; -618.000
217.507;  -82.525; -623.000; -588.000
217.652; -133.675; -845.000; -874.000
217.797;  -98.525; -708.000; -659.000
217.942; -109.325; -856.000; -720.000
218.086;   79.200;  608.000;  539.000
218.231;  -17.450; -174.000;  -26.000
218.376;  -45.175; -337.000; -229.000
218.520;   -2.325;  -41.000;   96.000
218.665;  -38.975; -338.000; -204.000
218.810;  -41.750; -275.000; -233.000
218.954;   17.350;  201.000;   35.000
219.099; -106.625; -713.000; -963.000
219.243;  -75.200; -589.000; -554.000
219.388;  -28.350; -264.000; -136.000
219.532;  -11.925; -116.000; -116.000
219.677;  -72.325; -564.000; -521.000
219.822;   -7.975;   33.000;   89.000
219.966;    2.975;   17.000;  -99.000
220.111;  -30.425; -328.000;  -40.000
220.255;  -92.600; -797.000; -750.000
220.400;  -17.300; -180.000; -146.000
220.544;  -68.925; -516.000; -450.000
220.689;  -45.475; -422.000; -451.000
220.833;  -34.300; -123.000;  -58.000
220.978;  -47.650; -393.000; -563.000
221.122;   37.250;  319.000;  307.000
221.267; -114.150; -906.000; -837.000
221.411;  -61.675; -478.000; -394.000
221.555;   -0.175; -104.000;  -23.000
221.700;  -57.325; -329.000; -222.000
221.844;   30.600;  255.000;  272.000
221.989;  -57.125; -328.000; -311.000
222.133;  -30.500; -289.000; -307.000
222.277;   -6.900;    5.000;   78.000
222.422;   29.025;  227.000;  113.000
222.566;  -49.400; -381.000; -214.000
222.711;  -65.175; -414.000; -479.000
222.855;  -93.275; -643.000; -586.000
222.999;  -76.350; -642.000; -717.000
223.144;  -19.950; -195.000; -194.000
223.288;   51.425;  423.000;  251.000
223.432;   29.475;  184.000;  230.000
223.576;    5.250;  152.000;  -21.000
223.721;   35.400;  364.000;  273.000
223.865;  -68.650; -472.000; -475.000
224.009;  214.500; 1673.000; 1631.000
224.153;  -79.100; -660.000; -671.000
224.298;  -76.325; -531.000; -489.000
224.442;  -29.575;  -74.000;  -33.000
224.586;  -11.125; -169.000; -106.000
224.730; -107.100; -858.000; -670.000
224.875; -107.675; -739.000; -688.000
225.019;   10.450;  102.000;  188.000
225.163;   59.700;  208.000;  341.000
225.307;   26.700;   97.000;  -91.000
225.451;   34.900;  360.000;  481.000
225.595;   34.825;  264.000;  176.000
225.739;  -16.100; -170.000;  -94.000
225.884;  -10.450;   86.000;    5.000
226.028;  -90.850; -760.000; -626.000
226.172;  -35.425; -260.000; -273.000
226.316; -137.625; -941.000; -902.000
226.460;  -67.475; -645.000; -493.000
226.604;  -55.925; -406.000; -400.000
226.748; -107.275; -836.000; -733.000
226.892;  -33.175; -227.000; -181.000
227.036;  -48.100; -537.000; -447.000
227.180;  -67.550; -551.000; -375.000
227.324;  -63.025; -561.000; -580.000
227.468; -115.025; -819.000; -717.000
227.612;    6.700;  242.000;  -28.000
227.756; -110.125; -845.000; -698.000
227.900;   46.200;  342.000;  441.000
228.044;  -71.400; -509.000; -290.000
228.188;   55.950;  448.000;  568.000
228.332;  -82.800; -546.000; -472.000
228.476;  -34.750; -223.000; -149.000
228.620;  -34.500; -210.000; -150.000
228.764;   52.800;  431.000;  349.000
228.908;  -28.350; -155.000;   30.000
229.052;  -81.175; -615.000; -528.000
229.195;  -16.525; -172.000;   13.000
229.339;  -34.200; -235.000; -305.000
229.483;  -23.425;    5.000; -162.000
229.627;   -8.150; -156.000;  139.000
229.771;  -41.900; -218.000; -294.000
229.915;   19.375;  230.000;   79.000
230.059; -106.050; -648.000; -663.000
230.202;  -38.300; -370.000; -317.000
230.346;  -29.275; -107.000;  107.000
230.490;  -61.925; -489.000; -521.000
230.634; -113.975; -736.000; -553.000
230.777;   81.125;  478.000;  509.000
230.921;  -56.950; -450.000; -359.000
231.065;  -41.300; -246.000; -286.000
231.209;   20.400;  261.000;  265.000
231.352;   34.900;   54.000;   40.000
231.496;   23.200;  568.000;  188.000
231.640;  -93.625; -693.000; -621.000
231.783;   66.350;  546.000;  525.000
231.927;  -44.025; -294.000; -365.000
232.071; -120.950; -962.000; -736.000
232.214; -114.300; -980.000; -764.000
232.358; -111.675; -683.000; -599.000
232.502;    0.175;  -19.000;    7.000
232.645; -141.700;-1090.000; -927.000
232.789;  -31.000; -257.000; -218.000
232.933;  -49.750; -407.000; -224.000
233.076; -130.675;-1038.000; -897.000
233.220; -107.250; -752.000; -777.000
233.363;  -83.775; -669.000; -477.000
233.507;   58.950;  371.000;  129.000
233.650;  -97.100; -764.000; -834.000
233.794;   45.775;  438.000;  461.000
233.938;  -65.375; -530.000; -362.000
234.081;  -19.375;  -93.000;   31.000
234.225;  -71.950; -631.000; -539.000
234.368; -119.525; -773.000; -723.000
234.512;  -43.625; -385.000; -299.000
234.655;  -93.150; -582.000; -555.000
234.798;  -81.600; -493.000; -466.000
234.942; -133.900; -884.000;-1002.000
235.085;  -71.500; -651.000; -443.000
235.229;  -78.975; -405.000; -410.000
235.372;  -46.475; -247.000; -191.000
235.516;  -75.250; -397.000; -321.000
235.659;    3.200;   92.000;  121.000
235.802;  -11.450;  -38.000;  -22.000
235.946;   17.800;  335.000;  215.000
236.089;   18.475;  126.000;  250.000
236.233;   54.350;  275.000;  298.000
236.376;  -49.050; -235.000; -378.000
236.519;  -37.200; -297.000; -319.000
236.663;  -28.225; -215.000; -117.000
236.806; -136.625;-1029.000; -999.000
236.949;   25.850;  543.000;  431.000
237.092;   65.350;  412.000;  391.000
237.236;  -99.675; -589.000; -502.000
237.379;   70.100;  352.000;  428.000
237.522; -111.250; -879.000; -768.000
237.666;  -19.925; -271.000;   18.000
237.809; -135.000; -851.000; -823.000
237.952;   57.350;  469.000;  271.000
238.095;  -58.375; -447.000; -442.000
238.238;   89.325;  688.000;  700.000
238.382;   -3.025;  166.000;  103.000
238.525;  -72.150; -598.000; -511.000
238.668; -146.000;-1060.000; -985.000
238.811;  -89.350; -638.000; -643.000
238.954;  -54.325; -483.000; -334.000
239.097;  100.825;  617.000;  664.000
239.241;   32.975;  394.000;  326.000
239.384;  -19.925; -254.000; -214.000
239.527;  -47.800; -424.000; -224.000
239.670; -153.850; -994.000;-1091.000
239.813; -107.025; -696.000; -658.000
239.956;   80.700;  579.000;  473.000
240.099; -119.600; -778.000; -725.000
240.242;   59.500;  428.000;  432.000
240.385;   45.450;  466.000;  450.000
240.528;  -69.675; -706.000; -473.000
240.671;   10.850;  189.000;  134.000
240.814;  -42.075; -441.000; -158.000
240.957; -111.050; -767.000; -578.000
241.100;  -87.225; -779.000; -755.000
241.243; -151.050;-1234.000; -893.000
241.386;  -59.350; -508.000; -379.000
241.529; -105.125; -735.000; -547.000
241.672;  -76.700; -566.000; -495.000
241.815; -120.825; -832.000; -808.000
241.958;  -34.000; -125.000; -182.000
242.101;  -76.525; -545.000; -390.000
242.244;  -35.100; -270.000; -325.000
242.387;  -44.025; -304.000; -246.000
242.530;   53.875;  470.000;  134.000
242.673;  -49.375; -381.000; -309.000
242.815; -122.550; -925.000; -899.000
242.958;  -76.850; -482.000; -381.000
243.101;    4.575;  132.000;  187.000
243.244;  -90.450; -564.000; -521.000
243.387;  -51.450; -313.000; -316.000
243.530; -100.000; -657.000; -674.000
243.672;    9.600;   43.000;  -92.000
243.815;  -66.150; -355.000; -283.000
243.958;   -1.050;   98.000;  -26.000
244.101;   -6.875;   59.000;  -16.000
244.243;   -4.700;  -47.000;  101.000
244.386; -110.275; -761.000; -630.000
244.529;  -27.125; -132.000; -139.000
244.672; -165.000;-1154.000; -951.000
244.814; -100.725; -621.000; -794.000
244.957;  -41.275; -380.000; -304.000
245.100;  -78.150; -489.000; -489.000
245.242;  -59.025; -387.000; -374.000
245.385;  -10.350;  -59.000;  -39.000
245.528; -124.525; -871.000; -705.000
245.670;   93.125;  612.000;  634.000
245.813;  -94.725; -599.000; -547.000
245.956;  -49.000; -324.000; -275.000
246.098;  -76.075; -508.000; -650.000
246.241;    9.025;  194.000;   48.000
246.383;  -20.550; -119.000;  -73.000
246.526;  -75.625; -454.000; -525.000
246.669; -124.175; -889.000; -780.000
246.811;   15.575;  172.000;   -1.000
246.954;  -73.900; -512.000; -426.000
247.096;  -32.625;  -84.000;   -6.000
247.239;  -70.625; -482.000; -445.000
247.381;  -67.275; -647.000; -488.000
247.524;   78.975;  645.000;  679.000
247.666;    5.375;   58.000;   11.000
247.809; -120.250; -887.000; -691.000
247.951;   -9.925;  -75.000;  138.000
248.094;   12.700;  432.000;  308.000
248.236; -168.625;-1262.000;-1238.000
248.378;    6.550; -356.000;  -81.000
248.521;  -27.250; -334.000; -337.000
248.663;  -46.975; -236.000; -267.000
248.806;  -17.075; -300.000; -266.000
248.948; -109.375; -886.000; -763.000
249.090;  -44.150; -428.000; -398.000
249.233;  -52.300; -344.000; -381.000
249.375;  -69.725; -474.000; -451.000
249.518;  -39.200;  -83.000; -133.000
249.660;    1.075; -103.000;    3.000
249.802; -175.100;-1303.000;-1189.000
249.945;  -78.800; -612.000; -540.000
250.087; -116.475; -834.000; -768.000
250.229;  -52.525; -362.000; -480.000
250.371;  -85.450; -494.000; -439.000
250.514;  -68.150; -310.000; -244.000
250.656;  -14.200;   69.000;  102.000
250.798; -129.825; -849.000; -800.000
250.940;  -62.675; -322.000; -322.000
251.083;  -26.175; -335.000; -111.000
251.225;   53.375;  338.000;  310.000
251.367;  -45.850; -274.000; -373.000
251.509;  -34.625; -265.000; -210.000
251.651; -104.875; -731.000; -671.000
251.794;   48.200;  538.000;  632.000
251.936; -110.200; -821.000; -747.000
252.078;  -83.175; -540.000; -461.000
252.220;  -68.150; -645.000; -477.000
252.362;   87.475;  344.000;  462.000
252.504;  -91.975; -677.000; -584.000
252.646; -124.850; -875.000; -722.000
252.788;  -10.250;   14.000; -128.000
252.931;  -57.525; -257.000; -253.000
253.073;  -62.075; -376.000; -317.000
253.215;  -12.050;  141.000;  122.000
253.357;  -12.200;   82.000; -153.000
253.499;  -50.100; -374.000; -234.000
253.641;  -93.000; -749.000; -594.000
253.783; -100.725; -609.000; -527.000
253.925;  -91.150; -586.000; -591.000
254.067; -121.975; -744.000; -667.000
254.209;  -31.400; -391.000; -259.000
254.351; -134.500; -865.000; -883.000
254.493;  -67.650; -441.000; -417.000
254.635; -127.200; -936.000; -818.000
254.777;  -98.625; -752.000; -687.000
254.918;  -72.850; -512.000; -430.000
255.060;  -64.850; -551.000; -395.000
255.202;  -57.750; -473.000; -261.000
255.344;  -77.575; -658.000; -455.000
255.486;  -83.025; -471.000; -406.000
255.628; -116.025; -780.000; -781.000
255.770;  -93.900; -676.000; -536.000
255.912;  -73.450; -559.000; -468.000
256.053;  -83.050; -730.000; -508.000
256.195;  154.150; 1008.000;  903.000
256.337; -106.450; -861.000; -595.000
256.479;   61.000;  532.000;  416.000
256.621;  -37.775; -394.000; -212.000
256.762; -102.625; -789.000; -742.000
256.904;   54.475;  485.000;  487.000
257.046;  -57.025; -381.000; -271.000
257.188;  -49.075; -351.000; -264.000
257.329;  -74.150; -525.000; -464.000
257.471; -120.650; -939.000; -807.000
257.613;  -59.050; -584.000; -498.000
257.755; -147.750;-1073.000; -982.000
257.896;   43.250;  286.000;  392.000
258.038;  -73.000; -403.000; -352.000
258.180;  -36.175; -354.000; -279.000
258.321;  -91.875; -581.000; -457.000
258.463;   -2.800;  -71.000;  133.000
258.605;  -95.825; -562.000; -570.000
258.746; -108.350; -886.000; -772.000
258.888; -163.825;-1026.000;-1020.000
259.029;   21.500;  121.000;   -8.000
259.171;  -97.725; -614.000; -550.000
259.313;   -5.275;  -49.000;  -47.000
259.454;  -79.000; -536.000; -414.000
259.596;  -53.125; -483.000; -390.000
259.737;  -84.575; -590.000; -474.000
259.879;   32.900;  217.000;  311.000
260.020;   95.525;  901.000;  636.000
260.162;  -34.175; -146.000; -253.000
260.303; -130.450; -768.000; -687.000
260.445;  -92.450; -609.000; -613.000
260.586;   25.925;  392.000;  157.000
260.728;  -44.700; -360.000; -248.000
260.869; -126.350; -350.000; -343.000
261.011;   81.625;  706.000;  537.000
261.152;  -63.200; -479.000; -319.000
261.293;  -86.550; -576.000; -595.000
261.435;  -32.475; -219.000; -184.000
261.576;  -43.275; -455.000; -325.000
261.718;   48.900;  420.000;  470.000
261.859; -112.950; -940.000; -949.000
262.000; -142.175; -951.000;-1016.000
262.142;  -27.850;  -52.000;  -60.000
262.283; -121.525; -808.000; -691.000
262.424;  -91.225; -666.000; -625.000
262.566; -160.250;-1161.000; -983.000
262.707; -113.025; -840.000; -830.000
262.848; -121.050; -769.000; -726.000
262.990;  -48.425; -362.000; -345.000
263.131;   85.000;  650.000;  681.000
263.272;   -7.875;  -61.000;  -41.000
263.413;  -89.700; -589.000; -561.000
263.555;  -61.800; -669.000; -143.000
263.696;  -82.950; -550.000; -641.000
263.837;  -65.125; -449.000; -551.000
263.978;   -1.900;   -5.000;  -77.000
264.119;  -46.625; -283.000; -264.000
264.261; -118.500; -847.000; -630.000
264.402;   -7.675;   33.000;   40.000
264.543;  -83.800; -509.000; -524.000
264.684;  -11.150;   61.000;  -50.000
264.825;  -85.600; -816.000; -538.000
264.966;    3.100;  -84.000;  -67.000
265.107; -115.300; -646.000; -670.000
265.248; -118.525; -825.000; -812.000
265.390;  -10.275;  152.000;   -9.000
265.531;  -22.625; -238.000; -107.000
265.672;  -98.350; -557.000; -630.000
265.813;   79.375;  563.000;  439.000
265.954; -158.625; -959.000; -940.000
266.095;  -28.700; -372.000; -322.000
266.236; -110.625; -686.000; -548.000
266.377;  -45.000; -243.000; -297.000
266.518;  -80.375; -619.000; -547.000
266.659;   37.525;  170.000;  268.000
266.800;   -3.675;   83.000;   85.000
266.941;  -89.600; -487.000; -478.000
267.082;   30.400;  354.000;   99.000
267.223;  -62.950; -344.000; -273.000
267.364; -120.675; -892.000; -686.000
267.504;  -18.900;    3.000;  135.000
267.645;   -5.275;  160.000;   67.000
267.786;  -45.025; -147.000;  -86.000
267.927;  -78.525; -473.000; -379.000
268.068;  -27.125; -186.000;  -61.000
268.209;  -53.850; -175.000; -413.000
268.350;  -68.050; -388.000; -532.000
268.490;  -98.275; -648.000; -521.000
268.631;   37.150;  127.000;  225.000
268.772; -119.025; -874.000; -647.000
268.913;  -43.525; -328.000; -476.000
269.054;  -21.400; -117.000;   12.000
269.194;  -53.625; -418.000; -402.000
269.335; -156.600;-1137.000;-1074.000
269.476;  -29.200;   33.000;  -35.000
269.617;  -59.875; -347.000; -392.000
269.757;  -92.275; -713.000; -646.000
269.898; -110.025; -856.000; -613.000
270.039;  -71.650; -415.000; -405.000
270.180; -139.475; -952.000; -816.000
270.320;  -29.000; -190.000; -250.000
270.461;  -40.425; -277.000; -249.000
270.602;  -23.575; -186.000; -156.000
270.742; -133.175; -868.000; -943.000
270.883;  -60.025; -442.000; -390.000
271.023;  -71.425; -358.000; -357.000
271.164;  -63.925; -607.000; -528.000
271.305; -102.075; -666.000; -654.000
271.445;  -92.950; -722.000; -683.000
271.586;  -80.400; -462.000; -283.000
271.726;  -54.875; -397.000; -322.000
271.867;  -81.675; -594.000; -534.000
272.008;  162.275; -473.000; -285.000
272.148;  120.100;  462.000;  468.000
272.289;    9.325; -113.000; -181.000
272.429;    7.925;   19.000;  185.000
272.570; -109.025; -633.000; -737.000
272.710; -107.700; -825.000; -775.000
272.851;  -26.850;  113.000; -130.000
272.991; -166.025;-1173.000;-1077.000
273.131;  -78.200; -419.000; -459.000
273.272; -102.650; -683.000; -723.000
273.412;   -3.400; -143.000;  -31.000
273.553;  -62.925; -488.000; -507.000
273.693;  133.775;  913.000;  858.000
273.834; -105.275; -894.000; -692.000
273.974;  -83.775; -664.000; -615.000
274.114; -102.750; -772.000; -560.000
274.255;   69.875;  414.000;  373.000
274.395;   -0.350; -180.000; -125.000
274.535;   38.600;  199.000;  350.000
274.676;   10.175;  225.000;   94.000
274.816;   -2.475;  110.000;   34.000
274.956; -105.825; -624.000; -690.000
275.097;  -69.800;-1014.000; -922.000
275.237; -128.475; -913.000; -803.000
275.377; -114.475; -778.000; -689.000
275.517; -158.550; -878.000; -937.000
275.658;  -68.200; -590.000; -555.000
275.798;  -83.625; -606.000; -413.000
275.938;   20.700;  215.000;  323.000
276.078; -101.850; -626.000; -395.000
276.218;    0.075;   99.000;  104.000
276.359; -133.250;-1026.000;-1024.000
276.499;  -88.950; -605.000; -446.000
276.639;  -41.575; -305.000; -151.000
276.779;  -64.200; -475.000; -357.000
276.919; -120.725; -783.000; -624.000
277.059;  -35.925; -261.000; -212.000
277.199;  -55.675; -357.000; -259.000
277.340;   35.325;  287.000;  175.000
277.480; -114.375; -840.000; -693.000
277.620;   31.025;  192.000;   16.000
277.760; -198.950;-1533.000;-1294.000
277.900;    0.950;  113.000;   33.000
278.040;   15.475;  137.000;  159.000
278.180;   38.600;  270.000;  170.000
278.320;    3.000;   21.000;   56.000
278.460;  -77.025; -443.000; -469.000
278.600; -105.200; -708.000; -598.000
278.740;   41.500;  448.000;  224.000
278.880;  -83.700; -768.000; -791.000
279.020;  -20.125; -194.000; -144.000
279.160;  -96.100; -672.000; -595.000
279.300; -115.775; -926.000; -873.000
279.440;  -95.950; -709.000; -622.000
279.579;  -43.725;-1014.000; -929.000
279.719;  -56.550; -410.000; -394.000
279.859;   63.025;   -4.000;   41.000
279.999;   15.825; -208.000;  101.000
280.139;  -16.775; -435.000; -387.000
280.279;  -78.375; -708.000; -745.000
280.419;  -20.525; -229.000; -147.000
280.559;  -36.250; -259.000; -180.000
280.698;  -89.025; -790.000; -639.000
280.838; -102.625; -778.000; -800.000
280.978;  -98.050; -846.000; -790.000
281.118; -116.200; -811.000; -704.000
281.257;    2.075;   24.000;    6.000
281.397; -139.150;-1094.000; -960.000
281.537;  -92.825; -599.000; -712.000
281.677;  -30.400; -150.000; -101.000
281.816; -103.375; -700.000; -630.000
281.956;  -49.175; -193.000; -257.000
282.096;  -79.100; -539.000; -396.000
282.235; -122.450; -672.000; -638.000
282.375;  -29.750; -243.000;  -98.000
282.515; -102.475; -715.000; -707.000
282.654;   22.600;   29.000;  106.000
282.794;    9.625;  388.000;  244.000
282.934;  -63.550; -530.000; -491.000
283.073; -143.250;-1030.000; -857.000
283.213;  -62.450; -460.000; -467.000
283.353;  -49.200; -408.000; -349.000
283.492;  -44.425; -264.000; -296.000
283.632;  -52.075; -254.000; -168.000
283.771; -105.625; -859.000; -730.000
283.911;  -64.250; -369.000; -260.000
284.050;  -99.275; -794.000; -748.000
284.190; -166.525;-1229.000;-1096.000
284.329; -136.625;-1055.000; -964.000
284.469;  -77.850; -516.000; -591.000
284.608;  -62.200; -559.000; -598.000
284.748;  -94.825; -614.000; -570.000
284.887;  -12.450;  -87.000;  -20.000
285.027; -132.100; -844.000; -892.000
285.166;  -34.275; -192.000; -249.000
285.306;   -8.075; -116.000;  -33.000
285.445;  -48.250; -229.000; -343.000
285.584; -104.125; -630.000; -494.000
285.724;  -60.775; -282.000; -322.000
285.863; -121.025; -857.000; -507.000
286.002;  -62.200; -366.000; -276.000
286.142; -113.200; -715.000; -622.000
286.281;  -85.750; -525.000; -493.000
286.420;  -82.000; -554.000; -417.000
286.560;   88.350;  653.000;  623.000
286.699; -151.475; -958.000; -912.000
286.838;  -85.450; -590.000; -591.000
286.978;  -93.725; -533.000; -537.000
287.117; -141.975;-1085.000; -950.000
287.256;  -41.300; -228.000; -211.000
287.395;  -50.850; -197.000; -378.000
287.535;  -57.725; -370.000; -298.000
287.674;  -83.850; -509.000; -484.000
287.813;   46.900;  661.000;  533.000
287.952; -134.025;-1010.000; -871.000
288.091; -164.000;-1049.000; -915.000
288.231;    8.475;   13.000;   15.000
288.370; -182.325;-1217.000;-1200.000
288.509;  -94.275; -728.000; -645.000
288.648;  -92.950; -770.000; -548.000
288.787;  -31.925; -243.000;  -87.000
288.926;  -66.275; -454.000; -475.000
289.065;  112.550;  859.000;  672.000
289.204;  -69.125; -377.000; -217.000
289.344; -101.650; -791.000; -690.000
289.483;    5.350;  416.000;  304.000
289.622;  -32.125; -291.000; -149.000
289.761;  -17.925; -309.000; -166.000
289.900; -129.175; -785.000; -626.000
290.039;   -0.675;  -12.000;  -95.000
290.178;  -47.725; -274.000; -180.000
290.317;  -86.250; -618.000; -479.000
290.456;  -74.800; -463.000; -451.000
290.595; -149.650; -961.000; -833.000
290.734; -144.575; -904.000; -891.000
290.873;  -82.150; -456.000; -420.000
291.011; -119.425; -833.000; -843.000
291.150; -105.900; -770.000; -682.000
291.289;  -34.850; -343.000; -110.000
291.428;  -96.400; -599.000; -480.000
291.567;  -62.000; -370.000; -442.000
291.706;   -8.275;  109.000;  154.000
291.845;  -96.525; -597.000; -505.000
291.984; -171.300;-1234.000;-1061.000
292.122;   50.075;  602.000;  582.000
292.261;   37.350;  620.000;  463.000
292.400;  -11.400; -144.000;  211.000
292.539; -135.100; -959.000; -813.000
292.678;  -41.125; -325.000; -300.000
292.816; -154.225;-1136.000; -965.000
292.955; -100.050; -844.000; -684.000
293.094;  -36.250; -173.000; -337.000
293.233;  -72.225; -556.000; -400.000
293.371;  -43.275; -225.000;  -84.000
293.510; -121.300; -866.000; -780.000
293.649; -136.925; -959.000; -924.000
293.787;  -94.300;-1083.000;-1012.000
293.926;  -11.500; -113.000;  -32.000
294.065;  -46.200; -379.000; -290.000
294.203;   41.975;  298.000;  406.000
294.342;   19.625;   74.000;  156.000
294.481; 7059.675;51180.000; -836.000
294.619;  -28.125; -425.000; -582.000
294.758; -157.375;-1230.000;-1137.000
294.896;   53.350; -125.000;    5.000
295.035; -141.150;-1040.000;-1006.000
295.174; -129.625;-1082.000; -954.000
295.312;  -50.575; -323.000; -203.000
295.451;  -32.125; -307.000; -428.000
295.589;  -72.325; -389.000; -518.000
295.728;    9.150; -292.000; -165.000
295.866;   -2.975;  -36.000;  -51.000
296.005;  -62.525; -584.000; -341.000
296.143;  -77.775; -558.000; -596.000
296.282; -119.625; -957.000; -881.000
296.420;  -95.475; -657.000; -557.000
296.559;  -96.375; -892.000; -633.000
296.697;  -13.750; -847.000; -665.000
296.835;   12.600;-1141.000;-1002.000
296.974;   26.650;  -23.000;   39.000
297.112;  -15.700; -443.000; -504.000
297.251;  -89.525; -815.000; -755.000
297.389;   68.500; -576.000; -438.000
297.527;   17.225; -145.000;  -83.000
297.666;  -60.525; -486.000; -438.000
297.804;  -54.950; -404.000; -264.000
297.942;  -25.500; -136.000; -161.000
298.081;  -36.575; -183.000;   63.000
298.219;   53.525;  -17.000;  -19.000
298.357;   30.325; -144.000;  -71.000
298.495;   -3.050; -810.000; -812.000
298.634;   41.750;  245.000;  219.000
298.772;   38.550; -220.000; -338.000
298.910;  -38.650; -309.000; -182.000
299.048;    0.825; -130.000; -153.000
299.187;  -38.375; -350.000; -250.000
299.325;   13.675;   52.000;  122.000
299.463;   23.150; -389.000; -299.000
299.601;   65.475; -327.000; -271.000
299.739; -119.525; -908.000; -883.000
299.877;  -96.100; -791.000; -703.000
300.016;  -74.225;-1095.000; -935.000
300.154;  131.075;  -19.000; -161.000
300.292;   19.725; -428.000; -348.000
300.430;    4.375; -408.000; -291.000
300.568; -112.925; -940.000; -874.000
300.706;  -67.325; -366.000; -469.000
300.844;  -97.600;-1108.000; -979.000
300.982;   99.500;  246.000;  282.000
301.120; -122.050; -965.000; -866.000
301.258;  -76.500; -812.000; -705.000
301.396;   26.725;  104.000;  -41.000
301.534;   54.000; -218.000; -293.000
301.672;  -31.725; -664.000; -521.000
301.810;   -3.950; -613.000; -545.000
301.948;   88.000;   53.000;  149.000
302.086;  542.250; -250.000;  -32.000
302.224;  819.975; -610.000; -585.000
302.362;   -1.850; -558.000; -622.000
302.500;  -41.475; -923.000; -893.000
302.638;   67.425;  128.000;  245.000
302.776;    1.550; -352.000; -408.000
302.913;   36.475;  447.000;  236.000
303.051;   -2.600;  -86.000;  -23.000
303.189;   33.725;   90.000;  118.000
303.327;  -47.075; -341.000; -256.000
303.465; -104.125; -832.000; -588.000
303.603; -109.400; -805.000; -604.000
303.740;   83.925;  417.000;  241.000
303.878;   -7.725; -800.000; -759.000
304.016; -105.350; -915.000; -790.000
304.154; -141.775;-1123.000;-1152.000
304.291;  -32.125; -505.000; -554.000
304.429;    4.375;  102.000;   74.000
304.567; -144.725; -908.000; -893.000
304.705;  -65.525; -408.000; -515.000
304.842;   64.450; -616.000; -540.000
304.980;   39.700;  215.000;   35.000
305.118;   24.050; -367.000; -365.000
305.255;  -98.975; -945.000; -927.000
305.393;   46.825;  178.000;  239.000
305.531; -120.575;-1173.000; -956.000
305.668;  -67.125; -663.000; -582.000
305.806;   88.150; -358.000; -439.000
305.943;   73.275; -629.000; -637.000
306.081;   33.175; -378.000; -267.000
306.219; -121.750; -863.000; -748.000
306.356;   -2.850;  158.000;   27.000
306.494;  103.250;  981.000;  761.000
306.631;   -3.275;  -11.000;  -55.000
306.769;   -6.875; -613.000; -485.000
306.906;  -30.250; -284.000; -258.000
307.044;  -62.625; -473.000; -488.000
307.181;  -76.850; -410.000; -332.000
307.319;    4.925;  112.000;   87.000
307.456; -182.575;-1191.000;-1153.000
307.594; -108.575; -980.000; -727.000
307.731;  -38.750; -371.000; -164.000
307.868;  -19.550;  -15.000;   20.000
308.006; -146.525; -961.000; -847.000
308.143;  -79.200; -618.000; -330.000
308.281;  105.075;  -37.000; -254.000
308.418;  -47.950; -748.000; -640.000
308.555;  -84.875; -400.000; -250.000
308.693;  -82.875; -577.000; -573.000
308.830; -122.875; -712.000; -657.000
308.967;  -27.125; -215.000;  -95.000
309.105;  -61.750; -507.000; -396.000
309.242;    5.825; -468.000; -367.000
309.379;  180.875; -577.000; -655.000
309.517;  -89.100; -936.000; -948.000
309.654; -123.875; -910.000; -734.000
309.791;  -72.500; -662.000; -580.000
309.928; -133.750; -977.000; -914.000
310.065;  161.275;  819.000;  697.000
310.203;  -39.975; -825.000; -850.000
310.340;  -28.400; -465.000; -321.000
310.477;  -95.500; -412.000; -516.000
310.614;  -82.750; -383.000; -473.000
310.751;  -94.275; -427.000; -518.000
310.889;  -21.600;    1.000;   11.000
311.026; -158.450;-1161.000; -939.000
311.163;  -64.275; -386.000; -380.000
311.300;  -95.925; -512.000; -479.000
311.437;  -85.350; -658.000; -619.000
311.574; -169.625;-1226.000; -985.000
311.711;  -77.625; -595.000; -433.000
311.848;  -36.025; -380.000; -388.000
311.985;    5.425;  270.000;   93.000
312.122; -123.675; -932.000; -762.000
312.259; -143.325; -941.000; -994.000
312.396;  -74.800; -508.000; -551.000
312.533;  -93.325; -812.000; -790.000
312.670; -139.200;-1070.000; -898.000
312.807;  -58.450; -352.000; -367.000
312.944;  -94.350; -513.000; -611.000
313.081;  -40.725; -150.000; -415.000
313.218; -124.025;-1111.000; -867.000
313.355;   -1.225; -531.000; -449.000
313.492;  -12.575; -455.000; -292.000
313.629;  123.600;  815.000;  735.000
313.766; -158.025;-1176.000;-1008.000
313.902;  -23.975; -186.000;   21.000
314.039;  -62.400; -372.000; -289.000
314.176;   21.625;  286.000;  192.000
314.313;  -89.725; -569.000; -473.000
314.450;  -76.575; -788.000; -684.000
314.587;  -81.300; -468.000; -480.000
314.723;  -10.875;  -78.000;  130.000
314.860;   29.375;  318.000;  332.000
314.997;    7.025;  223.000;  142.000
315.134;  -43.900; -385.000; -368.000
315.270;  -39.925; -480.000; -496.000
315.407; -138.625;-1094.000; -967.000
315.544;  -75.775; -657.000; -538.000
315.681;  -76.375; -681.000; -565.000
315.817;   -3.825; -133.000; -176.000
315.954;    5.125; -613.000; -392.000
316.091; -123.600;-1045.000;-1023.000
316.227;  -41.975;  -71.000; -179.000
316.364;   -8.650;   23.000;    6.000
316.500;  -53.100; -113.000; -300.000
316.637;  -43.100; -181.000; -302.000
316.774;  -97.200; -625.000; -358.000
316.910; -103.325; -598.000; -629.000
317.047;  -90.050; -487.000; -351.000
317.183;  -61.175; -435.000; -566.000
317.320;  -13.700; -367.000; -321.000
317.456;  -77.250; -733.000; -805.000
317.593; -109.075; -598.000; -641.000
317.729;   -4.075;  168.000;  -67.000
317.866; -208.850;-1434.000;-1285.000
318.002;  -95.950; -708.000; -948.000
318.139; -111.075; -883.000; -867.000
318.275; -130.975;-1003.000; -738.000
318.412;  -80.400; -517.000; -336.000
318.548;  -51.700; -751.000; -720.000
318.685; -112.000; -985.000; -888.000
318.821; -120.475; -762.000; -735.000
318.957;  -28.450;   34.000;  -23.000
319.094;   29.100;  297.000;  154.000
319.230;  -87.800; -756.000; -742.000
319.367;  103.000; -471.000; -520.000
319.503;   35.050; -538.000; -436.000
319.639;  -89.850; -877.000; -793.000
319.775;  -84.100; -750.000; -685.000
319.912;  -56.950; -424.000; -519.000
320.048; -104.200;-1184.000;-1184.000
320.184;   64.800;   59.000;   70.000
320.321;  -77.375; -497.000; -467.000
320.457;   63.325;  475.000;  662.000
320.593;  -78.900; -375.000; -382.000
320.729;  -96.200; -732.000; -734.000
320.866;  -85.000; -577.000; -635.000
321.002;  -86.750; -759.000; -809.000
321.138;  -29.400; -135.000; -211.000
321.274;   57.850; -148.000; -115.000
321.410;  -43.050; -585.000; -353.000
321.546;  -50.250;-1011.000; -911.000
321.683;   41.825;  400.000;  185.000
321.819;    4.400;  -48.000; -117.000
321.955; -114.050; -743.000; -722.000
322.091;  -53.925; -585.000; -540.000
322.227;  -23.875; -382.000; -202.000
322.363;  -18.475; -320.000; -215.000
322.499;  -58.800; -343.000; -331.000
322.635;  150.275;  636.000;  443.000
322.771;    5.050; -139.000;   12.000
322.907;   83.025;  129.000;  327.000
323.043;  -34.350; -115.000; -206.000
323.179;  -48.725; -394.000; -363.000
323.315;    3.925; -401.000; -371.000
323.451;   52.050; -328.000; -236.000
323.587;   46.500;  -60.000;  -77.000
323.723;   -1.450; -682.000; -601.000
323.859;  -24.425; -258.000;  -76.000
323.995;  -36.725; -467.000; -409.000
324.131; -123.300; -967.000; -892.000
324.267;  -60.125; -254.000; -276.000
324.402; -143.550; -960.000; -983.000
324.538;  -35.475; -279.000; -104.000
324.674;   10.575;  164.000;   77.000
324.810;  102.225;  226.000;  308.000
324.946;   -8.000; -810.000; -658.000
325.082;  -77.175; -568.000; -475.000
325.217;  -26.275;  -62.000;   16.000
325.353; -108.700; -764.000; -659.000
325.489;  -97.975; -540.000; -506.000
325.625;  -90.075; -579.000; -525.000
325.760;   49.725;  517.000;  376.000
325.896;  -41.900; -515.000; -702.000
326.032;  -55.775; -403.000; -352.000
326.168;  -71.750; -462.000; -369.000
326.303;  -69.700; -352.000; -461.000
326.439;  -20.425; -336.000; -276.000
326.575;  -10.125; -190.000;  -29.000
326.710;  -14.500; -156.000;  -30.000
326.846;  -23.975;  146.000;  103.000
326.982; -101.650; -530.000; -548.000
327.117;  -82.350; -481.000; -442.000
327.253;  -96.825; -745.000; -742.000
327.388; -163.975;-1137.000;-1153.000
327.524;  -78.700; -811.000; -578.000
327.659;  -48.550;  -58.000;  -22.000
327.795;  -22.550;   69.000;   45.000
327.931;  -90.675; -723.000; -499.000
328.066;  -40.575; -417.000; -276.000
328.202;  -17.650;   12.000; -129.000
328.337;   78.825;  957.000;  713.000
328.473;   16.150;  -12.000;  -74.000
328.608;  -19.275; -256.000; -267.000
328.743; -102.375; -799.000; -664.000
328.879;    8.900;  214.000;  114.000
329.014;  -39.500; -102.000; -122.000
329.150;  -97.550; -358.000; -483.000
329.285;  -84.500; -465.000; -466.000
329.421;  -57.525; -548.000; -246.000
329.556;  -27.675;  -36.000;   85.000
329.691; -103.225; -633.000; -615.000
329.827;  -96.250; -626.000; -480.000
329.962;  -53.600;  131.000; -301.000
330.097; -106.050; -673.000; -585.000
330.233;  -56.575; -410.000; -223.000
330.368; -133.175; -839.000; -628.000
330.503;  -21.325;    3.000;   98.000
330.638;   -0.175;  -93.000; -125.000
330.774;  -51.550; -609.000; -530.000
330.909;  -58.825; -434.000; -244.000
331.044; -105.450; -714.000; -708.000
331.179; -179.750;-1217.000;-1109.000
331.315;    1.325;   77.000;   20.000
331.450;    1.575;  157.000;  285.000
331.585;  -99.850; -805.000; -706.000
331.720;  -83.000; -510.000; -460.000
331.855;   -9.675;  -35.000; -102.000
331.990;  252.925;   62.000;  138.000
332.126;  126.650; -110.000;   71.000
332.261;  -28.250; -379.000; -265.000
332.396;   -2.450; -135.000; -242.000
332.531; -113.475;-1074.000;-1031.000
332.666;   27.350; -519.000; -363.000
332.801; -113.475; -726.000; -807.000
332.936;  -28.050; -192.000; -122.000
333.071; -147.825; -870.000; -817.000
333.206;    9.900;  307.000;  379.000
333.341;   16.475;  344.000;  418.000
333.476;  -98.200; -627.000; -623.000
333.611;  -56.500; -251.000; -173.000
333.746;  -55.450; -381.000; -464.000
333.881; -140.900; -973.000; -935.000
334.016; -135.800; -936.000; -917.000
334.151; -143.250; -746.000; -702.000
334.286;   14.025;  152.000;  186.000
334.421;  -24.625; -125.000; -178.000
334.556;  -93.475; -611.000; -567.000
334.690; -102.375; -631.000; -577.000
334.825;   52.675;  381.000;   83.000
334.960;  -56.475; -285.000; -413.000
335.095;   -1.775;  135.000;  -91.000
335.230; -118.125; -722.000; -738.000
335.365; -150.750;-1084.000; -990.000
335.499; -155.325;-1108.000;-1037.000
335.634;   12.775;    9.000;  534.000
335.769; -115.075; -755.000; -720.000
335.904;  -75.050; -603.000; -561.000
336.038;  -73.475; -735.000; -657.000
336.173; -135.100;-1206.000;-1194.000
336.308;  -11.175; -116.000; -189.000
336.443;  -23.950; -544.000; -634.000
336.577;  -89.650; -936.000; -787.000
336.712;   35.750;   -4.000;  -12.000
336.847;  -58.950; -724.000; -607.000
336.981;   56.275; -272.000; -208.000
337.116;  259.550;  615.000;  501.000
337.250;  116.100; -434.000; -421.000
337.385;  249.125; -297.000; -208.000
337.520;  101.050; -632.000; -603.000
337.654;  -53.000; -215.000; -126.000
337.789; -122.025; -989.000; -933.000
337.923;  -35.300; -104.000; -205.000
338.058;  -96.725; -673.000; -738.000
338.192;  -57.950; -611.000; -488.000
338.327;  -17.150;  -18.000; -155.000
338.461;  -68.550; -299.000; -469.000
338.596; -103.025; -780.000; -638.000
338.730; -100.375; -767.000; -803.000
338.865;   90.850;  -46.000; -140.000
338.999;  -60.450; -846.000; -702.000
339.134;  -41.250; -634.000; -536.000
339.268;   -8.725; -741.000; -603.000
339.403;  364.050; -740.000; -775.000
339.537;  119.950; -894.000; -820.000
339.671; -117.150; -829.000; -813.000
339.806;  -59.300; -556.000; -512.000
339.940;   14.700; -261.000; -235.000
340.074; -110.100; -685.000; -510.000
340.209;  -57.975; -351.000; -230.000
340.343; -103.450; -517.000; -573.000
340.477;  133.075;  998.000; 1036.000
340.612;  -65.300;-1033.000; -900.000
340.746;  141.925; -199.000; -243.000
340.880;  -86.500; -924.000; -785.000
341.014;  -23.950;  -45.000; -154.000
341.149; -122.275; -756.000; -718.000
341.283; -112.475; -839.000; -754.000
341.417; -119.225;-1124.000; -938.000
341.551;   81.250; -768.000; -708.000
341.685;  -56.675; -633.000; -611.000
341.820;  -67.275; -562.000; -493.000
341.954;  -46.925; -218.000; -349.000
342.088; -161.100;-1102.000;-1019.000
342.222;   48.675;  565.000;  618.000
342.356;  -77.775; -395.000; -335.000
342.490; -113.150; -880.000; -841.000
342.624;  -59.200; -339.000; -242.000
342.758;  -20.050; -364.000; -312.000
342.892;  -70.725; -710.000; -585.000
343.026;  -37.450;  -58.000; -116.000
343.160;  -79.050; -426.000; -376.000
343.294; -103.450; -474.000; -337.000
343.428;  -34.850; -488.000; -448.000
343.562;  -15.825; -172.000;  -23.000
343.696;  -37.850; -385.000; -314.000
343.830;  -43.975; -362.000; -356.000
343.964;   10.925; -231.000; -168.000
344.098;  788.700;  199.000;   70.000
344.232;  635.650; -266.000; -127.000
344.366;   52.325; -567.000; -453.000
344.500;   11.950; -665.000; -744.000
344.634;   11.250; -324.000; -164.000
344.768;  -33.325; -531.000; -341.000
344.902;   23.575;  278.000;  256.000
345.035;  -81.300; -556.000; -496.000
345.169; -142.750; -933.000; -656.000
345.303;  -76.325; -308.000; -482.000
345.437;  -96.050; -826.000; -717.000
345.571;  -79.500; -675.000; -594.000
345.704;  -68.475; -309.000; -532.000
345.838;  -10.750; -331.000; -284.000
345.972;  -52.650; -543.000; -495.000
346.106;  149.425; -179.000; -190.000
346.239;  384.175; -312.000; -243.000
346.373;  -10.725; -343.000; -302.000
346.507; -164.775; -950.000; -962.000
346.640;  100.575;  -30.000;   13.000
346.774;  -69.175; -650.000; -797.000
346.908;  -32.425; -138.000;  -11.000
347.041; -112.650; -646.000; -593.000
347.175;   -2.050;  259.000;   27.000
347.309;  -84.450; -698.000; -628.000
347.442; -110.625; -883.000; -732.000
347.576;  237.550;  670.000;  668.000
347.709;  146.025; -123.000;  -52.000
347.843; -114.975; -933.000; -825.000
347.976;   26.575;  235.000;  294.000
348.110; -201.325;-1268.000;-1186.000
348.243; -112.525; -679.000; -772.000
348.377;  -15.700;  -26.000;   60.000
348.510;   46.275;  403.000;  540.000
348.644;  -51.150;  -37.000; -159.000
348.777;   -5.775;  180.000;  191.000
348.911;  -65.500; -142.000; -112.000
349.044;  152.025;  471.000;  448.000
349.178;  114.175;-1069.000;-1006.000
349.311;   96.800;  141.000;  255.000
349.444;  -13.600; -927.000; -813.000
349.578;  -37.725; -347.000; -200.000
349.711; -113.350; -959.000; -862.000
349.845;  -12.025; -661.000; -591.000
349.978; -160.725;-1224.000;-1137.000
350.111;  -72.400; -546.000; -612.000
350.244;  -89.625; -596.000; -700.000
350.378;  -21.450; -392.000; -393.000
350.511;  -71.600; -393.000; -426.000
350.644; -122.350; -808.000; -806.000
350.778;  -20.200;  168.000;  104.000
350.911;  -13.450;  134.000;  140.000
351.044; -107.350; -685.000; -615.000
351.177;  -38.425; -321.000; -281.000
351.310;  -38.575;    3.000; -131.000
351.444;  -91.525; -888.000; -788.000
351.577;   69.825;  140.000;   90.000
351.710;   87.850;  593.000;  417.000
351.843;  -55.075; -165.000;  -77.000
351.976;  -13.750;  149.000;  -79.000
352.109;  -98.600; -621.000; -612.000
352.242;  -40.575; -464.000; -419.000
352.376;  -75.525; -580.000; -636.000
352.509;  126.675; -437.000; -356.000
352.642;  -22.850; -654.000; -604.000
352.775;   42.150; -141.000;  -98.000
352.908; -142.450; -933.000; -904.000
353.041; -122.075; -814.000; -824.000
353.174;  -72.200; -551.000; -424.000
353.307; -101.900; -753.000; -764.000
353.440;   54.650;  541.000;  453.000
353.573; -123.650; -957.000;-1008.000
353.706;  -28.950; -384.000; -558.000
353.839;  -24.225; -264.000; -220.000
353.971;  -98.250; -657.000; -512.000
354.104; -101.450; -896.000; -835.000
354.237;  -44.975; -627.000; -662.000
354.370;  -86.050; -846.000; -879.000
354.503; -189.550;-1231.000;-1308.000
354.636;  -40.800; -529.000; -348.000
354.769; -137.700; -937.000; -860.000
354.902;  -29.650; -230.000; -139.000
355.034;  -27.050; -164.000; -220.000
355.167;  -18.725; -262.000; -162.000
355.300; -109.625;-1061.000; -880.000
355.433; 1003.650;  -71.000;  -14.000
355.565; 1531.075; -402.000; -384.000
355.698;  379.550; -356.000; -296.000
355.831;  -20.475; -882.000; -801.000
355.964;   64.250; -285.000; -170.000
356.096;  -93.450; -856.000; -843.000
356.229;  -19.625; -523.000; -530.000
356.362;  331.825; -373.000; -266.000
356.494;  621.575; -229.000; -162.000
356.627;  424.250;  269.000;  377.000
356.760;  654.950;  120.000;   53.000
356.892;  975.600; -286.000; -601.000
357.025;  559.375;  403.000;  389.000
357.157;  487.600; -167.000; -179.000
357.290;  737.975; -856.000; -713.000
357.423;  183.950; -667.000; -556.000
357.555;   85.400; -217.000; -228.000
357.688;  112.400; -483.000; -364.000
357.820;  402.975; -870.000; -877.000
357.953; 3344.050; -563.000; -589.000
358.085;  678.850; -632.000; -612.000
358.218;  863.775;-1131.000; -932.000
358.350;  154.625;  -58.000;  312.000
358.483; -147.350;-1300.000;-1187.000
358.615;  -47.850;-1182.000;-1078.000
358.747;  -91.925;-1187.000;-1058.000
358.880;   -3.800; -810.000; -744.000
359.012;  -17.450; -376.000; -202.000
359.145;  -44.225; -480.000; -511.000
359.277;   24.225; -962.000; -913.000
359.409; 2781.000;  536.000;  231.000
359.542;  692.775; -738.000; -688.000
359.674;   64.850;   46.000;   13.000
359.806;  -67.475; -565.000; -438.000
359.939;  -37.450; -617.000; -516.000
360.071;  -17.100; -583.000; -579.000
360.203;  -30.700; -411.000; -364.000
360.335;   42.725;  164.000;  -16.000
360.468;  170.775; -249.000; -307.000
360.600; 2285.975; -547.000; -454.000
360.732; 2926.750; -546.000; -423.000
360.864;  380.700;-1216.000;-1044.000
360.996;  193.575; -516.000; -554.000
361.129;   -2.100; -389.000; -598.000
361.261;   18.450;  110.000; -113.000
361.393;  -32.150; -252.000; -214.000
361.525;   14.950;   94.000;  244.000
361.657;  -67.850; -821.000; -703.000
361.789;   -5.475; -139.000; -155.000
361.921;  157.100; -642.000; -593.000
362.053;  205.125;  524.000;  541.000
362.185;   18.625;  288.000;   72.000
362.318; -100.575; -709.000; -705.000
362.450;   83.100;  294.000;  444.000
362.582;   33.300; -913.000; -870.000
362.714;  -52.025; -353.000; -332.000
362.846;  -82.700; -606.000; -490.000
362.978; -148.400; -941.000; -811.000
363.109;   22.100; -161.000; -260.000
363.241;  323.975; -739.000; -749.000
363.373;  434.200; -649.000; -564.000
363.505;  687.225; -186.000;  -91.000
363.637;  135.850; -787.000; -601.000
363.769; -131.425;-1067.000;-1080.000
363.901;  -78.275; -596.000; -654.000
364.033; -144.150;-1103.000;-1062.000
364.165;   -5.825; -283.000; -283.000
364.296;   61.625; -316.000; -177.000
364.428;   61.325;-1344.000;-1220.000
364.560;  -87.150; -679.000; -661.000
364.692;  -79.700; -738.000; -835.000
364.824;  202.500; -588.000; -456.000
364.955;  432.700; -402.000; -564.000
365.087;  977.250;-1097.000; -852.000
365.219;   32.100; -686.000; -816.000
365.351;  -87.825; -526.000; -572.000
365.482;   44.600;  300.000;  240.000
365.614;  -61.650; -402.000; -314.000
365.746; -111.825; -729.000; -752.000
365.877; -114.350; -706.000; -672.000
366.009;  283.250;  -35.000;  -62.000
366.141; -102.625;-1249.000;-1134.000
366.272; -118.025; -803.000; -719.000
366.404; -123.725;-1005.000; -874.000
366.535;  -31.100; -139.000;  -12.000
366.667; -102.425; -644.000; -649.000
366.799;   40.375;  353.000;  203.000
366.930; -138.950; -862.000; -996.000
367.062;  110.375; -639.000; -613.000
367.193;  152.400; -872.000; -842.000
367.325;  -84.100; -580.000; -684.000
367.456;   15.175; -246.000;   31.000
367.588;  151.400; -371.000; -318.000
367.719;   15.975;  -44.000;  -45.000
367.851;  -46.625; -222.000; -241.000
367.982;  -78.150; -875.000; -732.000
368.113;   82.875; -475.000; -358.000
368.245; -136.625; -960.000; -841.000
368.376;  -43.275; -254.000; -302.000
368.508;  -44.700; -188.000; -263.000
368.639; -131.775;-1166.000;-1034.000
368.770;  -42.100; -670.000; -589.000
368.902;  -91.225; -836.000; -926.000
369.033; -115.100; -906.000; -855.000
369.164;  -45.450; -720.000; -653.000
369.296; -121.675; -452.000; -601.000
369.427;   -7.750; -209.000; -144.000
369.558;  -76.750; -593.000; -377.000
369.689;  -94.525; -721.000; -569.000
369.821; -140.150; -951.000; -845.000
369.952;  -35.925;   42.000; -108.000
370.083;  -70.875; -229.000; -108.000
370.214;  -89.675; -735.000; -650.000
370.345;  -13.200;   65.000;   81.000
370.477; -106.525; -810.000; -790.000
370.608;  180.375; -328.000; -264.000
370.739;  -82.525;-1233.000;-1292.000
370.870;  -65.050;-1102.000; -923.000
371.001;   42.975; -378.000; -467.000
371.132;  -99.950; -754.000; -735.000
371.263;  -30.700;  -42.000; -148.000
371.394; -148.925; -841.000; -748.000
371.525;   26.375;  345.000;  225.000
371.657; -104.225; -808.000; -670.000
371.788;   55.000;  103.000;  199.000
371.919;  122.475; -384.000; -304.000
372.050; 3190.225;  -91.000; -156.000
372.181;  920.300; -188.000; -294.000
372.311;  297.825;   42.000; -127.000
372.442;    7.200; -457.000; -451.000
372.573;  -31.725; -444.000; -340.000
372.704; -140.500;-1008.000; -980.000
372.835;   46.450; -228.000; -289.000
372.966;  -75.000; -646.000; -554.000
373.097;  -81.100; -575.000; -711.000
373.228;  -67.025; -717.000; -542.000
373.359;   81.475; -824.000; -536.000
373.490;  766.700; -881.000; -727.000
373.620;  946.800;-1001.000; -803.000
373.751; 1503.925; -332.000; -396.000
373.882;  654.525; -663.000; -733.000
374.013;   39.275; -449.000; -262.000
374.143;  -58.175; -581.000; -659.000
374.274; -128.650; -987.000; -908.000
374.405;  134.100; -388.000; -276.000
374.536;  341.425; -526.000; -387.000
374.666;  905.150; -759.000; -807.000
374.797;  144.950; -817.000; -868.000
374.928;  695.925; -710.000; -560.000
375.058;  726.050; -535.000; -500.000
375.189;   49.575;  -59.000;  -93.000
375.320; -119.575; -928.000;-1034.000
375.450;  -62.100; -625.000; -616.000
375.581;  -65.675; -526.000; -436.000
375.712;  -39.175; -574.000; -250.000
375.842;  230.525; -438.000; -415.000
375.973;  157.775; -554.000; -513.000
376.103;  -67.225; -665.000; -648.000
376.234; -103.550; -531.000; -552.000
376.364;  -74.800; -944.000; -867.000
376.495;  279.700;  925.000;  529.000
376.625;  -43.700; -472.000; -485.000
376.756;   28.450; -709.000; -678.000
376.886; -104.875;-1178.000;-1026.000
377.017;   44.725;-1048.000;-1061.000
377.147;  364.725; -786.000; -782.000
377.278;   47.400;  174.000;  228.000
377.408; -129.400; -801.000; -815.000
377.538; -105.325; -707.000; -693.000
377.669; -105.350; -537.000; -613.000
377.799; -105.275; -645.000; -635.000
377.929;  -82.850; -610.000; -428.000
378.060; -137.100; -781.000; -847.000
378.190;  -64.850; -726.000; -531.000
378.320;  -56.075; -401.000; -406.000
378.451;  -26.700; -131.000;  -22.000
378.581;  -18.425;  -67.000; -110.000
378.711;  128.025; 1035.000;  866.000
378.841;  -43.375; -533.000; -675.000
378.972;  -98.350; -871.000; -751.000
379.102;  -33.000; -652.000; -579.000
379.232;  -36.025; -126.000;  -73.000
379.362; -134.550;-1001.000; -885.000
379.492;  -34.900; -373.000; -424.000
379.623;   95.425;    0.000;  111.000
379.753; -123.725;-1107.000; -974.000
379.883;  162.350;   59.000;  156.000
380.013;  -39.275;-1081.000;-1017.000
380.143; -130.300;-1097.000;-1056.000
380.273; -107.525; -985.000; -861.000
380.403;  -19.575; -344.000; -257.000
380.533;  -55.450; -651.000; -664.000
380.663;   41.900;  173.000;  128.000
380.793; -122.725;-1027.000;-1074.000
380.923;  -44.975; -103.000;  -34.000
381.053; -112.675; -613.000; -623.000
381.183;  -33.300; -106.000; -248.000
381.313;    2.950; -656.000; -470.000
381.443;   25.250; -692.000; -473.000
381.573;  131.750; -402.000; -409.000
381.703;  171.600;-1249.000;-1095.000
381.833; -162.025;-1454.000;-1336.000
381.963;   82.300; -134.000;  -87.000
382.093; 1228.550; -925.000; -909.000
382.223;  333.775; -713.000; -602.000
382.353;  -44.850; -801.000; -608.000
382.482;  284.075;-1091.000; -964.000
382.612;  639.625; -872.000; -644.000
382.742;  340.975; -695.000; -622.000
382.872;  182.850; -565.000; -551.000
383.002;   53.600;  347.000; -132.000
383.131;  -43.525; -226.000; -160.000
383.261;  -59.025; -706.000; -768.000
383.391;  278.750; -552.000; -377.000
383.521; 3389.550;  451.000;  263.000
383.650;  800.850; -947.000; -904.000
383.780;  -26.400; -783.000; -656.000
383.910;   94.175;  880.000;  802.000
384.039;  -13.950; -794.000; -656.000
384.169;  106.175;-1205.000;-1017.000
384.299;  -52.700; -650.000; -662.000
384.428; -126.750; -764.000; -680.000
384.558;  -49.975; -308.000; -275.000
384.687;  -53.975; -414.000; -334.000
384.817;   -3.975;   75.000;   -2.000
384.947;  -12.000; -234.000; -141.000
385.076;  238.575;  982.000;  912.000
385.206;   81.850;  369.000;  480.000
385.335;  -55.650; -549.000; -417.000
385.465; -107.350; -655.000; -663.000
385.594;   92.050;  -53.000;  -44.000
385.724;  317.025; -868.000; -838.000
385.853;   72.250; -296.000; -270.000
385.982; 1165.650; -743.000; -787.000
386.112; 1821.600;-1052.000; -871.000
386.241;   88.850; -307.000; -312.000
386.371;   -5.700; -174.000;  -87.000
386.500;  -29.725; -825.000; -789.000
386.629;    6.725; -874.000; -817.000
386.759;   50.275;  -43.000;   68.000
386.888;  -15.625; -170.000; -250.000
387.017;  -94.925; -648.000; -620.000
387.147; -101.100; -771.000; -798.000
387.276;  -21.800; -410.000; -397.000
387.405;  -22.075; -398.000; -342.000
387.535;  -68.525; -452.000; -361.000
387.664;  -75.600; -692.000; -620.000
387.793;   32.875; -198.000; -113.000
387.922;  418.275;  255.000;  200.000
388.052;  -26.625; -576.000; -423.000
388.181;  -17.575; -342.000; -472.000
388.310;  -64.025; -889.000; -710.000
388.439;  -73.125; -749.000; -742.000
388.568;  139.475;  365.000;  244.000
388.697;  868.625; -756.000; -653.000
388.826;  151.250; -768.000; -666.000
388.956;   34.600; -285.000; -307.000
389.085;  -40.600; -347.000; -287.000
389.214; -139.575; -842.000; -872.000
389.343;  -67.425; -645.000; -413.000
389.472;  399.250;  126.000;  149.000
389.601;  491.175;   91.000;    0.000
389.730;  -11.575; -568.000; -687.000
389.859;   39.800;  226.000;   46.000
389.988;  117.800; -423.000; -408.000
390.117;  100.475; -168.000; -146.000
390.246;   -8.925; -331.000; -320.000
390.375;   59.475; -673.000; -626.000
390.504;  -81.325; -703.000; -621.000
390.633; -105.700; -672.000; -726.000
390.761;  -85.875; -732.000; -645.000
390.890;   -0.525;   -4.000; -130.000
391.019;  -52.825; -421.000; -441.000
391.148; -138.400; -826.000; -855.000
391.277;  -83.275; -576.000; -493.000
391.406; -112.950; -821.000; -805.000
391.534;   14.675;  574.000; -301.000
391.663;  -84.575; -583.000; -645.000
391.792;  -98.600; -673.000; -701.000
391.921;   62.475;   -3.000;   15.000
392.050;  116.500; -287.000; -228.000
392.178;  -73.975;-1206.000;-1061.000
392.307;  104.125; -758.000; -712.000
392.436;   44.950; -427.000; -641.000
392.564;    8.375;  166.000;   -6.000
392.693; -104.800; -860.000; -682.000
392.822;  143.200; -529.000; -534.000
392.950;   43.250; -880.000; -714.000
393.079;  255.050; -188.000; -328.000
393.208;    7.075; -488.000; -511.000
393.336;  -26.675; -170.000; -145.000
393.465;  -68.025; -317.000; -199.000
393.593;  -15.225;   62.000;   79.000
393.722; -163.500;-1121.000; -916.000
393.850;  -21.300; -188.000;  -61.000
393.979; -165.625; -926.000; -805.000
394.107;  -77.225; -517.000; -537.000
394.236;  -51.575; -570.000; -507.000
394.364;  169.000;  383.000;  206.000
394.493;  202.950; -911.000; -767.000
394.621;  -47.975; -955.000; -916.000
394.750;  736.250; -873.000; -923.000
394.878; 3051.150; -247.000; -149.000
395.007; 4113.275; -721.000; -807.000
395.135;  297.675; -790.000; -721.000
395.263;  -95.350;-1038.000;-1040.000
395.392;   -8.425;  -25.000; -107.000
395.520; -147.825; -818.000; -679.000
395.648; -109.175; -865.000; -915.000
395.777;  -42.675; -366.000; -405.000
395.905;  -58.725; -449.000; -564.000
396.033;    5.375;  217.000;  172.000
396.162;  397.150; -399.000; -453.000
396.290;  340.475;  -17.000;   -2.000
396.418;   54.525; -555.000; -514.000
396.546; -113.675; -571.000; -466.000
396.674; -123.800; -850.000; -878.000
396.803;   -7.850;  -72.000;  -23.000
396.931;   48.450; -179.000; -199.000
397.059;   -7.975;-1026.000; -989.000
397.187; -128.900;-1026.000; -975.000
397.315; -153.675; -884.000; -649.000
397.443; -110.875; -592.000; -443.000
397.572;  -87.400; -578.000; -424.000
397.700;  -44.275; -607.000; -614.000
397.828;   -1.900;  120.000;  -90.000
397.956;  -58.100; -508.000; -478.000
398.084;  -73.550; -767.000; -626.000
398.212;    8.775;  137.000;  124.000
398.340;   -4.950;  -56.000;  159.000
398.468;  -12.050; -390.000; -169.000
398.596; -149.600; -993.000; -953.000
398.724; -143.625; -762.000; -767.000
398.852; -179.850;-1024.000; -976.000
398.980;  -82.650; -560.000; -560.000
399.108;  -78.300; -982.000; -735.000
399.236;   25.625;   13.000;    8.000
399.363;   -0.575;  222.000;  196.000
399.491;  -79.950; -404.000; -398.000
399.619; -135.975; -829.000; -800.000
399.747; -125.100; -859.000; -771.000
399.875;   55.775;  220.000;  234.000
400.003;  -70.475; -359.000; -284.000
400.130; -103.175; -421.000; -341.000
400.258;  -52.525;  -83.000;   38.000
400.386;  -72.750; -352.000; -168.000
400.514;  -58.725; -526.000; -587.000
400.641; -113.225; -928.000; -802.000
400.769; -154.375; -979.000; -888.000
400.897; -131.825; -838.000; -793.000
401.025;  -27.000; -166.000; -152.000
401.152;  -14.300;  220.000;   38.000
401.280;  -97.975; -430.000; -429.000
401.408; -128.825; -712.000; -576.000
401.535; -113.900; -735.000; -758.000
401.663; -209.900;-1134.000;-1054.000
401.790;  -97.875; -514.000; -525.000
401.918;   23.675;  436.000;  405.000
402.046;  -28.800;  134.000;  122.000
402.173;  -53.975;  -18.000;    7.000
402.301;  -84.325; -519.000; -397.000
402.428;   26.400;  528.000;  383.000
402.556; -160.650;-1188.000; -913.000
402.683;  -49.325;  -20.000;   -1.000
402.811;  -34.575;  -37.000; -206.000
402.938;  -29.175;   20.000;   27.000
403.066;  140.025; -574.000; -558.000
403.193;  261.075;  299.000;  239.000
403.321;  209.325; -396.000; -574.000
403.448;  260.850;   83.000;   27.000
403.575;  120.950;  -90.000;  -46.000
403.703; -113.450; -732.000; -557.000
403.830;  -70.700; -531.000; -496.000
403.957; -159.775;-1117.000;-1023.000
404.085;    2.625;  -61.000; -172.000
404.212;   90.375;  -50.000;   63.000
404.339;  265.775; -566.000; -306.000
404.467; 6049.525; -612.000; -524.000
404.594; 3763.075; -287.000; -227.000
404.721;  794.325; -869.000; -764.000
404.848;   60.375; -113.000; -202.000
404.976; -124.150; -856.000; -783.000
405.103;  -24.425;  -14.000;  -82.000
405.230;   -7.350;  190.000;  226.000
405.357;   23.700;  117.000;   44.000
405.484;  253.150;  -49.000;    5.000
405.612;   26.100; -548.000; -563.000
405.739;  -79.675; -488.000; -243.000
405.866;   68.025;  669.000;  385.000
405.993;  -48.850; -398.000; -102.000
406.120; -143.175; -801.000; -887.000
406.247;  -76.175; -323.000; -342.000
406.374;  346.150;  540.000;  629.000
406.501;   55.675; -632.000; -702.000
406.628;  -92.275; -621.000; -589.000
406.755; -106.725; -803.000; -620.000
406.882;  -47.400; -228.000; -277.000
407.009; -114.625; -719.000; -628.000
407.136;    5.775; -480.000; -401.000
407.263;   65.650; -939.000; -829.000
407.390;  -90.675; -692.000; -614.000
407.517; -189.800;-1139.000;-1187.000
407.644;  -72.025; -332.000; -256.000
407.771;  -81.975; -249.000; -287.000
407.898;    1.125;  168.000;  328.000
408.025;  -80.325; -421.000; -313.000
408.151;  -20.325;   82.000;  153.000
408.278;  -83.925; -267.000; -216.000
408.405; -130.025; -931.000; -899.000
408.532;  -82.175; -549.000; -542.000
408.659; -119.600; -677.000; -648.000
408.785; -205.000;-1298.000;-1170.000
408.912;  -88.275; -412.000; -296.000
409.039; -117.850; -610.000; -686.000
409.166; -119.925; -591.000; -555.000
409.292; -123.750; -571.000; -534.000
409.419; -133.125; -665.000; -649.000
409.546;  -91.425; -431.000; -192.000
409.672; -117.800; -713.000; -545.000
409.799;  -33.200;  -36.000;   34.000
409.926;  -53.975; -180.000; -179.000
410.052; -183.000;-1127.000;-1091.000
410.179;  -69.075; -368.000; -392.000
410.305; -101.875; -375.000; -493.000
410.432;  -59.050; -220.000; -333.000
410.558; -103.700; -305.000; -380.000
410.685; -118.400; -688.000; -431.000
410.812; -113.900; -409.000; -588.000
410.938; -157.875; -964.000; -808.000
411.065; -103.000; -671.000; -645.000
411.191;  -36.575; -189.000; -174.000
411.317; -134.350; -823.000; -742.000
411.444;  -80.000; -317.000; -246.000
411.570;  -88.825; -339.000; -294.000
411.697; -137.325; -758.000; -752.000
411.823; -186.850; -989.000; -999.000
411.949;  -41.700;  -56.000;   17.000
412.076; -130.725; -539.000; -519.000
412.202; -127.400; -758.000; -757.000
412.329; -156.450; -798.000; -752.000
412.455; -126.425; -821.000; -657.000
412.581;  -24.525;  -15.000;  172.000
412.707;  -90.825; -540.000; -457.000
412.834;   10.650;  156.000;  219.000
412.960; -108.450; -785.000; -784.000
413.086; -122.500; -743.000; -701.000
413.212;  123.475;  604.000;  578.000
413.339;  -89.175; -685.000; -701.000
413.465;  -23.100; -364.000; -310.000
413.591; -113.700; -757.000; -474.000
413.717;  -53.100; -358.000; -366.000
413.843; -142.450; -839.000; -861.000
413.969;  -73.050;  -47.000; -292.000
414.096; -116.925; -679.000; -679.000
414.222;  -13.625;  -33.000;   85.000
414.348;  -63.950; -652.000; -385.000
414.474;   56.250;   38.000;  -52.000
414.600;  -31.700; -126.000; -144.000
414.726;  -40.700;  -96.000;  -55.000
414.852;  -61.400; -365.000; -342.000
414.978;   17.275;  104.000;  -18.000
415.104;   21.500;   38.000;   80.000
415.230;   21.775; -329.000; -330.000
415.356;   26.275; -409.000; -514.000
415.482;  170.850;   13.000;  -35.000
415.608;  268.175; -247.000; -323.000
415.734;  980.800;   67.000;   38.000
415.860;20603.375; -875.000; -767.000
415.986;14606.850; -685.000; -607.000
416.111; 1237.125; -798.000; -652.000
416.237;  233.125; -424.000; -571.000
416.363; 1220.175; -765.000; -733.000
416.489; 4371.750; -324.000; -251.000
416.615;  463.450; -707.000; -742.000
416.741;  -32.625; -677.000; -784.000
416.866;  -99.575; -673.000; -736.000
416.992; -118.600; -801.000; -818.000
417.118;  -32.750;  -41.000;  -80.000
417.244;  -83.650; -798.000; -531.000
417.369;  -95.125; -801.000; -612.000
417.495;  -33.125; -325.000; -254.000
417.621; -108.150;-1015.000; -803.000
417.746;    6.250; -579.000; -572.000
417.872;   33.600; -254.000; -144.000
417.998;   39.950; -515.000; -530.000
418.123; 1095.700;-1073.000; -845.000
418.249; 5614.175; -512.000; -601.000
418.374;  737.150; -916.000; -824.000
418.500;  109.750; -383.000; -482.000
418.626;  107.575;   70.000;  -59.000
418.751;  105.050; -549.000; -448.000
418.877;  184.925; -637.000; -643.000
419.002; 1880.725; -688.000; -560.000
419.128;13110.025; -930.000; -721.000
419.253; 3109.300; -967.000; -837.000
419.379;  424.775; -391.000; -338.000
419.504;  403.125;  325.000;  415.000
419.629;  538.375; -393.000; -212.000
419.755; 3869.125; -317.000; -254.000
419.880;22516.925;  -98.000;   67.000
420.006;11995.450; -280.000; -221.000
420.131;30382.525; -662.000; -775.000
420.256; 4223.200; -315.000; -316.000
420.382;  570.800; -665.000; -687.000
420.507;   66.200; -649.000; -778.000
420.632;   81.675; -337.000; -339.000
420.758;  166.325; -251.000; -425.000
420.883;  -94.800; -876.000; -672.000
421.008;  -99.500; -775.000; -619.000
421.133;  -95.850; -509.000; -467.000
421.259;  -55.725; -325.000; -259.000
421.384; -125.450; -834.000; -693.000
421.509;  -77.425;-1052.000; -862.000
421.634;  872.425; -936.000; -820.000
421.759;  366.775; -359.000; -327.000
421.885;  -79.375; -717.000; -656.000
422.010;  -92.950; -673.000; -542.000
422.135; -160.100; -695.000; -727.000
422.260;   21.475;  340.000;  280.000
422.385;  -45.825;   12.000;  -98.000
422.510;   -1.575;  151.000;  -26.000
422.635;    0.950;  -87.000;  -43.000
422.760;   62.600; -766.000; -791.000
422.885;   38.100;  -57.000;  -80.000
423.010;  -52.650; -112.000; -169.000
423.135; -103.200; -481.000; -561.000
423.260;  -21.900; -150.000; -245.000
423.385;   51.925;  476.000;  222.000
423.510;   27.500;   71.000;  -22.000
423.635;   58.000;  133.000;   45.000
423.760;   39.750;  383.000;  328.000
423.885;   42.275;  336.000;  391.000
424.010;   -5.800;  -68.000;  -13.000
424.135;  -28.850;    5.000;  -33.000
424.259;  -95.350; -654.000; -457.000
424.384;  -73.750; -279.000; -272.000
424.509;  -41.650; -260.000; -186.000
424.634; -114.650; -761.000; -623.000
424.759;  -32.650; -688.000; -544.000
424.883;  -22.175; -506.000; -527.000
425.008;  157.925; -502.000; -410.000
425.133; 2108.875; -679.000; -653.000
425.258;  935.400; -517.000; -381.000
425.382;  945.525; -867.000; -774.000
425.507; 2326.850; -487.000; -543.000
425.632;  384.225; -802.000; -663.000
425.756;  486.075; -256.000; -146.000
425.881; 7175.750; -831.000; -857.000
426.006;19046.125; -604.000; -355.000
426.130; 2846.225; -696.000; -508.000
426.255;  366.675; -611.000; -491.000
426.379;  154.300; -189.000; -577.000
426.504;  381.950;  660.000;  544.000
426.629; 4119.875; -519.000; -466.000
426.753; 2751.125;   64.000;  -46.000
426.878;  316.200; -252.000; -288.000
427.002;  178.800; -651.000; -668.000
427.127; 1674.050;  -35.000; -158.000
427.251;11974.075;  372.000;  401.000
427.375; 3262.950; -191.000; -173.000
427.500; 2050.975; -616.000; -610.000
427.624;  645.525; -234.000; -400.000
427.749;   84.450; -216.000; -225.000
427.873;  -48.175; -499.000; -412.000
427.997;  -48.300; -222.000; -230.000
428.122;   57.750;  795.000;  703.000
428.246;   53.300;  433.000;  434.000
428.371; -149.925; -869.000; -773.000
428.495; -112.275; -624.000; -646.000
428.619;  -52.500; -186.000; -117.000
428.743;   11.775;   65.000;  132.000
428.868;  -12.050; -732.000; -643.000
428.992; 1224.600; -219.000; -326.000
429.116;  459.625; -329.000; -357.000
429.240;  214.250;  419.000;  426.000
429.365;  -35.350; -454.000; -574.000
429.489;  -51.650; -638.000; -647.000
429.613;    9.600; -236.000; -177.000
429.737;   23.950; -563.000; -432.000
429.861;  263.325; -247.000; -133.000
429.985; 5835.000; -425.000; -305.000
430.109; 6246.850; -770.000; -908.000
430.234;  682.750;   76.000;  -50.000
430.358;   47.250; -250.000; -160.000
430.482;  -77.425; -672.000; -564.000
430.606;  -84.400; -655.000; -375.000
430.730;   -7.800; -437.000; -388.000
430.854;   55.300; -909.000; -835.000
430.978;  -91.350; -795.000; -764.000
431.102; -105.175; -499.000; -422.000
431.226; -132.050; -874.000; -815.000
431.350;   17.400;  345.000;  422.000
431.474;  -87.625; -661.000; -373.000
431.597; -177.975;-1060.000; -848.000
431.721;  -89.025; -276.000; -267.000
431.845; -142.500; -704.000; -472.000
431.969;  -85.175; -304.000; -349.000
432.093; -101.650; -395.000; -317.000
432.217;  -31.450;   32.000;   82.000
432.341;  -95.000; -523.000; -518.000
432.464;    3.675;   96.000;   40.000
432.588;  127.275; -401.000; -329.000
432.712;   66.725;  -52.000;  -52.000
432.836;   38.050;  213.000;  263.000
432.959;  -30.000; -372.000; -311.000
433.083;   63.000;   11.000;    2.000
433.207;  386.800;  285.000;  930.000
433.330; 5365.850; -391.000; -200.000
433.454; 6439.275; -654.000; -638.000
433.578; 3746.925;  583.000;  278.000
433.701;  661.225; -623.000; -675.000
433.825;  101.375; -292.000; -299.000
433.949;  113.825;   28.000;  -72.000
434.072;   11.150; -410.000; -323.000
434.196;  -13.675; -309.000; -117.000
434.319; 3770.125;25482.000;25124.000
434.443;  721.050; -656.000; -603.000
434.566; 2774.625;  281.000;   62.000
434.690;  443.325; -637.000; -383.000
434.813;   42.725; -251.000; -173.000
434.937;  -94.625; -569.000; -696.000
435.060;  -57.975; -423.000; -332.000
435.184;  202.300; -492.000; -217.000
435.307;  106.175;  159.000;  102.000
435.431;  -23.500;  -40.000;   24.000
435.554;  -87.725; -399.000; -240.000
435.677;  -95.150; -350.000; -258.000
435.801;  -57.525;  -25.000;   49.000
435.924;  -35.075;    1.000;  -67.000
436.048; -141.350;-1019.000; -732.000
436.171;  -86.400; -240.000;  -66.000
436.294;  -44.275; -248.000; -229.000
436.417;   98.100; -963.000; -849.000
436.541;  -96.950; -814.000; -840.000
436.664;  -64.875; -242.000; -316.000
436.787;  -39.025;   13.000;  113.000
436.910; -128.475; -792.000; -422.000
437.034;   -2.150;  142.000;  143.000
437.157;   26.925;  -11.000;    0.000
437.280;  -59.700; -392.000; -292.000
437.403; -114.575; -982.000; -869.000
437.526;  441.775; -903.000; -865.000
437.649; 1714.175; -505.000; -332.000
437.772;  206.100; -692.000; -540.000
437.896;   96.350;  700.000;  544.000
438.019; -108.000; -758.000; -503.000
438.142;  -94.750; -596.000; -506.000
438.265;  -54.825; -639.000; -670.000
438.388;  404.450; -520.000; -410.000
438.511;   19.525; -597.000; -394.000
438.634;  -82.525; -247.000; -125.000
438.757; -135.950; -693.000; -619.000
438.880;  -49.850;  -34.000;  -57.000
439.003; -100.200; -417.000; -437.000
439.126;  -81.775; -287.000; -167.000
439.248;  -71.000;  -98.000; -139.000
439.371;  -55.775;    9.000;  -53.000
439.494;   25.175;  510.000;  439.000
439.617;  -63.900;   65.000;  -88.000
439.740; -183.225; -968.000; -816.000
439.863; -146.675; -755.000; -595.000
439.986; -145.125; -476.000; -431.000
440.108;  -45.850; -161.000; -112.000
440.231; -177.550; -950.000; -836.000
440.354;  -59.550;  -64.000; -150.000
440.477;   -4.525; -566.000; -542.000
440.599;  -35.450; -200.000; -225.000
440.722; -144.575; -709.000; -586.000
440.845;   61.775;  751.000;  928.000
440.968; -120.325; -415.000; -311.000
441.090;  -59.775; -199.000;  -33.000
441.213; -179.425;-1021.000; -825.000
441.336;  -57.425; -159.000;   -5.000
441.458;  -80.100; -549.000; -396.000
441.581; -100.950; -628.000; -629.000
441.703;  -78.925; -152.000;   13.000
441.826; -118.750; -557.000; -400.000
441.948;  -53.050;   56.000;   51.000
442.071;   22.250;  555.000;  424.000
442.193; -140.200; -531.000; -485.000
442.316;    0.825;  152.000;   97.000
442.438;   24.300; -233.000;  -10.000
442.561;   54.825;  272.000;  262.000
442.683;  392.375; -809.000; -522.000
442.806;  872.450;   -8.000;   74.000
442.928;  -33.175; -859.000; -604.000
443.051;  -82.800; -577.000; -373.000
443.173; -111.525; -341.000; -339.000
443.295; -106.775; -263.000; -371.000
443.418;  -79.675; -321.000;  -29.000
443.540;  -40.375; -106.000;   -4.000
443.662; -135.525; -563.000; -465.000
443.785;  -23.425;  335.000;  199.000
443.907; -105.100; -362.000; -208.000
444.029; -137.575; -767.000; -494.000
444.152; -144.025; -644.000; -554.000
444.274;  -32.900;  -18.000;  -24.000
444.396; -122.850; -461.000; -221.000
444.518; -144.725; -691.000; -454.000
444.640; -114.950; -268.000; -111.000
444.763;  -34.850;  388.000;  249.000
444.885; -124.500; -432.000; -392.000
445.007;  -44.550;   35.000;   86.000
445.129; -119.650; -610.000; -515.000
445.251; -117.750; -372.000; -439.000
445.373; -136.900; -537.000; -386.000
445.495;   -6.125;  242.000;  350.000
445.617;   47.000;  853.000;  753.000
445.739;  -80.000; -215.000;  -97.000
445.861;  -54.175; -245.000; -112.000
445.984;  -39.475; -267.000; -101.000
446.105;  135.525; -418.000; -251.000
446.227;  460.075; -176.000;  -19.000
446.349;  -33.250; -358.000; -249.000
446.471; -117.525; -615.000; -448.000
446.593;  -79.675; -316.000;   19.000
446.715;  -21.725;  -67.000;   41.000
446.837;   52.500;  697.000;  832.000
446.959; -113.675; -457.000; -478.000
447.081; -145.475; -628.000; -518.000
447.203;   56.425;  862.000;  834.000
447.325; -100.350; -270.000;   42.000
447.446;  -23.025;  286.000;  530.000
447.568; -155.575; -921.000; -803.000
447.690;  -96.975; -236.000; -245.000
447.812; -156.600; -798.000; -519.000
447.933;  -44.525;  155.000;  127.000
448.055;  -72.000; -306.000; -261.000
448.177;  111.450;   31.000;   79.000
448.299;   17.650; -935.000; -727.000
448.420;    2.475;  -25.000;  159.000
448.542;  -53.100;   -3.000;   33.000
448.664;  -44.200;  109.000;  322.000
448.785;  -40.725;  265.000;   83.000
448.907;  -91.975; -614.000; -353.000
449.028;  -65.425; -771.000; -471.000
449.150;   40.075;  492.000;  589.000
449.272; -190.700;-1044.000; -913.000
449.393;   29.350;  612.000;  694.000
449.515; -145.925; -634.000; -581.000
449.636;  -67.325; -264.000; -155.000
449.758;   65.550;  763.000;  622.000
449.879;  -92.850; -498.000; -396.000
450.001;  -96.625; -149.000;  -49.000
450.122;  -46.775;  -95.000;  162.000
450.244;  -25.650;   37.000;  364.000
450.365; -101.250; -495.000; -301.000
450.486;  -36.275;   80.000;  268.000
450.608;    2.625;  393.000;  326.000
450.729;   66.575;  578.000;  645.000
450.850;    1.725; -574.000; -466.000
450.972;  799.525; -552.000; -389.000
451.093; 5201.250;  190.000;  588.000
451.214; 2186.300; -516.000; -337.000
451.336;  403.225;  773.000;  579.000
451.457;   59.050;  264.000;  393.000
451.578;  -45.350; -118.000;  -74.000
451.699; -115.525; -546.000; -540.000
451.821;  -79.625; -284.000;  -50.000
451.942;  -10.275;  278.000;  285.000
452.063;   32.750;  228.000;  419.000
452.184;  581.400;  -54.000;  -49.000
452.305; 1121.500;  103.000;  170.000
452.427;  120.450; -549.000; -301.000
452.548;  -19.050;   23.000;   79.000
452.669;  -66.400; -257.000;  -89.000
452.790;  -48.250;    3.000;  -18.000
452.911;    1.450;  195.000;  259.000
453.032;  -82.150; -289.000;  -60.000
453.153;  -52.450;  -29.000;   81.000
453.274;   40.000;  737.000;  868.000
453.395;  -62.075;  -51.000;  175.000
453.516;   64.025; 1317.000; 1388.000
453.637;  -88.500; -205.000; -150.000
453.758;  -59.500;   15.000;   69.000
453.879; -124.325; -462.000; -250.000
454.000;   67.825; 1086.000;  948.000
454.121; -123.150; -554.000; -326.000
454.242; -129.125; -599.000; -383.000
454.362;  -59.400;  -99.000;  114.000
454.483;  -52.700; -309.000; -229.000
454.604;   35.975;  512.000;  580.000
454.725; -142.350; -627.000; -555.000
454.846; -140.875; -474.000; -406.000
454.967;  -38.500;  230.000;  539.000
455.087;  -52.650;  179.000;  153.000
455.208;   14.725;  554.000;  856.000
455.329;  -87.000;  -22.000;   82.000
455.450;   28.825;  473.000;  633.000
455.570;  -92.650; -234.000; -211.000
455.691;  -58.575;  201.000;  407.000
455.812; -120.000; -270.000;  -92.000
455.932;  -63.175;  107.000;  -97.000
456.053; -103.475;   36.000;   24.000
456.173; -119.350; -433.000; -355.000
456.294; -140.550; -476.000; -303.000
456.415;  -64.400;  -73.000;   70.000
456.535;  -36.050;  297.000;  273.000
456.656;  -59.950;  132.000;  240.000
456.776;  -73.850;    3.000;  298.000
456.897;  -11.575;  308.000;  513.000
457.017;  -85.675; -153.000;   -3.000
457.138; -125.225; -402.000; -249.000
457.258;  -38.250;  263.000;  224.000
457.379;  -22.125;  509.000;  521.000
457.499;  -24.125;  443.000;  432.000
457.620; -130.450; -407.000; -231.000
457.740;  -88.700; -132.000;  -11.000
457.860;  -55.925;   87.000;   44.000
457.981;  -52.900;  132.000;  124.000
458.101;  -83.400;  -89.000;   40.000
458.221;  -30.375;  336.000;  402.000
458.342;  -82.550;   -4.000;  -37.000
458.462;    7.575;  617.000;  352.000
458.582;  -34.900; -302.000; -294.000
458.703;    7.800;  303.000;  154.000
458.823;  -17.725;   22.000;  163.000
458.943;    2.825;  341.000;  467.000
459.063;  -26.300; 1124.000;  192.000
459.183;  -38.300;  328.000;  313.000
459.304;    1.675;  315.000;  517.000
459.424;  -83.000; -246.000;  -89.000
459.544;  341.200;  388.000;  764.000
459.664;  845.025;  499.000;  506.000
459.784;  318.450; 1004.000; 1175.000
459.904;   47.175;  867.000;  744.000
460.024;   52.225;  867.000;  684.000
460.144;    5.100;  449.000;  554.000
460.264;  -25.725;  515.000;  327.000
460.385; -107.025; -145.000; -119.000
460.505;   39.275;  905.000;  858.000
460.625; -112.450;  -17.000;  -68.000
460.745;  -20.025;  396.000;  541.000
460.864;  -60.000;  153.000;  469.000
460.984;   -1.475;  499.000;  573.000
461.104;  131.025; 1656.000; 1775.000
461.224;   14.750;  657.000;  650.000
461.344;  -39.500;  431.000;  360.000
461.464;  -38.925;  258.000;  513.000
461.584;  -27.775;  283.000;  466.000
461.704;  -63.125;   58.000;  108.000
461.824;  -65.275;  238.000;  259.000
461.943;  -48.275;  191.000;  130.000
462.063;  -78.600;    2.000;  324.000
462.183;   16.775;  639.000;  717.000
462.303;  103.200; 1678.000; 1230.000
462.422;   25.925;  781.000;  840.000
462.542;  -39.725;  271.000;  391.000
462.662;   28.775;  353.000;  380.000
462.782;  230.200;  833.000;  572.000
462.901;  491.075;  545.000;  717.000
463.021;  274.650; 1702.000; 1638.000
463.141;  -11.350;  337.000;  770.000
463.260;  -32.025;  614.000;  474.000
463.380;   -4.875;  902.000;  884.000
463.499;  -45.375;  342.000;  332.000
463.619;  -51.450;  581.000;  559.000
463.738;  109.250; 1644.000;  903.000
463.858;    1.025;  657.000;  811.000
463.978;  -30.375;  542.000;  396.000
464.097;   57.625;  921.000; 1114.000
464.217;  111.575; 1196.000; 1143.000
464.336;  113.350; 1068.000; 1130.000
464.455;  -38.700;  328.000;  659.000
464.575;   14.625;  597.000;  602.000
464.694;  162.475; 1204.000; 1179.000
464.814;  129.125; 1190.000; 1138.000
464.933;   72.575; 1095.000; 1027.000
465.052;   93.450; 1412.000; 1054.000
465.172;   79.500;  922.000;  799.000
465.291;  128.150; 1376.000; 1320.000
465.410;    8.825;  462.000;  735.000
465.530;   77.275; 1355.000; 1310.000
465.649;   63.325; 1209.000; 1273.000
465.768;  120.175; 1673.000; 1508.000
465.888;   35.200;  941.000; 1174.000
466.007;   83.550; 1335.000; 1440.000
466.126;  -13.875;  721.000;  641.000
466.245;   35.250; 1176.000; 1187.000
466.364;   19.775;  950.000; 1060.000
466.484;   44.575; 1024.000; 1213.000
466.603;   31.175; 1101.000; 1222.000
466.722;  111.200; 1490.000; 1769.000
466.841;   60.600; 1151.000; 1401.000
466.960;   25.150; 1069.000;  972.000
467.079;  130.975; 1971.000; 1786.000
467.198;   44.875; 1238.000; 1181.000
467.317;   86.625; 1768.000; 1162.000
467.436;   69.150; 1709.000; 1261.000
467.555;  122.700; 1796.000; 1746.000
467.674;   73.250; 1227.000; 1329.000
467.793;   45.875; 1376.000; 1374.000
467.912;   72.600; 1658.000; 1539.000
468.031;  122.325; 2038.000; 1930.000
468.150;  131.700; 1842.000; 1837.000
468.269;  194.875; 2313.000; 2090.000
468.388;  178.425; 2168.000; 2339.000
468.507;  262.775; 2884.000; 2903.000
468.626;  236.800; 2555.000; 2541.000
468.744;  140.050; 2018.000; 2174.000
468.863;  191.975; 2312.000; 2523.000
468.982;   87.575; 1503.000; 1555.000
469.101;  224.525; 2788.000; 2692.000
469.220;  144.225; 2333.000; 2176.000
469.338;  235.450; 2935.000; 3051.000
469.457;  199.425; 2719.000; 2545.000
469.576;  330.150; 3953.000; 3784.000
469.695;  233.825; 2877.000; 3066.000
469.813;  433.500; 4148.000; 4192.000
469.932;  395.775; 4255.000; 4485.000
470.051;  431.100; 4075.000; 4161.000
470.169;  885.725; 4470.000; 4338.000
470.288; 1515.150; 4700.000; 4809.000
470.406;  879.175; 5059.000; 5194.000
470.525;  627.475; 6101.000; 5787.000
470.644;  643.575; 6847.000; 6794.000
470.762;  809.650; 8397.000; 7873.000
470.881;  898.575; 8651.000; 8464.000
470.999; 1038.075; 9685.000; 9151.000
471.118; 1103.825;11174.000;10711.000

