
Integration time [ms]: 100.000
Averaging Nr. [scans]: 40
Smoothing Nr. [pixels]: 0
Data measured with spectrometer [name]: 2101012U2
Wave   ;Sample   ;Dark     ;Reference
[nm]   ;[counts] ;[counts] ;[counts] 

197.733;   60.650;  516.000;  404.000
197.879;  -89.975; -610.000; -634.000
198.025;  -26.175; -475.000; -420.000
198.171;  -80.325; -602.000; -612.000
198.317;  -31.225; -401.000; -316.000
198.463;  -70.150; -655.000; -404.000
198.609;   13.200;  181.000; -137.000
198.755;  -88.125; -644.000; -410.000
198.901;  -67.275; -505.000; -424.000
199.047;  -68.375; -615.000; -488.000
199.193;  -36.875; -230.000; -468.000
199.339;  -51.600; -222.000; -369.000
199.485;   41.825;  330.000;  271.000
199.631;   16.825;  227.000;  310.000
199.777;  -51.425; -466.000; -398.000
199.923;  -58.775; -610.000; -424.000
200.069;   -3.175; -141.000;  -58.000
200.215;   47.400;  128.000;  453.000
200.361;   47.825;  243.000;  477.000
200.507;  -64.075; -600.000; -373.000
200.653;  -25.775; -371.000; -194.000
200.798;  -35.175; -215.000; -125.000
200.944;   -2.550; -146.000;  -41.000
201.090;   38.450;   61.000;  222.000
201.236;    9.675; -116.000; -158.000
201.382;  146.425;  874.000;  903.000
201.528;    8.675;  -58.000;  -48.000
201.674;  -64.025; -386.000; -293.000
201.819;  -62.400; -540.000; -439.000
201.965;  -78.800; -699.000; -447.000
202.111;  -11.200; -273.000; -226.000
202.257;  -51.375; -250.000; -238.000
202.402;   12.375;   13.000;  -36.000
202.548;  -24.475; -169.000; -116.000
202.694;   82.275;  410.000; -183.000
202.840;  -67.700; -603.000; -531.000
202.985;  -79.950; -681.000; -639.000
203.131; -116.150; -832.000; -666.000
203.277;  -22.025; -199.000; -262.000
203.423;  -58.775; -434.000; -520.000
203.568;  -42.275; -462.000; -237.000
203.714;  -55.000; -535.000; -542.000
203.860;  -79.000; -682.000; -641.000
204.005;   10.100;  112.000;  167.000
204.151;   76.300;  561.000;  556.000
204.296;  -59.775; -354.000; -221.000
204.442;  -66.575; -600.000; -547.000
204.588;  -86.075; -592.000; -579.000
204.733;   30.650;  178.000;  168.000
204.879; -134.150;-1018.000; -822.000
205.025;   21.000;  -99.000;  126.000
205.170;    1.625;  -17.000;   94.000
205.316;   93.550;  438.000;  661.000
205.461;  -92.425; -698.000; -554.000
205.607;   88.600;  609.000;  665.000
205.752;  -73.425; -626.000; -551.000
205.898;  -50.125; -501.000; -391.000
206.043;  -56.875; -578.000; -506.000
206.189;  -49.050; -243.000; -285.000
206.334;   77.725;  554.000;  606.000
206.480;   79.750;  409.000;  239.000
206.625;  -89.175; -529.000; -552.000
206.771;  -47.600; -451.000; -373.000
206.916;  -43.625; -210.000; -537.000
207.062;  -76.200; -545.000; -591.000
207.207;  -86.825; -546.000; -443.000
207.353;   59.075;  185.000;  460.000
207.498;   16.425;  196.000;   85.000
207.643;  -55.450; -501.000; -370.000
207.789; -141.925;-1069.000; -910.000
207.934;  -97.300; -665.000; -713.000
208.080;  -31.975; -154.000;   66.000
208.225;  -12.550;  -22.000;  -57.000
208.370;  -91.025; -727.000; -619.000
208.516;  -73.875; -741.000; -487.000
208.661;  -35.175; -127.000;  -69.000
208.806;   -5.750; -165.000; -171.000
208.952; -134.975;-1044.000; -731.000
209.097;   75.325;  378.000;  349.000
209.242;  -55.625; -307.000; -382.000
209.387;   76.850;  392.000;  350.000
209.533;  -55.450; -321.000; -350.000
209.678;   87.300;  472.000;  543.000
209.823;  -65.325; -408.000; -310.000
209.969; -105.750; -860.000; -757.000
210.114; -122.775; -907.000; -719.000
210.259; -122.650; -939.000; -889.000
210.404;  -19.275; -171.000;  103.000
210.549;   10.125;  108.000;    3.000
210.695;  -13.775;   -3.000;  -95.000
210.840;   33.500;   94.000;   67.000
210.985;  -64.600; -484.000; -303.000
211.130;   71.900;  268.000;  406.000
211.275;    4.525;  207.000;  199.000
211.420;  -53.850; -300.000; -289.000
211.566;  -79.775; -536.000; -489.000
211.711;   24.425;  218.000;  157.000
211.856;  -74.025; -545.000; -519.000
212.001;    3.900;  151.000;   44.000
212.146;   31.300;  153.000;   49.000
212.291;  -24.425; -210.000; -186.000
212.436;  -26.275; -280.000;   -6.000
212.581;  -82.400; -685.000; -653.000
212.726;  -76.125; -487.000; -538.000
212.871;  -58.450; -552.000; -217.000
213.016; -152.525;-1172.000;-1029.000
213.161;   63.975;  406.000;  291.000
213.306;  -77.125; -435.000; -577.000
213.451; -100.150; -778.000; -689.000
213.596;  -37.075; -455.000; -347.000
213.741;  -49.225; -448.000; -538.000
213.886;  -74.675; -498.000; -517.000
214.031;  -24.400; -294.000; -124.000
214.176;  -42.175; -408.000; -341.000
214.321;  -20.150; -296.000; -157.000
214.466;  -34.775; -163.000;  -43.000
214.611;    4.125;  -61.000;  -10.000
214.756; -129.725; -948.000; -858.000
214.901;  -13.525; -388.000; -226.000
215.046; -125.125; -797.000; -825.000
215.191;   19.600;  128.000;   35.000
215.336;  -13.675; -157.000;  -19.000
215.480;  -75.525; -684.000; -505.000
215.625;  -16.425; -175.000;  -19.000
215.770;  -91.825; -757.000; -662.000
215.915;  -27.050;   -5.000;  -97.000
216.060;    4.900; -113.000;  -21.000
216.205; -119.925; -731.000; -779.000
216.349;  -73.125; -470.000; -533.000
216.494; -142.025; -939.000; -867.000
216.639; -126.350; -823.000; -888.000
216.784;  -91.550; -577.000; -525.000
216.929;   39.825;  392.000;  281.000
217.073;  -18.725; -244.000;  -31.000
217.218;   10.900;   78.000;  -47.000
217.363; -101.950; -656.000; -618.000
217.507;  -84.350; -623.000; -588.000
217.652; -136.575; -845.000; -874.000
217.797;  -86.525; -708.000; -659.000
217.942; -113.675; -856.000; -720.000
218.086;   78.175;  608.000;  539.000
218.231;  -16.700; -174.000;  -26.000
218.376;  -26.950; -337.000; -229.000
218.520;    4.550;  -41.000;   96.000
218.665;  -51.275; -338.000; -204.000
218.810;  -53.675; -275.000; -233.000
218.954;   30.125;  201.000;   35.000
219.099; -122.075; -713.000; -963.000
219.243;  -69.250; -589.000; -554.000
219.388;  -38.250; -264.000; -136.000
219.532;   -7.150; -116.000; -116.000
219.677;  -73.875; -564.000; -521.000
219.822;   12.200;   33.000;   89.000
219.966;    3.575;   17.000;  -99.000
220.111;  -38.525; -328.000;  -40.000
220.255; -103.475; -797.000; -750.000
220.400;  -14.775; -180.000; -146.000
220.544;  -73.875; -516.000; -450.000
220.689;  -55.200; -422.000; -451.000
220.833;  -13.525; -123.000;  -58.000
220.978;  -43.650; -393.000; -563.000
221.122;    4.525;  319.000;  307.000
221.267; -116.075; -906.000; -837.000
221.411;  -61.475; -478.000; -394.000
221.555;   -6.950; -104.000;  -23.000
221.700;  -45.025; -329.000; -222.000
221.844;   32.000;  255.000;  272.000
221.989;  -58.525; -328.000; -311.000
222.133;  -31.200; -289.000; -307.000
222.277;  -13.750;    5.000;   78.000
222.422;   15.950;  227.000;  113.000
222.566;  -34.425; -381.000; -214.000
222.711;  -57.050; -414.000; -479.000
222.855;  -87.225; -643.000; -586.000
222.999;  -78.675; -642.000; -717.000
223.144;  -41.875; -195.000; -194.000
223.288;   50.375;  423.000;  251.000
223.432;    6.275;  184.000;  230.000
223.576;   23.475;  152.000;  -21.000
223.721;   35.850;  364.000;  273.000
223.865;  -59.400; -472.000; -475.000
224.009;  260.400; 1673.000; 1631.000
224.153;  -93.050; -660.000; -671.000
224.298;  -74.775; -531.000; -489.000
224.442;   -2.225;  -74.000;  -33.000
224.586;  -14.925; -169.000; -106.000
224.730;  -94.350; -858.000; -670.000
224.875; -117.800; -739.000; -688.000
225.019;   18.300;  102.000;  188.000
225.163;   48.475;  208.000;  341.000
225.307;   10.850;   97.000;  -91.000
225.451;   59.700;  360.000;  481.000
225.595;   35.800;  264.000;  176.000
225.739;  -23.575; -170.000;  -94.000
225.884;    6.325;   86.000;    5.000
226.028; -104.125; -760.000; -626.000
226.172;  -36.325; -260.000; -273.000
226.316; -126.575; -941.000; -902.000
226.460;  -68.425; -645.000; -493.000
226.604;  -52.750; -406.000; -400.000
226.748; -102.975; -836.000; -733.000
226.892;  -31.975; -227.000; -181.000
227.036;  -46.250; -537.000; -447.000
227.180;  -72.025; -551.000; -375.000
227.324;  -58.725; -561.000; -580.000
227.468; -115.775; -819.000; -717.000
227.612;   10.300;  242.000;  -28.000
227.756; -104.825; -845.000; -698.000
227.900;   53.050;  342.000;  441.000
228.044;  -56.225; -509.000; -290.000
228.188;   49.200;  448.000;  568.000
228.332; -100.175; -546.000; -472.000
228.476;  -40.525; -223.000; -149.000
228.620;  -44.550; -210.000; -150.000
228.764;   72.350;  431.000;  349.000
228.908;  -25.875; -155.000;   30.000
229.052;  -63.800; -615.000; -528.000
229.195;  -30.725; -172.000;   13.000
229.339;  -40.075; -235.000; -305.000
229.483;  -32.600;    5.000; -162.000
229.627;   -3.275; -156.000;  139.000
229.771;  -59.925; -218.000; -294.000
229.915;   13.375;  230.000;   79.000
230.059;  -84.750; -648.000; -663.000
230.202;  -41.925; -370.000; -317.000
230.346;  -14.900; -107.000;  107.000
230.490;  -62.425; -489.000; -521.000
230.634; -112.775; -736.000; -553.000
230.777;   79.750;  478.000;  509.000
230.921;  -67.200; -450.000; -359.000
231.065;  -41.000; -246.000; -286.000
231.209;   33.725;  261.000;  265.000
231.352;   21.350;   54.000;   40.000
231.496;   15.125;  568.000;  188.000
231.640;  -76.525; -693.000; -621.000
231.783;   65.600;  546.000;  525.000
231.927;  -50.100; -294.000; -365.000
232.071; -129.800; -962.000; -736.000
232.214; -106.225; -980.000; -764.000
232.358; -109.825; -683.000; -599.000
232.502;    7.225;  -19.000;    7.000
232.645; -150.050;-1090.000; -927.000
232.789;  -29.275; -257.000; -218.000
232.933;  -30.450; -407.000; -224.000
233.076; -128.350;-1038.000; -897.000
233.220; -118.475; -752.000; -777.000
233.363;  -71.775; -669.000; -477.000
233.507;   51.375;  371.000;  129.000
233.650;  -90.850; -764.000; -834.000
233.794;   45.550;  438.000;  461.000
233.938;  -59.075; -530.000; -362.000
234.081;  -14.225;  -93.000;   31.000
234.225;  -69.300; -631.000; -539.000
234.368; -114.875; -773.000; -723.000
234.512;  -35.275; -385.000; -299.000
234.655;  -97.025; -582.000; -555.000
234.798;  -64.325; -493.000; -466.000
234.942; -130.450; -884.000;-1002.000
235.085;  -82.450; -651.000; -443.000
235.229;  -78.675; -405.000; -410.000
235.372;  -39.050; -247.000; -191.000
235.516;  -58.925; -397.000; -321.000
235.659;   27.400;   92.000;  121.000
235.802;  -20.975;  -38.000;  -22.000
235.946;   36.125;  335.000;  215.000
236.089;   20.975;  126.000;  250.000
236.233;   56.325;  275.000;  298.000
236.376;  -60.450; -235.000; -378.000
236.519;  -22.900; -297.000; -319.000
236.663;  -31.375; -215.000; -117.000
236.806; -137.800;-1029.000; -999.000
236.949;   40.075;  543.000;  431.000
237.092;   70.475;  412.000;  391.000
237.236;  -94.125; -589.000; -502.000
237.379;   60.825;  352.000;  428.000
237.522; -119.550; -879.000; -768.000
237.666;  -17.725; -271.000;   18.000
237.809; -129.125; -851.000; -823.000
237.952;   54.775;  469.000;  271.000
238.095;  -78.425; -447.000; -442.000
238.238;  100.150;  688.000;  700.000
238.382;   -2.550;  166.000;  103.000
238.525;  -76.775; -598.000; -511.000
238.668; -143.275;-1060.000; -985.000
238.811;  -86.000; -638.000; -643.000
238.954;  -74.525; -483.000; -334.000
239.097;  100.125;  617.000;  664.000
239.241;    9.025;  394.000;  326.000
239.384;  -53.325; -254.000; -214.000
239.527;  -61.525; -424.000; -224.000
239.670; -152.400; -994.000;-1091.000
239.813; -105.450; -696.000; -658.000
239.956;   80.425;  579.000;  473.000
240.099; -128.725; -778.000; -725.000
240.242;   53.425;  428.000;  432.000
240.385;   48.225;  466.000;  450.000
240.528;  -73.675; -706.000; -473.000
240.671;   29.925;  189.000;  134.000
240.814;  -43.225; -441.000; -158.000
240.957; -107.700; -767.000; -578.000
241.100;  -89.850; -779.000; -755.000
241.243; -150.750;-1234.000; -893.000
241.386;  -59.900; -508.000; -379.000
241.529; -100.075; -735.000; -547.000
241.672;  -56.775; -566.000; -495.000
241.815; -129.825; -832.000; -808.000
241.958;  -19.875; -125.000; -182.000
242.101;  -95.250; -545.000; -390.000
242.244;  -41.275; -270.000; -325.000
242.387;  -46.225; -304.000; -246.000
242.530;   77.425;  470.000;  134.000
242.673;  -43.000; -381.000; -309.000
242.815; -113.950; -925.000; -899.000
242.958;  -80.025; -482.000; -381.000
243.101;   19.525;  132.000;  187.000
243.244;  -85.475; -564.000; -521.000
243.387;  -36.800; -313.000; -316.000
243.530; -105.500; -657.000; -674.000
243.672;   -3.775;   43.000;  -92.000
243.815;  -51.800; -355.000; -283.000
243.958;    2.625;   98.000;  -26.000
244.101;   -6.275;   59.000;  -16.000
244.243;   -8.450;  -47.000;  101.000
244.386; -108.775; -761.000; -630.000
244.529;  -16.475; -132.000; -139.000
244.672; -152.625;-1154.000; -951.000
244.814;  -96.400; -621.000; -794.000
244.957;  -63.125; -380.000; -304.000
245.100;  -76.625; -489.000; -489.000
245.242;  -73.975; -387.000; -374.000
245.385;  -11.225;  -59.000;  -39.000
245.528; -120.700; -871.000; -705.000
245.670;   94.750;  612.000;  634.000
245.813; -101.425; -599.000; -547.000
245.956;  -35.600; -324.000; -275.000
246.098;  -81.700; -508.000; -650.000
246.241;    6.950;  194.000;   48.000
246.383;  -13.425; -119.000;  -73.000
246.526;  -72.450; -454.000; -525.000
246.669; -122.225; -889.000; -780.000
246.811;    4.575;  172.000;   -1.000
246.954;  -68.650; -512.000; -426.000
247.096;  -23.300;  -84.000;   -6.000
247.239;  -65.200; -482.000; -445.000
247.381;  -76.125; -647.000; -488.000
247.524;   74.750;  645.000;  679.000
247.666;   -9.925;   58.000;   11.000
247.809; -126.925; -887.000; -691.000
247.951;   -7.750;  -75.000;  138.000
248.094;   32.150;  432.000;  308.000
248.236; -166.625;-1262.000;-1238.000
248.378;   -3.875; -356.000;  -81.000
248.521;  -21.125; -334.000; -337.000
248.663;  -39.625; -236.000; -267.000
248.806;  -33.250; -300.000; -266.000
248.948;  -86.850; -886.000; -763.000
249.090;  -50.325; -428.000; -398.000
249.233;  -42.950; -344.000; -381.000
249.375;  -66.300; -474.000; -451.000
249.518;  -18.725;  -83.000; -133.000
249.660;    2.675; -103.000;    3.000
249.802; -188.575;-1303.000;-1189.000
249.945;  -77.875; -612.000; -540.000
250.087; -120.550; -834.000; -768.000
250.229;  -43.350; -362.000; -480.000
250.371;  -81.625; -494.000; -439.000
250.514;  -54.850; -310.000; -244.000
250.656;   -8.850;   69.000;  102.000
250.798; -103.750; -849.000; -800.000
250.940;  -59.050; -322.000; -322.000
251.083;  -27.475; -335.000; -111.000
251.225;   42.475;  338.000;  310.000
251.367;  -38.425; -274.000; -373.000
251.509;  -28.475; -265.000; -210.000
251.651; -105.550; -731.000; -671.000
251.794;   54.750;  538.000;  632.000
251.936; -101.500; -821.000; -747.000
252.078;  -84.975; -540.000; -461.000
252.220;  -76.975; -645.000; -477.000
252.362;   95.350;  344.000;  462.000
252.504;  -57.025; -677.000; -584.000
252.646; -115.050; -875.000; -722.000
252.788;   10.250;   14.000; -128.000
252.931;  -35.975; -257.000; -253.000
253.073;  -36.975; -376.000; -317.000
253.215;  -11.325;  141.000;  122.000
253.357;  -15.950;   82.000; -153.000
253.499;  -66.750; -374.000; -234.000
253.641;  -89.575; -749.000; -594.000
253.783;  -99.300; -609.000; -527.000
253.925;  -90.600; -586.000; -591.000
254.067; -112.400; -744.000; -667.000
254.209;  -28.200; -391.000; -259.000
254.351; -133.575; -865.000; -883.000
254.493;  -56.450; -441.000; -417.000
254.635; -143.400; -936.000; -818.000
254.777;  -81.650; -752.000; -687.000
254.918;  -73.075; -512.000; -430.000
255.060;  -63.700; -551.000; -395.000
255.202;  -57.825; -473.000; -261.000
255.344;  -71.450; -658.000; -455.000
255.486;  -76.750; -471.000; -406.000
255.628; -100.375; -780.000; -781.000
255.770;  -87.075; -676.000; -536.000
255.912;  -61.875; -559.000; -468.000
256.053; -111.750; -730.000; -508.000
256.195;  151.100; 1008.000;  903.000
256.337;  -94.725; -861.000; -595.000
256.479;   67.800;  532.000;  416.000
256.621;  -52.225; -394.000; -212.000
256.762; -106.175; -789.000; -742.000
256.904;   62.350;  485.000;  487.000
257.046;  -44.225; -381.000; -271.000
257.188;  -51.875; -351.000; -264.000
257.329;  -88.225; -525.000; -464.000
257.471; -120.625; -939.000; -807.000
257.613;  -70.575; -584.000; -498.000
257.755; -160.000;-1073.000; -982.000
257.896;   38.600;  286.000;  392.000
258.038;  -89.375; -403.000; -352.000
258.180;  -44.075; -354.000; -279.000
258.321;  -81.325; -581.000; -457.000
258.463;    3.300;  -71.000;  133.000
258.605;  -84.750; -562.000; -570.000
258.746; -106.825; -886.000; -772.000
258.888; -159.975;-1026.000;-1020.000
259.029;   26.650;  121.000;   -8.000
259.171;  -94.025; -614.000; -550.000
259.313;   -6.450;  -49.000;  -47.000
259.454;  -79.500; -536.000; -414.000
259.596;  -57.775; -483.000; -390.000
259.737;  -84.075; -590.000; -474.000
259.879;   47.325;  217.000;  311.000
260.020;   75.100;  901.000;  636.000
260.162;  -32.175; -146.000; -253.000
260.303; -119.100; -768.000; -687.000
260.445;  -74.300; -609.000; -613.000
260.586;   14.100;  392.000;  157.000
260.728;  -33.875; -360.000; -248.000
260.869; -125.825; -350.000; -343.000
261.011;   82.750;  706.000;  537.000
261.152;  -64.850; -479.000; -319.000
261.293;  -78.700; -576.000; -595.000
261.435;  -37.075; -219.000; -184.000
261.576;  -58.000; -455.000; -325.000
261.718;   46.725;  420.000;  470.000
261.859; -125.125; -940.000; -949.000
262.000; -148.775; -951.000;-1016.000
262.142;  -20.575;  -52.000;  -60.000
262.283; -111.850; -808.000; -691.000
262.424;  -88.500; -666.000; -625.000
262.566; -153.850;-1161.000; -983.000
262.707; -118.325; -840.000; -830.000
262.848; -122.475; -769.000; -726.000
262.990;  -44.800; -362.000; -345.000
263.131;   67.125;  650.000;  681.000
263.272;  -13.975;  -61.000;  -41.000
263.413; -108.425; -589.000; -561.000
263.555;  -60.925; -669.000; -143.000
263.696;  -93.525; -550.000; -641.000
263.837;  -70.500; -449.000; -551.000
263.978;   -8.525;   -5.000;  -77.000
264.119;  -51.525; -283.000; -264.000
264.261; -123.225; -847.000; -630.000
264.402;   -6.700;   33.000;   40.000
264.543;  -80.025; -509.000; -524.000
264.684;    0.125;   61.000;  -50.000
264.825;  -73.325; -816.000; -538.000
264.966;   -4.225;  -84.000;  -67.000
265.107; -118.475; -646.000; -670.000
265.248; -120.475; -825.000; -812.000
265.390;   -4.925;  152.000;   -9.000
265.531;  -26.100; -238.000; -107.000
265.672;  -92.525; -557.000; -630.000
265.813;   56.200;  563.000;  439.000
265.954; -152.625; -959.000; -940.000
266.095;  -11.675; -372.000; -322.000
266.236; -101.900; -686.000; -548.000
266.377;  -40.375; -243.000; -297.000
266.518;  -71.425; -619.000; -547.000
266.659;   29.325;  170.000;  268.000
266.800;   22.050;   83.000;   85.000
266.941;  -68.250; -487.000; -478.000
267.082;   33.300;  354.000;   99.000
267.223;  -54.675; -344.000; -273.000
267.364; -133.925; -892.000; -686.000
267.504;  -15.300;    3.000;  135.000
267.645;   -7.450;  160.000;   67.000
267.786;  -21.025; -147.000;  -86.000
267.927;  -84.675; -473.000; -379.000
268.068;  -15.925; -186.000;  -61.000
268.209;  -61.000; -175.000; -413.000
268.350;  -64.525; -388.000; -532.000
268.490;  -94.650; -648.000; -521.000
268.631;   36.450;  127.000;  225.000
268.772; -111.450; -874.000; -647.000
268.913;  -51.050; -328.000; -476.000
269.054;  -12.275; -117.000;   12.000
269.194;  -51.325; -418.000; -402.000
269.335; -163.500;-1137.000;-1074.000
269.476;   -2.575;   33.000;  -35.000
269.617;  -50.100; -347.000; -392.000
269.757;  -84.350; -713.000; -646.000
269.898; -110.825; -856.000; -613.000
270.039;  -65.650; -415.000; -405.000
270.180; -137.525; -952.000; -816.000
270.320;  -33.550; -190.000; -250.000
270.461;  -52.525; -277.000; -249.000
270.602;   -7.525; -186.000; -156.000
270.742; -123.775; -868.000; -943.000
270.883;  -50.525; -442.000; -390.000
271.023;  -62.575; -358.000; -357.000
271.164;  -71.350; -607.000; -528.000
271.305; -106.625; -666.000; -654.000
271.445;  -81.375; -722.000; -683.000
271.586;  -71.475; -462.000; -283.000
271.726;  -38.925; -397.000; -322.000
271.867;  -73.675; -594.000; -534.000
272.008;  196.275; -473.000; -285.000
272.148;  142.875;  462.000;  468.000
272.289;   20.800; -113.000; -181.000
272.429;   20.750;   19.000;  185.000
272.570;  -85.375; -633.000; -737.000
272.710; -101.175; -825.000; -775.000
272.851;  -25.575;  113.000; -130.000
272.991; -164.750;-1173.000;-1077.000
273.131;  -70.425; -419.000; -459.000
273.272;  -99.825; -683.000; -723.000
273.412;    5.750; -143.000;  -31.000
273.553;  -51.225; -488.000; -507.000
273.693;  137.575;  913.000;  858.000
273.834;  -89.025; -894.000; -692.000
273.974;  -73.325; -664.000; -615.000
274.114; -108.500; -772.000; -560.000
274.255;   88.550;  414.000;  373.000
274.395;   24.100; -180.000; -125.000
274.535;   47.275;  199.000;  350.000
274.676;   20.025;  225.000;   94.000
274.816;    4.425;  110.000;   34.000
274.956;  -83.850; -624.000; -690.000
275.097;  -46.225;-1014.000; -922.000
275.237; -107.550; -913.000; -803.000
275.377;  -92.800; -778.000; -689.000
275.517; -156.575; -878.000; -937.000
275.658;  -57.675; -590.000; -555.000
275.798;  -71.975; -606.000; -413.000
275.938;   21.200;  215.000;  323.000
276.078; -108.775; -626.000; -395.000
276.218;   25.225;   99.000;  104.000
276.359; -133.900;-1026.000;-1024.000
276.499;  -72.975; -605.000; -446.000
276.639;  -34.000; -305.000; -151.000
276.779;  -54.575; -475.000; -357.000
276.919; -106.525; -783.000; -624.000
277.059;  -15.325; -261.000; -212.000
277.199;  -51.925; -357.000; -259.000
277.340;   56.150;  287.000;  175.000
277.480; -115.775; -840.000; -693.000
277.620;   34.400;  192.000;   16.000
277.760; -196.525;-1533.000;-1294.000
277.900;   27.750;  113.000;   33.000
278.040;   14.225;  137.000;  159.000
278.180;   32.125;  270.000;  170.000
278.320;   -0.075;   21.000;   56.000
278.460;  -73.575; -443.000; -469.000
278.600;  -97.650; -708.000; -598.000
278.740;   63.950;  448.000;  224.000
278.880;  -33.275; -768.000; -791.000
279.020;   16.500; -194.000; -144.000
279.160;  -97.900; -672.000; -595.000
279.300; -108.025; -926.000; -873.000
279.440;  -90.000; -709.000; -622.000
279.579;   -6.975;-1014.000; -929.000
279.719;  -45.925; -410.000; -394.000
279.859;   90.700;   -4.000;   41.000
279.999;   26.350; -208.000;  101.000
280.139;  -13.550; -435.000; -387.000
280.279;  -77.100; -708.000; -745.000
280.419;   -8.000; -229.000; -147.000
280.559;  -18.750; -259.000; -180.000
280.698;  -80.950; -790.000; -639.000
280.838;  -94.875; -778.000; -800.000
280.978; -106.300; -846.000; -790.000
281.118; -127.475; -811.000; -704.000
281.257;   17.125;   24.000;    6.000
281.397; -100.625;-1094.000; -960.000
281.537;  -93.225; -599.000; -712.000
281.677;  -21.225; -150.000; -101.000
281.816;  -86.100; -700.000; -630.000
281.956;  -45.250; -193.000; -257.000
282.096;  -55.375; -539.000; -396.000
282.235; -104.500; -672.000; -638.000
282.375;  -27.375; -243.000;  -98.000
282.515; -103.400; -715.000; -707.000
282.654;   27.700;   29.000;  106.000
282.794;   27.700;  388.000;  244.000
282.934;  -55.025; -530.000; -491.000
283.073; -133.375;-1030.000; -857.000
283.213;  -40.050; -460.000; -467.000
283.353;  -26.200; -408.000; -349.000
283.492;  -37.775; -264.000; -296.000
283.632;  -47.250; -254.000; -168.000
283.771;  -90.825; -859.000; -730.000
283.911;  -55.175; -369.000; -260.000
284.050; -102.325; -794.000; -748.000
284.190; -162.075;-1229.000;-1096.000
284.329; -129.875;-1055.000; -964.000
284.469;  -47.475; -516.000; -591.000
284.608;  -41.025; -559.000; -598.000
284.748;  -94.800; -614.000; -570.000
284.887;   -6.200;  -87.000;  -20.000
285.027; -144.625; -844.000; -892.000
285.166;  -26.925; -192.000; -249.000
285.306;   18.900; -116.000;  -33.000
285.445;  -32.450; -229.000; -343.000
285.584;  -97.025; -630.000; -494.000
285.724;  -37.725; -282.000; -322.000
285.863; -100.825; -857.000; -507.000
286.002;  -62.950; -366.000; -276.000
286.142; -104.275; -715.000; -622.000
286.281;  -63.725; -525.000; -493.000
286.420;  -78.975; -554.000; -417.000
286.560;  105.325;  653.000;  623.000
286.699; -144.500; -958.000; -912.000
286.838;  -76.550; -590.000; -591.000
286.978;  -97.300; -533.000; -537.000
287.117; -134.800;-1085.000; -950.000
287.256;  -33.450; -228.000; -211.000
287.395;  -43.625; -197.000; -378.000
287.535;  -52.650; -370.000; -298.000
287.674;  -87.575; -509.000; -484.000
287.813;   54.975;  661.000;  533.000
287.952; -122.350;-1010.000; -871.000
288.091; -143.950;-1049.000; -915.000
288.231;   16.100;   13.000;   15.000
288.370; -176.300;-1217.000;-1200.000
288.509;  -93.400; -728.000; -645.000
288.648; -103.050; -770.000; -548.000
288.787;  -22.250; -243.000;  -87.000
288.926;  -87.825; -454.000; -475.000
289.065;  143.500;  859.000;  672.000
289.204;  -51.050; -377.000; -217.000
289.344;  -81.575; -791.000; -690.000
289.483;   28.625;  416.000;  304.000
289.622;  -31.075; -291.000; -149.000
289.761;  -22.975; -309.000; -166.000
289.900; -103.250; -785.000; -626.000
290.039;  -14.425;  -12.000;  -95.000
290.178;  -42.325; -274.000; -180.000
290.317;  -84.750; -618.000; -479.000
290.456;  -56.600; -463.000; -451.000
290.595; -142.150; -961.000; -833.000
290.734; -124.800; -904.000; -891.000
290.873;  -68.500; -456.000; -420.000
291.011; -100.825; -833.000; -843.000
291.150; -114.025; -770.000; -682.000
291.289;  -27.450; -343.000; -110.000
291.428;  -87.850; -599.000; -480.000
291.567;  -47.875; -370.000; -442.000
291.706;  -27.150;  109.000;  154.000
291.845;  -84.975; -597.000; -505.000
291.984; -165.075;-1234.000;-1061.000
292.122;   69.225;  602.000;  582.000
292.261;   50.050;  620.000;  463.000
292.400;   11.825; -144.000;  211.000
292.539; -118.975; -959.000; -813.000
292.678;  -34.100; -325.000; -300.000
292.816; -153.000;-1136.000; -965.000
292.955;  -76.350; -844.000; -684.000
293.094;  -32.900; -173.000; -337.000
293.233;  -65.575; -556.000; -400.000
293.371;  -19.300; -225.000;  -84.000
293.510; -104.500; -866.000; -780.000
293.649; -126.475; -959.000; -924.000
293.787;  -40.875;-1083.000;-1012.000
293.926;   10.900; -113.000;  -32.000
294.065;  -38.550; -379.000; -290.000
294.203;   53.175;  298.000;  406.000
294.342;   29.975;   74.000;  156.000
294.481; 6999.425;51180.000; -836.000
294.619;  -23.625; -425.000; -582.000
294.758; -151.700;-1230.000;-1137.000
294.896;   99.250; -125.000;    5.000
295.035; -132.200;-1040.000;-1006.000
295.174; -108.950;-1082.000; -954.000
295.312;  -33.375; -323.000; -203.000
295.451;   -1.175; -307.000; -428.000
295.589;  -35.200; -389.000; -518.000
295.728;   31.125; -292.000; -165.000
295.866;   11.375;  -36.000;  -51.000
296.005;  -79.850; -584.000; -341.000
296.143;  -63.650; -558.000; -596.000
296.282;  -92.750; -957.000; -881.000
296.420;  -81.450; -657.000; -557.000
296.559;  -77.175; -892.000; -633.000
296.697;   47.650; -847.000; -665.000
296.835;  124.000;-1141.000;-1002.000
296.974;   78.550;  -23.000;   39.000
297.112;   35.900; -443.000; -504.000
297.251;  -59.000; -815.000; -755.000
297.389;  136.900; -576.000; -438.000
297.527;   55.375; -145.000;  -83.000
297.666;  -41.075; -486.000; -438.000
297.804;  -51.475; -404.000; -264.000
297.942;   -9.450; -136.000; -161.000
298.081;   -1.425; -183.000;   63.000
298.219;  110.975;  -17.000;  -19.000
298.357;   74.075; -144.000;  -71.000
298.495;   88.500; -810.000; -812.000
298.634;  107.300;  245.000;  219.000
298.772;   94.975; -220.000; -338.000
298.910;  -29.450; -309.000; -182.000
299.048;   -5.625; -130.000; -153.000
299.187;  -21.875; -350.000; -250.000
299.325;   41.350;   52.000;  122.000
299.463;   80.350; -389.000; -299.000
299.601;  163.200; -327.000; -271.000
299.739; -100.050; -908.000; -883.000
299.877;  -76.725; -791.000; -703.000
300.016;  -23.925;-1095.000; -935.000
300.154;  205.325;  -19.000; -161.000
300.292;   97.600; -428.000; -348.000
300.430;   63.975; -408.000; -291.000
300.568; -107.125; -940.000; -874.000
300.706;  -24.950; -366.000; -469.000
300.844;  -43.375;-1108.000; -979.000
300.982;  132.000;  246.000;  282.000
301.120; -104.650; -965.000; -866.000
301.258;  -63.775; -812.000; -705.000
301.396;   44.375;  104.000;  -41.000
301.534;  135.000; -218.000; -293.000
301.672;   27.625; -664.000; -521.000
301.810;   71.225; -613.000; -545.000
301.948;  166.000;   53.000;  149.000
302.086;  749.350; -250.000;  -32.000
302.224; 1228.350; -610.000; -585.000
302.362;   66.825; -558.000; -622.000
302.500;   18.875; -923.000; -893.000
302.638;  146.600;  128.000;  245.000
302.776;   12.750; -352.000; -408.000
302.913;   55.700;  447.000;  236.000
303.051;    3.075;  -86.000;  -23.000
303.189;   65.500;   90.000;  118.000
303.327;  -36.625; -341.000; -256.000
303.465;  -59.375; -832.000; -588.000
303.603;  -95.150; -805.000; -604.000
303.740;  128.075;  417.000;  241.000
303.878;   66.500; -800.000; -759.000
304.016;  -89.250; -915.000; -790.000
304.154; -128.800;-1123.000;-1152.000
304.291;  -29.125; -505.000; -554.000
304.429;   12.675;  102.000;   74.000
304.567; -129.475; -908.000; -893.000
304.705;  -44.700; -408.000; -515.000
304.842;  139.225; -616.000; -540.000
304.980;   70.700;  215.000;   35.000
305.118;   76.650; -367.000; -365.000
305.255;  -52.675; -945.000; -927.000
305.393;   71.750;  178.000;  239.000
305.531;  -90.575;-1173.000; -956.000
305.668;  -45.425; -663.000; -582.000
305.806;  129.075; -358.000; -439.000
305.943;  135.400; -629.000; -637.000
306.081;   78.575; -378.000; -267.000
306.219; -106.825; -863.000; -748.000
306.356;    6.175;  158.000;   27.000
306.494;  122.225;  981.000;  761.000
306.631;  -17.650;  -11.000;  -55.000
306.769;   27.625; -613.000; -485.000
306.906;  -10.825; -284.000; -258.000
307.044;  -65.975; -473.000; -488.000
307.181;  -65.175; -410.000; -332.000
307.319;    1.100;  112.000;   87.000
307.456; -188.425;-1191.000;-1153.000
307.594;  -90.100; -980.000; -727.000
307.731;   -4.975; -371.000; -164.000
307.868;   -0.875;  -15.000;   20.000
308.006; -151.725; -961.000; -847.000
308.143;  -53.775; -618.000; -330.000
308.281;  148.150;  -37.000; -254.000
308.418;  -18.325; -748.000; -640.000
308.555;  -73.675; -400.000; -250.000
308.693;  -65.725; -577.000; -573.000
308.830; -113.075; -712.000; -657.000
308.967;  -20.450; -215.000;  -95.000
309.105;  -50.850; -507.000; -396.000
309.242;   26.675; -468.000; -367.000
309.379;  294.975; -577.000; -655.000
309.517;  -63.275; -936.000; -948.000
309.654; -119.425; -910.000; -734.000
309.791;  -58.425; -662.000; -580.000
309.928; -120.950; -977.000; -914.000
310.065;  211.650;  819.000;  697.000
310.203;   23.000; -825.000; -850.000
310.340;   20.750; -465.000; -321.000
310.477;  -85.900; -412.000; -516.000
310.614;  -60.150; -383.000; -473.000
310.751;  -69.775; -427.000; -518.000
310.889;  -27.225;    1.000;   11.000
311.026; -150.225;-1161.000; -939.000
311.163;  -49.325; -386.000; -380.000
311.300;  -72.375; -512.000; -479.000
311.437;  -83.175; -658.000; -619.000
311.574; -156.900;-1226.000; -985.000
311.711;  -62.400; -595.000; -433.000
311.848;  -48.350; -380.000; -388.000
311.985;   23.800;  270.000;   93.000
312.122; -113.725; -932.000; -762.000
312.259; -116.425; -941.000; -994.000
312.396;  -85.225; -508.000; -551.000
312.533;  -83.950; -812.000; -790.000
312.670; -123.300;-1070.000; -898.000
312.807;  -32.825; -352.000; -367.000
312.944;  -64.975; -513.000; -611.000
313.081;  -38.000; -150.000; -415.000
313.218; -106.275;-1111.000; -867.000
313.355;   26.325; -531.000; -449.000
313.492;    3.900; -455.000; -292.000
313.629;  155.475;  815.000;  735.000
313.766; -154.125;-1176.000;-1008.000
313.902;  -18.800; -186.000;   21.000
314.039;  -55.025; -372.000; -289.000
314.176;   23.025;  286.000;  192.000
314.313;  -68.450; -569.000; -473.000
314.450;  -54.775; -788.000; -684.000
314.587;  -50.075; -468.000; -480.000
314.723;   12.750;  -78.000;  130.000
314.860;   16.725;  318.000;  332.000
314.997;   44.675;  223.000;  142.000
315.134;  -30.025; -385.000; -368.000
315.270;   -9.750; -480.000; -496.000
315.407; -120.175;-1094.000; -967.000
315.544;  -46.750; -657.000; -538.000
315.681;  -63.725; -681.000; -565.000
315.817;   47.725; -133.000; -176.000
315.954;   32.775; -613.000; -392.000
316.091; -119.825;-1045.000;-1023.000
316.227;  -20.950;  -71.000; -179.000
316.364;    3.125;   23.000;    6.000
316.500;  -53.700; -113.000; -300.000
316.637;  -32.125; -181.000; -302.000
316.774;  -74.950; -625.000; -358.000
316.910;  -81.125; -598.000; -629.000
317.047;  -69.250; -487.000; -351.000
317.183;  -51.775; -435.000; -566.000
317.320;  -29.300; -367.000; -321.000
317.456;  -63.675; -733.000; -805.000
317.593;  -91.300; -598.000; -641.000
317.729;   22.175;  168.000;  -67.000
317.866; -207.100;-1434.000;-1285.000
318.002;  -74.475; -708.000; -948.000
318.139;  -77.725; -883.000; -867.000
318.275;  -86.450;-1003.000; -738.000
318.412;  -65.250; -517.000; -336.000
318.548;  -26.450; -751.000; -720.000
318.685;  -84.175; -985.000; -888.000
318.821; -102.325; -762.000; -735.000
318.957;  -18.775;   34.000;  -23.000
319.094;   32.225;  297.000;  154.000
319.230;  -56.925; -756.000; -742.000
319.367;  178.525; -471.000; -520.000
319.503;   82.425; -538.000; -436.000
319.639;  -89.800; -877.000; -793.000
319.775;  -45.075; -750.000; -685.000
319.912;  -36.950; -424.000; -519.000
320.048;  -83.075;-1184.000;-1184.000
320.184;   76.150;   59.000;   70.000
320.321;  -62.375; -497.000; -467.000
320.457;   67.250;  475.000;  662.000
320.593;  -62.875; -375.000; -382.000
320.729; -107.900; -732.000; -734.000
320.866;  -82.525; -577.000; -635.000
321.002;  -66.800; -759.000; -809.000
321.138;   -9.100; -135.000; -211.000
321.274;   85.325; -148.000; -115.000
321.410;   -1.575; -585.000; -353.000
321.546;    4.050;-1011.000; -911.000
321.683;   63.625;  400.000;  185.000
321.819;   21.000;  -48.000; -117.000
321.955; -113.775; -743.000; -722.000
322.091;  -33.075; -585.000; -540.000
322.227;  -15.250; -382.000; -202.000
322.363;   -0.775; -320.000; -215.000
322.499;  -34.850; -343.000; -331.000
322.635;  172.550;  636.000;  443.000
322.771;   42.950; -139.000;   12.000
322.907;  108.300;  129.000;  327.000
323.043;  -18.675; -115.000; -206.000
323.179;  -25.200; -394.000; -363.000
323.315;   59.275; -401.000; -371.000
323.451;  150.100; -328.000; -236.000
323.587;   89.325;  -60.000;  -77.000
323.723;   50.300; -682.000; -601.000
323.859;  -11.875; -258.000;  -76.000
323.995;  -21.250; -467.000; -409.000
324.131; -126.500; -967.000; -892.000
324.267;  -36.925; -254.000; -276.000
324.402; -120.275; -960.000; -983.000
324.538;   -8.725; -279.000; -104.000
324.674;   35.950;  164.000;   77.000
324.810;  164.950;  226.000;  308.000
324.946;   31.275; -810.000; -658.000
325.082;  -59.925; -568.000; -475.000
325.217;  -20.800;  -62.000;   16.000
325.353;  -93.175; -764.000; -659.000
325.489;  -87.625; -540.000; -506.000
325.625;  -71.925; -579.000; -525.000
325.760;   54.475;  517.000;  376.000
325.896;  -31.375; -515.000; -702.000
326.032;  -55.325; -403.000; -352.000
326.168;  -61.325; -462.000; -369.000
326.303;  -53.675; -352.000; -461.000
326.439;  -17.600; -336.000; -276.000
326.575;    7.475; -190.000;  -29.000
326.710;   10.250; -156.000;  -30.000
326.846;  -24.625;  146.000;  103.000
326.982;  -87.450; -530.000; -548.000
327.117;  -78.250; -481.000; -442.000
327.253;  -86.875; -745.000; -742.000
327.388; -160.975;-1137.000;-1153.000
327.524;  -44.650; -811.000; -578.000
327.659;  -26.125;  -58.000;  -22.000
327.795;  -10.800;   69.000;   45.000
327.931;  -91.850; -723.000; -499.000
328.066;  -18.750; -417.000; -276.000
328.202;  -15.000;   12.000; -129.000
328.337;  116.625;  957.000;  713.000
328.473;   32.850;  -12.000;  -74.000
328.608;  -25.250; -256.000; -267.000
328.743;  -88.600; -799.000; -664.000
328.879;   20.775;  214.000;  114.000
329.014;  -37.550; -102.000; -122.000
329.150;  -73.375; -358.000; -483.000
329.285;  -71.550; -465.000; -466.000
329.421;  -48.400; -548.000; -246.000
329.556;  -29.550;  -36.000;   85.000
329.691;  -88.200; -633.000; -615.000
329.827;  -98.975; -626.000; -480.000
329.962;  -41.400;  131.000; -301.000
330.097;  -95.250; -673.000; -585.000
330.233;  -47.125; -410.000; -223.000
330.368; -137.675; -839.000; -628.000
330.503;  -18.625;    3.000;   98.000
330.638;   20.350;  -93.000; -125.000
330.774;  -41.000; -609.000; -530.000
330.909;  -47.900; -434.000; -244.000
331.044;  -88.450; -714.000; -708.000
331.179; -179.250;-1217.000;-1109.000
331.315;   16.950;   77.000;   20.000
331.450;   17.000;  157.000;  285.000
331.585;  -78.725; -805.000; -706.000
331.720;  -93.075; -510.000; -460.000
331.855;   -2.750;  -35.000; -102.000
331.990;  218.150;   62.000;  138.000
332.126;  108.300; -110.000;   71.000
332.261;  -28.675; -379.000; -265.000
332.396;    1.325; -135.000; -242.000
332.531; -115.475;-1074.000;-1031.000
332.666;   18.525; -519.000; -363.000
332.801; -100.825; -726.000; -807.000
332.936;  -23.625; -192.000; -122.000
333.071; -124.700; -870.000; -817.000
333.206;   30.425;  307.000;  379.000
333.341;   33.475;  344.000;  418.000
333.476;  -74.950; -627.000; -623.000
333.611;  -34.175; -251.000; -173.000
333.746;  -17.950; -381.000; -464.000
333.881; -106.825; -973.000; -935.000
334.016; -106.875; -936.000; -917.000
334.151; -119.150; -746.000; -702.000
334.286;   38.025;  152.000;  186.000
334.421;  -14.050; -125.000; -178.000
334.556;  -55.900; -611.000; -567.000
334.690;  -77.075; -631.000; -577.000
334.825;   68.025;  381.000;   83.000
334.960;  -38.575; -285.000; -413.000
335.095;   21.550;  135.000;  -91.000
335.230;  -82.475; -722.000; -738.000
335.365; -118.150;-1084.000; -990.000
335.499; -115.925;-1108.000;-1037.000
335.634;   32.925;    9.000;  534.000
335.769;  -96.100; -755.000; -720.000
335.904;  -59.625; -603.000; -561.000
336.038;  -49.625; -735.000; -657.000
336.173;  -85.425;-1206.000;-1194.000
336.308;   23.100; -116.000; -189.000
336.443;   10.975; -544.000; -634.000
336.577;  -38.950; -936.000; -787.000
336.712;   97.750;   -4.000;  -12.000
336.847;   -8.675; -724.000; -607.000
336.981;  112.425; -272.000; -208.000
337.116;  357.850;  615.000;  501.000
337.250;  219.925; -434.000; -421.000
337.385;  209.575; -297.000; -208.000
337.520;   62.675; -632.000; -603.000
337.654;  -32.450; -215.000; -126.000
337.789; -129.250; -989.000; -933.000
337.923;  -41.475; -104.000; -205.000
338.058;  -73.200; -673.000; -738.000
338.192;  -24.700; -611.000; -488.000
338.327;    4.150;  -18.000; -155.000
338.461;  -58.325; -299.000; -469.000
338.596;  -87.175; -780.000; -638.000
338.730; -104.250; -767.000; -803.000
338.865;   71.925;  -46.000; -140.000
338.999;  -74.600; -846.000; -702.000
339.134;  -37.650; -634.000; -536.000
339.268;    5.575; -741.000; -603.000
339.403;  327.825; -740.000; -775.000
339.537;   83.775; -894.000; -820.000
339.671; -113.475; -829.000; -813.000
339.806;  -75.350; -556.000; -512.000
339.940;   -1.150; -261.000; -235.000
340.074; -111.700; -685.000; -510.000
340.209;  -36.675; -351.000; -230.000
340.343;  -93.400; -517.000; -573.000
340.477;  170.050;  998.000; 1036.000
340.612;  -72.275;-1033.000; -900.000
340.746;  111.850; -199.000; -243.000
340.880;  -63.650; -924.000; -785.000
341.014;  -23.725;  -45.000; -154.000
341.149; -111.950; -756.000; -718.000
341.283; -103.650; -839.000; -754.000
341.417;  -84.475;-1124.000; -938.000
341.551;  204.650; -768.000; -708.000
341.685;  -19.400; -633.000; -611.000
341.820;  -64.625; -562.000; -493.000
341.954;  -58.275; -218.000; -349.000
342.088; -152.875;-1102.000;-1019.000
342.222;   46.550;  565.000;  618.000
342.356;  -48.800; -395.000; -335.000
342.490;  -86.875; -880.000; -841.000
342.624;  -28.175; -339.000; -242.000
342.758;   10.775; -364.000; -312.000
342.892;  -53.950; -710.000; -585.000
343.026;  -42.875;  -58.000; -116.000
343.160;  -51.950; -426.000; -376.000
343.294;  -81.150; -474.000; -337.000
343.428;   -6.525; -488.000; -448.000
343.562;   -6.200; -172.000;  -23.000
343.696;   -7.775; -385.000; -314.000
343.830;  -22.900; -362.000; -356.000
343.964;   29.925; -231.000; -168.000
344.098; 1176.850;  199.000;   70.000
344.232; 1007.075; -266.000; -127.000
344.366;  106.050; -567.000; -453.000
344.500;  100.925; -665.000; -744.000
344.634;   54.250; -324.000; -164.000
344.768;   15.825; -531.000; -341.000
344.902;   40.075;  278.000;  256.000
345.035;  -79.250; -556.000; -496.000
345.169; -132.025; -933.000; -656.000
345.303;  -14.400; -308.000; -482.000
345.437;  -59.500; -826.000; -717.000
345.571;  -62.650; -675.000; -594.000
345.704;  -58.575; -309.000; -532.000
345.838;   -5.200; -331.000; -284.000
345.972;  -20.750; -543.000; -495.000
346.106;  142.200; -179.000; -190.000
346.239;  456.400; -312.000; -243.000
346.373;   22.925; -343.000; -302.000
346.507; -151.350; -950.000; -962.000
346.640;  203.200;  -30.000;   13.000
346.774;  -31.975; -650.000; -797.000
346.908;  -19.250; -138.000;  -11.000
347.041; -102.725; -646.000; -593.000
347.175;   17.050;  259.000;   27.000
347.309;  -71.475; -698.000; -628.000
347.442;  -87.700; -883.000; -732.000
347.576;  349.525;  670.000;  668.000
347.709;  270.550; -123.000;  -52.000
347.843;  -74.450; -933.000; -825.000
347.976;   53.975;  235.000;  294.000
348.110; -182.900;-1268.000;-1186.000
348.243; -103.000; -679.000; -772.000
348.377;    2.350;  -26.000;   60.000
348.510;   70.100;  403.000;  540.000
348.644;  -23.325;  -37.000; -159.000
348.777;    7.675;  180.000;  191.000
348.911;  -47.650; -142.000; -112.000
349.044;  194.150;  471.000;  448.000
349.178;  237.500;-1069.000;-1006.000
349.311;  126.600;  141.000;  255.000
349.444;  -17.650; -927.000; -813.000
349.578;    4.625; -347.000; -200.000
349.711;  -83.450; -959.000; -862.000
349.845;   19.375; -661.000; -591.000
349.978; -142.325;-1224.000;-1137.000
350.111;  -79.950; -546.000; -612.000
350.244;  -62.875; -596.000; -700.000
350.378;   29.100; -392.000; -393.000
350.511;  -66.875; -393.000; -426.000
350.644; -102.650; -808.000; -806.000
350.778;    9.750;  168.000;  104.000
350.911;   13.125;  134.000;  140.000
351.044;  -91.700; -685.000; -615.000
351.177;  -26.025; -321.000; -281.000
351.310;  -24.225;    3.000; -131.000
351.444;  -47.875; -888.000; -788.000
351.577;  142.175;  140.000;   90.000
351.710;  117.200;  593.000;  417.000
351.843;  -34.800; -165.000;  -77.000
351.976;   -0.300;  149.000;  -79.000
352.109;  -94.675; -621.000; -612.000
352.242;   -6.825; -464.000; -419.000
352.376;  -40.550; -580.000; -636.000
352.509;  263.400; -437.000; -356.000
352.642;   73.900; -654.000; -604.000
352.775;   96.150; -141.000;  -98.000
352.908; -107.900; -933.000; -904.000
353.041; -101.275; -814.000; -824.000
353.174;  -51.650; -551.000; -424.000
353.307;  -70.200; -753.000; -764.000
353.440;   79.475;  541.000;  453.000
353.573; -109.000; -957.000;-1008.000
353.706;  -53.500; -384.000; -558.000
353.839;   -1.375; -264.000; -220.000
353.971;  -96.200; -657.000; -512.000
354.104;  -78.250; -896.000; -835.000
354.237;  -17.250; -627.000; -662.000
354.370;  -72.250; -846.000; -879.000
354.503; -174.000;-1231.000;-1308.000
354.636;  -30.150; -529.000; -348.000
354.769; -103.125; -937.000; -860.000
354.902;   -3.200; -230.000; -139.000
355.034;    0.875; -164.000; -220.000
355.167;  -23.050; -262.000; -162.000
355.300;  -97.300;-1061.000; -880.000
355.433;  883.150;  -71.000;  -14.000
355.565; 1356.925; -402.000; -384.000
355.698;  350.375; -356.000; -296.000
355.831;    0.850; -882.000; -801.000
355.964;  113.300; -285.000; -170.000
356.096;  -61.700; -856.000; -843.000
356.229;   39.275; -523.000; -530.000
356.362;  299.200; -373.000; -266.000
356.494;  542.425; -229.000; -162.000
356.627;  574.400;  269.000;  377.000
356.760;  617.175;  120.000;   53.000
356.892;  845.950; -286.000; -601.000
357.025;  799.425;  403.000;  389.000
357.157;  799.475; -167.000; -179.000
357.290;  571.725; -856.000; -713.000
357.423;  168.300; -667.000; -556.000
357.555;  146.225; -217.000; -228.000
357.688;  171.525; -483.000; -364.000
357.820;  571.475; -870.000; -877.000
357.953; 4432.575; -563.000; -589.000
358.085; 1011.450; -632.000; -612.000
358.218; 1632.500;-1131.000; -932.000
358.350;  299.150;  -58.000;  312.000
358.483; -119.425;-1300.000;-1187.000
358.615;   28.100;-1182.000;-1078.000
358.747;  -12.250;-1187.000;-1058.000
358.880;   62.650; -810.000; -744.000
359.012;   10.325; -376.000; -202.000
359.145;  -23.750; -480.000; -511.000
359.277;   94.550; -962.000; -913.000
359.409; 3689.800;  536.000;  231.000
359.542;  975.675; -738.000; -688.000
359.674;   93.900;   46.000;   13.000
359.806;  -72.125; -565.000; -438.000
359.939;  -64.300; -617.000; -516.000
360.071;  -41.500; -583.000; -579.000
360.203;  -14.350; -411.000; -364.000
360.335;   64.125;  164.000;  -16.000
360.468;  228.025; -249.000; -307.000
360.600; 2871.150; -547.000; -454.000
360.732; 2492.800; -546.000; -423.000
360.864;  349.600;-1216.000;-1044.000
360.996;  384.750; -516.000; -554.000
361.129;   79.425; -389.000; -598.000
361.261;   33.350;  110.000; -113.000
361.393;  -14.575; -252.000; -214.000
361.525;   44.625;   94.000;  244.000
361.657;  -36.300; -821.000; -703.000
361.789;   31.200; -139.000; -155.000
361.921;  342.025; -642.000; -593.000
362.053;  332.575;  524.000;  541.000
362.185;   68.850;  288.000;   72.000
362.318;  -59.250; -709.000; -705.000
362.450;  177.775;  294.000;  444.000
362.582;  240.425; -913.000; -870.000
362.714;  -18.575; -353.000; -332.000
362.846;  -71.050; -606.000; -490.000
362.978; -136.300; -941.000; -811.000
363.109;   94.550; -161.000; -260.000
363.241;  561.575; -739.000; -749.000
363.373;  405.300; -649.000; -564.000
363.505;  546.350; -186.000;  -91.000
363.637;  147.300; -787.000; -601.000
363.769; -108.025;-1067.000;-1080.000
363.901;  -67.225; -596.000; -654.000
364.033; -117.575;-1103.000;-1062.000
364.165;   25.375; -283.000; -283.000
364.296;   68.575; -316.000; -177.000
364.428;   58.675;-1344.000;-1220.000
364.560;  -77.700; -679.000; -661.000
364.692;  -39.750; -738.000; -835.000
364.824;  385.450; -588.000; -456.000
364.955;  449.750; -402.000; -564.000
365.087;  726.400;-1097.000; -852.000
365.219;   19.050; -686.000; -816.000
365.351;  -66.050; -526.000; -572.000
365.482;   63.500;  300.000;  240.000
365.614;  -43.675; -402.000; -314.000
365.746; -100.550; -729.000; -752.000
365.877; -117.075; -706.000; -672.000
366.009;  233.000;  -35.000;  -62.000
366.141; -122.725;-1249.000;-1134.000
366.272; -109.425; -803.000; -719.000
366.404; -110.250;-1005.000; -874.000
366.535;   -4.900; -139.000;  -12.000
366.667; -105.925; -644.000; -649.000
366.799;   46.050;  353.000;  203.000
366.930; -113.525; -862.000; -996.000
367.062;  119.375; -639.000; -613.000
367.193;   99.700; -872.000; -842.000
367.325;  -62.875; -580.000; -684.000
367.456;  125.075; -246.000;   31.000
367.588;  165.700; -371.000; -318.000
367.719;   17.375;  -44.000;  -45.000
367.851;   -3.875; -222.000; -241.000
367.982;  -23.700; -875.000; -732.000
368.113;  161.075; -475.000; -358.000
368.245; -115.300; -960.000; -841.000
368.376;   -6.125; -254.000; -302.000
368.508;  -22.675; -188.000; -263.000
368.639; -119.325;-1166.000;-1034.000
368.770;    3.675; -670.000; -589.000
368.902;  -47.950; -836.000; -926.000
369.033; -106.925; -906.000; -855.000
369.164;  -49.425; -720.000; -653.000
369.296; -112.600; -452.000; -601.000
369.427;    7.450; -209.000; -144.000
369.558;  -39.100; -593.000; -377.000
369.689;  -79.575; -721.000; -569.000
369.821; -133.925; -951.000; -845.000
369.952;  -14.025;   42.000; -108.000
370.083;  -40.050; -229.000; -108.000
370.214;  -67.175; -735.000; -650.000
370.345;   -9.450;   65.000;   81.000
370.477;  -73.775; -810.000; -790.000
370.608;  310.200; -328.000; -264.000
370.739;  -14.775;-1233.000;-1292.000
370.870;   -2.650;-1102.000; -923.000
371.001;  132.575; -378.000; -467.000
371.132;  -70.425; -754.000; -735.000
371.263;   -3.400;  -42.000; -148.000
371.394; -131.950; -841.000; -748.000
371.525;   41.050;  345.000;  225.000
371.657;  -77.750; -808.000; -670.000
371.788;   97.000;  103.000;  199.000
371.919;  247.700; -384.000; -304.000
372.050; 4592.525;  -91.000; -156.000
372.181; 1357.500; -188.000; -294.000
372.311;  486.000;   42.000; -127.000
372.442;   76.475; -457.000; -451.000
372.573;   -4.200; -444.000; -340.000
372.704; -116.475;-1008.000; -980.000
372.835;  126.550; -228.000; -289.000
372.966;  -55.825; -646.000; -554.000
373.097;  -52.125; -575.000; -711.000
373.228;  -36.725; -717.000; -542.000
373.359;  228.100; -824.000; -536.000
373.490; 1262.075; -881.000; -727.000
373.620; 1558.300;-1001.000; -803.000
373.751; 2376.125; -332.000; -396.000
373.882; 1055.400; -663.000; -733.000
374.013;  116.650; -449.000; -262.000
374.143;  -22.725; -581.000; -659.000
374.274;  -88.675; -987.000; -908.000
374.405;  222.200; -388.000; -276.000
374.536;  615.500; -526.000; -387.000
374.666; 1532.875; -759.000; -807.000
374.797;  338.900; -817.000; -868.000
374.928; 1196.900; -710.000; -560.000
375.058; 1168.600; -535.000; -500.000
375.189;  129.825;  -59.000;  -93.000
375.320;  -86.350; -928.000;-1034.000
375.450;  -34.475; -625.000; -616.000
375.581;  -47.325; -526.000; -436.000
375.712;  -29.200; -574.000; -250.000
375.842;  423.725; -438.000; -415.000
375.973;  317.875; -554.000; -513.000
376.103;  -21.075; -665.000; -648.000
376.234;  -68.400; -531.000; -552.000
376.364;    2.100; -944.000; -867.000
376.495;  400.850;  925.000;  529.000
376.625;   20.475; -472.000; -485.000
376.756;  119.850; -709.000; -678.000
376.886;  -40.400;-1178.000;-1026.000
377.017;   30.125;-1048.000;-1061.000
377.147;  272.075; -786.000; -782.000
377.278;   68.725;  174.000;  228.000
377.408; -127.725; -801.000; -815.000
377.538; -107.275; -707.000; -693.000
377.669;  -71.800; -537.000; -613.000
377.799;  -73.125; -645.000; -635.000
377.929;  -41.125; -610.000; -428.000
378.060; -121.000; -781.000; -847.000
378.190;  -68.300; -726.000; -531.000
378.320;  -45.800; -401.000; -406.000
378.451;   -7.550; -131.000;  -22.000
378.581;    9.225;  -67.000; -110.000
378.711;  182.400; 1035.000;  866.000
378.841;   12.925; -533.000; -675.000
378.972;  -56.675; -871.000; -751.000
379.102;   34.500; -652.000; -579.000
379.232;   -3.625; -126.000;  -73.000
379.362;  -89.450;-1001.000; -885.000
379.492;   36.025; -373.000; -424.000
379.623;  150.225;    0.000;  111.000
379.753;  -75.450;-1107.000; -974.000
379.883;  268.225;   59.000;  156.000
380.013;   54.925;-1081.000;-1017.000
380.143;  -72.200;-1097.000;-1056.000
380.273;  -90.850; -985.000; -861.000
380.403;   10.475; -344.000; -257.000
380.533;    6.025; -651.000; -664.000
380.663;  101.525;  173.000;  128.000
380.793;  -69.800;-1027.000;-1074.000
380.923;   -6.775; -103.000;  -34.000
381.053;  -99.825; -613.000; -623.000
381.183;  -19.950; -106.000; -248.000
381.313;   69.350; -656.000; -470.000
381.443;   95.500; -692.000; -473.000
381.573;  302.250; -402.000; -409.000
381.703;  433.500;-1249.000;-1095.000
381.833; -116.700;-1454.000;-1336.000
381.963;  145.475; -134.000;  -87.000
382.093; 1776.900; -925.000; -909.000
382.223;  553.950; -713.000; -602.000
382.353;    6.275; -801.000; -608.000
382.482;  554.575;-1091.000; -964.000
382.612; 1017.850; -872.000; -644.000
382.742;  562.275; -695.000; -622.000
382.872;  389.100; -565.000; -551.000
383.002;   73.125;  347.000; -132.000
383.131;  -18.225; -226.000; -160.000
383.261;  -34.875; -706.000; -768.000
383.391;  315.925; -552.000; -377.000
383.521; 2747.350;  451.000;  263.000
383.650;  580.975; -947.000; -904.000
383.780;  -18.725; -783.000; -656.000
383.910;  126.250;  880.000;  802.000
384.039;   69.825; -794.000; -656.000
384.169;  328.925;-1205.000;-1017.000
384.299;    2.550; -650.000; -662.000
384.428;  -90.600; -764.000; -680.000
384.558;  -33.175; -308.000; -275.000
384.687;  -34.450; -414.000; -334.000
384.817;   24.450;   75.000;   -2.000
384.947;   44.700; -234.000; -141.000
385.076;  344.225;  982.000;  912.000
385.206;  128.550;  369.000;  480.000
385.335;  -21.500; -549.000; -417.000
385.465;  -67.500; -655.000; -663.000
385.594;  195.025;  -53.000;  -44.000
385.724;  597.775; -868.000; -838.000
385.853;  181.850; -296.000; -270.000
385.982; 1835.800; -743.000; -787.000
386.112; 2787.500;-1052.000; -871.000
386.241;  188.400; -307.000; -312.000
386.371;   36.300; -174.000;  -87.000
386.500;   27.950; -825.000; -789.000
386.629;   37.475; -874.000; -817.000
386.759;   72.450;  -43.000;   68.000
386.888;   15.175; -170.000; -250.000
387.017;  -62.200; -648.000; -620.000
387.147;  -73.975; -771.000; -798.000
387.276;   21.625; -410.000; -397.000
387.405;   40.225; -398.000; -342.000
387.535;  -28.000; -452.000; -361.000
387.664;  -42.075; -692.000; -620.000
387.793;   93.075; -198.000; -113.000
387.922;  702.450;  255.000;  200.000
388.052;   59.400; -576.000; -423.000
388.181;   67.625; -342.000; -472.000
388.310;   73.575; -889.000; -710.000
388.439;   -2.550; -749.000; -742.000
388.568;  259.975;  365.000;  244.000
388.697; 1425.025; -756.000; -653.000
388.826;  303.725; -768.000; -666.000
388.956;  103.800; -285.000; -307.000
389.085;  -26.150; -347.000; -287.000
389.214; -103.325; -842.000; -872.000
389.343;  -54.350; -645.000; -413.000
389.472;  375.050;  126.000;  149.000
389.601;  525.550;   91.000;    0.000
389.730;   28.450; -568.000; -687.000
389.859;   89.925;  226.000;   46.000
389.988;  278.150; -423.000; -408.000
390.117;  192.150; -168.000; -146.000
390.246;   21.800; -331.000; -320.000
390.375;  164.875; -673.000; -626.000
390.504;  -43.825; -703.000; -621.000
390.633;  -71.450; -672.000; -726.000
390.761;  -44.575; -732.000; -645.000
390.890;   51.075;   -4.000; -130.000
391.019;  -36.125; -421.000; -441.000
391.148; -120.325; -826.000; -855.000
391.277;  -49.325; -576.000; -493.000
391.406;  -51.400; -821.000; -805.000
391.534;   37.975;  574.000; -301.000
391.663;  -52.325; -583.000; -645.000
391.792;  -73.650; -673.000; -701.000
391.921;  150.625;   -3.000;   15.000
392.050;  298.525; -287.000; -228.000
392.178;   15.900;-1206.000;-1061.000
392.307;  233.925; -758.000; -712.000
392.436;  121.475; -427.000; -641.000
392.564;   30.675;  166.000;   -6.000
392.693;  -81.425; -860.000; -682.000
392.822;  305.225; -529.000; -534.000
392.950;  159.550; -880.000; -714.000
393.079;  448.350; -188.000; -328.000
393.208;   49.975; -488.000; -511.000
393.336;    1.050; -170.000; -145.000
393.465;  -66.200; -317.000; -199.000
393.593;   12.525;   62.000;   79.000
393.722; -154.150;-1121.000; -916.000
393.850;  -41.050; -188.000;  -61.000
393.979; -151.400; -926.000; -805.000
394.107;  -44.225; -517.000; -537.000
394.236;   -1.925; -570.000; -507.000
394.364;  216.925;  383.000;  206.000
394.493;  331.450; -911.000; -767.000
394.621;  -26.075; -955.000; -916.000
394.750;  634.500; -873.000; -923.000
394.878; 2657.375; -247.000; -149.000
395.007; 3531.850; -721.000; -807.000
395.135;  244.975; -790.000; -721.000
395.263;  -91.600;-1038.000;-1040.000
395.392;    1.850;  -25.000; -107.000
395.520; -160.800; -818.000; -679.000
395.648;  -60.925; -865.000; -915.000
395.777;    9.525; -366.000; -405.000
395.905;  -36.500; -449.000; -564.000
396.033;   15.900;  217.000;  172.000
396.162;  563.825; -399.000; -453.000
396.290;  483.400;  -17.000;   -2.000
396.418;  148.025; -555.000; -514.000
396.546;  -60.850; -571.000; -466.000
396.674;  -92.475; -850.000; -878.000
396.803;   19.375;  -72.000;  -23.000
396.931;  154.300; -179.000; -199.000
397.059;  122.875;-1026.000; -989.000
397.187;  -94.300;-1026.000; -975.000
397.315; -132.675; -884.000; -649.000
397.443;  -91.475; -592.000; -443.000
397.572;  -98.425; -578.000; -424.000
397.700;   31.750; -607.000; -614.000
397.828;   22.025;  120.000;  -90.000
397.956;  -51.800; -508.000; -478.000
398.084;  -68.675; -767.000; -626.000
398.212;   49.975;  137.000;  124.000
398.340;   24.775;  -56.000;  159.000
398.468;   79.800; -390.000; -169.000
398.596; -134.275; -993.000; -953.000
398.724; -116.825; -762.000; -767.000
398.852; -178.675;-1024.000; -976.000
398.980;  -70.325; -560.000; -560.000
399.108;  -35.750; -982.000; -735.000
399.236;   50.550;   13.000;    8.000
399.363;   17.325;  222.000;  196.000
399.491;  -66.250; -404.000; -398.000
399.619; -116.650; -829.000; -800.000
399.747;  -79.625; -859.000; -771.000
399.875;  106.200;  220.000;  234.000
400.003;  -53.300; -359.000; -284.000
400.130;  -91.175; -421.000; -341.000
400.258;  -23.675;  -83.000;   38.000
400.386;  -57.575; -352.000; -168.000
400.514;  -25.650; -526.000; -587.000
400.641;  -61.600; -928.000; -802.000
400.769; -129.700; -979.000; -888.000
400.897;  -96.275; -838.000; -793.000
401.025;   -8.325; -166.000; -152.000
401.152;  -10.725;  220.000;   38.000
401.280;  -80.650; -430.000; -429.000
401.408; -124.300; -712.000; -576.000
401.535; -104.375; -735.000; -758.000
401.663; -194.875;-1134.000;-1054.000
401.790;  -82.875; -514.000; -525.000
401.918;   33.225;  436.000;  405.000
402.046;   -7.300;  134.000;  122.000
402.173;  -36.800;  -18.000;    7.000
402.301;  -71.475; -519.000; -397.000
402.428;   44.300;  528.000;  383.000
402.556; -146.925;-1188.000; -913.000
402.683;  -25.100;  -20.000;   -1.000
402.811;  -22.125;  -37.000; -206.000
402.938;  -17.750;   20.000;   27.000
403.066;  310.850; -574.000; -558.000
403.193;  419.575;  299.000;  239.000
403.321;  343.450; -396.000; -574.000
403.448;  412.125;   83.000;   27.000
403.575;  206.150;  -90.000;  -46.000
403.703;  -84.675; -732.000; -557.000
403.830;  -60.800; -531.000; -496.000
403.957; -143.825;-1117.000;-1023.000
404.085;    7.250;  -61.000; -172.000
404.212;  113.825;  -50.000;   63.000
404.339;  253.575; -566.000; -306.000
404.467; 5126.675; -612.000; -524.000
404.594; 3722.250; -287.000; -227.000
404.721; 1009.900; -869.000; -764.000
404.848;   86.600; -113.000; -202.000
404.976;  -95.625; -856.000; -783.000
405.103;  -10.375;  -14.000;  -82.000
405.230;    6.850;  190.000;  226.000
405.357;   29.500;  117.000;   44.000
405.484;  246.975;  -49.000;    5.000
405.612;   34.000; -548.000; -563.000
405.739;  -54.275; -488.000; -243.000
405.866;   93.925;  669.000;  385.000
405.993;  -33.100; -398.000; -102.000
406.120; -129.725; -801.000; -887.000
406.247;  -53.625; -323.000; -342.000
406.374;  581.000;  540.000;  629.000
406.501;  191.975; -632.000; -702.000
406.628;  -75.700; -621.000; -589.000
406.755;  -94.675; -803.000; -620.000
406.882;  -36.350; -228.000; -277.000
407.009;  -96.575; -719.000; -628.000
407.136;   78.175; -480.000; -401.000
407.263;  219.175; -939.000; -829.000
407.390;  -59.300; -692.000; -614.000
407.517; -166.525;-1139.000;-1187.000
407.644;  -56.250; -332.000; -256.000
407.771;  -65.975; -249.000; -287.000
407.898;   12.850;  168.000;  328.000
408.025;  -71.850; -421.000; -313.000
408.151;   -6.400;   82.000;  153.000
408.278;  -71.000; -267.000; -216.000
408.405; -102.575; -931.000; -899.000
408.532;  -73.825; -549.000; -542.000
408.659; -115.225; -677.000; -648.000
408.785; -192.200;-1298.000;-1170.000
408.912;  -63.025; -412.000; -296.000
409.039; -113.700; -610.000; -686.000
409.166;  -99.775; -591.000; -555.000
409.292; -120.100; -571.000; -534.000
409.419; -125.150; -665.000; -649.000
409.546;  -86.475; -431.000; -192.000
409.672; -118.550; -713.000; -545.000
409.799;  -22.875;  -36.000;   34.000
409.926;  -27.575; -180.000; -179.000
410.052; -182.975;-1127.000;-1091.000
410.179;  -50.000; -368.000; -392.000
410.305;  -89.400; -375.000; -493.000
410.432;  -41.050; -220.000; -333.000
410.558;  -92.575; -305.000; -380.000
410.685; -124.450; -688.000; -431.000
410.812; -112.600; -409.000; -588.000
410.938; -136.150; -964.000; -808.000
411.065; -100.500; -671.000; -645.000
411.191;   -6.100; -189.000; -174.000
411.317; -120.275; -823.000; -742.000
411.444;  -59.200; -317.000; -246.000
411.570;  -69.375; -339.000; -294.000
411.697; -122.425; -758.000; -752.000
411.823; -175.925; -989.000; -999.000
411.949;  -17.700;  -56.000;   17.000
412.076; -116.325; -539.000; -519.000
412.202; -103.625; -758.000; -757.000
412.329; -131.800; -798.000; -752.000
412.455; -105.875; -821.000; -657.000
412.581;  -25.525;  -15.000;  172.000
412.707;  -57.825; -540.000; -457.000
412.834;   25.125;  156.000;  219.000
412.960;  -83.650; -785.000; -784.000
413.086;  -94.875; -743.000; -701.000
413.212;  178.900;  604.000;  578.000
413.339;  -47.225; -685.000; -701.000
413.465;   29.925; -364.000; -310.000
413.591;  -73.650; -757.000; -474.000
413.717;  -46.500; -358.000; -366.000
413.843; -153.150; -839.000; -861.000
413.969;  -56.425;  -47.000; -292.000
414.096;  -98.725; -679.000; -679.000
414.222;   -0.475;  -33.000;   85.000
414.348;    4.875; -652.000; -385.000
414.474;  124.625;   38.000;  -52.000
414.600;   -5.275; -126.000; -144.000
414.726;  -12.800;  -96.000;  -55.000
414.852;  -68.500; -365.000; -342.000
414.978;   40.125;  104.000;  -18.000
415.104;   40.450;   38.000;   80.000
415.230;   29.175; -329.000; -330.000
415.356;   40.750; -409.000; -514.000
415.482;  214.350;   13.000;  -35.000
415.608;  251.250; -247.000; -323.000
415.734;  929.500;   67.000;   38.000
415.860;18849.450; -875.000; -767.000
415.986;13313.150; -685.000; -607.000
416.111; 1119.925; -798.000; -652.000
416.237;  230.725; -424.000; -571.000
416.363; 1030.900; -765.000; -733.000
416.489; 3705.050; -324.000; -251.000
416.615;  362.675; -707.000; -742.000
416.741;  -38.550; -677.000; -784.000
416.866; -102.225; -673.000; -736.000
416.992; -139.700; -801.000; -818.000
417.118;  -34.750;  -41.000;  -80.000
417.244;  -55.725; -798.000; -531.000
417.369;  -87.450; -801.000; -612.000
417.495;   10.850; -325.000; -254.000
417.621;  -84.375;-1015.000; -803.000
417.746;    6.725; -579.000; -572.000
417.872;   52.750; -254.000; -144.000
417.998;   44.850; -515.000; -530.000
418.123;  934.775;-1073.000; -845.000
418.249; 4853.325; -512.000; -601.000
418.374;  647.625; -916.000; -824.000
418.500;   96.725; -383.000; -482.000
418.626;   88.300;   70.000;  -59.000
418.751;  104.975; -549.000; -448.000
418.877;  166.075; -637.000; -643.000
419.002; 1667.250; -688.000; -560.000
419.128;11259.200; -930.000; -721.000
419.253; 2630.900; -967.000; -837.000
419.379;  331.800; -391.000; -338.000
419.504;  370.125;  325.000;  415.000
419.629;  448.475; -393.000; -212.000
419.755; 3151.100; -317.000; -254.000
419.880;18226.350;  -98.000;   67.000
420.006;10359.975; -280.000; -221.000
420.131;26760.600; -662.000; -775.000
420.256; 3770.375; -315.000; -316.000
420.382;  510.650; -665.000; -687.000
420.507;   58.400; -649.000; -778.000
420.632;  204.050; -337.000; -339.000
420.758;  362.350; -251.000; -425.000
420.883;  -65.850; -876.000; -672.000
421.008;  -82.400; -775.000; -619.000
421.133;  -68.625; -509.000; -467.000
421.259;  -38.675; -325.000; -259.000
421.384; -101.475; -834.000; -693.000
421.509;  -16.025;-1052.000; -862.000
421.634; 1736.650; -936.000; -820.000
421.759;  725.375; -359.000; -327.000
421.885;  -33.775; -717.000; -656.000
422.010;  -70.900; -673.000; -542.000
422.135; -156.450; -695.000; -727.000
422.260;   37.550;  340.000;  280.000
422.385;  -47.525;   12.000;  -98.000
422.510;    1.875;  151.000;  -26.000
422.635;   19.675;  -87.000;  -43.000
422.760;  108.875; -766.000; -791.000
422.885;   60.100;  -57.000;  -80.000
423.010;  -32.550; -112.000; -169.000
423.135;  -93.275; -481.000; -561.000
423.260;    4.425; -150.000; -245.000
423.385;   92.525;  476.000;  222.000
423.510;   47.575;   71.000;  -22.000
423.635;   99.550;  133.000;   45.000
423.760;   64.525;  383.000;  328.000
423.885;   41.625;  336.000;  391.000
424.010;   19.900;  -68.000;  -13.000
424.135;   -8.875;    5.000;  -33.000
424.259;  -80.025; -654.000; -457.000
424.384;  -47.875; -279.000; -272.000
424.509;  -21.775; -260.000; -186.000
424.634; -110.800; -761.000; -623.000
424.759;  -23.475; -688.000; -544.000
424.883;  -12.575; -506.000; -527.000
425.008;  169.500; -502.000; -410.000
425.133; 1827.225; -679.000; -653.000
425.258;  824.850; -517.000; -381.000
425.382; 1306.375; -867.000; -774.000
425.507; 3288.225; -487.000; -543.000
425.632;  461.475; -802.000; -663.000
425.756;  423.750; -256.000; -146.000
425.881; 5637.700; -831.000; -857.000
426.006;14655.150; -604.000; -355.000
426.130; 2317.825; -696.000; -508.000
426.255;  283.075; -611.000; -491.000
426.379;  139.875; -189.000; -577.000
426.504;  354.775;  660.000;  544.000
426.629; 3835.650; -519.000; -466.000
426.753; 2551.525;   64.000;  -46.000
426.878;  276.700; -252.000; -288.000
427.002;  172.775; -651.000; -668.000
427.127; 1547.375;  -35.000; -158.000
427.251;10349.225;  372.000;  401.000
427.375; 2892.625; -191.000; -173.000
427.500; 2802.225; -616.000; -610.000
427.624;  932.800; -234.000; -400.000
427.749;  121.875; -216.000; -225.000
427.873;  -30.200; -499.000; -412.000
427.997;  -41.200; -222.000; -230.000
428.122;   67.425;  795.000;  703.000
428.246;   89.375;  433.000;  434.000
428.371; -117.425; -869.000; -773.000
428.495; -106.900; -624.000; -646.000
428.619;  -24.425; -186.000; -117.000
428.743;   32.450;   65.000;  132.000
428.868;   56.625; -732.000; -643.000
428.992; 1794.700; -219.000; -326.000
429.116;  731.775; -329.000; -357.000
429.240;  365.575;  419.000;  426.000
429.365;  -10.475; -454.000; -574.000
429.489;  -30.375; -638.000; -647.000
429.613;   24.275; -236.000; -177.000
429.737;   32.250; -563.000; -432.000
429.861;  254.900; -247.000; -133.000
429.985; 5185.450; -425.000; -305.000
430.109; 5474.400; -770.000; -908.000
430.234;  622.375;   76.000;  -50.000
430.358;   53.575; -250.000; -160.000
430.482;  -82.775; -672.000; -564.000
430.606;  -61.725; -655.000; -375.000
430.730;   44.975; -437.000; -388.000
430.854;  221.350; -909.000; -835.000
430.978;  -48.850; -795.000; -764.000
431.102;  -92.825; -499.000; -422.000
431.226; -104.750; -874.000; -815.000
431.350;   40.100;  345.000;  422.000
431.474;  -69.200; -661.000; -373.000
431.597; -150.775;-1060.000; -848.000
431.721;  -85.500; -276.000; -267.000
431.845; -147.875; -704.000; -472.000
431.969;  -80.825; -304.000; -349.000
432.093;  -89.425; -395.000; -317.000
432.217;   -5.625;   32.000;   82.000
432.341;  -92.200; -523.000; -518.000
432.464;    9.000;   96.000;   40.000
432.588;  315.125; -401.000; -329.000
432.712;  132.050;  -52.000;  -52.000
432.836;   38.500;  213.000;  263.000
432.959;  -16.050; -372.000; -311.000
433.083;   64.125;   11.000;    2.000
433.207;  351.100;  285.000;  930.000
433.330; 4569.850; -391.000; -200.000
433.454; 5458.375; -654.000; -638.000
433.578; 3189.175;  583.000;  278.000
433.701;  599.250; -623.000; -675.000
433.825;  206.800; -292.000; -299.000
433.949;  279.475;   28.000;  -72.000
434.072;  112.550; -410.000; -323.000
434.196;  -17.100; -309.000; -117.000
434.319; 3811.975;25482.000;25124.000
434.443;  771.725; -656.000; -603.000
434.566; 2412.525;  281.000;   62.000
434.690;  394.375; -637.000; -383.000
434.813;   51.375; -251.000; -173.000
434.937;  -76.525; -569.000; -696.000
435.060;  -18.225; -423.000; -332.000
435.184;  507.550; -492.000; -217.000
435.307;  266.900;  159.000;  102.000
435.431;   10.475;  -40.000;   24.000
435.554;  -75.450; -399.000; -240.000
435.677;  -90.700; -350.000; -258.000
435.801;  -30.675;  -25.000;   49.000
435.924;    4.575;    1.000;  -67.000
436.048;  -80.200;-1019.000; -732.000
436.171;  -58.725; -240.000;  -66.000
436.294;  -27.275; -248.000; -229.000
436.417;   53.575; -963.000; -849.000
436.541; -108.475; -814.000; -840.000
436.664;  -54.075; -242.000; -316.000
436.787;  -19.600;   13.000;  113.000
436.910; -104.175; -792.000; -422.000
437.034;   26.250;  142.000;  143.000
437.157;  100.600;  -11.000;    0.000
437.280;  -22.275; -392.000; -292.000
437.403;  -59.275; -982.000; -869.000
437.526;  996.300; -903.000; -865.000
437.649; 3375.425; -505.000; -332.000
437.772;  517.650; -692.000; -540.000
437.896;  145.200;  700.000;  544.000
438.019;  -88.375; -758.000; -503.000
438.142;  -76.225; -596.000; -506.000
438.265;   28.200; -639.000; -670.000
438.388;  799.275; -520.000; -410.000
438.511;  171.400; -597.000; -394.000
438.634;  -36.100; -247.000; -125.000
438.757; -133.400; -693.000; -619.000
438.880;  -17.275;  -34.000;  -57.000
439.003;  -80.300; -417.000; -437.000
439.126;  -75.050; -287.000; -167.000
439.248;  -54.550;  -98.000; -139.000
439.371;  -51.725;    9.000;  -53.000
439.494;   21.275;  510.000;  439.000
439.617;  -57.525;   65.000;  -88.000
439.740; -180.025; -968.000; -816.000
439.863; -149.525; -755.000; -595.000
439.986; -128.450; -476.000; -431.000
440.108;  -47.900; -161.000; -112.000
440.231; -157.400; -950.000; -836.000
440.354;  -35.225;  -64.000; -150.000
440.477;   80.425; -566.000; -542.000
440.599;   24.375; -200.000; -225.000
440.722; -120.350; -709.000; -586.000
440.845;   69.600;  751.000;  928.000
440.968; -117.800; -415.000; -311.000
441.090;  -62.525; -199.000;  -33.000
441.213; -172.475;-1021.000; -825.000
441.336;  -62.925; -159.000;   -5.000
441.458;  -83.325; -549.000; -396.000
441.581;  -60.700; -628.000; -629.000
441.703;  -63.000; -152.000;   13.000
441.826; -113.825; -557.000; -400.000
441.948;  -38.775;   56.000;   51.000
442.071;   28.650;  555.000;  424.000
442.193; -117.375; -531.000; -485.000
442.316;   28.300;  152.000;   97.000
442.438;   47.600; -233.000;  -10.000
442.561;   91.775;  272.000;  262.000
442.683;  856.675; -809.000; -522.000
442.806; 1674.300;   -8.000;   74.000
442.928;   89.325; -859.000; -604.000
443.051;  -58.900; -577.000; -373.000
443.173;  -90.575; -341.000; -339.000
443.295;  -93.250; -263.000; -371.000
443.418;  -72.125; -321.000;  -29.000
443.540;   14.850; -106.000;   -4.000
443.662; -129.775; -563.000; -465.000
443.785;  -10.000;  335.000;  199.000
443.907;  -87.875; -362.000; -208.000
444.029; -126.000; -767.000; -494.000
444.152; -141.300; -644.000; -554.000
444.274;  -41.100;  -18.000;  -24.000
444.396; -109.175; -461.000; -221.000
444.518; -141.875; -691.000; -454.000
444.640; -103.525; -268.000; -111.000
444.763;  -30.075;  388.000;  249.000
444.885; -107.100; -432.000; -392.000
445.007;  -40.450;   35.000;   86.000
445.129; -112.200; -610.000; -515.000
445.251;  -99.575; -372.000; -439.000
445.373; -147.225; -537.000; -386.000
445.495;    1.475;  242.000;  350.000
445.617;   51.650;  853.000;  753.000
445.739;  -58.600; -215.000;  -97.000
445.861;  -32.325; -245.000; -112.000
445.984;  -27.950; -267.000; -101.000
446.105;  330.075; -418.000; -251.000
446.227;  860.500; -176.000;  -19.000
446.349;   39.125; -358.000; -249.000
446.471;  -90.950; -615.000; -448.000
446.593;  -54.625; -316.000;   19.000
446.715;   12.300;  -67.000;   41.000
446.837;   60.300;  697.000;  832.000
446.959;  -90.250; -457.000; -478.000
447.081; -130.275; -628.000; -518.000
447.203;   38.550;  862.000;  834.000
447.325;  -94.175; -270.000;   42.000
447.446;   -9.425;  286.000;  530.000
447.568; -161.925; -921.000; -803.000
447.690;  -73.950; -236.000; -245.000
447.812; -146.275; -798.000; -519.000
447.933;  -22.550;  155.000;  127.000
448.055;  -75.575; -306.000; -261.000
448.177;  199.500;   31.000;   79.000
448.299;  182.875; -935.000; -727.000
448.420;   45.300;  -25.000;  159.000
448.542;  -61.800;   -3.000;   33.000
448.664;  -20.675;  109.000;  322.000
448.785;  -38.675;  265.000;   83.000
448.907;  -63.900; -614.000; -353.000
449.028;   -6.775; -771.000; -471.000
449.150;   67.750;  492.000;  589.000
449.272; -189.625;-1044.000; -913.000
449.393;   20.200;  612.000;  694.000
449.515; -145.000; -634.000; -581.000
449.636;  -59.350; -264.000; -155.000
449.758;   75.475;  763.000;  622.000
449.879;  -93.725; -498.000; -396.000
450.001;  -95.875; -149.000;  -49.000
450.122;  -30.875;  -95.000;  162.000
450.244;  -33.675;   37.000;  364.000
450.365;  -99.250; -495.000; -301.000
450.486;  -36.900;   80.000;  268.000
450.608;   22.800;  393.000;  326.000
450.729;   60.225;  578.000;  645.000
450.850;  -18.400; -574.000; -466.000
450.972;  640.725; -552.000; -389.000
451.093; 4256.050;  190.000;  588.000
451.214; 1790.800; -516.000; -337.000
451.336;  315.975;  773.000;  579.000
451.457;   46.375;  264.000;  393.000
451.578;  -42.775; -118.000;  -74.000
451.699; -135.250; -546.000; -540.000
451.821;  -64.950; -284.000;  -50.000
451.942;   -9.975;  278.000;  285.000
452.063;   38.750;  228.000;  419.000
452.184;  492.600;  -54.000;  -49.000
452.305;  973.700;  103.000;  170.000
452.427;   74.075; -549.000; -301.000
452.548;  -24.850;   23.000;   79.000
452.669;  -44.275; -257.000;  -89.000
452.790;  -30.075;    3.000;  -18.000
452.911;   -2.650;  195.000;  259.000
453.032;  -58.350; -289.000;  -60.000
453.153;  -26.675;  -29.000;   81.000
453.274;   65.450;  737.000;  868.000
453.395;  -55.825;  -51.000;  175.000
453.516;  134.075; 1317.000; 1388.000
453.637;  -68.325; -205.000; -150.000
453.758;  -59.400;   15.000;   69.000
453.879; -115.600; -462.000; -250.000
454.000;   91.025; 1086.000;  948.000
454.121; -106.675; -554.000; -326.000
454.242; -113.850; -599.000; -383.000
454.362;  -60.475;  -99.000;  114.000
454.483;  -23.300; -309.000; -229.000
454.604;   56.450;  512.000;  580.000
454.725; -131.125; -627.000; -555.000
454.846; -118.750; -474.000; -406.000
454.967;  -21.250;  230.000;  539.000
455.087;  -46.125;  179.000;  153.000
455.208;   15.075;  554.000;  856.000
455.329;  -69.825;  -22.000;   82.000
455.450;    8.775;  473.000;  633.000
455.570;  -91.750; -234.000; -211.000
455.691;  -53.400;  201.000;  407.000
455.812; -111.350; -270.000;  -92.000
455.932;  -64.175;  107.000;  -97.000
456.053;  -89.275;   36.000;   24.000
456.173; -107.375; -433.000; -355.000
456.294; -133.975; -476.000; -303.000
456.415;  -78.800;  -73.000;   70.000
456.535;  -34.425;  297.000;  273.000
456.656;  -37.475;  132.000;  240.000
456.776;  -82.625;    3.000;  298.000
456.897;   -5.475;  308.000;  513.000
457.017;  -74.700; -153.000;   -3.000
457.138; -103.000; -402.000; -249.000
457.258;  -26.550;  263.000;  224.000
457.379;  -16.275;  509.000;  521.000
457.499;  -19.450;  443.000;  432.000
457.620; -125.225; -407.000; -231.000
457.740; -109.050; -132.000;  -11.000
457.860;  -65.250;   87.000;   44.000
457.981;  -49.325;  132.000;  124.000
458.101;  -72.025;  -89.000;   40.000
458.221;  -20.475;  336.000;  402.000
458.342;  -67.400;   -4.000;  -37.000
458.462;   10.475;  617.000;  352.000
458.582;  -55.850; -302.000; -294.000
458.703;    2.825;  303.000;  154.000
458.823;  -58.250;   22.000;  163.000
458.943;    8.200;  341.000;  467.000
459.063;  -24.150; 1124.000;  192.000
459.183;  -17.450;  328.000;  313.000
459.304;    9.325;  315.000;  517.000
459.424;  -70.575; -246.000;  -89.000
459.544;  315.425;  388.000;  764.000
459.664;  751.325;  499.000;  506.000
459.784;  289.200; 1004.000; 1175.000
459.904;   59.475;  867.000;  744.000
460.024;   71.450;  867.000;  684.000
460.144;   13.200;  449.000;  554.000
460.264;   12.050;  515.000;  327.000
460.385;  -99.925; -145.000; -119.000
460.505;   32.625;  905.000;  858.000
460.625;  -92.950;  -17.000;  -68.000
460.745;  -22.350;  396.000;  541.000
460.864;  -56.225;  153.000;  469.000
460.984;   21.800;  499.000;  573.000
461.104;  131.700; 1656.000; 1775.000
461.224;   21.050;  657.000;  650.000
461.344;  -19.625;  431.000;  360.000
461.464;  -23.800;  258.000;  513.000
461.584;  -17.300;  283.000;  466.000
461.704;  -51.100;   58.000;  108.000
461.824;  -60.150;  238.000;  259.000
461.943;  -47.650;  191.000;  130.000
462.063;  -70.825;    2.000;  324.000
462.183;   37.200;  639.000;  717.000
462.303;  103.050; 1678.000; 1230.000
462.422;   31.850;  781.000;  840.000
462.542;  -53.300;  271.000;  391.000
462.662;   51.100;  353.000;  380.000
462.782;  208.350;  833.000;  572.000
462.901;  439.450;  545.000;  717.000
463.021;  275.575; 1702.000; 1638.000
463.141;  -13.650;  337.000;  770.000
463.260;  -27.350;  614.000;  474.000
463.380;    8.700;  902.000;  884.000
463.499;  -45.350;  342.000;  332.000
463.619;  -37.075;  581.000;  559.000
463.738;  101.350; 1644.000;  903.000
463.858;   25.200;  657.000;  811.000
463.978;  -46.125;  542.000;  396.000
464.097;   55.825;  921.000; 1114.000
464.217;   97.050; 1196.000; 1143.000
464.336;  102.500; 1068.000; 1130.000
464.455;  -37.350;  328.000;  659.000
464.575;   61.075;  597.000;  602.000
464.694;  206.875; 1204.000; 1179.000
464.814;  139.025; 1190.000; 1138.000
464.933;   70.750; 1095.000; 1027.000
465.052;  107.800; 1412.000; 1054.000
465.172;   93.700;  922.000;  799.000
465.291;  163.425; 1376.000; 1320.000
465.410;   15.300;  462.000;  735.000
465.530;   97.475; 1355.000; 1310.000
465.649;   83.625; 1209.000; 1273.000
465.768;  147.875; 1673.000; 1508.000
465.888;   47.050;  941.000; 1174.000
466.007;   94.550; 1335.000; 1440.000
466.126;   -8.750;  721.000;  641.000
466.245;   47.950; 1176.000; 1187.000
466.364;    7.950;  950.000; 1060.000
466.484;   51.775; 1024.000; 1213.000
466.603;   28.200; 1101.000; 1222.000
466.722;  121.600; 1490.000; 1769.000
466.841;   89.600; 1151.000; 1401.000
466.960;   38.450; 1069.000;  972.000
467.079;  118.275; 1971.000; 1786.000
467.198;   66.050; 1238.000; 1181.000
467.317;   90.775; 1768.000; 1162.000
467.436;   62.350; 1709.000; 1261.000
467.555;  125.075; 1796.000; 1746.000
467.674;   72.850; 1227.000; 1329.000
467.793;   33.975; 1376.000; 1374.000
467.912;   78.150; 1658.000; 1539.000
468.031;  142.500; 2038.000; 1930.000
468.150;  128.650; 1842.000; 1837.000
468.269;  188.750; 2313.000; 2090.000
468.388;  193.250; 2168.000; 2339.000
468.507;  241.975; 2884.000; 2903.000
468.626;  224.700; 2555.000; 2541.000
468.744;  145.175; 2018.000; 2174.000
468.863;  199.175; 2312.000; 2523.000
468.982;   73.850; 1503.000; 1555.000
469.101;  236.050; 2788.000; 2692.000
469.220;  141.650; 2333.000; 2176.000
469.338;  257.325; 2935.000; 3051.000
469.457;  203.875; 2719.000; 2545.000
469.576;  344.625; 3953.000; 3784.000
469.695;  237.725; 2877.000; 3066.000
469.813;  449.975; 4148.000; 4192.000
469.932;  415.525; 4255.000; 4485.000
470.051;  432.350; 4075.000; 4161.000
470.169;  783.925; 4470.000; 4338.000
470.288; 1368.900; 4700.000; 4809.000
470.406;  807.425; 5059.000; 5194.000
470.525;  635.150; 6101.000; 5787.000
470.644;  650.700; 6847.000; 6794.000
470.762;  821.600; 8397.000; 7873.000
470.881;  904.950; 8651.000; 8464.000
470.999; 1054.275; 9685.000; 9151.000
471.118; 1104.925;11174.000;10711.000

