
Integration time [ms]: 200.000
Averaging Nr. [scans]: 10
Smoothing Nr. [pixels]: 0
Data measured with spectrometer [name]: 2101012U2
Wave   ;Sample   ;Dark     ;Reference
[nm]   ;[counts] ;[counts] ;[counts] 

197.733;  103.000;  516.000;  404.000
197.879; -189.700; -610.000; -634.000
198.025; -120.400; -475.000; -420.000
198.171; -138.800; -602.000; -612.000
198.317;  -74.500; -401.000; -316.000
198.463; -123.100; -655.000; -404.000
198.609;   36.100;  181.000; -137.000
198.755; -168.800; -644.000; -410.000
198.901; -169.800; -505.000; -424.000
199.047; -145.300; -615.000; -488.000
199.193;  -84.800; -230.000; -468.000
199.339;  -96.500; -222.000; -369.000
199.485;   88.600;  330.000;  271.000
199.631;   32.100;  227.000;  310.000
199.777; -109.400; -466.000; -398.000
199.923; -140.200; -610.000; -424.000
200.069;  -15.300; -141.000;  -58.000
200.215;   94.800;  128.000;  453.000
200.361;   85.700;  243.000;  477.000
200.507; -144.500; -600.000; -373.000
200.653;  -71.800; -371.000; -194.000
200.798;  -91.600; -215.000; -125.000
200.944;   -8.300; -146.000;  -41.000
201.090;   53.500;   61.000;  222.000
201.236;   15.700; -116.000; -158.000
201.382;  274.600;  874.000;  903.000
201.528;  -16.400;  -58.000;  -48.000
201.674; -122.300; -386.000; -293.000
201.819; -140.700; -540.000; -439.000
201.965; -188.100; -699.000; -447.000
202.111;  -50.900; -273.000; -226.000
202.257;  -65.000; -250.000; -238.000
202.402;   -6.600;   13.000;  -36.000
202.548;  -80.300; -169.000; -116.000
202.694;  179.500;  410.000; -183.000
202.840; -170.100; -603.000; -531.000
202.985; -140.300; -681.000; -639.000
203.131; -220.000; -832.000; -666.000
203.277;  -64.600; -199.000; -262.000
203.423;  -95.200; -434.000; -520.000
203.568;  -89.300; -462.000; -237.000
203.714; -126.400; -535.000; -542.000
203.860; -163.800; -682.000; -641.000
204.005;   20.300;  112.000;  167.000
204.151;  154.600;  561.000;  556.000
204.296; -108.900; -354.000; -221.000
204.442; -141.500; -600.000; -547.000
204.588; -161.100; -592.000; -579.000
204.733;   12.300;  178.000;  168.000
204.879; -258.400;-1018.000; -822.000
205.025;   18.100;  -99.000;  126.000
205.170;    3.100;  -17.000;   94.000
205.316;  181.800;  438.000;  661.000
205.461; -170.300; -698.000; -554.000
205.607;  146.700;  609.000;  665.000
205.752; -187.600; -626.000; -551.000
205.898; -127.700; -501.000; -391.000
206.043; -116.900; -578.000; -506.000
206.189;  -79.800; -243.000; -285.000
206.334;  143.500;  554.000;  606.000
206.480;  168.100;  409.000;  239.000
206.625; -178.700; -529.000; -552.000
206.771;  -91.700; -451.000; -373.000
206.916;  -55.600; -210.000; -537.000
207.062; -138.200; -545.000; -591.000
207.207; -116.200; -546.000; -443.000
207.353;  118.200;  185.000;  460.000
207.498;   31.900;  196.000;   85.000
207.643; -122.000; -501.000; -370.000
207.789; -281.900;-1069.000; -910.000
207.934; -228.000; -665.000; -713.000
208.080;  -61.700; -154.000;   66.000
208.225;  -27.000;  -22.000;  -57.000
208.370; -179.400; -727.000; -619.000
208.516; -176.600; -741.000; -487.000
208.661;  -70.000; -127.000;  -69.000
208.806;  -67.200; -165.000; -171.000
208.952; -240.200;-1044.000; -731.000
209.097;  151.600;  378.000;  349.000
209.242;  -75.600; -307.000; -382.000
209.387;  127.200;  392.000;  350.000
209.533;  -84.200; -321.000; -350.000
209.678;  148.800;  472.000;  543.000
209.823; -121.900; -408.000; -310.000
209.969; -207.600; -860.000; -757.000
210.114; -181.100; -907.000; -719.000
210.259; -231.900; -939.000; -889.000
210.404;  -28.300; -171.000;  103.000
210.549;   -5.800;  108.000;    3.000
210.695;  -42.300;   -3.000;  -95.000
210.840;   50.000;   94.000;   67.000
210.985; -130.500; -484.000; -303.000
211.130;  108.500;  268.000;  406.000
211.275;   69.300;  207.000;  199.000
211.420;  -90.300; -300.000; -289.000
211.566; -140.000; -536.000; -489.000
211.711;   28.700;  218.000;  157.000
211.856; -135.600; -545.000; -519.000
212.001;   35.800;  151.000;   44.000
212.146;   24.200;  153.000;   49.000
212.291;  -40.200; -210.000; -186.000
212.436;  -43.400; -280.000;   -6.000
212.581; -169.600; -685.000; -653.000
212.726; -169.000; -487.000; -538.000
212.871;  -79.000; -552.000; -217.000
213.016; -306.900;-1172.000;-1029.000
213.161;  106.200;  406.000;  291.000
213.306; -157.100; -435.000; -577.000
213.451; -215.200; -778.000; -689.000
213.596; -100.300; -455.000; -347.000
213.741; -124.700; -448.000; -538.000
213.886; -129.200; -498.000; -517.000
214.031;  -43.100; -294.000; -124.000
214.176; -136.500; -408.000; -341.000
214.321;  -37.800; -296.000; -157.000
214.466;  -58.100; -163.000;  -43.000
214.611;  -24.200;  -61.000;  -10.000
214.756; -251.300; -948.000; -858.000
214.901;  -68.000; -388.000; -226.000
215.046; -251.100; -797.000; -825.000
215.191;   44.800;  128.000;   35.000
215.336;  -51.100; -157.000;  -19.000
215.480; -143.800; -684.000; -505.000
215.625;  -22.600; -175.000;  -19.000
215.770; -186.400; -757.000; -662.000
215.915;  -20.200;   -5.000;  -97.000
216.060;  -16.600; -113.000;  -21.000
216.205; -203.900; -731.000; -779.000
216.349; -166.200; -470.000; -533.000
216.494; -291.100; -939.000; -867.000
216.639; -236.900; -823.000; -888.000
216.784; -181.500; -577.000; -525.000
216.929;  107.200;  392.000;  281.000
217.073;  -23.400; -244.000;  -31.000
217.218;  -15.000;   78.000;  -47.000
217.363; -191.800; -656.000; -618.000
217.507; -149.600; -623.000; -588.000
217.652; -246.000; -845.000; -874.000
217.797; -173.700; -708.000; -659.000
217.942; -246.500; -856.000; -720.000
218.086;  148.100;  608.000;  539.000
218.231;  -15.700; -174.000;  -26.000
218.376;  -80.700; -337.000; -229.000
218.520;    0.100;  -41.000;   96.000
218.665;  -86.100; -338.000; -204.000
218.810;  -80.200; -275.000; -233.000
218.954;   29.100;  201.000;   35.000
219.099; -216.400; -713.000; -963.000
219.243; -127.600; -589.000; -554.000
219.388;  -89.300; -264.000; -136.000
219.532;  -74.600; -116.000; -116.000
219.677; -164.300; -564.000; -521.000
219.822;   14.600;   33.000;   89.000
219.966;   15.300;   17.000;  -99.000
220.111;  -80.700; -328.000;  -40.000
220.255; -195.900; -797.000; -750.000
220.400;  -70.900; -180.000; -146.000
220.544; -154.600; -516.000; -450.000
220.689; -118.600; -422.000; -451.000
220.833;  -33.800; -123.000;  -58.000
220.978;  -76.900; -393.000; -563.000
221.122;   63.700;  319.000;  307.000
221.267; -246.100; -906.000; -837.000
221.411; -145.000; -478.000; -394.000
221.555;   -9.600; -104.000;  -23.000
221.700; -100.800; -329.000; -222.000
221.844;   57.400;  255.000;  272.000
221.989;  -70.900; -328.000; -311.000
222.133;  -88.400; -289.000; -307.000
222.277;  -17.700;    5.000;   78.000
222.422;   41.200;  227.000;  113.000
222.566;  -56.200; -381.000; -214.000
222.711; -120.800; -414.000; -479.000
222.855; -146.100; -643.000; -586.000
222.999; -188.900; -642.000; -717.000
223.144;  -38.300; -195.000; -194.000
223.288;   95.400;  423.000;  251.000
223.432;   42.900;  184.000;  230.000
223.576;   46.000;  152.000;  -21.000
223.721;   86.300;  364.000;  273.000
223.865;  -92.900; -472.000; -475.000
224.009;  507.100; 1673.000; 1631.000
224.153; -205.900; -660.000; -671.000
224.298; -139.500; -531.000; -489.000
224.442;  -20.300;  -74.000;  -33.000
224.586;  -27.900; -169.000; -106.000
224.730; -190.900; -858.000; -670.000
224.875; -228.700; -739.000; -688.000
225.019;   31.000;  102.000;  188.000
225.163;   89.900;  208.000;  341.000
225.307;   55.800;   97.000;  -91.000
225.451;   99.100;  360.000;  481.000
225.595;   54.900;  264.000;  176.000
225.739;  -42.400; -170.000;  -94.000
225.884;   -5.500;   86.000;    5.000
226.028; -223.300; -760.000; -626.000
226.172;  -82.700; -260.000; -273.000
226.316; -234.900; -941.000; -902.000
226.460; -157.900; -645.000; -493.000
226.604;  -85.800; -406.000; -400.000
226.748; -204.100; -836.000; -733.000
226.892;  -61.100; -227.000; -181.000
227.036;  -85.200; -537.000; -447.000
227.180;  -88.500; -551.000; -375.000
227.324; -150.600; -561.000; -580.000
227.468; -250.800; -819.000; -717.000
227.612;   32.800;  242.000;  -28.000
227.756; -211.800; -845.000; -698.000
227.900;   86.600;  342.000;  441.000
228.044; -124.000; -509.000; -290.000
228.188;  137.100;  448.000;  568.000
228.332; -164.200; -546.000; -472.000
228.476;  -51.500; -223.000; -149.000
228.620;  -37.500; -210.000; -150.000
228.764;  122.400;  431.000;  349.000
228.908;  -47.400; -155.000;   30.000
229.052; -103.600; -615.000; -528.000
229.195;   -8.200; -172.000;   13.000
229.339;  -56.100; -235.000; -305.000
229.483;  -65.400;    5.000; -162.000
229.627;  -22.600; -156.000;  139.000
229.771;  -73.500; -218.000; -294.000
229.915;   30.400;  230.000;   79.000
230.059; -202.200; -648.000; -663.000
230.202;  -56.400; -370.000; -317.000
230.346;  -46.600; -107.000;  107.000
230.490; -126.900; -489.000; -521.000
230.634; -229.400; -736.000; -553.000
230.777;  133.300;  478.000;  509.000
230.921; -102.000; -450.000; -359.000
231.065;  -72.600; -246.000; -286.000
231.209;   14.400;  261.000;  265.000
231.352;   24.500;   54.000;   40.000
231.496;   43.600;  568.000;  188.000
231.640; -154.700; -693.000; -621.000
231.783;  165.800;  546.000;  525.000
231.927;  -66.600; -294.000; -365.000
232.071; -239.900; -962.000; -736.000
232.214; -252.700; -980.000; -764.000
232.358; -223.200; -683.000; -599.000
232.502;   23.900;  -19.000;    7.000
232.645; -267.800;-1090.000; -927.000
232.789;  -66.000; -257.000; -218.000
232.933;  -75.000; -407.000; -224.000
233.076; -243.200;-1038.000; -897.000
233.220; -228.800; -752.000; -777.000
233.363; -191.300; -669.000; -477.000
233.507;  132.200;  371.000;  129.000
233.650; -198.900; -764.000; -834.000
233.794;   92.400;  438.000;  461.000
233.938; -115.500; -530.000; -362.000
234.081;  -53.300;  -93.000;   31.000
234.225; -146.000; -631.000; -539.000
234.368; -193.100; -773.000; -723.000
234.512;  -97.100; -385.000; -299.000
234.655; -185.400; -582.000; -555.000
234.798; -141.700; -493.000; -466.000
234.942; -271.900; -884.000;-1002.000
235.085; -150.000; -651.000; -443.000
235.229; -170.800; -405.000; -410.000
235.372;  -95.700; -247.000; -191.000
235.516; -127.800; -397.000; -321.000
235.659;   44.800;   92.000;  121.000
235.802;  -24.900;  -38.000;  -22.000
235.946;   62.600;  335.000;  215.000
236.089;   52.900;  126.000;  250.000
236.233;  100.400;  275.000;  298.000
236.376;  -74.000; -235.000; -378.000
236.519;  -89.700; -297.000; -319.000
236.663;  -50.600; -215.000; -117.000
236.806; -263.900;-1029.000; -999.000
236.949;  159.500;  543.000;  431.000
237.092;  130.500;  412.000;  391.000
237.236; -158.200; -589.000; -502.000
237.379;  152.600;  352.000;  428.000
237.522; -208.800; -879.000; -768.000
237.666;  -28.800; -271.000;   18.000
237.809; -264.400; -851.000; -823.000
237.952;   88.200;  469.000;  271.000
238.095; -126.800; -447.000; -442.000
238.238;  145.000;  688.000;  700.000
238.382;  -19.900;  166.000;  103.000
238.525; -158.600; -598.000; -511.000
238.668; -260.600;-1060.000; -985.000
238.811; -163.600; -638.000; -643.000
238.954; -121.400; -483.000; -334.000
239.097;  177.600;  617.000;  664.000
239.241;   69.500;  394.000;  326.000
239.384;  -90.300; -254.000; -214.000
239.527; -104.000; -424.000; -224.000
239.670; -301.400; -994.000;-1091.000
239.813; -203.400; -696.000; -658.000
239.956;  163.500;  579.000;  473.000
240.099; -214.200; -778.000; -725.000
240.242;  121.900;  428.000;  432.000
240.385;  134.300;  466.000;  450.000
240.528; -139.700; -706.000; -473.000
240.671;   37.900;  189.000;  134.000
240.814;  -74.200; -441.000; -158.000
240.957; -210.000; -767.000; -578.000
241.100; -171.200; -779.000; -755.000
241.243; -291.400;-1234.000; -893.000
241.386; -124.200; -508.000; -379.000
241.529; -194.900; -735.000; -547.000
241.672; -116.400; -566.000; -495.000
241.815; -235.200; -832.000; -808.000
241.958;  -54.900; -125.000; -182.000
242.101; -169.000; -545.000; -390.000
242.244;  -93.200; -270.000; -325.000
242.387; -108.900; -304.000; -246.000
242.530;  139.500;  470.000;  134.000
242.673;  -84.400; -381.000; -309.000
242.815; -227.300; -925.000; -899.000
242.958; -128.500; -482.000; -381.000
243.101;   53.300;  132.000;  187.000
243.244; -160.800; -564.000; -521.000
243.387;  -99.500; -313.000; -316.000
243.530; -185.800; -657.000; -674.000
243.672;    3.500;   43.000;  -92.000
243.815; -111.600; -355.000; -283.000
243.958;  -34.300;   98.000;  -26.000
244.101;   25.300;   59.000;  -16.000
244.243;  -17.100;  -47.000;  101.000
244.386; -226.400; -761.000; -630.000
244.529;  -64.200; -132.000; -139.000
244.672; -314.300;-1154.000; -951.000
244.814; -203.200; -621.000; -794.000
244.957; -136.600; -380.000; -304.000
245.100; -156.600; -489.000; -489.000
245.242; -118.200; -387.000; -374.000
245.385;  -12.800;  -59.000;  -39.000
245.528; -250.200; -871.000; -705.000
245.670;  182.300;  612.000;  634.000
245.813; -189.800; -599.000; -547.000
245.956;  -80.800; -324.000; -275.000
246.098; -157.600; -508.000; -650.000
246.241;   34.500;  194.000;   48.000
246.383;  -31.900; -119.000;  -73.000
246.526; -155.600; -454.000; -525.000
246.669; -207.500; -889.000; -780.000
246.811;   61.500;  172.000;   -1.000
246.954; -112.700; -512.000; -426.000
247.096;  -51.700;  -84.000;   -6.000
247.239; -158.600; -482.000; -445.000
247.381; -121.100; -647.000; -488.000
247.524;  173.100;  645.000;  679.000
247.666;   -9.500;   58.000;   11.000
247.809; -252.000; -887.000; -691.000
247.951;  -11.400;  -75.000;  138.000
248.094;   61.200;  432.000;  308.000
248.236; -333.900;-1262.000;-1238.000
248.378;  -65.600; -356.000;  -81.000
248.521;  -91.600; -334.000; -337.000
248.663;  -82.800; -236.000; -267.000
248.806;  -51.500; -300.000; -266.000
248.948; -231.600; -886.000; -763.000
249.090; -105.200; -428.000; -398.000
249.233;  -93.100; -344.000; -381.000
249.375; -139.700; -474.000; -451.000
249.518;  -48.700;  -83.000; -133.000
249.660;  -13.400; -103.000;    3.000
249.802; -339.400;-1303.000;-1189.000
249.945; -137.200; -612.000; -540.000
250.087; -212.900; -834.000; -768.000
250.229; -111.400; -362.000; -480.000
250.371; -152.100; -494.000; -439.000
250.514;  -76.200; -310.000; -244.000
250.656;   15.600;   69.000;  102.000
250.798; -241.300; -849.000; -800.000
250.940; -136.300; -322.000; -322.000
251.083;  -87.100; -335.000; -111.000
251.225;  108.300;  338.000;  310.000
251.367;  -62.100; -274.000; -373.000
251.509;  -80.200; -265.000; -210.000
251.651; -213.400; -731.000; -671.000
251.794;  114.100;  538.000;  632.000
251.936; -208.300; -821.000; -747.000
252.078; -170.000; -540.000; -461.000
252.220; -129.000; -645.000; -477.000
252.362;  121.600;  344.000;  462.000
252.504; -182.100; -677.000; -584.000
252.646; -240.500; -875.000; -722.000
252.788;  -55.500;   14.000; -128.000
252.931;  -81.900; -257.000; -253.000
253.073; -112.900; -376.000; -317.000
253.215;   32.300;  141.000;  122.000
253.357;  -25.600;   82.000; -153.000
253.499; -127.700; -374.000; -234.000
253.641; -188.700; -749.000; -594.000
253.783; -179.400; -609.000; -527.000
253.925; -173.800; -586.000; -591.000
254.067; -231.300; -744.000; -667.000
254.209;  -81.900; -391.000; -259.000
254.351; -272.600; -865.000; -883.000
254.493; -138.200; -441.000; -417.000
254.635; -217.500; -936.000; -818.000
254.777; -181.900; -752.000; -687.000
254.918; -138.800; -512.000; -430.000
255.060;  -98.900; -551.000; -395.000
255.202; -113.000; -473.000; -261.000
255.344; -145.300; -658.000; -455.000
255.486; -128.300; -471.000; -406.000
255.628; -233.100; -780.000; -781.000
255.770; -191.900; -676.000; -536.000
255.912; -136.500; -559.000; -468.000
256.053; -175.000; -730.000; -508.000
256.195;  300.600; 1008.000;  903.000
256.337; -192.400; -861.000; -595.000
256.479;  105.900;  532.000;  416.000
256.621;  -53.800; -394.000; -212.000
256.762; -188.400; -789.000; -742.000
256.904;  109.800;  485.000;  487.000
257.046;  -69.900; -381.000; -271.000
257.188;  -77.000; -351.000; -264.000
257.329; -132.900; -525.000; -464.000
257.471; -233.200; -939.000; -807.000
257.613; -136.300; -584.000; -498.000
257.755; -294.200;-1073.000; -982.000
257.896;   77.300;  286.000;  392.000
258.038; -150.400; -403.000; -352.000
258.180;  -80.400; -354.000; -279.000
258.321; -171.700; -581.000; -457.000
258.463;  -18.500;  -71.000;  133.000
258.605; -179.400; -562.000; -570.000
258.746; -222.300; -886.000; -772.000
258.888; -320.200;-1026.000;-1020.000
259.029;   29.800;  121.000;   -8.000
259.171; -190.500; -614.000; -550.000
259.313;   10.100;  -49.000;  -47.000
259.454; -161.900; -536.000; -414.000
259.596; -105.100; -483.000; -390.000
259.737; -146.200; -590.000; -474.000
259.879;   89.400;  217.000;  311.000
260.020;  153.900;  901.000;  636.000
260.162;  -34.100; -146.000; -253.000
260.303; -254.200; -768.000; -687.000
260.445; -170.300; -609.000; -613.000
260.586;   70.100;  392.000;  157.000
260.728;  -83.500; -360.000; -248.000
260.869; -128.500; -350.000; -343.000
261.011;  161.300;  706.000;  537.000
261.152; -125.500; -479.000; -319.000
261.293; -181.400; -576.000; -595.000
261.435;  -54.600; -219.000; -184.000
261.576;  -99.700; -455.000; -325.000
261.718;  144.000;  420.000;  470.000
261.859; -280.000; -940.000; -949.000
262.000; -256.900; -951.000;-1016.000
262.142;  -55.400;  -52.000;  -60.000
262.283; -242.000; -808.000; -691.000
262.424; -180.500; -666.000; -625.000
262.566; -323.900;-1161.000; -983.000
262.707; -238.600; -840.000; -830.000
262.848; -233.300; -769.000; -726.000
262.990;  -95.300; -362.000; -345.000
263.131;  154.400;  650.000;  681.000
263.272;  -26.700;  -61.000;  -41.000
263.413; -173.600; -589.000; -561.000
263.555; -129.200; -669.000; -143.000
263.696; -164.000; -550.000; -641.000
263.837; -122.500; -449.000; -551.000
263.978;   -0.200;   -5.000;  -77.000
264.119; -113.200; -283.000; -264.000
264.261; -214.000; -847.000; -630.000
264.402;   10.300;   33.000;   40.000
264.543; -140.700; -509.000; -524.000
264.684;  -11.200;   61.000;  -50.000
264.825; -145.400; -816.000; -538.000
264.966;  -10.400;  -84.000;  -67.000
265.107; -235.200; -646.000; -670.000
265.248; -240.800; -825.000; -812.000
265.390;  -10.600;  152.000;   -9.000
265.531;  -47.400; -238.000; -107.000
265.672; -174.500; -557.000; -630.000
265.813;  139.400;  563.000;  439.000
265.954; -278.600; -959.000; -940.000
266.095;  -37.600; -372.000; -322.000
266.236; -176.600; -686.000; -548.000
266.377;  -69.200; -243.000; -297.000
266.518; -165.500; -619.000; -547.000
266.659;   52.800;  170.000;  268.000
266.800;   20.300;   83.000;   85.000
266.941; -154.500; -487.000; -478.000
267.082;   25.200;  354.000;   99.000
267.223; -104.000; -344.000; -273.000
267.364; -243.500; -892.000; -686.000
267.504;  -42.100;    3.000;  135.000
267.645;   -0.300;  160.000;   67.000
267.786;  -63.800; -147.000;  -86.000
267.927; -119.500; -473.000; -379.000
268.068;  -61.700; -186.000;  -61.000
268.209; -111.600; -175.000; -413.000
268.350;  -68.200; -388.000; -532.000
268.490; -189.000; -648.000; -521.000
268.631;   44.600;  127.000;  225.000
268.772; -217.100; -874.000; -647.000
268.913; -116.800; -328.000; -476.000
269.054;  -54.200; -117.000;   12.000
269.194;  -76.500; -418.000; -402.000
269.335; -333.600;-1137.000;-1074.000
269.476;  -62.000;   33.000;  -35.000
269.617;  -93.500; -347.000; -392.000
269.757; -193.000; -713.000; -646.000
269.898; -218.100; -856.000; -613.000
270.039; -118.200; -415.000; -405.000
270.180; -254.800; -952.000; -816.000
270.320;  -42.700; -190.000; -250.000
270.461;  -65.400; -277.000; -249.000
270.602;  -26.100; -186.000; -156.000
270.742; -256.300; -868.000; -943.000
270.883; -101.100; -442.000; -390.000
271.023;  -96.400; -358.000; -357.000
271.164; -150.200; -607.000; -528.000
271.305; -177.800; -666.000; -654.000
271.445; -162.300; -722.000; -683.000
271.586; -150.700; -462.000; -283.000
271.726;  -93.400; -397.000; -322.000
271.867; -168.700; -594.000; -534.000
272.008;   90.600; -473.000; -285.000
272.148;  170.600;  462.000;  468.000
272.289;   19.400; -113.000; -181.000
272.429;   24.800;   19.000;  185.000
272.570; -197.200; -633.000; -737.000
272.710; -214.400; -825.000; -775.000
272.851;  -47.600;  113.000; -130.000
272.991; -307.300;-1173.000;-1077.000
273.131;  -99.700; -419.000; -459.000
273.272; -213.200; -683.000; -723.000
273.412;  -43.600; -143.000;  -31.000
273.553; -125.400; -488.000; -507.000
273.693;  278.700;  913.000;  858.000
273.834; -234.000; -894.000; -692.000
273.974; -165.100; -664.000; -615.000
274.114; -200.700; -772.000; -560.000
274.255;   98.700;  414.000;  373.000
274.395;  -53.300; -180.000; -125.000
274.535;   59.900;  199.000;  350.000
274.676;   50.700;  225.000;   94.000
274.816;   25.000;  110.000;   34.000
274.956; -188.800; -624.000; -690.000
275.097; -245.700;-1014.000; -922.000
275.237; -246.800; -913.000; -803.000
275.377; -187.100; -778.000; -689.000
275.517; -299.600; -878.000; -937.000
275.658; -128.600; -590.000; -555.000
275.798; -160.600; -606.000; -413.000
275.938;   28.200;  215.000;  323.000
276.078; -198.300; -626.000; -395.000
276.218;   20.500;   99.000;  104.000
276.359; -285.200;-1026.000;-1024.000
276.499; -172.900; -605.000; -446.000
276.639;  -61.700; -305.000; -151.000
276.779;  -94.700; -475.000; -357.000
276.919; -210.000; -783.000; -624.000
277.059;  -42.900; -261.000; -212.000
277.199;  -95.200; -357.000; -259.000
277.340;   84.900;  287.000;  175.000
277.480; -196.400; -840.000; -693.000
277.620;   68.000;  192.000;   16.000
277.760; -413.600;-1533.000;-1294.000
277.900;    6.300;  113.000;   33.000
278.040;   31.300;  137.000;  159.000
278.180;   58.600;  270.000;  170.000
278.320;   10.600;   21.000;   56.000
278.460; -128.500; -443.000; -469.000
278.600; -190.300; -708.000; -598.000
278.740;   92.600;  448.000;  224.000
278.880; -225.900; -768.000; -791.000
279.020;  -17.000; -194.000; -144.000
279.160; -174.500; -672.000; -595.000
279.300; -234.300; -926.000; -873.000
279.440; -199.400; -709.000; -622.000
279.579; -189.200;-1014.000; -929.000
279.719;  -98.400; -410.000; -394.000
279.859;   51.500;   -4.000;   41.000
279.999;   -6.300; -208.000;  101.000
280.139; -105.200; -435.000; -387.000
280.279; -194.300; -708.000; -745.000
280.419;  -24.900; -229.000; -147.000
280.559;  -88.300; -259.000; -180.000
280.698; -194.000; -790.000; -639.000
280.838; -218.100; -778.000; -800.000
280.978; -235.900; -846.000; -790.000
281.118; -210.700; -811.000; -704.000
281.257;   19.800;   24.000;    6.000
281.397; -290.700;-1094.000; -960.000
281.537; -203.000; -599.000; -712.000
281.677;  -12.700; -150.000; -101.000
281.816; -175.000; -700.000; -630.000
281.956;  -52.000; -193.000; -257.000
282.096; -120.500; -539.000; -396.000
282.235; -186.300; -672.000; -638.000
282.375;  -60.200; -243.000;  -98.000
282.515; -183.200; -715.000; -707.000
282.654;   65.500;   29.000;  106.000
282.794;   85.500;  388.000;  244.000
282.934; -107.700; -530.000; -491.000
283.073; -273.100;-1030.000; -857.000
283.213; -106.000; -460.000; -467.000
283.353;  -83.600; -408.000; -349.000
283.492;  -64.000; -264.000; -296.000
283.632;  -78.900; -254.000; -168.000
283.771; -215.300; -859.000; -730.000
283.911;  -57.400; -369.000; -260.000
284.050; -215.200; -794.000; -748.000
284.190; -320.500;-1229.000;-1096.000
284.329; -250.500;-1055.000; -964.000
284.469; -149.000; -516.000; -591.000
284.608; -109.300; -559.000; -598.000
284.748; -141.500; -614.000; -570.000
284.887;   33.300;  -87.000;  -20.000
285.027; -243.200; -844.000; -892.000
285.166;  -44.200; -192.000; -249.000
285.306;    7.300; -116.000;  -33.000
285.445;  -98.600; -229.000; -343.000
285.584; -177.900; -630.000; -494.000
285.724;  -73.800; -282.000; -322.000
285.863; -217.900; -857.000; -507.000
286.002;  -75.500; -366.000; -276.000
286.142; -220.600; -715.000; -622.000
286.281; -115.300; -525.000; -493.000
286.420; -185.100; -554.000; -417.000
286.560;  206.300;  653.000;  623.000
286.699; -284.300; -958.000; -912.000
286.838; -149.500; -590.000; -591.000
286.978; -173.200; -533.000; -537.000
287.117; -271.700;-1085.000; -950.000
287.256;  -68.200; -228.000; -211.000
287.395;  -97.100; -197.000; -378.000
287.535; -108.800; -370.000; -298.000
287.674; -132.600; -509.000; -484.000
287.813;  133.200;  661.000;  533.000
287.952; -235.500;-1010.000; -871.000
288.091; -310.700;-1049.000; -915.000
288.231;   12.900;   13.000;   15.000
288.370; -361.600;-1217.000;-1200.000
288.509; -190.800; -728.000; -645.000
288.648; -152.300; -770.000; -548.000
288.787;  -41.100; -243.000;  -87.000
288.926; -111.100; -454.000; -475.000
289.065;  215.400;  859.000;  672.000
289.204;  -76.400; -377.000; -217.000
289.344; -209.600; -791.000; -690.000
289.483;   68.200;  416.000;  304.000
289.622;  -41.100; -291.000; -149.000
289.761;   -5.000; -309.000; -166.000
289.900; -209.800; -785.000; -626.000
290.039;  -14.500;  -12.000;  -95.000
290.178;  -69.600; -274.000; -180.000
290.317; -190.100; -618.000; -479.000
290.456; -121.700; -463.000; -451.000
290.595; -282.700; -961.000; -833.000
290.734; -257.000; -904.000; -891.000
290.873; -142.500; -456.000; -420.000
291.011; -237.500; -833.000; -843.000
291.150; -222.300; -770.000; -682.000
291.289;  -77.100; -343.000; -110.000
291.428; -182.300; -599.000; -480.000
291.567; -130.300; -370.000; -442.000
291.706;   14.800;  109.000;  154.000
291.845; -181.300; -597.000; -505.000
291.984; -343.900;-1234.000;-1061.000
292.122;  142.900;  602.000;  582.000
292.261;   94.900;  620.000;  463.000
292.400;   -7.300; -144.000;  211.000
292.539; -257.200; -959.000; -813.000
292.678;  -88.300; -325.000; -300.000
292.816; -304.800;-1136.000; -965.000
292.955; -180.200; -844.000; -684.000
293.094;  -62.400; -173.000; -337.000
293.233; -127.200; -556.000; -400.000
293.371;  -83.100; -225.000;  -84.000
293.510; -206.600; -866.000; -780.000
293.649; -274.100; -959.000; -924.000
293.787; -231.500;-1083.000;-1012.000
293.926;  -24.600; -113.000;  -32.000
294.065; -126.400; -379.000; -290.000
294.203;  105.500;  298.000;  406.000
294.342;   28.200;   74.000;  156.000
294.481;11662.200;51180.000; -836.000
294.619;  -53.600; -425.000; -582.000
294.758; -291.900;-1230.000;-1137.000
294.896;   14.000; -125.000;    5.000
295.035; -280.000;-1040.000;-1006.000
295.174; -264.100;-1082.000; -954.000
295.312; -103.000; -323.000; -203.000
295.451;  -94.400; -307.000; -428.000
295.589; -127.900; -389.000; -518.000
295.728;   30.400; -292.000; -165.000
295.866;    1.300;  -36.000;  -51.000
296.005; -131.200; -584.000; -341.000
296.143; -173.500; -558.000; -596.000
296.282; -228.000; -957.000; -881.000
296.420; -169.100; -657.000; -557.000
296.559; -178.600; -892.000; -633.000
296.697; -115.100; -847.000; -665.000
296.835; -145.400;-1141.000;-1002.000
296.974;  103.800;  -23.000;   39.000
297.112;  -53.900; -443.000; -504.000
297.251; -161.600; -815.000; -755.000
297.389;  -21.600; -576.000; -438.000
297.527;   31.000; -145.000;  -83.000
297.666; -124.700; -486.000; -438.000
297.804; -100.500; -404.000; -264.000
297.942;  -35.200; -136.000; -161.000
298.081;  -33.400; -183.000;   63.000
298.219;   44.000;  -17.000;  -19.000
298.357;   -5.000; -144.000;  -71.000
298.495;  -96.600; -810.000; -812.000
298.634;   63.800;  245.000;  219.000
298.772;  -38.400; -220.000; -338.000
298.910;  -75.500; -309.000; -182.000
299.048;  -47.500; -130.000; -153.000
299.187;  -74.700; -350.000; -250.000
299.325;   21.100;   52.000;  122.000
299.463;  -51.300; -389.000; -299.000
299.601;   46.300; -327.000; -271.000
299.739; -257.300; -908.000; -883.000
299.877; -217.300; -791.000; -703.000
300.016; -195.000;-1095.000; -935.000
300.154;  108.400;  -19.000; -161.000
300.292;  -59.200; -428.000; -348.000
300.430;  -68.200; -408.000; -291.000
300.568; -217.700; -940.000; -874.000
300.706;  -78.300; -366.000; -469.000
300.844; -253.900;-1108.000; -979.000
300.982;  150.800;  246.000;  282.000
301.120; -249.700; -965.000; -866.000
301.258; -168.300; -812.000; -705.000
301.396;   23.400;  104.000;  -41.000
301.534;  -15.000; -218.000; -293.000
301.672; -142.800; -664.000; -521.000
301.810; -117.000; -613.000; -545.000
301.948;  105.500;   53.000;  149.000
302.086;  431.500; -250.000;  -32.000
302.224;  566.900; -610.000; -585.000
302.362;  -97.600; -558.000; -622.000
302.500; -168.000; -923.000; -893.000
302.638;  120.800;  128.000;  245.000
302.776;  -50.800; -352.000; -408.000
302.913;  105.200;  447.000;  236.000
303.051;  -42.900;  -86.000;  -23.000
303.189;   90.500;   90.000;  118.000
303.327;  -70.100; -341.000; -256.000
303.465; -177.200; -832.000; -588.000
303.603; -178.500; -805.000; -604.000
303.740;  115.900;  417.000;  241.000
303.878; -111.700; -800.000; -759.000
304.016; -202.700; -915.000; -790.000
304.154; -311.200;-1123.000;-1152.000
304.291; -113.800; -505.000; -554.000
304.429;   32.800;  102.000;   74.000
304.567; -266.900; -908.000; -893.000
304.705; -134.500; -408.000; -515.000
304.842;  -73.600; -616.000; -540.000
304.980;   84.900;  215.000;   35.000
305.118;  -20.700; -367.000; -365.000
305.255; -214.500; -945.000; -927.000
305.393;  116.500;  178.000;  239.000
305.531; -275.300;-1173.000; -956.000
305.668; -167.900; -663.000; -582.000
305.806;   17.400; -358.000; -439.000
305.943;  -50.800; -629.000; -637.000
306.081;  -22.500; -378.000; -267.000
306.219; -212.300; -863.000; -748.000
306.356;   19.100;  158.000;   27.000
306.494;  270.500;  981.000;  761.000
306.631;   40.400;  -11.000;  -55.000
306.769;  -42.200; -613.000; -485.000
306.906;    4.700; -284.000; -258.000
307.044;  -66.400; -473.000; -488.000
307.181; -120.500; -410.000; -332.000
307.319;  121.500;  112.000;   87.000
307.456; -319.900;-1191.000;-1153.000
307.594; -239.700; -980.000; -727.000
307.731;  -32.900; -371.000; -164.000
307.868;    0.400;  -15.000;   20.000
308.006; -245.200; -961.000; -847.000
308.143; -118.000; -618.000; -330.000
308.281;  162.300;  -37.000; -254.000
308.418;  -70.600; -748.000; -640.000
308.555; -111.400; -400.000; -250.000
308.693; -129.400; -577.000; -573.000
308.830; -170.900; -712.000; -657.000
308.967;  -20.500; -215.000;  -95.000
309.105;   -5.600; -507.000; -396.000
309.242;   31.100; -468.000; -367.000
309.379;  205.700; -577.000; -655.000
309.517; -163.200; -936.000; -948.000
309.654; -196.300; -910.000; -734.000
309.791; -108.100; -662.000; -580.000
309.928; -218.400; -977.000; -914.000
310.065;  297.400;  819.000;  697.000
310.203; -130.500; -825.000; -850.000
310.340;  -50.400; -465.000; -321.000
310.477; -124.100; -412.000; -516.000
310.614; -108.000; -383.000; -473.000
310.751;  -86.400; -427.000; -518.000
310.889;  -33.300;    1.000;   11.000
311.026; -257.500;-1161.000; -939.000
311.163;  -94.700; -386.000; -380.000
311.300; -104.700; -512.000; -479.000
311.437; -110.200; -658.000; -619.000
311.574; -289.800;-1226.000; -985.000
311.711; -102.700; -595.000; -433.000
311.848;  -41.900; -380.000; -388.000
311.985;   44.500;  270.000;   93.000
312.122; -218.000; -932.000; -762.000
312.259; -172.600; -941.000; -994.000
312.396;  -98.600; -508.000; -551.000
312.533; -129.600; -812.000; -790.000
312.670; -252.600;-1070.000; -898.000
312.807;  -28.200; -352.000; -367.000
312.944;  -93.400; -513.000; -611.000
313.081;  -29.500; -150.000; -415.000
313.218; -209.600;-1111.000; -867.000
313.355;  -37.600; -531.000; -449.000
313.492;    6.700; -455.000; -292.000
313.629;  221.900;  815.000;  735.000
313.766; -288.800;-1176.000;-1008.000
313.902;    0.200; -186.000;   21.000
314.039;  -96.300; -372.000; -289.000
314.176;  105.700;  286.000;  192.000
314.313; -153.400; -569.000; -473.000
314.450; -150.300; -788.000; -684.000
314.587;  -95.700; -468.000; -480.000
314.723;   29.200;  -78.000;  130.000
314.860;  101.700;  318.000;  332.000
314.997;   67.100;  223.000;  142.000
315.134;  -83.700; -385.000; -368.000
315.270;  -77.100; -480.000; -496.000
315.407; -294.500;-1094.000; -967.000
315.544; -108.000; -657.000; -538.000
315.681; -158.400; -681.000; -565.000
315.817;   33.600; -133.000; -176.000
315.954;  -69.000; -613.000; -392.000
316.091; -261.900;-1045.000;-1023.000
316.227;   -0.200;  -71.000; -179.000
316.364;   45.000;   23.000;    6.000
316.500;  -86.800; -113.000; -300.000
316.637;  -62.500; -181.000; -302.000
316.774; -140.000; -625.000; -358.000
316.910; -149.100; -598.000; -629.000
317.047;  -99.000; -487.000; -351.000
317.183; -108.700; -435.000; -566.000
317.320;  -88.000; -367.000; -321.000
317.456; -169.200; -733.000; -805.000
317.593; -151.000; -598.000; -641.000
317.729;   17.000;  168.000;  -67.000
317.866; -375.600;-1434.000;-1285.000
318.002; -167.400; -708.000; -948.000
318.139; -199.700; -883.000; -867.000
318.275; -209.000;-1003.000; -738.000
318.412;  -92.200; -517.000; -336.000
318.548; -139.100; -751.000; -720.000
318.685; -211.300; -985.000; -888.000
318.821; -199.700; -762.000; -735.000
318.957;  -36.000;   34.000;  -23.000
319.094;   76.300;  297.000;  154.000
319.230; -173.200; -756.000; -742.000
319.367;   57.600; -471.000; -520.000
319.503;    7.900; -538.000; -436.000
319.639; -183.300; -877.000; -793.000
319.775; -164.400; -750.000; -685.000
319.912;  -79.100; -424.000; -519.000
320.048; -254.500;-1184.000;-1184.000
320.184;   73.100;   59.000;   70.000
320.321; -100.100; -497.000; -467.000
320.457;  137.200;  475.000;  662.000
320.593; -105.700; -375.000; -382.000
320.729; -203.200; -732.000; -734.000
320.866; -150.200; -577.000; -635.000
321.002; -189.000; -759.000; -809.000
321.138;  -45.300; -135.000; -211.000
321.274;   26.200; -148.000; -115.000
321.410; -105.200; -585.000; -353.000
321.546; -175.600;-1011.000; -911.000
321.683;   60.300;  400.000;  185.000
321.819;  -25.500;  -48.000; -117.000
321.955; -201.300; -743.000; -722.000
322.091; -110.800; -585.000; -540.000
322.227;  -72.300; -382.000; -202.000
322.363;  -41.600; -320.000; -215.000
322.499;  -86.400; -343.000; -331.000
322.635;  209.300;  636.000;  443.000
322.771;    2.000; -139.000;   12.000
322.907;  134.800;  129.000;  327.000
323.043;  -67.000; -115.000; -206.000
323.179;  -99.900; -394.000; -363.000
323.315;  -63.400; -401.000; -371.000
323.451;   -2.500; -328.000; -236.000
323.587;   51.800;  -60.000;  -77.000
323.723;  -85.100; -682.000; -601.000
323.859;  -42.200; -258.000;  -76.000
323.995;  -80.700; -467.000; -409.000
324.131; -230.900; -967.000; -892.000
324.267;  -54.400; -254.000; -276.000
324.402; -262.200; -960.000; -983.000
324.538;  -50.100; -279.000; -104.000
324.674;   49.500;  164.000;   77.000
324.810;  161.500;  226.000;  308.000
324.946;  -35.300; -810.000; -658.000
325.082; -125.700; -568.000; -475.000
325.217;  -23.400;  -62.000;   16.000
325.353; -208.300; -764.000; -659.000
325.489; -195.400; -540.000; -506.000
325.625; -132.000; -579.000; -525.000
325.760;  118.000;  517.000;  376.000
325.896;  -89.800; -515.000; -702.000
326.032; -111.900; -403.000; -352.000
326.168;  -83.300; -462.000; -369.000
326.303;  -98.800; -352.000; -461.000
326.439;  -50.900; -336.000; -276.000
326.575;   11.100; -190.000;  -29.000
326.710;   11.300; -156.000;  -30.000
326.846;   13.100;  146.000;  103.000
326.982; -169.300; -530.000; -548.000
327.117; -149.600; -481.000; -442.000
327.253; -213.000; -745.000; -742.000
327.388; -345.900;-1137.000;-1153.000
327.524; -141.800; -811.000; -578.000
327.659;  -60.100;  -58.000;  -22.000
327.795;   24.300;   69.000;   45.000
327.931; -155.800; -723.000; -499.000
328.066;  -44.200; -417.000; -276.000
328.202;  -21.700;   12.000; -129.000
328.337;  229.800;  957.000;  713.000
328.473;    4.700;  -12.000;  -74.000
328.608;  -71.400; -256.000; -267.000
328.743; -201.500; -799.000; -664.000
328.879;   62.000;  214.000;  114.000
329.014; -127.500; -102.000; -122.000
329.150; -141.500; -358.000; -483.000
329.285; -159.000; -465.000; -466.000
329.421;  -66.600; -548.000; -246.000
329.556;  -17.400;  -36.000;   85.000
329.691; -192.100; -633.000; -615.000
329.827; -147.200; -626.000; -480.000
329.962;  -64.800;  131.000; -301.000
330.097; -159.900; -673.000; -585.000
330.233;  -97.700; -410.000; -223.000
330.368; -232.400; -839.000; -628.000
330.503;    8.600;    3.000;   98.000
330.638;  -12.500;  -93.000; -125.000
330.774; -143.000; -609.000; -530.000
330.909;  -93.000; -434.000; -244.000
331.044; -190.900; -714.000; -708.000
331.179; -366.600;-1217.000;-1109.000
331.315;   34.000;   77.000;   20.000
331.450;   46.500;  157.000;  285.000
331.585; -200.300; -805.000; -706.000
331.720; -168.900; -510.000; -460.000
331.855;  -14.700;  -35.000; -102.000
331.990;  198.900;   62.000;  138.000
332.126;   95.800; -110.000;   71.000
332.261;  -91.800; -379.000; -265.000
332.396;  -84.500; -135.000; -242.000
332.531; -273.500;-1074.000;-1031.000
332.666;  -24.100; -519.000; -363.000
332.801; -202.000; -726.000; -807.000
332.936;   -5.000; -192.000; -122.000
333.071; -312.200; -870.000; -817.000
333.206;   77.500;  307.000;  379.000
333.341;   61.400;  344.000;  418.000
333.476; -152.900; -627.000; -623.000
333.611;  -55.400; -251.000; -173.000
333.746; -103.600; -381.000; -464.000
333.881; -245.400; -973.000; -935.000
334.016; -249.800; -936.000; -917.000
334.151; -246.600; -746.000; -702.000
334.286;   22.800;  152.000;  186.000
334.421;  -57.200; -125.000; -178.000
334.556; -171.100; -611.000; -567.000
334.690; -182.700; -631.000; -577.000
334.825;  121.600;  381.000;   83.000
334.960; -124.600; -285.000; -413.000
335.095;   20.700;  135.000;  -91.000
335.230; -202.100; -722.000; -738.000
335.365; -297.000;-1084.000; -990.000
335.499; -302.300;-1108.000;-1037.000
335.634;   49.700;    9.000;  534.000
335.769; -243.300; -755.000; -720.000
335.904; -163.900; -603.000; -561.000
336.038; -188.500; -735.000; -657.000
336.173; -286.100;-1206.000;-1194.000
336.308;  -30.200; -116.000; -189.000
336.443;  -74.700; -544.000; -634.000
336.577; -210.100; -936.000; -787.000
336.712;   27.800;   -4.000;  -12.000
336.847; -166.500; -724.000; -607.000
336.981;  -39.600; -272.000; -208.000
337.116;  255.600;  615.000;  501.000
337.250;   14.600; -434.000; -421.000
337.385;  142.600; -297.000; -208.000
337.520;  -32.300; -632.000; -603.000
337.654;  -66.900; -215.000; -126.000
337.789; -257.800; -989.000; -933.000
337.923;  -56.100; -104.000; -205.000
338.058; -213.400; -673.000; -738.000
338.192; -136.100; -611.000; -488.000
338.327;  -22.000;  -18.000; -155.000
338.461; -144.000; -299.000; -469.000
338.596; -186.600; -780.000; -638.000
338.730; -228.900; -767.000; -803.000
338.865;   61.000;  -46.000; -140.000
338.999; -174.200; -846.000; -702.000
339.134; -121.400; -634.000; -536.000
339.268; -112.500; -741.000; -603.000
339.403;   88.600; -740.000; -775.000
339.537;  -74.200; -894.000; -820.000
339.671; -210.000; -829.000; -813.000
339.806; -148.600; -556.000; -512.000
339.940;  -41.900; -261.000; -235.000
340.074; -175.800; -685.000; -510.000
340.209; -102.300; -351.000; -230.000
340.343; -165.000; -517.000; -573.000
340.477;  288.500;  998.000; 1036.000
340.612; -214.300;-1033.000; -900.000
340.746;   59.400; -199.000; -243.000
340.880; -198.800; -924.000; -785.000
341.014;  -10.100;  -45.000; -154.000
341.149; -191.700; -756.000; -718.000
341.283; -205.100; -839.000; -754.000
341.417; -230.800;-1124.000; -938.000
341.551;  -25.900; -768.000; -708.000
341.685;  -95.700; -633.000; -611.000
341.820; -118.400; -562.000; -493.000
341.954; -119.200; -218.000; -349.000
342.088; -266.500;-1102.000;-1019.000
342.222;  113.300;  565.000;  618.000
342.356; -118.200; -395.000; -335.000
342.490; -220.600; -880.000; -841.000
342.624; -102.300; -339.000; -242.000
342.758;  -55.400; -364.000; -312.000
342.892; -178.900; -710.000; -585.000
343.026;  -66.000;  -58.000; -116.000
343.160;  -74.100; -426.000; -376.000
343.294; -146.100; -474.000; -337.000
343.428;  -78.500; -488.000; -448.000
343.562;  -51.000; -172.000;  -23.000
343.696;  -82.200; -385.000; -314.000
343.830;  -76.700; -362.000; -356.000
343.964;  -13.000; -231.000; -168.000
344.098;  727.300;  199.000;   70.000
344.232;  623.300; -266.000; -127.000
344.366;  -39.700; -567.000; -453.000
344.500;  -75.000; -665.000; -744.000
344.634;   -1.400; -324.000; -164.000
344.768; -104.600; -531.000; -341.000
344.902;   51.100;  278.000;  256.000
345.035; -133.200; -556.000; -496.000
345.169; -255.700; -933.000; -656.000
345.303;  -78.400; -308.000; -482.000
345.437; -202.900; -826.000; -717.000
345.571; -203.800; -675.000; -594.000
345.704; -130.600; -309.000; -532.000
345.838;  -71.900; -331.000; -284.000
345.972; -103.900; -543.000; -495.000
346.106;  129.300; -179.000; -190.000
346.239;  216.400; -312.000; -243.000
346.373;  -76.500; -343.000; -302.000
346.507; -277.900; -950.000; -962.000
346.640;   78.500;  -30.000;   13.000
346.774; -175.000; -650.000; -797.000
346.908;  -14.000; -138.000;  -11.000
347.041; -178.900; -646.000; -593.000
347.175;   -3.600;  259.000;   27.000
347.309; -185.500; -698.000; -628.000
347.442; -215.700; -883.000; -732.000
347.576;  314.700;  670.000;  668.000
347.709;  117.100; -123.000;  -52.000
347.843; -207.100; -933.000; -825.000
347.976;   86.000;  235.000;  294.000
348.110; -349.100;-1268.000;-1186.000
348.243; -162.100; -679.000; -772.000
348.377;   -6.500;  -26.000;   60.000
348.510;  105.700;  403.000;  540.000
348.644;  -84.400;  -37.000; -159.000
348.777;   18.200;  180.000;  191.000
348.911;  -66.900; -142.000; -112.000
349.044;  201.500;  471.000;  448.000
349.178;  -42.300;-1069.000;-1006.000
349.311;  113.600;  141.000;  255.000
349.444; -152.200; -927.000; -813.000
349.578;  -75.500; -347.000; -200.000
349.711; -208.100; -959.000; -862.000
349.845; -111.900; -661.000; -591.000
349.978; -319.800;-1224.000;-1137.000
350.111; -145.600; -546.000; -612.000
350.244; -172.300; -596.000; -700.000
350.378;  -31.400; -392.000; -393.000
350.511; -153.300; -393.000; -426.000
350.644; -216.200; -808.000; -806.000
350.778;   17.400;  168.000;  104.000
350.911;   -4.500;  134.000;  140.000
351.044; -197.400; -685.000; -615.000
351.177;  -61.600; -321.000; -281.000
351.310;   19.700;    3.000; -131.000
351.444; -205.800; -888.000; -788.000
351.577;  116.500;  140.000;   90.000
351.710;  221.500;  593.000;  417.000
351.843;  -69.200; -165.000;  -77.000
351.976;   34.100;  149.000;  -79.000
352.109; -165.700; -621.000; -612.000
352.242; -108.100; -464.000; -419.000
352.376; -169.300; -580.000; -636.000
352.509;   54.600; -437.000; -356.000
352.642; -184.700; -654.000; -604.000
352.775;   35.100; -141.000;  -98.000
352.908; -261.700; -933.000; -904.000
353.041; -201.700; -814.000; -824.000
353.174; -138.000; -551.000; -424.000
353.307; -174.000; -753.000; -764.000
353.440;  116.300;  541.000;  453.000
353.573; -236.700; -957.000;-1008.000
353.706; -152.600; -384.000; -558.000
353.839;  -50.200; -264.000; -220.000
353.971; -153.600; -657.000; -512.000
354.104; -209.800; -896.000; -835.000
354.237; -143.000; -627.000; -662.000
354.370; -193.000; -846.000; -879.000
354.503; -354.500;-1231.000;-1308.000
354.636; -131.400; -529.000; -348.000
354.769; -252.000; -937.000; -860.000
354.902;  -71.400; -230.000; -139.000
355.034;  -62.000; -164.000; -220.000
355.167;  -40.300; -262.000; -162.000
355.300; -269.800;-1061.000; -880.000
355.433;  654.700;  -71.000;  -14.000
355.565;  888.600; -402.000; -384.000
355.698;  189.400; -356.000; -296.000
355.831; -175.100; -882.000; -801.000
355.964;   31.600; -285.000; -170.000
356.096; -219.700; -856.000; -843.000
356.229;  -92.500; -523.000; -530.000
356.362;  140.400; -373.000; -266.000
356.494;  348.500; -229.000; -162.000
356.627;  387.400;  269.000;  377.000
356.760;  430.900;  120.000;   53.000
356.892;  497.100; -286.000; -601.000
357.025;  513.200;  403.000;  389.000
357.157;  408.200; -167.000; -179.000
357.290;  395.800; -856.000; -713.000
357.423;   20.900; -667.000; -556.000
357.555;   56.800; -217.000; -228.000
357.688;   21.400; -483.000; -364.000
357.820;  163.300; -870.000; -877.000
357.953; 2497.200; -563.000; -589.000
358.085;  436.900; -632.000; -612.000
358.218;  567.800;-1131.000; -932.000
358.350;  159.900;  -58.000;  312.000
358.483; -312.500;-1300.000;-1187.000
358.615; -189.800;-1182.000;-1078.000
358.747; -242.200;-1187.000;-1058.000
358.880; -103.400; -810.000; -744.000
359.012;  -65.700; -376.000; -202.000
359.145; -129.400; -480.000; -511.000
359.277; -146.600; -962.000; -913.000
359.409; 2323.200;  536.000;  231.000
359.542;  444.100; -738.000; -688.000
359.674;   43.500;   46.000;   13.000
359.806; -130.400; -565.000; -438.000
359.939; -114.400; -617.000; -516.000
360.071; -105.500; -583.000; -579.000
360.203;  -64.700; -411.000; -364.000
360.335;   38.100;  164.000;  -16.000
360.468;   94.800; -249.000; -307.000
360.600; 1635.000; -547.000; -454.000
360.732; 1811.800; -546.000; -423.000
360.864;   11.600;-1216.000;-1044.000
360.996;  104.700; -516.000; -554.000
361.129;  -60.500; -389.000; -598.000
361.261;   16.100;  110.000; -113.000
361.393;  -69.000; -252.000; -214.000
361.525;   55.400;   94.000;  244.000
361.657; -152.900; -821.000; -703.000
361.789;  -15.900; -139.000; -155.000
361.921;   17.300; -642.000; -593.000
362.053;  298.000;  524.000;  541.000
362.185;   60.000;  288.000;   72.000
362.318; -162.900; -709.000; -705.000
362.450;  151.500;  294.000;  444.000
362.582;  -77.700; -913.000; -870.000
362.714;  -93.400; -353.000; -332.000
362.846; -143.900; -606.000; -490.000
362.978; -260.600; -941.000; -811.000
363.109;  -15.500; -161.000; -260.000
363.241;  139.900; -739.000; -749.000
363.373;  186.300; -649.000; -564.000
363.505;  423.700; -186.000;  -91.000
363.637;    6.900; -787.000; -601.000
363.769; -295.600;-1067.000;-1080.000
363.901; -150.100; -596.000; -654.000
364.033; -280.300;-1103.000;-1062.000
364.165;  -32.100; -283.000; -283.000
364.296;   -5.700; -316.000; -177.000
364.428; -157.700;-1344.000;-1220.000
364.560; -191.800; -679.000; -661.000
364.692; -117.100; -738.000; -835.000
364.824;   69.900; -588.000; -456.000
364.955;  251.500; -402.000; -564.000
365.087;  420.300;-1097.000; -852.000
365.219; -130.800; -686.000; -816.000
365.351; -156.700; -526.000; -572.000
365.482;   75.700;  300.000;  240.000
365.614; -106.300; -402.000; -314.000
365.746; -195.600; -729.000; -752.000
365.877; -206.100; -706.000; -672.000
366.009;  171.900;  -35.000;  -62.000
366.141; -273.800;-1249.000;-1134.000
366.272; -233.100; -803.000; -719.000
366.404; -211.800;-1005.000; -874.000
366.535;   -2.000; -139.000;  -12.000
366.667; -197.100; -644.000; -649.000
366.799;   99.200;  353.000;  203.000
366.930; -269.600; -862.000; -996.000
367.062;  -11.300; -639.000; -613.000
367.193;  -62.800; -872.000; -842.000
367.325; -136.400; -580.000; -684.000
367.456;    1.300; -246.000;   31.000
367.588;   35.000; -371.000; -318.000
367.719;  -13.200;  -44.000;  -45.000
367.851;  -34.700; -222.000; -241.000
367.982; -196.800; -875.000; -732.000
368.113;    4.700; -475.000; -358.000
368.245; -258.200; -960.000; -841.000
368.376;  -37.800; -254.000; -302.000
368.508;  -81.100; -188.000; -263.000
368.639; -275.700;-1166.000;-1034.000
368.770; -160.200; -670.000; -589.000
368.902; -181.400; -836.000; -926.000
369.033; -221.400; -906.000; -855.000
369.164; -137.200; -720.000; -653.000
369.296; -192.900; -452.000; -601.000
369.427;  -30.600; -209.000; -144.000
369.558; -128.800; -593.000; -377.000
369.689; -146.000; -721.000; -569.000
369.821; -249.200; -951.000; -845.000
369.952;  -13.400;   42.000; -108.000
370.083;  -66.200; -229.000; -108.000
370.214; -144.200; -735.000; -650.000
370.345;    6.800;   65.000;   81.000
370.477; -203.400; -810.000; -790.000
370.608;  166.800; -328.000; -264.000
370.739; -230.400;-1233.000;-1292.000
370.870; -187.800;-1102.000; -923.000
371.001;   15.500; -378.000; -467.000
371.132; -167.700; -754.000; -735.000
371.263;  -13.600;  -42.000; -148.000
371.394; -254.600; -841.000; -748.000
371.525;   80.100;  345.000;  225.000
371.657; -187.000; -808.000; -670.000
371.788;  105.100;  103.000;  199.000
371.919;   78.500; -384.000; -304.000
372.050; 3031.600;  -91.000; -156.000
372.181;  854.700; -188.000; -294.000
372.311;  318.200;   42.000; -127.000
372.442;  -49.800; -457.000; -451.000
372.573;  -70.900; -444.000; -340.000
372.704; -281.800;-1008.000; -980.000
372.835;  -25.400; -228.000; -289.000
372.966; -147.600; -646.000; -554.000
373.097; -155.600; -575.000; -711.000
373.228; -123.000; -717.000; -542.000
373.359;  -17.400; -824.000; -536.000
373.490;  524.000; -881.000; -727.000
373.620;  618.000;-1001.000; -803.000
373.751; 1391.400; -332.000; -396.000
373.882;  514.700; -663.000; -733.000
374.013;  -14.100; -449.000; -262.000
374.143; -145.000; -581.000; -659.000
374.274; -259.300; -987.000; -908.000
374.405;   51.600; -388.000; -276.000
374.536;  255.600; -526.000; -387.000
374.666;  777.100; -759.000; -807.000
374.797;   27.800; -817.000; -868.000
374.928;  519.000; -710.000; -560.000
375.058;  512.000; -535.000; -500.000
375.189;   36.900;  -59.000;  -93.000
375.320; -271.600; -928.000;-1034.000
375.450; -155.600; -625.000; -616.000
375.581; -164.400; -526.000; -436.000
375.712;  -73.200; -574.000; -250.000
375.842;  116.100; -438.000; -415.000
375.973;   51.400; -554.000; -513.000
376.103; -181.000; -665.000; -648.000
376.234; -140.200; -531.000; -552.000
376.364; -196.400; -944.000; -867.000
376.495;  425.400;  925.000;  529.000
376.625; -117.800; -472.000; -485.000
376.756;  -88.500; -709.000; -678.000
376.886; -275.300;-1178.000;-1026.000
377.017; -136.200;-1048.000;-1061.000
377.147;   64.200; -786.000; -782.000
377.278;   55.700;  174.000;  228.000
377.408; -227.400; -801.000; -815.000
377.538; -203.000; -707.000; -693.000
377.669; -148.000; -537.000; -613.000
377.799; -186.400; -645.000; -635.000
377.929; -126.700; -610.000; -428.000
378.060; -235.900; -781.000; -847.000
378.190; -192.000; -726.000; -531.000
378.320; -130.400; -401.000; -406.000
378.451;   10.100; -131.000;  -22.000
378.581;  -13.800;  -67.000; -110.000
378.711;  290.500; 1035.000;  866.000
378.841; -102.000; -533.000; -675.000
378.972; -207.800; -871.000; -751.000
379.102;  -89.700; -652.000; -579.000
379.232;  -65.400; -126.000;  -73.000
379.362; -240.400;-1001.000; -885.000
379.492;  -99.000; -373.000; -424.000
379.623;  102.700;    0.000;  111.000
379.753; -244.500;-1107.000; -974.000
379.883;  194.000;   59.000;  156.000
380.013; -165.500;-1081.000;-1017.000
380.143; -264.800;-1097.000;-1056.000
380.273; -242.800; -985.000; -861.000
380.403;  -68.200; -344.000; -257.000
380.533; -176.900; -651.000; -664.000
380.663;   89.400;  173.000;  128.000
380.793; -252.100;-1027.000;-1074.000
380.923;  -28.500; -103.000;  -34.000
381.053; -184.600; -613.000; -623.000
381.183;  -35.700; -106.000; -248.000
381.313;  -87.600; -656.000; -470.000
381.443;  -61.400; -692.000; -473.000
381.573;   70.100; -402.000; -409.000
381.703;  -30.700;-1249.000;-1095.000
381.833; -353.000;-1454.000;-1336.000
381.963;   81.200; -134.000;  -87.000
382.093;  894.800; -925.000; -909.000
382.223;  193.200; -713.000; -602.000
382.353; -144.300; -801.000; -608.000
382.482;  150.900;-1091.000; -964.000
382.612;  457.900; -872.000; -644.000
382.742;  221.000; -695.000; -622.000
382.872;   95.800; -565.000; -551.000
383.002;   59.300;  347.000; -132.000
383.131;  -68.400; -226.000; -160.000
383.261; -154.100; -706.000; -768.000
383.391;   98.100; -552.000; -377.000
383.521; 2260.200;  451.000;  263.000
383.650;  276.300; -947.000; -904.000
383.780; -146.200; -783.000; -656.000
383.910;  195.600;  880.000;  802.000
384.039; -154.000; -794.000; -656.000
384.169;  -74.500;-1205.000;-1017.000
384.299; -126.600; -650.000; -662.000
384.428; -160.600; -764.000; -680.000
384.558;  -85.500; -308.000; -275.000
384.687;  -89.400; -414.000; -334.000
384.817;    8.300;   75.000;   -2.000
384.947;  -35.700; -234.000; -141.000
385.076;  356.200;  982.000;  912.000
385.206;  154.500;  369.000;  480.000
385.335;  -85.300; -549.000; -417.000
385.465; -179.500; -655.000; -663.000
385.594;  128.100;  -53.000;  -44.000
385.724;  182.900; -868.000; -838.000
385.853;   20.000; -296.000; -270.000
385.982;  985.800; -743.000; -787.000
386.112; 1612.700;-1052.000; -871.000
386.241;   77.800; -307.000; -312.000
386.371;   14.800; -174.000;  -87.000
386.500; -123.400; -825.000; -789.000
386.629; -127.700; -874.000; -817.000
386.759;   54.600;  -43.000;   68.000
386.888;  -33.100; -170.000; -250.000
387.017; -157.500; -648.000; -620.000
387.147; -180.600; -771.000; -798.000
387.276;  -90.600; -410.000; -397.000
387.405;  -45.600; -398.000; -342.000
387.535; -113.200; -452.000; -361.000
387.664; -178.500; -692.000; -620.000
387.793;   31.600; -198.000; -113.000
387.922;  425.000;  255.000;  200.000
388.052;  -66.200; -576.000; -423.000
388.181;  -34.200; -342.000; -472.000
388.310; -127.900; -889.000; -710.000
388.439; -185.600; -749.000; -742.000
388.568;  165.400;  365.000;  244.000
388.697;  798.300; -756.000; -653.000
388.826;   42.700; -768.000; -666.000
388.956;  -16.400; -285.000; -307.000
389.085;  -67.000; -347.000; -287.000
389.214; -225.800; -842.000; -872.000
389.343; -128.700; -645.000; -413.000
389.472;  356.100;  126.000;  149.000
389.601;  387.200;   91.000;    0.000
389.730;  -83.100; -568.000; -687.000
389.859;   86.200;  226.000;   46.000
389.988;  100.400; -423.000; -408.000
390.117;   68.300; -168.000; -146.000
390.246;  -33.700; -331.000; -320.000
390.375;  -41.800; -673.000; -626.000
390.504; -157.100; -703.000; -621.000
390.633; -218.200; -672.000; -726.000
390.761; -169.800; -732.000; -645.000
390.890;   33.100;   -4.000; -130.000
391.019;  -97.600; -421.000; -441.000
391.148; -213.500; -826.000; -855.000
391.277; -146.400; -576.000; -493.000
391.406; -199.600; -821.000; -805.000
391.534;   44.200;  574.000; -301.000
391.663; -151.900; -583.000; -645.000
391.792; -156.600; -673.000; -701.000
391.921;   47.700;   -3.000;   15.000
392.050;  144.300; -287.000; -228.000
392.178; -231.500;-1206.000;-1061.000
392.307;    3.900; -758.000; -712.000
392.436;  -63.000; -427.000; -641.000
392.564;   39.000;  166.000;   -6.000
392.693; -217.900; -860.000; -682.000
392.822;   88.400; -529.000; -534.000
392.950;  -46.800; -880.000; -714.000
393.079;  224.300; -188.000; -328.000
393.208;  -60.200; -488.000; -511.000
393.336;  -21.800; -170.000; -145.000
393.465;  -62.100; -317.000; -199.000
393.593;   34.800;   62.000;   79.000
393.722; -274.800;-1121.000; -916.000
393.850;  -36.400; -188.000;  -61.000
393.979; -291.700; -926.000; -805.000
394.107; -142.700; -517.000; -537.000
394.236;  -95.000; -570.000; -507.000
394.364;  249.700;  383.000;  206.000
394.493;  183.700; -911.000; -767.000
394.621; -166.600; -955.000; -916.000
394.750;  299.700; -873.000; -923.000
394.878; 1890.800; -247.000; -149.000
395.007; 2276.100; -721.000; -807.000
395.135;   68.800; -790.000; -721.000
395.263; -280.700;-1038.000;-1040.000
395.392;   42.100;  -25.000; -107.000
395.520; -161.800; -818.000; -679.000
395.648; -220.200; -865.000; -915.000
395.777;  -90.400; -366.000; -405.000
395.905; -127.400; -449.000; -564.000
396.033;   31.800;  217.000;  172.000
396.162;  449.200; -399.000; -453.000
396.290;  439.200;  -17.000;   -2.000
396.418;  -47.200; -555.000; -514.000
396.546; -185.600; -571.000; -466.000
396.674; -216.900; -850.000; -878.000
396.803;  -14.900;  -72.000;  -23.000
396.931;   30.100; -179.000; -199.000
397.059; -173.800;-1026.000; -989.000
397.187; -255.200;-1026.000; -975.000
397.315; -250.000; -884.000; -649.000
397.443; -154.400; -592.000; -443.000
397.572; -139.600; -578.000; -424.000
397.700; -164.300; -607.000; -614.000
397.828;  -27.700;  120.000;  -90.000
397.956; -134.700; -508.000; -478.000
398.084; -148.700; -767.000; -626.000
398.212;   68.200;  137.000;  124.000
398.340;   -1.800;  -56.000;  159.000
398.468;  -63.100; -390.000; -169.000
398.596; -273.700; -993.000; -953.000
398.724; -219.000; -762.000; -767.000
398.852; -292.000;-1024.000; -976.000
398.980; -139.800; -560.000; -560.000
399.108; -180.200; -982.000; -735.000
399.236;   11.000;   13.000;    8.000
399.363;   41.200;  222.000;  196.000
399.491; -121.700; -404.000; -398.000
399.619; -224.300; -829.000; -800.000
399.747; -246.500; -859.000; -771.000
399.875;  123.900;  220.000;  234.000
400.003;  -85.500; -359.000; -284.000
400.130; -139.300; -421.000; -341.000
400.258;  -29.000;  -83.000;   38.000
400.386; -103.200; -352.000; -168.000
400.514; -117.100; -526.000; -587.000
400.641; -233.700; -928.000; -802.000
400.769; -288.100; -979.000; -888.000
400.897; -236.800; -838.000; -793.000
401.025;  -60.100; -166.000; -152.000
401.152;   36.300;  220.000;   38.000
401.280; -108.800; -430.000; -429.000
401.408; -197.100; -712.000; -576.000
401.535; -216.600; -735.000; -758.000
401.663; -333.300;-1134.000;-1054.000
401.790; -155.900; -514.000; -525.000
401.918;  129.200;  436.000;  405.000
402.046;  -15.600;  134.000;  122.000
402.173;  -20.600;  -18.000;    7.000
402.301; -121.700; -519.000; -397.000
402.428;  123.700;  528.000;  383.000
402.556; -293.300;-1188.000; -913.000
402.683;  -54.800;  -20.000;   -1.000
402.811;    7.000;  -37.000; -206.000
402.938;   23.800;   20.000;   27.000
403.066;   65.300; -574.000; -558.000
403.193;  267.500;  299.000;  239.000
403.321;  153.800; -396.000; -574.000
403.448;  252.500;   83.000;   27.000
403.575;  112.500;  -90.000;  -46.000
403.703; -195.700; -732.000; -557.000
403.830;  -94.400; -531.000; -496.000
403.957; -292.200;-1117.000;-1023.000
404.085;  -18.000;  -61.000; -172.000
404.212;   91.400;  -50.000;   63.000
404.339;  112.900; -566.000; -306.000
404.467; 3642.700; -612.000; -524.000
404.594; 2339.000; -287.000; -227.000
404.721;  408.400; -869.000; -764.000
404.848;   59.100; -113.000; -202.000
404.976; -223.500; -856.000; -783.000
405.103;  -13.300;  -14.000;  -82.000
405.230;   31.500;  190.000;  226.000
405.357;   35.100;  117.000;   44.000
405.484;  170.300;  -49.000;    5.000
405.612;  -56.300; -548.000; -563.000
405.739;  -73.500; -488.000; -243.000
405.866;  167.700;  669.000;  385.000
405.993;  -54.300; -398.000; -102.000
406.120; -261.400; -801.000; -887.000
406.247; -121.800; -323.000; -342.000
406.374;  443.200;  540.000;  629.000
406.501;  -68.100; -632.000; -702.000
406.628; -163.900; -621.000; -589.000
406.755; -208.900; -803.000; -620.000
406.882;  -79.500; -228.000; -277.000
407.009; -205.600; -719.000; -628.000
407.136;   -8.700; -480.000; -401.000
407.263;  -74.700; -939.000; -829.000
407.390; -175.000; -692.000; -614.000
407.517; -288.300;-1139.000;-1187.000
407.644;  -90.200; -332.000; -256.000
407.771; -125.500; -249.000; -287.000
407.898;   55.900;  168.000;  328.000
408.025; -133.200; -421.000; -313.000
408.151;   10.600;   82.000;  153.000
408.278; -101.800; -267.000; -216.000
408.405; -224.400; -931.000; -899.000
408.532; -162.000; -549.000; -542.000
408.659; -209.800; -677.000; -648.000
408.785; -370.400;-1298.000;-1170.000
408.912;  -90.100; -412.000; -296.000
409.039; -175.100; -610.000; -686.000
409.166; -152.300; -591.000; -555.000
409.292; -167.700; -571.000; -534.000
409.419; -171.500; -665.000; -649.000
409.546; -137.700; -431.000; -192.000
409.672; -174.000; -713.000; -545.000
409.799;   -5.300;  -36.000;   34.000
409.926;  -62.400; -180.000; -179.000
410.052; -345.200;-1127.000;-1091.000
410.179; -140.600; -368.000; -392.000
410.305; -160.400; -375.000; -493.000
410.432;  -67.300; -220.000; -333.000
410.558; -144.100; -305.000; -380.000
410.685; -163.200; -688.000; -431.000
410.812; -154.200; -409.000; -588.000
410.938; -223.300; -964.000; -808.000
411.065; -195.700; -671.000; -645.000
411.191;  -61.000; -189.000; -174.000
411.317; -250.000; -823.000; -742.000
411.444; -103.000; -317.000; -246.000
411.570; -116.400; -339.000; -294.000
411.697; -205.500; -758.000; -752.000
411.823; -311.100; -989.000; -999.000
411.949;  -40.300;  -56.000;   17.000
412.076; -202.800; -539.000; -519.000
412.202; -215.200; -758.000; -757.000
412.329; -245.400; -798.000; -752.000
412.455; -221.900; -821.000; -657.000
412.581;  -34.000;  -15.000;  172.000
412.707; -146.500; -540.000; -457.000
412.834;   48.200;  156.000;  219.000
412.960; -206.100; -785.000; -784.000
413.086; -222.200; -743.000; -701.000
413.212;  154.900;  604.000;  578.000
413.339; -183.100; -685.000; -701.000
413.465;  -87.200; -364.000; -310.000
413.591; -200.900; -757.000; -474.000
413.717; -108.000; -358.000; -366.000
413.843; -246.700; -839.000; -861.000
413.969; -122.600;  -47.000; -292.000
414.096; -199.900; -679.000; -679.000
414.222;   -7.900;  -33.000;   85.000
414.348; -131.400; -652.000; -385.000
414.474;   46.500;   38.000;  -52.000
414.600;  -44.700; -126.000; -144.000
414.726;  -11.900;  -96.000;  -55.000
414.852; -130.500; -365.000; -342.000
414.978;    5.500;  104.000;  -18.000
415.104;   54.100;   38.000;   80.000
415.230;  -80.100; -329.000; -330.000
415.356;  -82.800; -409.000; -514.000
415.482;  148.700;   13.000;  -35.000
415.608;  131.500; -247.000; -323.000
415.734;  664.500;   67.000;   38.000
415.860;13767.900; -875.000; -767.000
415.986; 9042.900; -685.000; -607.000
416.111;  618.400; -798.000; -652.000
416.237;   49.200; -424.000; -571.000
416.363;  672.600; -765.000; -733.000
416.489; 2719.100; -324.000; -251.000
416.615;  106.500; -707.000; -742.000
416.741; -143.900; -677.000; -784.000
416.866; -230.100; -673.000; -736.000
416.992; -269.000; -801.000; -818.000
417.118;  -60.400;  -41.000;  -80.000
417.244; -178.000; -798.000; -531.000
417.369; -187.600; -801.000; -612.000
417.495;  -58.900; -325.000; -254.000
417.621; -213.800;-1015.000; -803.000
417.746; -101.800; -579.000; -572.000
417.872;   -1.200; -254.000; -144.000
417.998;  -87.000; -515.000; -530.000
418.123;  567.100;-1073.000; -845.000
418.249; 3289.400; -512.000; -601.000
418.374;  281.800; -916.000; -824.000
418.500;   -4.500; -383.000; -482.000
418.626;   91.200;   70.000;  -59.000
418.751;   -4.800; -549.000; -448.000
418.877;    9.900; -637.000; -643.000
419.002; 1242.500; -688.000; -560.000
419.128; 7912.100; -930.000; -721.000
419.253; 1701.500; -967.000; -837.000
419.379;  151.300; -391.000; -338.000
419.504;  321.900;  325.000;  415.000
419.629;  276.200; -393.000; -212.000
419.755; 2438.100; -317.000; -254.000
419.880;13291.900;  -98.000;   67.000
420.006; 7646.300; -280.000; -221.000
420.131;19338.600; -662.000; -775.000
420.256; 2518.100; -315.000; -316.000
420.382;  218.200; -665.000; -687.000
420.507;  -80.400; -649.000; -778.000
420.632;   54.300; -337.000; -339.000
420.758;  209.800; -251.000; -425.000
420.883; -175.100; -876.000; -672.000
421.008; -190.600; -775.000; -619.000
421.133; -230.200; -509.000; -467.000
421.259;  -66.800; -325.000; -259.000
421.384; -212.200; -834.000; -693.000
421.509; -139.000;-1052.000; -862.000
421.634;  898.800; -936.000; -820.000
421.759;  334.500; -359.000; -327.000
421.885; -145.300; -717.000; -656.000
422.010; -148.200; -673.000; -542.000
422.135; -274.000; -695.000; -727.000
422.260;  112.400;  340.000;  280.000
422.385;  -64.300;   12.000;  -98.000
422.510;   35.800;  151.000;  -26.000
422.635;   42.200;  -87.000;  -43.000
422.760;  -43.300; -766.000; -791.000
422.885;   14.300;  -57.000;  -80.000
423.010;  -34.000; -112.000; -169.000
423.135; -180.300; -481.000; -561.000
423.260;  -48.000; -150.000; -245.000
423.385;  123.000;  476.000;  222.000
423.510;   49.200;   71.000;  -22.000
423.635;   20.700;  133.000;   45.000
423.760;   99.700;  383.000;  328.000
423.885;   91.600;  336.000;  391.000
424.010;   -3.900;  -68.000;  -13.000
424.135;  -29.200;    5.000;  -33.000
424.259; -127.800; -654.000; -457.000
424.384;  -86.400; -279.000; -272.000
424.509;  -53.700; -260.000; -186.000
424.634; -202.900; -761.000; -623.000
424.759; -154.000; -688.000; -544.000
424.883; -117.700; -506.000; -527.000
425.008;   14.500; -502.000; -410.000
425.133; 1173.900; -679.000; -653.000
425.258;  479.400; -517.000; -381.000
425.382;  718.200; -867.000; -774.000
425.507; 1800.400; -487.000; -543.000
425.632;  144.500; -802.000; -663.000
425.756;  298.600; -256.000; -146.000
425.881; 4190.400; -831.000; -857.000
426.006;10528.500; -604.000; -355.000
426.130; 1426.000; -696.000; -508.000
426.255;   92.100; -611.000; -491.000
426.379;   92.500; -189.000; -577.000
426.504;  380.900;  660.000;  544.000
426.629; 2602.200; -519.000; -466.000
426.753; 1747.800;   64.000;  -46.000
426.878;  157.100; -252.000; -288.000
427.002;  -80.800; -651.000; -668.000
427.127; 1151.900;  -35.000; -158.000
427.251; 7894.100;  372.000;  401.000
427.375; 1946.500; -191.000; -173.000
427.500; 1581.200; -616.000; -610.000
427.624;  483.400; -234.000; -400.000
427.749;   44.800; -216.000; -225.000
427.873; -112.100; -499.000; -412.000
427.997;  -10.900; -222.000; -230.000
428.122;  208.700;  795.000;  703.000
428.246;  151.300;  433.000;  434.000
428.371; -217.100; -869.000; -773.000
428.495; -198.600; -624.000; -646.000
428.619;  -41.800; -186.000; -117.000
428.743;   58.400;   65.000;  132.000
428.868; -128.200; -732.000; -643.000
428.992;  975.900; -219.000; -326.000
429.116;  381.600; -329.000; -357.000
429.240;  288.500;  419.000;  426.000
429.365;  -96.700; -454.000; -574.000
429.489; -148.100; -638.000; -647.000
429.613;   -8.200; -236.000; -177.000
429.737;  -44.000; -563.000; -432.000
429.861;  132.100; -247.000; -133.000
429.985; 3801.000; -425.000; -305.000
430.109; 3638.300; -770.000; -908.000
430.234;  470.700;   76.000;  -50.000
430.358;   21.900; -250.000; -160.000
430.482; -168.100; -672.000; -564.000
430.606; -109.900; -655.000; -375.000
430.730;  -28.100; -437.000; -388.000
430.854;  -44.100; -909.000; -835.000
430.978; -172.400; -795.000; -764.000
431.102; -124.200; -499.000; -422.000
431.226; -172.100; -874.000; -815.000
431.350;   67.300;  345.000;  422.000
431.474; -122.500; -661.000; -373.000
431.597; -312.200;-1060.000; -848.000
431.721; -123.100; -276.000; -267.000
431.845; -202.800; -704.000; -472.000
431.969; -142.500; -304.000; -349.000
432.093; -173.600; -395.000; -317.000
432.217;   16.100;   32.000;   82.000
432.341; -172.100; -523.000; -518.000
432.464;   -8.900;   96.000;   40.000
432.588;   57.800; -401.000; -329.000
432.712;   48.600;  -52.000;  -52.000
432.836;   81.100;  213.000;  263.000
432.959;  -91.200; -372.000; -311.000
433.083;   29.700;   11.000;    2.000
433.207;  359.600;  285.000;  930.000
433.330; 3365.200; -391.000; -200.000
433.454; 3647.400; -654.000; -638.000
433.578; 2320.400;  583.000;  278.000
433.701;  247.900; -623.000; -675.000
433.825;   15.300; -292.000; -299.000
433.949;  128.000;   28.000;  -72.000
434.072;  -13.700; -410.000; -323.000
434.196;   -7.300; -309.000; -117.000
434.319; 7614.300;25482.000;25124.000
434.443;  408.000; -656.000; -603.000
434.566; 1687.100;  281.000;   62.000
434.690;  125.900; -637.000; -383.000
434.813;  -29.900; -251.000; -173.000
434.937; -163.700; -569.000; -696.000
435.060; -117.600; -423.000; -332.000
435.184;  172.100; -492.000; -217.000
435.307;  110.900;  159.000;  102.000
435.431;  -35.500;  -40.000;   24.000
435.554;  -89.600; -399.000; -240.000
435.677; -113.000; -350.000; -258.000
435.801;  -17.700;  -25.000;   49.000
435.924;   13.700;    1.000;  -67.000
436.048; -253.800;-1019.000; -732.000
436.171;  -91.700; -240.000;  -66.000
436.294;  -56.000; -248.000; -229.000
436.417; -111.900; -963.000; -849.000
436.541; -221.500; -814.000; -840.000
436.664;  -71.000; -242.000; -316.000
436.787;   17.600;   13.000;  113.000
436.910; -197.400; -792.000; -422.000
437.034;   50.500;  142.000;  143.000
437.157;   52.100;  -11.000;    0.000
437.280;  -98.200; -392.000; -292.000
437.403; -202.800; -982.000; -869.000
437.526;  451.100; -903.000; -865.000
437.649; 1887.000; -505.000; -332.000
437.772;  129.700; -692.000; -540.000
437.896;  235.400;  700.000;  544.000
438.019; -169.800; -758.000; -503.000
438.142; -164.500; -596.000; -506.000
438.265; -138.700; -639.000; -670.000
438.388;  309.100; -520.000; -410.000
438.511;  -40.400; -597.000; -394.000
438.634;  -98.300; -247.000; -125.000
438.757; -237.200; -693.000; -619.000
438.880;   10.400;  -34.000;  -57.000
439.003; -129.300; -417.000; -437.000
439.126;  -95.500; -287.000; -167.000
439.248; -109.600;  -98.000; -139.000
439.371;  -57.600;    9.000;  -53.000
439.494;  128.500;  510.000;  439.000
439.617;  -64.100;   65.000;  -88.000
439.740; -307.700; -968.000; -816.000
439.863; -224.500; -755.000; -595.000
439.986; -188.600; -476.000; -431.000
440.108;  -65.300; -161.000; -112.000
440.231; -298.800; -950.000; -836.000
440.354;  -63.000;  -64.000; -150.000
440.477; -128.900; -566.000; -542.000
440.599;  -75.900; -200.000; -225.000
440.722; -212.200; -709.000; -586.000
440.845;  208.600;  751.000;  928.000
440.968; -185.900; -415.000; -311.000
441.090;  -84.100; -199.000;  -33.000
441.213; -270.700;-1021.000; -825.000
441.336;  -65.400; -159.000;   -5.000
441.458; -128.100; -549.000; -396.000
441.581; -184.000; -628.000; -629.000
441.703; -110.200; -152.000;   13.000
441.826; -187.900; -557.000; -400.000
441.948;  -49.200;   56.000;   51.000
442.071;  132.900;  555.000;  424.000
442.193; -190.200; -531.000; -485.000
442.316;   34.900;  152.000;   97.000
442.438;  -39.500; -233.000;  -10.000
442.561;   91.800;  272.000;  262.000
442.683;  427.500; -809.000; -522.000
442.806;  965.000;   -8.000;   74.000
442.928;  -97.100; -859.000; -604.000
443.051; -156.200; -577.000; -373.000
443.173; -139.000; -341.000; -339.000
443.295; -139.700; -263.000; -371.000
443.418; -142.000; -321.000;  -29.000
443.540;  -20.500; -106.000;   -4.000
443.662; -205.400; -563.000; -465.000
443.785;    5.500;  335.000;  199.000
443.907; -160.300; -362.000; -208.000
444.029; -238.900; -767.000; -494.000
444.152; -232.800; -644.000; -554.000
444.274;  -44.100;  -18.000;  -24.000
444.396; -163.000; -461.000; -221.000
444.518; -191.800; -691.000; -454.000
444.640; -168.800; -268.000; -111.000
444.763;   25.900;  388.000;  249.000
444.885; -203.900; -432.000; -392.000
445.007;  -50.100;   35.000;   86.000
445.129; -234.400; -610.000; -515.000
445.251; -179.200; -372.000; -439.000
445.373; -234.600; -537.000; -386.000
445.495;   54.900;  242.000;  350.000
445.617;  125.700;  853.000;  753.000
445.739; -116.700; -215.000;  -97.000
445.861;  -74.600; -245.000; -112.000
445.984;  -88.600; -267.000; -101.000
446.105;  109.000; -418.000; -251.000
446.227;  515.300; -176.000;  -19.000
446.349;  -76.700; -358.000; -249.000
446.471; -189.500; -615.000; -448.000
446.593; -125.800; -316.000;   19.000
446.715;  -49.700;  -67.000;   41.000
446.837;  183.500;  697.000;  832.000
446.959; -163.200; -457.000; -478.000
447.081; -222.300; -628.000; -518.000
447.203;  169.600;  862.000;  834.000
447.325; -135.300; -270.000;   42.000
447.446;   49.900;  286.000;  530.000
447.568; -285.900; -921.000; -803.000
447.690; -122.500; -236.000; -245.000
447.812; -264.900; -798.000; -519.000
447.933;    9.300;  155.000;  127.000
448.055; -102.100; -306.000; -261.000
448.177;  120.700;   31.000;   79.000
448.299;  -99.500; -935.000; -727.000
448.420;   -0.500;  -25.000;  159.000
448.542;  -49.500;   -3.000;   33.000
448.664;  -14.300;  109.000;  322.000
448.785;  -49.100;  265.000;   83.000
448.907; -141.100; -614.000; -353.000
449.028;  -94.900; -771.000; -471.000
449.150;  131.300;  492.000;  589.000
449.272; -331.700;-1044.000; -913.000
449.393;  100.600;  612.000;  694.000
449.515; -225.200; -634.000; -581.000
449.636;  -82.800; -264.000; -155.000
449.758;  185.000;  763.000;  622.000
449.879; -132.500; -498.000; -396.000
450.001;  -92.300; -149.000;  -49.000
450.122;  -50.000;  -95.000;  162.000
450.244;   -8.700;   37.000;  364.000
450.365; -123.000; -495.000; -301.000
450.486;  -42.600;   80.000;  268.000
450.608;   52.200;  393.000;  326.000
450.729;  131.800;  578.000;  645.000
450.850; -111.200; -574.000; -466.000
450.972;  373.800; -552.000; -389.000
451.093; 3207.400;  190.000;  588.000
451.214; 1119.800; -516.000; -337.000
451.336;  361.200;  773.000;  579.000
451.457;   69.800;  264.000;  393.000
451.578;  -57.000; -118.000;  -74.000
451.699; -183.200; -546.000; -540.000
451.821; -129.000; -284.000;  -50.000
451.942;    6.000;  278.000;  285.000
452.063;   64.300;  228.000;  419.000
452.184;  371.900;  -54.000;  -49.000
452.305;  738.300;  103.000;  170.000
452.427;  -27.400; -549.000; -301.000
452.548;  -48.500;   23.000;   79.000
452.669;  -97.900; -257.000;  -89.000
452.790;  -65.800;    3.000;  -18.000
452.911;   28.800;  195.000;  259.000
453.032;  -95.700; -289.000;  -60.000
453.153;  -63.000;  -29.000;   81.000
453.274;  180.300;  737.000;  868.000
453.395;  -47.400;  -51.000;  175.000
453.516;  300.400; 1317.000; 1388.000
453.637;  -82.400; -205.000; -150.000
453.758;  -78.800;   15.000;   69.000
453.879; -214.000; -462.000; -250.000
454.000;  240.000; 1086.000;  948.000
454.121; -187.400; -554.000; -326.000
454.242; -216.800; -599.000; -383.000
454.362;  -87.400;  -99.000;  114.000
454.483;  -71.200; -309.000; -229.000
454.604;   86.000;  512.000;  580.000
454.725; -226.900; -627.000; -555.000
454.846; -190.500; -474.000; -406.000
454.967;  -10.100;  230.000;  539.000
455.087;   -9.700;  179.000;  153.000
455.208;  103.600;  554.000;  856.000
455.329;  -80.600;  -22.000;   82.000
455.450;   99.200;  473.000;  633.000
455.570; -132.300; -234.000; -211.000
455.691;  -20.800;  201.000;  407.000
455.812; -165.000; -270.000;  -92.000
455.932;  -22.300;  107.000;  -97.000
456.053; -116.500;   36.000;   24.000
456.173; -140.600; -433.000; -355.000
456.294; -224.700; -476.000; -303.000
456.415;  -66.600;  -73.000;   70.000
456.535;  -38.400;  297.000;  273.000
456.656;  -49.600;  132.000;  240.000
456.776;  -52.800;    3.000;  298.000
456.897;   57.200;  308.000;  513.000
457.017;  -99.000; -153.000;   -3.000
457.138; -190.400; -402.000; -249.000
457.258;  -13.000;  263.000;  224.000
457.379;   28.700;  509.000;  521.000
457.499;   20.100;  443.000;  432.000
457.620; -188.700; -407.000; -231.000
457.740; -154.600; -132.000;  -11.000
457.860;  -33.300;   87.000;   44.000
457.981;  -60.100;  132.000;  124.000
458.101;  -91.100;  -89.000;   40.000
458.221;   23.100;  336.000;  402.000
458.342;  -67.400;   -4.000;  -37.000
458.462;   72.800;  617.000;  352.000
458.582;  -84.600; -302.000; -294.000
458.703;  -18.700;  303.000;  154.000
458.823;  -49.200;   22.000;  163.000
458.943;   35.800;  341.000;  467.000
459.063;  -27.700; 1124.000;  192.000
459.183;  -27.000;  328.000;  313.000
459.304;   59.700;  315.000;  517.000
459.424;  -89.600; -246.000;  -89.000
459.544;  308.400;  388.000;  764.000
459.664;  618.200;  499.000;  506.000
459.784;  342.600; 1004.000; 1175.000
459.904;  149.800;  867.000;  744.000
460.024;  156.300;  867.000;  684.000
460.144;   45.700;  449.000;  554.000
460.264;   46.900;  515.000;  327.000
460.385; -134.300; -145.000; -119.000
460.505;  139.200;  905.000;  858.000
460.625; -125.800;  -17.000;  -68.000
460.745;   20.900;  396.000;  541.000
460.864;  -62.600;  153.000;  469.000
460.984;   47.300;  499.000;  573.000
461.104;  340.700; 1656.000; 1775.000
461.224;   95.300;  657.000;  650.000
461.344;  -13.900;  431.000;  360.000
461.464;   -3.200;  258.000;  513.000
461.584;   39.200;  283.000;  466.000
461.704;  -74.600;   58.000;  108.000
461.824;  -43.000;  238.000;  259.000
461.943;  -15.900;  191.000;  130.000
462.063; -103.300;    2.000;  324.000
462.183;  106.800;  639.000;  717.000
462.303;  242.500; 1678.000; 1230.000
462.422;  149.000;  781.000;  840.000
462.542;  -20.000;  271.000;  391.000
462.662;   85.500;  353.000;  380.000
462.782;  319.700;  833.000;  572.000
462.901;  338.300;  545.000;  717.000
463.021;  419.400; 1702.000; 1638.000
463.141;   12.700;  337.000;  770.000
463.260;   19.500;  614.000;  474.000
463.380;   81.000;  902.000;  884.000
463.499;    7.000;  342.000;  332.000
463.619;  -33.300;  581.000;  559.000
463.738;  325.800; 1644.000;  903.000
463.858;   71.900;  657.000;  811.000
463.978;    1.200;  542.000;  396.000
464.097;  160.500;  921.000; 1114.000
464.217;  233.100; 1196.000; 1143.000
464.336;  228.100; 1068.000; 1130.000
464.455;  -40.200;  328.000;  659.000
464.575;   78.500;  597.000;  602.000
464.694;  294.900; 1204.000; 1179.000
464.814;  240.000; 1190.000; 1138.000
464.933;  189.600; 1095.000; 1027.000
465.052;  226.900; 1412.000; 1054.000
465.172;  172.800;  922.000;  799.000
465.291;  273.000; 1376.000; 1320.000
465.410;   74.900;  462.000;  735.000
465.530;  223.700; 1355.000; 1310.000
465.649;  136.700; 1209.000; 1273.000
465.768;  309.800; 1673.000; 1508.000
465.888;  173.800;  941.000; 1174.000
466.007;  234.400; 1335.000; 1440.000
466.126;   61.500;  721.000;  641.000
466.245;  168.000; 1176.000; 1187.000
466.364;   96.200;  950.000; 1060.000
466.484;  167.500; 1024.000; 1213.000
466.603;  169.500; 1101.000; 1222.000
466.722;  320.900; 1490.000; 1769.000
466.841;  197.000; 1151.000; 1401.000
466.960;  145.300; 1069.000;  972.000
467.079;  354.700; 1971.000; 1786.000
467.198;  189.600; 1238.000; 1181.000
467.317;  261.400; 1768.000; 1162.000
467.436;  222.600; 1709.000; 1261.000
467.555;  305.500; 1796.000; 1746.000
467.674;  226.400; 1227.000; 1329.000
467.793;  206.600; 1376.000; 1374.000
467.912;  231.600; 1658.000; 1539.000
468.031;  292.200; 2038.000; 1930.000
468.150;  310.900; 1842.000; 1837.000
468.269;  474.700; 2313.000; 2090.000
468.388;  424.700; 2168.000; 2339.000
468.507;  577.900; 2884.000; 2903.000
468.626;  625.500; 2555.000; 2541.000
468.744;  349.900; 2018.000; 2174.000
468.863;  468.200; 2312.000; 2523.000
468.982;  224.200; 1503.000; 1555.000
469.101;  500.600; 2788.000; 2692.000
469.220;  418.300; 2333.000; 2176.000
469.338;  578.100; 2935.000; 3051.000
469.457;  416.900; 2719.000; 2545.000
469.576;  762.600; 3953.000; 3784.000
469.695;  525.600; 2877.000; 3066.000
469.813;  912.000; 4148.000; 4192.000
469.932;  871.700; 4255.000; 4485.000
470.051;  821.100; 4075.000; 4161.000
470.169; 1170.700; 4470.000; 4338.000
470.288; 1600.800; 4700.000; 4809.000
470.406; 1245.400; 5059.000; 5194.000
470.525; 1234.900; 6101.000; 5787.000
470.644; 1360.000; 6847.000; 6794.000
470.762; 1680.300; 8397.000; 7873.000
470.881; 1807.900; 8651.000; 8464.000
470.999; 2068.700; 9685.000; 9151.000
471.118; 2212.000;11174.000;10711.000

