
Integration time [ms]: 100.000
Averaging Nr. [scans]: 40
Smoothing Nr. [pixels]: 0
Data measured with spectrometer [name]: 2101012U2
Wave   ;Sample   ;Dark     ;Reference
[nm]   ;[counts] ;[counts] ;[counts] 

197.733;   52.525;  516.000;  404.000
197.879;  -77.200; -610.000; -634.000
198.025;  -48.475; -475.000; -420.000
198.171;  -67.300; -602.000; -612.000
198.317;  -32.950; -401.000; -316.000
198.463;  -63.475; -655.000; -404.000
198.609;   23.625;  181.000; -137.000
198.755;  -70.875; -644.000; -410.000
198.901;  -59.725; -505.000; -424.000
199.047;  -52.200; -615.000; -488.000
199.193;  -38.225; -230.000; -468.000
199.339;  -48.475; -222.000; -369.000
199.485;   17.200;  330.000;  271.000
199.631;   26.900;  227.000;  310.000
199.777;  -50.075; -466.000; -398.000
199.923;  -57.575; -610.000; -424.000
200.069;   -1.225; -141.000;  -58.000
200.215;   57.975;  128.000;  453.000
200.361;   47.325;  243.000;  477.000
200.507;  -47.975; -600.000; -373.000
200.653;  -30.225; -371.000; -194.000
200.798;  -18.625; -215.000; -125.000
200.944;  -12.050; -146.000;  -41.000
201.090;   47.725;   61.000;  222.000
201.236;  -16.250; -116.000; -158.000
201.382;  130.350;  874.000;  903.000
201.528;   -0.825;  -58.000;  -48.000
201.674;  -37.425; -386.000; -293.000
201.819;  -51.450; -540.000; -439.000
201.965;  -75.050; -699.000; -447.000
202.111;  -34.725; -273.000; -226.000
202.257;  -29.000; -250.000; -238.000
202.402;    5.825;   13.000;  -36.000
202.548;  -24.225; -169.000; -116.000
202.694;   68.775;  410.000; -183.000
202.840;  -62.150; -603.000; -531.000
202.985;  -75.375; -681.000; -639.000
203.131;  -93.750; -832.000; -666.000
203.277;  -26.000; -199.000; -262.000
203.423;  -40.875; -434.000; -520.000
203.568;  -39.925; -462.000; -237.000
203.714;  -50.675; -535.000; -542.000
203.860;  -95.875; -682.000; -641.000
204.005;   32.375;  112.000;  167.000
204.151;   65.250;  561.000;  556.000
204.296;  -33.775; -354.000; -221.000
204.442;  -85.700; -600.000; -547.000
204.588;  -71.075; -592.000; -579.000
204.733;   20.675;  178.000;  168.000
204.879; -125.950;-1018.000; -822.000
205.025;    3.775;  -99.000;  126.000
205.170;    7.900;  -17.000;   94.000
205.316;   78.625;  438.000;  661.000
205.461;  -71.525; -698.000; -554.000
205.607;   60.950;  609.000;  665.000
205.752;  -61.475; -626.000; -551.000
205.898;  -47.750; -501.000; -391.000
206.043;  -53.000; -578.000; -506.000
206.189;  -47.725; -243.000; -285.000
206.334;   95.950;  554.000;  606.000
206.480;   59.325;  409.000;  239.000
206.625;  -70.125; -529.000; -552.000
206.771;  -50.850; -451.000; -373.000
206.916;  -22.650; -210.000; -537.000
207.062;  -65.475; -545.000; -591.000
207.207;  -63.625; -546.000; -443.000
207.353;   66.200;  185.000;  460.000
207.498;   35.875;  196.000;   85.000
207.643;  -58.100; -501.000; -370.000
207.789; -118.500;-1069.000; -910.000
207.934; -109.525; -665.000; -713.000
208.080;  -13.075; -154.000;   66.000
208.225;  -10.775;  -22.000;  -57.000
208.370;  -79.050; -727.000; -619.000
208.516;  -79.500; -741.000; -487.000
208.661;  -11.775; -127.000;  -69.000
208.806;  -28.275; -165.000; -171.000
208.952; -109.125;-1044.000; -731.000
209.097;   78.150;  378.000;  349.000
209.242;  -34.475; -307.000; -382.000
209.387;   67.975;  392.000;  350.000
209.533;  -32.575; -321.000; -350.000
209.678;   74.150;  472.000;  543.000
209.823;  -32.875; -408.000; -310.000
209.969;  -97.325; -860.000; -757.000
210.114;  -96.100; -907.000; -719.000
210.259; -110.075; -939.000; -889.000
210.404;   -6.950; -171.000;  103.000
210.549;    6.525;  108.000;    3.000
210.695;   -8.675;   -3.000;  -95.000
210.840;   28.300;   94.000;   67.000
210.985;  -53.725; -484.000; -303.000
211.130;   65.625;  268.000;  406.000
211.275;   25.350;  207.000;  199.000
211.420;  -52.100; -300.000; -289.000
211.566;  -72.250; -536.000; -489.000
211.711;   26.350;  218.000;  157.000
211.856;  -56.025; -545.000; -519.000
212.001;    3.150;  151.000;   44.000
212.146;   21.800;  153.000;   49.000
212.291;  -13.250; -210.000; -186.000
212.436;  -29.025; -280.000;   -6.000
212.581;  -97.575; -685.000; -653.000
212.726;  -70.850; -487.000; -538.000
212.871;  -41.450; -552.000; -217.000
213.016; -150.825;-1172.000;-1029.000
213.161;   59.025;  406.000;  291.000
213.306;  -74.475; -435.000; -577.000
213.451;  -98.925; -778.000; -689.000
213.596;  -32.150; -455.000; -347.000
213.741;  -62.550; -448.000; -538.000
213.886;  -73.725; -498.000; -517.000
214.031;  -25.925; -294.000; -124.000
214.176;  -45.325; -408.000; -341.000
214.321;  -29.525; -296.000; -157.000
214.466;   -4.175; -163.000;  -43.000
214.611;    9.900;  -61.000;  -10.000
214.756; -118.150; -948.000; -858.000
214.901;  -23.125; -388.000; -226.000
215.046; -113.250; -797.000; -825.000
215.191;    9.525;  128.000;   35.000
215.336;   -0.525; -157.000;  -19.000
215.480;  -62.800; -684.000; -505.000
215.625;   -0.300; -175.000;  -19.000
215.770;  -73.550; -757.000; -662.000
215.915;    7.025;   -5.000;  -97.000
216.060;   -1.650; -113.000;  -21.000
216.205; -102.675; -731.000; -779.000
216.349;  -71.650; -470.000; -533.000
216.494; -120.850; -939.000; -867.000
216.639; -126.175; -823.000; -888.000
216.784;  -75.950; -577.000; -525.000
216.929;   55.900;  392.000;  281.000
217.073;   -1.875; -244.000;  -31.000
217.218;    4.400;   78.000;  -47.000
217.363;  -84.450; -656.000; -618.000
217.507;  -76.275; -623.000; -588.000
217.652; -116.525; -845.000; -874.000
217.797;  -92.050; -708.000; -659.000
217.942; -113.050; -856.000; -720.000
218.086;   74.525;  608.000;  539.000
218.231;   -3.725; -174.000;  -26.000
218.376;  -47.250; -337.000; -229.000
218.520;   10.225;  -41.000;   96.000
218.665;  -36.375; -338.000; -204.000
218.810;  -30.550; -275.000; -233.000
218.954;   21.100;  201.000;   35.000
219.099; -111.100; -713.000; -963.000
219.243;  -76.125; -589.000; -554.000
219.388;  -20.550; -264.000; -136.000
219.532;  -26.600; -116.000; -116.000
219.677;  -67.425; -564.000; -521.000
219.822;    2.675;   33.000;   89.000
219.966;    8.825;   17.000;  -99.000
220.111;  -35.925; -328.000;  -40.000
220.255;  -89.475; -797.000; -750.000
220.400;  -11.275; -180.000; -146.000
220.544;  -53.275; -516.000; -450.000
220.689;  -54.875; -422.000; -451.000
220.833;  -20.100; -123.000;  -58.000
220.978;  -38.625; -393.000; -563.000
221.122;   39.400;  319.000;  307.000
221.267; -112.075; -906.000; -837.000
221.411;  -61.550; -478.000; -394.000
221.555;  -19.075; -104.000;  -23.000
221.700;  -26.975; -329.000; -222.000
221.844;   28.125;  255.000;  272.000
221.989;  -28.075; -328.000; -311.000
222.133;  -39.550; -289.000; -307.000
222.277;   12.350;    5.000;   78.000
222.422;   10.150;  227.000;  113.000
222.566;  -20.025; -381.000; -214.000
222.711;  -52.175; -414.000; -479.000
222.855;  -79.275; -643.000; -586.000
222.999;  -76.350; -642.000; -717.000
223.144;  -29.050; -195.000; -194.000
223.288;   42.275;  423.000;  251.000
223.432;   41.775;  184.000;  230.000
223.576;   19.025;  152.000;  -21.000
223.721;   52.675;  364.000;  273.000
223.865;  -53.975; -472.000; -475.000
224.009;  234.950; 1673.000; 1631.000
224.153;  -73.025; -660.000; -671.000
224.298;  -60.700; -531.000; -489.000
224.442;  -21.500;  -74.000;  -33.000
224.586;   -9.900; -169.000; -106.000
224.730; -105.750; -858.000; -670.000
224.875; -106.025; -739.000; -688.000
225.019;    2.150;  102.000;  188.000
225.163;   65.575;  208.000;  341.000
225.307;   10.500;   97.000;  -91.000
225.451;   51.750;  360.000;  481.000
225.595;   18.050;  264.000;  176.000
225.739;  -12.200; -170.000;  -94.000
225.884;   -6.800;   86.000;    5.000
226.028;  -81.950; -760.000; -626.000
226.172;  -41.950; -260.000; -273.000
226.316; -105.850; -941.000; -902.000
226.460;  -73.975; -645.000; -493.000
226.604;  -46.350; -406.000; -400.000
226.748;  -98.300; -836.000; -733.000
226.892;  -34.025; -227.000; -181.000
227.036;  -59.025; -537.000; -447.000
227.180;  -44.400; -551.000; -375.000
227.324;  -57.625; -561.000; -580.000
227.468; -101.500; -819.000; -717.000
227.612;   16.375;  242.000;  -28.000
227.756;  -96.650; -845.000; -698.000
227.900;   58.625;  342.000;  441.000
228.044;  -49.200; -509.000; -290.000
228.188;   53.025;  448.000;  568.000
228.332;  -72.900; -546.000; -472.000
228.476;  -34.000; -223.000; -149.000
228.620;  -28.625; -210.000; -150.000
228.764;   67.150;  431.000;  349.000
228.908;  -14.225; -155.000;   30.000
229.052;  -69.875; -615.000; -528.000
229.195;  -21.475; -172.000;   13.000
229.339;  -26.225; -235.000; -305.000
229.483;  -27.575;    5.000; -162.000
229.627;   -4.200; -156.000;  139.000
229.771;  -51.775; -218.000; -294.000
229.915;    5.575;  230.000;   79.000
230.059;  -76.875; -648.000; -663.000
230.202;  -42.850; -370.000; -317.000
230.346;   -7.875; -107.000;  107.000
230.490;  -65.725; -489.000; -521.000
230.634; -100.050; -736.000; -553.000
230.777;   79.050;  478.000;  509.000
230.921;  -48.350; -450.000; -359.000
231.065;  -55.450; -246.000; -286.000
231.209;   26.950;  261.000;  265.000
231.352;   22.300;   54.000;   40.000
231.496;   20.050;  568.000;  188.000
231.640;  -96.375; -693.000; -621.000
231.783;   74.075;  546.000;  525.000
231.927;  -48.025; -294.000; -365.000
232.071; -111.350; -962.000; -736.000
232.214; -108.225; -980.000; -764.000
232.358;  -86.950; -683.000; -599.000
232.502;    4.625;  -19.000;    7.000
232.645; -129.975;-1090.000; -927.000
232.789;  -31.100; -257.000; -218.000
232.933;  -37.775; -407.000; -224.000
233.076; -134.825;-1038.000; -897.000
233.220;  -96.300; -752.000; -777.000
233.363;  -67.350; -669.000; -477.000
233.507;   68.275;  371.000;  129.000
233.650; -111.275; -764.000; -834.000
233.794;   64.475;  438.000;  461.000
233.938;  -61.600; -530.000; -362.000
234.081;  -10.850;  -93.000;   31.000
234.225;  -67.425; -631.000; -539.000
234.368;  -94.125; -773.000; -723.000
234.512;  -39.575; -385.000; -299.000
234.655;  -77.175; -582.000; -555.000
234.798;  -72.900; -493.000; -466.000
234.942; -111.750; -884.000;-1002.000
235.085;  -72.950; -651.000; -443.000
235.229;  -58.000; -405.000; -410.000
235.372;  -44.575; -247.000; -191.000
235.516;  -55.850; -397.000; -321.000
235.659;   15.000;   92.000;  121.000
235.802;   -5.725;  -38.000;  -22.000
235.946;   25.975;  335.000;  215.000
236.089;   46.475;  126.000;  250.000
236.233;   57.475;  275.000;  298.000
236.376;  -39.275; -235.000; -378.000
236.519;  -37.750; -297.000; -319.000
236.663;   -9.375; -215.000; -117.000
236.806; -134.850;-1029.000; -999.000
236.949;   71.150;  543.000;  431.000
237.092;   62.950;  412.000;  391.000
237.236;  -86.950; -589.000; -502.000
237.379;   60.375;  352.000;  428.000
237.522; -106.000; -879.000; -768.000
237.666;  -12.350; -271.000;   18.000
237.809; -126.775; -851.000; -823.000
237.952;   37.550;  469.000;  271.000
238.095;  -53.900; -447.000; -442.000
238.238;   76.800;  688.000;  700.000
238.382;    7.675;  166.000;  103.000
238.525;  -64.100; -598.000; -511.000
238.668; -127.975;-1060.000; -985.000
238.811;  -93.725; -638.000; -643.000
238.954;  -42.175; -483.000; -334.000
239.097;   86.000;  617.000;  664.000
239.241;   39.450;  394.000;  326.000
239.384;  -50.175; -254.000; -214.000
239.527;  -48.475; -424.000; -224.000
239.670; -140.750; -994.000;-1091.000
239.813;  -94.225; -696.000; -658.000
239.956;   81.700;  579.000;  473.000
240.099; -106.825; -778.000; -725.000
240.242;   58.550;  428.000;  432.000
240.385;   64.175;  466.000;  450.000
240.528;  -73.750; -706.000; -473.000
240.671;   34.725;  189.000;  134.000
240.814;  -43.625; -441.000; -158.000
240.957;  -96.475; -767.000; -578.000
241.100; -101.525; -779.000; -755.000
241.243; -138.525;-1234.000; -893.000
241.386;  -74.500; -508.000; -379.000
241.529;  -76.000; -735.000; -547.000
241.672;  -58.525; -566.000; -495.000
241.815; -109.250; -832.000; -808.000
241.958;  -32.125; -125.000; -182.000
242.101;  -67.950; -545.000; -390.000
242.244;  -52.150; -270.000; -325.000
242.387;  -44.100; -304.000; -246.000
242.530;   40.825;  470.000;  134.000
242.673;  -42.500; -381.000; -309.000
242.815; -115.925; -925.000; -899.000
242.958;  -63.775; -482.000; -381.000
243.101;   14.700;  132.000;  187.000
243.244;  -78.450; -564.000; -521.000
243.387;  -50.900; -313.000; -316.000
243.530;  -75.800; -657.000; -674.000
243.672;  -17.200;   43.000;  -92.000
243.815;  -41.750; -355.000; -283.000
243.958;    3.475;   98.000;  -26.000
244.101;    6.600;   59.000;  -16.000
244.243;  -15.575;  -47.000;  101.000
244.386; -115.475; -761.000; -630.000
244.529;  -29.500; -132.000; -139.000
244.672; -144.850;-1154.000; -951.000
244.814; -103.975; -621.000; -794.000
244.957;  -45.825; -380.000; -304.000
245.100;  -84.550; -489.000; -489.000
245.242;  -46.750; -387.000; -374.000
245.385;  -13.825;  -59.000;  -39.000
245.528; -114.250; -871.000; -705.000
245.670;   93.400;  612.000;  634.000
245.813;  -81.075; -599.000; -547.000
245.956;  -27.150; -324.000; -275.000
246.098;  -65.275; -508.000; -650.000
246.241;   19.275;  194.000;   48.000
246.383;   -5.650; -119.000;  -73.000
246.526;  -68.350; -454.000; -525.000
246.669; -107.225; -889.000; -780.000
246.811;   19.875;  172.000;   -1.000
246.954;  -51.325; -512.000; -426.000
247.096;  -20.950;  -84.000;   -6.000
247.239;  -63.625; -482.000; -445.000
247.381;  -76.850; -647.000; -488.000
247.524;   78.875;  645.000;  679.000
247.666;   -6.625;   58.000;   11.000
247.809; -102.850; -887.000; -691.000
247.951;  -18.375;  -75.000;  138.000
248.094;   41.800;  432.000;  308.000
248.236; -158.225;-1262.000;-1238.000
248.378;   19.300; -356.000;  -81.000
248.521;  -27.725; -334.000; -337.000
248.663;  -20.875; -236.000; -267.000
248.806;  -22.625; -300.000; -266.000
248.948;  -85.975; -886.000; -763.000
249.090;  -64.075; -428.000; -398.000
249.233;  -41.050; -344.000; -381.000
249.375;  -67.075; -474.000; -451.000
249.518;   -6.775;  -83.000; -133.000
249.660;   -3.700; -103.000;    3.000
249.802; -163.625;-1303.000;-1189.000
249.945;  -92.550; -612.000; -540.000
250.087; -107.600; -834.000; -768.000
250.229;  -51.900; -362.000; -480.000
250.371;  -51.775; -494.000; -439.000
250.514;  -51.700; -310.000; -244.000
250.656;    0.900;   69.000;  102.000
250.798; -118.725; -849.000; -800.000
250.940;  -53.375; -322.000; -322.000
251.083;  -31.575; -335.000; -111.000
251.225;   60.250;  338.000;  310.000
251.367;  -54.650; -274.000; -373.000
251.509;  -27.450; -265.000; -210.000
251.651; -104.650; -731.000; -671.000
251.794;   55.075;  538.000;  632.000
251.936; -107.800; -821.000; -747.000
252.078;  -58.075; -540.000; -461.000
252.220;  -78.625; -645.000; -477.000
252.362;   80.350;  344.000;  462.000
252.504;  -77.175; -677.000; -584.000
252.646; -105.875; -875.000; -722.000
252.788;   10.025;   14.000; -128.000
252.931;  -30.675; -257.000; -253.000
253.073;  -49.800; -376.000; -317.000
253.215;    4.675;  141.000;  122.000
253.357;   -5.600;   82.000; -153.000
253.499;  -44.150; -374.000; -234.000
253.641;  -84.075; -749.000; -594.000
253.783;  -92.225; -609.000; -527.000
253.925;  -77.775; -586.000; -591.000
254.067;  -99.400; -744.000; -667.000
254.209;  -33.250; -391.000; -259.000
254.351; -129.250; -865.000; -883.000
254.493;  -66.950; -441.000; -417.000
254.635; -126.900; -936.000; -818.000
254.777;  -89.675; -752.000; -687.000
254.918;  -55.200; -512.000; -430.000
255.060;  -57.325; -551.000; -395.000
255.202;  -50.100; -473.000; -261.000
255.344;  -78.325; -658.000; -455.000
255.486;  -54.175; -471.000; -406.000
255.628; -105.425; -780.000; -781.000
255.770;  -85.575; -676.000; -536.000
255.912;  -61.900; -559.000; -468.000
256.053;  -90.725; -730.000; -508.000
256.195;  144.650; 1008.000;  903.000
256.337;  -82.925; -861.000; -595.000
256.479;   47.200;  532.000;  416.000
256.621;  -42.975; -394.000; -212.000
256.762; -100.125; -789.000; -742.000
256.904;   63.100;  485.000;  487.000
257.046;  -41.050; -381.000; -271.000
257.188;  -43.750; -351.000; -264.000
257.329;  -72.150; -525.000; -464.000
257.471; -114.250; -939.000; -807.000
257.613;  -69.575; -584.000; -498.000
257.755; -135.775;-1073.000; -982.000
257.896;   24.450;  286.000;  392.000
258.038;  -58.225; -403.000; -352.000
258.180;  -48.050; -354.000; -279.000
258.321;  -81.200; -581.000; -457.000
258.463;  -23.950;  -71.000;  133.000
258.605;  -78.575; -562.000; -570.000
258.746; -113.100; -886.000; -772.000
258.888; -135.725;-1026.000;-1020.000
259.029;   12.050;  121.000;   -8.000
259.171;  -80.675; -614.000; -550.000
259.313;  -20.200;  -49.000;  -47.000
259.454;  -71.500; -536.000; -414.000
259.596;  -60.500; -483.000; -390.000
259.737;  -78.150; -590.000; -474.000
259.879;   45.225;  217.000;  311.000
260.020;   98.925;  901.000;  636.000
260.162;  -36.600; -146.000; -253.000
260.303; -102.400; -768.000; -687.000
260.445;  -75.375; -609.000; -613.000
260.586;   32.775;  392.000;  157.000
260.728;  -50.150; -360.000; -248.000
260.869;  -97.500; -350.000; -343.000
261.011;   73.525;  706.000;  537.000
261.152;  -54.625; -479.000; -319.000
261.293;  -82.850; -576.000; -595.000
261.435;  -40.775; -219.000; -184.000
261.576;  -64.800; -455.000; -325.000
261.718;   59.200;  420.000;  470.000
261.859; -132.775; -940.000; -949.000
262.000; -127.300; -951.000;-1016.000
262.142;   -8.250;  -52.000;  -60.000
262.283; -112.900; -808.000; -691.000
262.424;  -85.400; -666.000; -625.000
262.566; -131.175;-1161.000; -983.000
262.707; -111.850; -840.000; -830.000
262.848; -112.075; -769.000; -726.000
262.990;  -43.850; -362.000; -345.000
263.131;   77.150;  650.000;  681.000
263.272;  -13.675;  -61.000;  -41.000
263.413;  -83.450; -589.000; -561.000
263.555;  -75.175; -669.000; -143.000
263.696;  -80.650; -550.000; -641.000
263.837;  -65.425; -449.000; -551.000
263.978;    4.650;   -5.000;  -77.000
264.119;  -45.025; -283.000; -264.000
264.261; -107.350; -847.000; -630.000
264.402;   -9.275;   33.000;   40.000
264.543;  -68.725; -509.000; -524.000
264.684;  -15.250;   61.000;  -50.000
264.825;  -67.875; -816.000; -538.000
264.966;   -0.925;  -84.000;  -67.000
265.107; -110.325; -646.000; -670.000
265.248; -132.325; -825.000; -812.000
265.390;    6.000;  152.000;   -9.000
265.531;  -17.175; -238.000; -107.000
265.672;  -67.050; -557.000; -630.000
265.813;   54.625;  563.000;  439.000
265.954; -138.200; -959.000; -940.000
266.095;  -28.800; -372.000; -322.000
266.236;  -95.575; -686.000; -548.000
266.377;  -48.025; -243.000; -297.000
266.518;  -64.625; -619.000; -547.000
266.659;   25.950;  170.000;  268.000
266.800;    5.850;   83.000;   85.000
266.941;  -70.100; -487.000; -478.000
267.082;   27.400;  354.000;   99.000
267.223;  -62.800; -344.000; -273.000
267.364; -111.150; -892.000; -686.000
267.504;  -18.950;    3.000;  135.000
267.645;   13.725;  160.000;   67.000
267.786;  -38.925; -147.000;  -86.000
267.927;  -65.725; -473.000; -379.000
268.068;  -23.225; -186.000;  -61.000
268.209;  -34.400; -175.000; -413.000
268.350;  -63.475; -388.000; -532.000
268.490;  -82.000; -648.000; -521.000
268.631;   25.075;  127.000;  225.000
268.772; -112.000; -874.000; -647.000
268.913;  -59.400; -328.000; -476.000
269.054;   -2.950; -117.000;   12.000
269.194;  -57.225; -418.000; -402.000
269.335; -149.925;-1137.000;-1074.000
269.476;  -25.400;   33.000;  -35.000
269.617;  -41.250; -347.000; -392.000
269.757;  -87.450; -713.000; -646.000
269.898;  -97.550; -856.000; -613.000
270.039;  -67.750; -415.000; -405.000
270.180; -123.275; -952.000; -816.000
270.320;  -34.625; -190.000; -250.000
270.461;  -39.925; -277.000; -249.000
270.602;  -20.275; -186.000; -156.000
270.742; -117.450; -868.000; -943.000
270.883;  -60.600; -442.000; -390.000
271.023;  -43.300; -358.000; -357.000
271.164;  -70.275; -607.000; -528.000
271.305;  -93.850; -666.000; -654.000
271.445;  -95.525; -722.000; -683.000
271.586;  -57.600; -462.000; -283.000
271.726;  -56.750; -397.000; -322.000
271.867;  -53.650; -594.000; -534.000
272.008;  180.625; -473.000; -285.000
272.148;  132.600;  462.000;  468.000
272.289;   11.800; -113.000; -181.000
272.429;   28.000;   19.000;  185.000
272.570; -103.725; -633.000; -737.000
272.710;  -91.650; -825.000; -775.000
272.851;  -18.100;  113.000; -130.000
272.991; -150.525;-1173.000;-1077.000
273.131;  -67.825; -419.000; -459.000
273.272;  -89.800; -683.000; -723.000
273.412;    5.750; -143.000;  -31.000
273.553;  -34.250; -488.000; -507.000
273.693;  128.075;  913.000;  858.000
273.834;  -98.950; -894.000; -692.000
273.974;  -89.250; -664.000; -615.000
274.114; -102.050; -772.000; -560.000
274.255;   60.750;  414.000;  373.000
274.395;   13.325; -180.000; -125.000
274.535;   30.700;  199.000;  350.000
274.676;   37.750;  225.000;   94.000
274.816;    2.325;  110.000;   34.000
274.956;  -74.700; -624.000; -690.000
275.097;  -69.300;-1014.000; -922.000
275.237; -104.075; -913.000; -803.000
275.377;  -94.525; -778.000; -689.000
275.517; -135.700; -878.000; -937.000
275.658;  -71.000; -590.000; -555.000
275.798;  -61.775; -606.000; -413.000
275.938;   24.175;  215.000;  323.000
276.078;  -82.925; -626.000; -395.000
276.218;  -10.050;   99.000;  104.000
276.359; -127.975;-1026.000;-1024.000
276.499;  -78.150; -605.000; -446.000
276.639;  -37.950; -305.000; -151.000
276.779;  -53.100; -475.000; -357.000
276.919;  -91.125; -783.000; -624.000
277.059;  -35.875; -261.000; -212.000
277.199;  -50.100; -357.000; -259.000
277.340;   36.975;  287.000;  175.000
277.480;  -96.350; -840.000; -693.000
277.620;   30.975;  192.000;   16.000
277.760; -189.125;-1533.000;-1294.000
277.900;   23.725;  113.000;   33.000
278.040;   15.225;  137.000;  159.000
278.180;   32.475;  270.000;  170.000
278.320;   -3.725;   21.000;   56.000
278.460;  -76.550; -443.000; -469.000
278.600;  -86.325; -708.000; -598.000
278.740;   52.150;  448.000;  224.000
278.880;  -79.075; -768.000; -791.000
279.020;   -3.100; -194.000; -144.000
279.160;  -80.150; -672.000; -595.000
279.300; -126.450; -926.000; -873.000
279.440;  -89.525; -709.000; -622.000
279.579;  -32.050;-1014.000; -929.000
279.719;  -54.075; -410.000; -394.000
279.859;   63.200;   -4.000;   41.000
279.999;   28.750; -208.000;  101.000
280.139;  -27.100; -435.000; -387.000
280.279;  -69.225; -708.000; -745.000
280.419;   -4.825; -229.000; -147.000
280.559;  -43.000; -259.000; -180.000
280.698;  -90.300; -790.000; -639.000
280.838;  -92.875; -778.000; -800.000
280.978; -102.150; -846.000; -790.000
281.118; -107.525; -811.000; -704.000
281.257;    4.675;   24.000;    6.000
281.397; -120.525;-1094.000; -960.000
281.537;  -89.900; -599.000; -712.000
281.677;  -19.825; -150.000; -101.000
281.816; -103.050; -700.000; -630.000
281.956;  -28.450; -193.000; -257.000
282.096;  -50.050; -539.000; -396.000
282.235; -103.225; -672.000; -638.000
282.375;  -31.650; -243.000;  -98.000
282.515;  -96.250; -715.000; -707.000
282.654;   20.975;   29.000;  106.000
282.794;   31.850;  388.000;  244.000
282.934;  -65.800; -530.000; -491.000
283.073; -124.525;-1030.000; -857.000
283.213;  -58.050; -460.000; -467.000
283.353;  -34.100; -408.000; -349.000
283.492;  -26.450; -264.000; -296.000
283.632;  -38.275; -254.000; -168.000
283.771;  -93.650; -859.000; -730.000
283.911;  -39.925; -369.000; -260.000
284.050; -108.225; -794.000; -748.000
284.190; -162.450;-1229.000;-1096.000
284.329; -136.675;-1055.000; -964.000
284.469;  -73.650; -516.000; -591.000
284.608;  -64.300; -559.000; -598.000
284.748;  -70.375; -614.000; -570.000
284.887;  -12.350;  -87.000;  -20.000
285.027; -119.025; -844.000; -892.000
285.166;  -39.200; -192.000; -249.000
285.306;   -4.650; -116.000;  -33.000
285.445;  -51.675; -229.000; -343.000
285.584;  -85.125; -630.000; -494.000
285.724;  -49.475; -282.000; -322.000
285.863;  -97.375; -857.000; -507.000
286.002;  -57.575; -366.000; -276.000
286.142;  -94.575; -715.000; -622.000
286.281;  -71.275; -525.000; -493.000
286.420;  -69.475; -554.000; -417.000
286.560;   90.850;  653.000;  623.000
286.699; -133.500; -958.000; -912.000
286.838;  -88.175; -590.000; -591.000
286.978;  -77.550; -533.000; -537.000
287.117; -139.775;-1085.000; -950.000
287.256;  -26.125; -228.000; -211.000
287.395;  -61.875; -197.000; -378.000
287.535;  -35.200; -370.000; -298.000
287.674;  -93.275; -509.000; -484.000
287.813;   66.075;  661.000;  533.000
287.952; -129.825;-1010.000; -871.000
288.091; -142.450;-1049.000; -915.000
288.231;    7.200;   13.000;   15.000
288.370; -158.775;-1217.000;-1200.000
288.509;  -92.925; -728.000; -645.000
288.648;  -82.150; -770.000; -548.000
288.787;  -37.750; -243.000;  -87.000
288.926;  -50.475; -454.000; -475.000
289.065;  100.625;  859.000;  672.000
289.204;  -59.525; -377.000; -217.000
289.344;  -98.425; -791.000; -690.000
289.483;   11.875;  416.000;  304.000
289.622;  -28.500; -291.000; -149.000
289.761;  -19.750; -309.000; -166.000
289.900; -108.175; -785.000; -626.000
290.039;  -13.675;  -12.000;  -95.000
290.178;  -33.950; -274.000; -180.000
290.317;  -70.475; -618.000; -479.000
290.456;  -67.250; -463.000; -451.000
290.595; -130.050; -961.000; -833.000
290.734; -134.675; -904.000; -891.000
290.873;  -50.525; -456.000; -420.000
291.011; -119.150; -833.000; -843.000
291.150;  -98.750; -770.000; -682.000
291.289;  -30.950; -343.000; -110.000
291.428;  -78.825; -599.000; -480.000
291.567;  -56.150; -370.000; -442.000
291.706;   -4.475;  109.000;  154.000
291.845;  -88.100; -597.000; -505.000
291.984; -154.675;-1234.000;-1061.000
292.122;   62.750;  602.000;  582.000
292.261;   29.350;  620.000;  463.000
292.400;   11.975; -144.000;  211.000
292.539; -120.175; -959.000; -813.000
292.678;  -26.550; -325.000; -300.000
292.816; -142.200;-1136.000; -965.000
292.955;  -93.625; -844.000; -684.000
293.094;  -12.450; -173.000; -337.000
293.233;  -58.175; -556.000; -400.000
293.371;  -30.425; -225.000;  -84.000
293.510; -126.450; -866.000; -780.000
293.649; -118.225; -959.000; -924.000
293.787;  -68.325;-1083.000;-1012.000
293.926;   -1.500; -113.000;  -32.000
294.065;  -43.375; -379.000; -290.000
294.203;   48.150;  298.000;  406.000
294.342;   17.150;   74.000;  156.000
294.481; 6841.200;51180.000; -836.000
294.619;  -21.825; -425.000; -582.000
294.758; -143.350;-1230.000;-1137.000
294.896;   64.850; -125.000;    5.000
295.035; -138.200;-1040.000;-1006.000
295.174; -121.400;-1082.000; -954.000
295.312;  -36.075; -323.000; -203.000
295.451;  -29.175; -307.000; -428.000
295.589;  -46.800; -389.000; -518.000
295.728;   13.125; -292.000; -165.000
295.866;    3.650;  -36.000;  -51.000
296.005;  -70.475; -584.000; -341.000
296.143;  -59.125; -558.000; -596.000
296.282; -114.650; -957.000; -881.000
296.420;  -82.825; -657.000; -557.000
296.559;  -90.725; -892.000; -633.000
296.697;    5.075; -847.000; -665.000
296.835;   19.775;-1141.000;-1002.000
296.974;   31.325;  -23.000;   39.000
297.112;   -2.625; -443.000; -504.000
297.251;  -68.150; -815.000; -755.000
297.389;   73.675; -576.000; -438.000
297.527;   34.700; -145.000;  -83.000
297.666;  -53.700; -486.000; -438.000
297.804;  -47.375; -404.000; -264.000
297.942;   -9.525; -136.000; -161.000
298.081;    0.900; -183.000;   63.000
298.219;   49.525;  -17.000;  -19.000
298.357;   47.650; -144.000;  -71.000
298.495;   15.250; -810.000; -812.000
298.634;   74.225;  245.000;  219.000
298.772;   26.425; -220.000; -338.000
298.910;  -11.650; -309.000; -182.000
299.048;  -16.850; -130.000; -153.000
299.187;  -38.625; -350.000; -250.000
299.325;    8.875;   52.000;  122.000
299.463;   47.975; -389.000; -299.000
299.601;   75.775; -327.000; -271.000
299.739;  -98.100; -908.000; -883.000
299.877;  -90.725; -791.000; -703.000
300.016;  -60.425;-1095.000; -935.000
300.154;  132.875;  -19.000; -161.000
300.292;   38.800; -428.000; -348.000
300.430;   14.675; -408.000; -291.000
300.568; -100.550; -940.000; -874.000
300.706;  -61.775; -366.000; -469.000
300.844;  -70.725;-1108.000; -979.000
300.982;  108.900;  246.000;  282.000
301.120; -108.775; -965.000; -866.000
301.258;  -73.775; -812.000; -705.000
301.396;   41.650;  104.000;  -41.000
301.534;   38.425; -218.000; -293.000
301.672;  -20.275; -664.000; -521.000
301.810;    8.000; -613.000; -545.000
301.948;  118.025;   53.000;  149.000
302.086;  556.600; -250.000;  -32.000
302.224;  820.575; -610.000; -585.000
302.362;   13.700; -558.000; -622.000
302.500;  -40.550; -923.000; -893.000
302.638;   89.325;  128.000;  245.000
302.776;   -7.800; -352.000; -408.000
302.913;   41.575;  447.000;  236.000
303.051;    4.075;  -86.000;  -23.000
303.189;   38.800;   90.000;  118.000
303.327;  -44.200; -341.000; -256.000
303.465;  -90.525; -832.000; -588.000
303.603;  -92.000; -805.000; -604.000
303.740;   87.700;  417.000;  241.000
303.878;    5.225; -800.000; -759.000
304.016;  -90.525; -915.000; -790.000
304.154; -130.025;-1123.000;-1152.000
304.291;  -47.075; -505.000; -554.000
304.429;    3.975;  102.000;   74.000
304.567; -131.025; -908.000; -893.000
304.705;  -48.525; -408.000; -515.000
304.842;   84.325; -616.000; -540.000
304.980;   41.325;  215.000;   35.000
305.118;   28.800; -367.000; -365.000
305.255;  -79.800; -945.000; -927.000
305.393;   45.700;  178.000;  239.000
305.531;  -93.325;-1173.000; -956.000
305.668;  -75.525; -663.000; -582.000
305.806;   99.275; -358.000; -439.000
305.943;   74.250; -629.000; -637.000
306.081;   46.925; -378.000; -267.000
306.219;  -99.375; -863.000; -748.000
306.356;   18.950;  158.000;   27.000
306.494;   92.825;  981.000;  761.000
306.631;    5.025;  -11.000;  -55.000
306.769;  -13.475; -613.000; -485.000
306.906;  -14.125; -284.000; -258.000
307.044;  -68.550; -473.000; -488.000
307.181;  -62.500; -410.000; -332.000
307.319;    0.425;  112.000;   87.000
307.456; -168.975;-1191.000;-1153.000
307.594;  -93.675; -980.000; -727.000
307.731;   -3.125; -371.000; -164.000
307.868;   -1.375;  -15.000;   20.000
308.006; -125.825; -961.000; -847.000
308.143;  -72.300; -618.000; -330.000
308.281;  150.900;  -37.000; -254.000
308.418;  -30.500; -748.000; -640.000
308.555;  -72.500; -400.000; -250.000
308.693;  -81.000; -577.000; -573.000
308.830; -101.650; -712.000; -657.000
308.967;  -25.100; -215.000;  -95.000
309.105;  -39.775; -507.000; -396.000
309.242;   12.025; -468.000; -367.000
309.379;  244.725; -577.000; -655.000
309.517;  -78.525; -936.000; -948.000
309.654; -104.925; -910.000; -734.000
309.791;  -72.700; -662.000; -580.000
309.928; -113.525; -977.000; -914.000
310.065;  167.900;  819.000;  697.000
310.203;  -13.400; -825.000; -850.000
310.340;  -23.575; -465.000; -321.000
310.477;  -85.600; -412.000; -516.000
310.614;  -70.700; -383.000; -473.000
310.751;  -85.525; -427.000; -518.000
310.889;  -37.675;    1.000;   11.000
311.026; -148.425;-1161.000; -939.000
311.163;  -55.250; -386.000; -380.000
311.300;  -67.450; -512.000; -479.000
311.437;  -74.000; -658.000; -619.000
311.574; -150.225;-1226.000; -985.000
311.711;  -60.925; -595.000; -433.000
311.848;  -40.425; -380.000; -388.000
311.985;   12.975;  270.000;   93.000
312.122; -115.550; -932.000; -762.000
312.259; -133.850; -941.000; -994.000
312.396;  -85.400; -508.000; -551.000
312.533;  -96.925; -812.000; -790.000
312.670; -125.375;-1070.000; -898.000
312.807;  -34.050; -352.000; -367.000
312.944;  -76.075; -513.000; -611.000
313.081;  -29.550; -150.000; -415.000
313.218; -116.525;-1111.000; -867.000
313.355;   -7.475; -531.000; -449.000
313.492;   -2.125; -455.000; -292.000
313.629;  110.925;  815.000;  735.000
313.766; -147.925;-1176.000;-1008.000
313.902;  -26.200; -186.000;   21.000
314.039;  -59.700; -372.000; -289.000
314.176;   21.700;  286.000;  192.000
314.313;  -63.200; -569.000; -473.000
314.450;  -83.300; -788.000; -684.000
314.587;  -49.550; -468.000; -480.000
314.723;   -4.700;  -78.000;  130.000
314.860;   33.450;  318.000;  332.000
314.997;   11.675;  223.000;  142.000
315.134;  -44.350; -385.000; -368.000
315.270;  -34.350; -480.000; -496.000
315.407; -109.850;-1094.000; -967.000
315.544;  -74.100; -657.000; -538.000
315.681;  -67.750; -681.000; -565.000
315.817;   18.875; -133.000; -176.000
315.954;   22.425; -613.000; -392.000
316.091; -136.150;-1045.000;-1023.000
316.227;  -12.950;  -71.000; -179.000
316.364;   -6.175;   23.000;    6.000
316.500;  -16.150; -113.000; -300.000
316.637;  -51.925; -181.000; -302.000
316.774;  -88.575; -625.000; -358.000
316.910;  -83.650; -598.000; -629.000
317.047;  -68.650; -487.000; -351.000
317.183;  -56.550; -435.000; -566.000
317.320;   -3.875; -367.000; -321.000
317.456;  -61.525; -733.000; -805.000
317.593;  -91.625; -598.000; -641.000
317.729;   -6.375;  168.000;  -67.000
317.866; -189.525;-1434.000;-1285.000
318.002;  -98.650; -708.000; -948.000
318.139;  -99.175; -883.000; -867.000
318.275; -110.875;-1003.000; -738.000
318.412;  -59.050; -517.000; -336.000
318.548;  -42.025; -751.000; -720.000
318.685;  -95.825; -985.000; -888.000
318.821; -106.750; -762.000; -735.000
318.957;   -7.950;   34.000;  -23.000
319.094;   32.875;  297.000;  154.000
319.230;  -69.800; -756.000; -742.000
319.367;   95.325; -471.000; -520.000
319.503;   36.675; -538.000; -436.000
319.639; -103.750; -877.000; -793.000
319.775;  -53.725; -750.000; -685.000
319.912;  -61.825; -424.000; -519.000
320.048;  -95.200;-1184.000;-1184.000
320.184;   72.300;   59.000;   70.000
320.321;  -59.050; -497.000; -467.000
320.457;   63.500;  475.000;  662.000
320.593;  -55.300; -375.000; -382.000
320.729; -120.375; -732.000; -734.000
320.866;  -74.425; -577.000; -635.000
321.002;  -90.250; -759.000; -809.000
321.138;   -8.775; -135.000; -211.000
321.274;   58.375; -148.000; -115.000
321.410;  -25.325; -585.000; -353.000
321.546;  -50.975;-1011.000; -911.000
321.683;   48.975;  400.000;  185.000
321.819;   -2.425;  -48.000; -117.000
321.955; -103.500; -743.000; -722.000
322.091;  -44.075; -585.000; -540.000
322.227;  -17.875; -382.000; -202.000
322.363;  -23.800; -320.000; -215.000
322.499;  -38.125; -343.000; -331.000
322.635;  145.775;  636.000;  443.000
322.771;   16.625; -139.000;   12.000
322.907;   76.525;  129.000;  327.000
323.043;   -8.775; -115.000; -206.000
323.179;  -51.650; -394.000; -363.000
323.315;    7.000; -401.000; -371.000
323.451;   80.725; -328.000; -236.000
323.587;   60.625;  -60.000;  -77.000
323.723;   12.200; -682.000; -601.000
323.859;  -17.600; -258.000;  -76.000
323.995;  -38.475; -467.000; -409.000
324.131; -120.275; -967.000; -892.000
324.267;  -53.425; -254.000; -276.000
324.402; -117.950; -960.000; -983.000
324.538;  -13.925; -279.000; -104.000
324.674;   15.825;  164.000;   77.000
324.810;  101.425;  226.000;  308.000
324.946;   -2.450; -810.000; -658.000
325.082;  -85.475; -568.000; -475.000
325.217;  -11.425;  -62.000;   16.000
325.353; -111.525; -764.000; -659.000
325.489;  -87.575; -540.000; -506.000
325.625;  -63.675; -579.000; -525.000
325.760;   62.850;  517.000;  376.000
325.896;  -33.225; -515.000; -702.000
326.032;  -46.875; -403.000; -352.000
326.168;  -72.850; -462.000; -369.000
326.303;  -51.400; -352.000; -461.000
326.439;  -34.825; -336.000; -276.000
326.575;    6.850; -190.000;  -29.000
326.710;  -12.175; -156.000;  -30.000
326.846;   -8.100;  146.000;  103.000
326.982;  -98.625; -530.000; -548.000
327.117;  -87.750; -481.000; -442.000
327.253;  -89.650; -745.000; -742.000
327.388; -157.500;-1137.000;-1153.000
327.524;  -63.225; -811.000; -578.000
327.659;  -22.875;  -58.000;  -22.000
327.795;  -17.850;   69.000;   45.000
327.931;  -84.100; -723.000; -499.000
328.066;  -36.025; -417.000; -276.000
328.202;  -39.875;   12.000; -129.000
328.337;   90.400;  957.000;  713.000
328.473;   42.275;  -12.000;  -74.000
328.608;  -24.075; -256.000; -267.000
328.743;  -82.550; -799.000; -664.000
328.879;   16.125;  214.000;  114.000
329.014;  -28.775; -102.000; -122.000
329.150;  -87.775; -358.000; -483.000
329.285;  -75.200; -465.000; -466.000
329.421;  -55.525; -548.000; -246.000
329.556;  -11.925;  -36.000;   85.000
329.691; -107.750; -633.000; -615.000
329.827;  -81.350; -626.000; -480.000
329.962;  -48.450;  131.000; -301.000
330.097;  -96.550; -673.000; -585.000
330.233;  -54.575; -410.000; -223.000
330.368; -115.900; -839.000; -628.000
330.503;  -24.550;    3.000;   98.000
330.638;   -4.200;  -93.000; -125.000
330.774;  -64.775; -609.000; -530.000
330.909;  -53.700; -434.000; -244.000
331.044; -111.125; -714.000; -708.000
331.179; -171.750;-1217.000;-1109.000
331.315;   -2.975;   77.000;   20.000
331.450;   19.225;  157.000;  285.000
331.585;  -92.525; -805.000; -706.000
331.720;  -86.225; -510.000; -460.000
331.855;  -17.675;  -35.000; -102.000
331.990;  276.825;   62.000;  138.000
332.126;  138.450; -110.000;   71.000
332.261;   -4.500; -379.000; -265.000
332.396;  -10.525; -135.000; -242.000
332.531;  -94.625;-1074.000;-1031.000
332.666;   24.875; -519.000; -363.000
332.801;  -98.650; -726.000; -807.000
332.936;  -29.050; -192.000; -122.000
333.071; -147.175; -870.000; -817.000
333.206;    8.600;  307.000;  379.000
333.341;   28.075;  344.000;  418.000
333.476;  -95.775; -627.000; -623.000
333.611;  -36.450; -251.000; -173.000
333.746;  -51.400; -381.000; -464.000
333.881; -119.175; -973.000; -935.000
334.016; -152.150; -936.000; -917.000
334.151; -124.000; -746.000; -702.000
334.286;    9.550;  152.000;  186.000
334.421;  -15.025; -125.000; -178.000
334.556;  -90.250; -611.000; -567.000
334.690;  -71.975; -631.000; -577.000
334.825;   43.275;  381.000;   83.000
334.960;  -74.125; -285.000; -413.000
335.095;    6.550;  135.000;  -91.000
335.230; -104.400; -722.000; -738.000
335.365; -148.175;-1084.000; -990.000
335.499; -132.700;-1108.000;-1037.000
335.634;    8.550;    9.000;  534.000
335.769;  -99.100; -755.000; -720.000
335.904;  -62.100; -603.000; -561.000
336.038;  -55.575; -735.000; -657.000
336.173; -135.125;-1206.000;-1194.000
336.308;    9.350; -116.000; -189.000
336.443;   22.525; -544.000; -634.000
336.577;  -73.475; -936.000; -787.000
336.712;   52.600;   -4.000;  -12.000
336.847;  -38.925; -724.000; -607.000
336.981;   51.725; -272.000; -208.000
337.116;  253.125;  615.000;  501.000
337.250;  135.050; -434.000; -421.000
337.385;  273.500; -297.000; -208.000
337.520;  103.875; -632.000; -603.000
337.654;  -30.600; -215.000; -126.000
337.789; -134.575; -989.000; -933.000
337.923;  -20.000; -104.000; -205.000
338.058;  -88.150; -673.000; -738.000
338.192;  -33.550; -611.000; -488.000
338.327;  -13.175;  -18.000; -155.000
338.461;  -51.125; -299.000; -469.000
338.596;  -86.775; -780.000; -638.000
338.730;  -89.400; -767.000; -803.000
338.865;   93.975;  -46.000; -140.000
338.999;  -34.100; -846.000; -702.000
339.134;  -29.300; -634.000; -536.000
339.268;   -0.925; -741.000; -603.000
339.403;  365.425; -740.000; -775.000
339.537;  133.475; -894.000; -820.000
339.671; -129.625; -829.000; -813.000
339.806;  -56.025; -556.000; -512.000
339.940;   15.175; -261.000; -235.000
340.074; -103.300; -685.000; -510.000
340.209;  -56.350; -351.000; -230.000
340.343;  -88.800; -517.000; -573.000
340.477;  140.775;  998.000; 1036.000
340.612;  -37.775;-1033.000; -900.000
340.746;  147.300; -199.000; -243.000
340.880;  -78.550; -924.000; -785.000
341.014;  -28.625;  -45.000; -154.000
341.149; -108.850; -756.000; -718.000
341.283; -107.650; -839.000; -754.000
341.417;  -96.200;-1124.000; -938.000
341.551;   90.000; -768.000; -708.000
341.685;  -55.050; -633.000; -611.000
341.820;  -52.325; -562.000; -493.000
341.954;  -37.450; -218.000; -349.000
342.088; -159.575;-1102.000;-1019.000
342.222;   60.625;  565.000;  618.000
342.356;  -67.000; -395.000; -335.000
342.490;  -97.350; -880.000; -841.000
342.624;  -59.875; -339.000; -242.000
342.758;   -1.575; -364.000; -312.000
342.892;  -79.675; -710.000; -585.000
343.026;  -33.900;  -58.000; -116.000
343.160;  -76.950; -426.000; -376.000
343.294;  -71.800; -474.000; -337.000
343.428;  -41.250; -488.000; -448.000
343.562;  -11.300; -172.000;  -23.000
343.696;  -46.625; -385.000; -314.000
343.830;  -27.600; -362.000; -356.000
343.964;    2.175; -231.000; -168.000
344.098;  806.325;  199.000;   70.000
344.232;  663.025; -266.000; -127.000
344.366;   78.250; -567.000; -453.000
344.500;   30.625; -665.000; -744.000
344.634;   12.325; -324.000; -164.000
344.768;  -24.400; -531.000; -341.000
344.902;   24.375;  278.000;  256.000
345.035;  -90.400; -556.000; -496.000
345.169; -125.925; -933.000; -656.000
345.303;  -33.525; -308.000; -482.000
345.437;  -75.500; -826.000; -717.000
345.571;  -79.525; -675.000; -594.000
345.704;  -64.250; -309.000; -532.000
345.838;  -21.200; -331.000; -284.000
345.972;  -35.450; -543.000; -495.000
346.106;  163.150; -179.000; -190.000
346.239;  403.750; -312.000; -243.000
346.373;   -2.225; -343.000; -302.000
346.507; -136.425; -950.000; -962.000
346.640;   99.600;  -30.000;   13.000
346.774;  -51.525; -650.000; -797.000
346.908;  -25.050; -138.000;  -11.000
347.041;  -99.875; -646.000; -593.000
347.175;   -5.800;  259.000;   27.000
347.309;  -84.350; -698.000; -628.000
347.442; -110.425; -883.000; -732.000
347.576;  260.025;  670.000;  668.000
347.709;  170.525; -123.000;  -52.000
347.843;  -93.625; -933.000; -825.000
347.976;   29.300;  235.000;  294.000
348.110; -168.600;-1268.000;-1186.000
348.243; -115.375; -679.000; -772.000
348.377;    9.125;  -26.000;   60.000
348.510;   41.175;  403.000;  540.000
348.644;  -37.250;  -37.000; -159.000
348.777;   -3.375;  180.000;  191.000
348.911;  -61.300; -142.000; -112.000
349.044;  140.025;  471.000;  448.000
349.178;  117.675;-1069.000;-1006.000
349.311;  101.950;  141.000;  255.000
349.444;    1.950; -927.000; -813.000
349.578;  -34.225; -347.000; -200.000
349.711; -106.025; -959.000; -862.000
349.845;  -29.250; -661.000; -591.000
349.978; -152.300;-1224.000;-1137.000
350.111;  -86.700; -546.000; -612.000
350.244;  -79.575; -596.000; -700.000
350.378;   -5.075; -392.000; -393.000
350.511;  -66.900; -393.000; -426.000
350.644; -113.000; -808.000; -806.000
350.778;   11.825;  168.000;  104.000
350.911;  -14.200;  134.000;  140.000
351.044;  -93.650; -685.000; -615.000
351.177;  -41.775; -321.000; -281.000
351.310;  -18.800;    3.000; -131.000
351.444;  -95.350; -888.000; -788.000
351.577;  111.000;  140.000;   90.000
351.710;   86.025;  593.000;  417.000
351.843;  -36.850; -165.000;  -77.000
351.976;  -10.150;  149.000;  -79.000
352.109;  -71.925; -621.000; -612.000
352.242;  -55.525; -464.000; -419.000
352.376;  -66.600; -580.000; -636.000
352.509;  136.325; -437.000; -356.000
352.642;   -2.050; -654.000; -604.000
352.775;   27.925; -141.000;  -98.000
352.908; -120.100; -933.000; -904.000
353.041; -116.550; -814.000; -824.000
353.174;  -53.100; -551.000; -424.000
353.307;  -95.350; -753.000; -764.000
353.440;   70.225;  541.000;  453.000
353.573; -119.650; -957.000;-1008.000
353.706;  -54.025; -384.000; -558.000
353.839;  -22.325; -264.000; -220.000
353.971;  -92.225; -657.000; -512.000
354.104;  -78.275; -896.000; -835.000
354.237;  -38.875; -627.000; -662.000
354.370; -108.825; -846.000; -879.000
354.503; -182.100;-1231.000;-1308.000
354.636;  -36.150; -529.000; -348.000
354.769; -119.575; -937.000; -860.000
354.902;  -28.475; -230.000; -139.000
355.034;  -19.925; -164.000; -220.000
355.167;  -22.350; -262.000; -162.000
355.300;  -76.125;-1061.000; -880.000
355.433;  980.825;  -71.000;  -14.000
355.565; 1547.050; -402.000; -384.000
355.698;  398.350; -356.000; -296.000
355.831;   -3.800; -882.000; -801.000
355.964;   51.675; -285.000; -170.000
356.096;  -87.050; -856.000; -843.000
356.229;  -19.125; -523.000; -530.000
356.362;  330.350; -373.000; -266.000
356.494;  604.125; -229.000; -162.000
356.627;  425.950;  269.000;  377.000
356.760;  668.275;  120.000;   53.000
356.892; 1008.500; -286.000; -601.000
357.025;  556.875;  403.000;  389.000
357.157;  513.375; -167.000; -179.000
357.290;  730.825; -856.000; -713.000
357.423;  205.950; -667.000; -556.000
357.555;   87.950; -217.000; -228.000
357.688;  107.325; -483.000; -364.000
357.820;  398.000; -870.000; -877.000
357.953; 3461.450; -563.000; -589.000
358.085;  716.750; -632.000; -612.000
358.218;  915.125;-1131.000; -932.000
358.350;  167.675;  -58.000;  312.000
358.483; -137.225;-1300.000;-1187.000
358.615;  -53.900;-1182.000;-1078.000
358.747;  -69.700;-1187.000;-1058.000
358.880;   -7.900; -810.000; -744.000
359.012;   -8.725; -376.000; -202.000
359.145;  -52.950; -480.000; -511.000
359.277;   55.850; -962.000; -913.000
359.409; 2827.700;  536.000;  231.000
359.542;  731.050; -738.000; -688.000
359.674;   71.050;   46.000;   13.000
359.806;  -60.850; -565.000; -438.000
359.939;  -50.000; -617.000; -516.000
360.071;    7.125; -583.000; -579.000
360.203;  -36.150; -411.000; -364.000
360.335;   33.900;  164.000;  -16.000
360.468;  180.850; -249.000; -307.000
360.600; 2338.525; -547.000; -454.000
360.732; 2990.325; -546.000; -423.000
360.864;  408.025;-1216.000;-1044.000
360.996;  222.000; -516.000; -554.000
361.129;   41.750; -389.000; -598.000
361.261;   22.950;  110.000; -113.000
361.393;  -38.350; -252.000; -214.000
361.525;   23.300;   94.000;  244.000
361.657;  -55.050; -821.000; -703.000
361.789;   -3.550; -139.000; -155.000
361.921;  160.950; -642.000; -593.000
362.053;  210.075;  524.000;  541.000
362.185;   42.025;  288.000;   72.000
362.318;  -96.400; -709.000; -705.000
362.450;  104.825;  294.000;  444.000
362.582;   35.925; -913.000; -870.000
362.714;  -35.475; -353.000; -332.000
362.846;  -86.925; -606.000; -490.000
362.978; -135.650; -941.000; -811.000
363.109;   28.375; -161.000; -260.000
363.241;  360.075; -739.000; -749.000
363.373;  425.200; -649.000; -564.000
363.505;  707.100; -186.000;  -91.000
363.637;  134.600; -787.000; -601.000
363.769; -126.450;-1067.000;-1080.000
363.901;  -74.900; -596.000; -654.000
364.033; -112.500;-1103.000;-1062.000
364.165;   -9.200; -283.000; -283.000
364.296;   73.325; -316.000; -177.000
364.428;   67.675;-1344.000;-1220.000
364.560;  -69.825; -679.000; -661.000
364.692;  -73.075; -738.000; -835.000
364.824;  197.025; -588.000; -456.000
364.955;  427.550; -402.000; -564.000
365.087; 1044.100;-1097.000; -852.000
365.219;   27.675; -686.000; -816.000
365.351;  -62.575; -526.000; -572.000
365.482;   42.925;  300.000;  240.000
365.614;  -58.800; -402.000; -314.000
365.746;  -92.725; -729.000; -752.000
365.877;  -92.900; -706.000; -672.000
366.009;  266.175;  -35.000;  -62.000
366.141;  -85.075;-1249.000;-1134.000
366.272; -126.275; -803.000; -719.000
366.404; -110.450;-1005.000; -874.000
366.535;  -12.750; -139.000;  -12.000
366.667;  -96.725; -644.000; -649.000
366.799;   28.075;  353.000;  203.000
366.930; -123.675; -862.000; -996.000
367.062;  117.975; -639.000; -613.000
367.193;  175.250; -872.000; -842.000
367.325;  -63.950; -580.000; -684.000
367.456;   15.050; -246.000;   31.000
367.588;  147.275; -371.000; -318.000
367.719;   35.825;  -44.000;  -45.000
367.851;  -50.850; -222.000; -241.000
367.982;  -65.100; -875.000; -732.000
368.113;   70.725; -475.000; -358.000
368.245; -110.050; -960.000; -841.000
368.376;  -34.550; -254.000; -302.000
368.508;  -38.650; -188.000; -263.000
368.639; -146.175;-1166.000;-1034.000
368.770;  -22.800; -670.000; -589.000
368.902;  -71.050; -836.000; -926.000
369.033; -107.775; -906.000; -855.000
369.164;  -57.100; -720.000; -653.000
369.296; -101.900; -452.000; -601.000
369.427;  -25.800; -209.000; -144.000
369.558;  -51.525; -593.000; -377.000
369.689;  -91.500; -721.000; -569.000
369.821; -117.450; -951.000; -845.000
369.952;  -26.175;   42.000; -108.000
370.083;  -49.050; -229.000; -108.000
370.214;  -98.150; -735.000; -650.000
370.345;  -10.950;   65.000;   81.000
370.477; -105.050; -810.000; -790.000
370.608;  189.900; -328.000; -264.000
370.739;  -79.375;-1233.000;-1292.000
370.870;  -52.950;-1102.000; -923.000
371.001;   59.525; -378.000; -467.000
371.132;  -78.775; -754.000; -735.000
371.263;  -38.175;  -42.000; -148.000
371.394; -136.950; -841.000; -748.000
371.525;   24.600;  345.000;  225.000
371.657;  -96.025; -808.000; -670.000
371.788;   66.725;  103.000;  199.000
371.919;  131.525; -384.000; -304.000
372.050; 3226.425;  -91.000; -156.000
372.181;  954.725; -188.000; -294.000
372.311;  302.500;   42.000; -127.000
372.442;   27.200; -457.000; -451.000
372.573;  -35.525; -444.000; -340.000
372.704; -124.625;-1008.000; -980.000
372.835;   55.125; -228.000; -289.000
372.966;  -69.175; -646.000; -554.000
373.097;  -79.225; -575.000; -711.000
373.228;  -53.200; -717.000; -542.000
373.359;   83.725; -824.000; -536.000
373.490;  770.225; -881.000; -727.000
373.620;  995.750;-1001.000; -803.000
373.751; 1537.925; -332.000; -396.000
373.882;  667.250; -663.000; -733.000
374.013;   46.075; -449.000; -262.000
374.143;  -53.850; -581.000; -659.000
374.274; -107.000; -987.000; -908.000
374.405;  138.900; -388.000; -276.000
374.536;  377.125; -526.000; -387.000
374.666;  930.550; -759.000; -807.000
374.797;  174.000; -817.000; -868.000
374.928;  697.725; -710.000; -560.000
375.058;  760.325; -535.000; -500.000
375.189;   54.700;  -59.000;  -93.000
375.320;  -95.250; -928.000;-1034.000
375.450;  -63.475; -625.000; -616.000
375.581;  -55.300; -526.000; -436.000
375.712;  -43.550; -574.000; -250.000
375.842;  258.475; -438.000; -415.000
375.973;  151.625; -554.000; -513.000
376.103;  -53.650; -665.000; -648.000
376.234;  -92.275; -531.000; -552.000
376.364;  -51.925; -944.000; -867.000
376.495;  276.325;  925.000;  529.000
376.625;  -26.025; -472.000; -485.000
376.756;    9.900; -709.000; -678.000
376.886;  -76.200;-1178.000;-1026.000
377.017;   48.200;-1048.000;-1061.000
377.147;  379.275; -786.000; -782.000
377.278;   60.650;  174.000;  228.000
377.408; -133.200; -801.000; -815.000
377.538; -118.475; -707.000; -693.000
377.669;  -77.475; -537.000; -613.000
377.799; -111.325; -645.000; -635.000
377.929;  -72.450; -610.000; -428.000
378.060; -134.725; -781.000; -847.000
378.190;  -54.000; -726.000; -531.000
378.320;  -58.475; -401.000; -406.000
378.451;  -27.625; -131.000;  -22.000
378.581;  -17.875;  -67.000; -110.000
378.711;  148.075; 1035.000;  866.000
378.841;  -30.950; -533.000; -675.000
378.972;  -85.325; -871.000; -751.000
379.102;  -34.025; -652.000; -579.000
379.232;  -24.725; -126.000;  -73.000
379.362; -117.900;-1001.000; -885.000
379.492;   -3.225; -373.000; -424.000
379.623;   79.800;    0.000;  111.000
379.753; -107.000;-1107.000; -974.000
379.883;  158.450;   59.000;  156.000
380.013;  -21.600;-1081.000;-1017.000
380.143; -124.075;-1097.000;-1056.000
380.273; -119.575; -985.000; -861.000
380.403;  -11.175; -344.000; -257.000
380.533;  -38.500; -651.000; -664.000
380.663;   57.200;  173.000;  128.000
380.793; -123.350;-1027.000;-1074.000
380.923;  -36.125; -103.000;  -34.000
381.053;  -95.700; -613.000; -623.000
381.183;  -32.900; -106.000; -248.000
381.313;    5.425; -656.000; -470.000
381.443;    7.500; -692.000; -473.000
381.573;  143.575; -402.000; -409.000
381.703;  182.900;-1249.000;-1095.000
381.833; -151.425;-1454.000;-1336.000
381.963;   95.775; -134.000;  -87.000
382.093; 1267.000; -925.000; -909.000
382.223;  377.650; -713.000; -602.000
382.353;  -14.725; -801.000; -608.000
382.482;  283.550;-1091.000; -964.000
382.612;  662.975; -872.000; -644.000
382.742;  348.100; -695.000; -622.000
382.872;  205.475; -565.000; -551.000
383.002;   45.900;  347.000; -132.000
383.131;  -22.200; -226.000; -160.000
383.261;  -56.800; -706.000; -768.000
383.391;  279.750; -552.000; -377.000
383.521; 3363.400;  451.000;  263.000
383.650;  831.350; -947.000; -904.000
383.780;  -10.950; -783.000; -656.000
383.910;  103.125;  880.000;  802.000
384.039;   -6.225; -794.000; -656.000
384.169;  166.075;-1205.000;-1017.000
384.299;  -44.425; -650.000; -662.000
384.428; -105.450; -764.000; -680.000
384.558;  -62.150; -308.000; -275.000
384.687;  -51.650; -414.000; -334.000
384.817;   -0.975;   75.000;   -2.000
384.947;  -11.475; -234.000; -141.000
385.076;  254.850;  982.000;  912.000
385.206;   80.425;  369.000;  480.000
385.335;  -56.225; -549.000; -417.000
385.465;  -87.150; -655.000; -663.000
385.594;  115.950;  -53.000;  -44.000
385.724;  356.200; -868.000; -838.000
385.853;   96.250; -296.000; -270.000
385.982; 1176.925; -743.000; -787.000
386.112; 1885.100;-1052.000; -871.000
386.241;  116.725; -307.000; -312.000
386.371;   11.675; -174.000;  -87.000
386.500;  -28.725; -825.000; -789.000
386.629;    6.075; -874.000; -817.000
386.759;   56.950;  -43.000;   68.000
386.888;  -36.950; -170.000; -250.000
387.017;  -71.550; -648.000; -620.000
387.147;  -90.825; -771.000; -798.000
387.276;   -4.950; -410.000; -397.000
387.405;  -18.300; -398.000; -342.000
387.535;  -48.600; -452.000; -361.000
387.664;  -63.700; -692.000; -620.000
387.793;   37.650; -198.000; -113.000
387.922;  421.425;  255.000;  200.000
388.052;   10.375; -576.000; -423.000
388.181;  -19.075; -342.000; -472.000
388.310;  -35.475; -889.000; -710.000
388.439;  -76.000; -749.000; -742.000
388.568;  152.800;  365.000;  244.000
388.697;  899.875; -756.000; -653.000
388.826;  175.750; -768.000; -666.000
388.956;   33.925; -285.000; -307.000
389.085;  -45.100; -347.000; -287.000
389.214; -117.825; -842.000; -872.000
389.343;  -74.850; -645.000; -413.000
389.472;  398.775;  126.000;  149.000
389.601;  521.850;   91.000;    0.000
389.730;  -11.150; -568.000; -687.000
389.859;   56.600;  226.000;   46.000
389.988;  136.950; -423.000; -408.000
390.117;  108.925; -168.000; -146.000
390.246;  -30.775; -331.000; -320.000
390.375;   59.650; -673.000; -626.000
390.504;  -77.825; -703.000; -621.000
390.633; -108.725; -672.000; -726.000
390.761;  -86.450; -732.000; -645.000
390.890;   12.000;   -4.000; -130.000
391.019;  -65.050; -421.000; -441.000
391.148; -128.475; -826.000; -855.000
391.277;  -96.800; -576.000; -493.000
391.406;  -93.550; -821.000; -805.000
391.534;    2.375;  574.000; -301.000
391.663;  -53.525; -583.000; -645.000
391.792;  -86.550; -673.000; -701.000
391.921;   77.750;   -3.000;   15.000
392.050;  110.800; -287.000; -228.000
392.178;  -66.150;-1206.000;-1061.000
392.307;   93.450; -758.000; -712.000
392.436;   58.350; -427.000; -641.000
392.564;   11.775;  166.000;   -6.000
392.693; -107.800; -860.000; -682.000
392.822;  158.475; -529.000; -534.000
392.950;   63.250; -880.000; -714.000
393.079;  275.150; -188.000; -328.000
393.208;    9.825; -488.000; -511.000
393.336;  -22.775; -170.000; -145.000
393.465;  -51.625; -317.000; -199.000
393.593;   -6.925;   62.000;   79.000
393.722; -148.350;-1121.000; -916.000
393.850;  -52.000; -188.000;  -61.000
393.979; -157.300; -926.000; -805.000
394.107;  -86.075; -517.000; -537.000
394.236;  -42.275; -570.000; -507.000
394.364;  172.625;  383.000;  206.000
394.493;  285.100; -911.000; -767.000
394.621;  -22.475; -955.000; -916.000
394.750;  749.050; -873.000; -923.000
394.878; 2969.700; -247.000; -149.000
395.007; 4164.825; -721.000; -807.000
395.135;  322.225; -790.000; -721.000
395.263;  -71.175;-1038.000;-1040.000
395.392;   -8.000;  -25.000; -107.000
395.520; -146.975; -818.000; -679.000
395.648; -114.350; -865.000; -915.000
395.777;  -36.750; -366.000; -405.000
395.905;  -62.625; -449.000; -564.000
396.033;   13.825;  217.000;  172.000
396.162;  470.200; -399.000; -453.000
396.290;  436.950;  -17.000;   -2.000
396.418;   72.025; -555.000; -514.000
396.546;  -79.100; -571.000; -466.000
396.674; -114.050; -850.000; -878.000
396.803;   -0.500;  -72.000;  -23.000
396.931;   54.500; -179.000; -199.000
397.059;   11.850;-1026.000; -989.000
397.187; -123.850;-1026.000; -975.000
397.315; -138.200; -884.000; -649.000
397.443; -100.175; -592.000; -443.000
397.572;  -91.050; -578.000; -424.000
397.700;  -39.475; -607.000; -614.000
397.828;   20.675;  120.000;  -90.000
397.956;  -60.000; -508.000; -478.000
398.084;  -71.650; -767.000; -626.000
398.212;    6.500;  137.000;  124.000
398.340;    4.525;  -56.000;  159.000
398.468;    9.750; -390.000; -169.000
398.596; -148.575; -993.000; -953.000
398.724; -128.825; -762.000; -767.000
398.852; -168.650;-1024.000; -976.000
398.980;  -77.475; -560.000; -560.000
399.108;  -62.450; -982.000; -735.000
399.236;   11.475;   13.000;    8.000
399.363;   14.925;  222.000;  196.000
399.491;  -84.225; -404.000; -398.000
399.619; -124.450; -829.000; -800.000
399.747; -117.775; -859.000; -771.000
399.875;   68.775;  220.000;  234.000
400.003;  -69.425; -359.000; -284.000
400.130;  -81.325; -421.000; -341.000
400.258;  -39.350;  -83.000;   38.000
400.386;  -73.325; -352.000; -168.000
400.514;  -63.650; -526.000; -587.000
400.641;  -94.525; -928.000; -802.000
400.769; -157.675; -979.000; -888.000
400.897; -115.000; -838.000; -793.000
401.025;  -39.500; -166.000; -152.000
401.152;  -10.100;  220.000;   38.000
401.280;  -91.825; -430.000; -429.000
401.408; -110.300; -712.000; -576.000
401.535; -124.475; -735.000; -758.000
401.663; -197.625;-1134.000;-1054.000
401.790; -101.925; -514.000; -525.000
401.918;   33.050;  436.000;  405.000
402.046;  -27.850;  134.000;  122.000
402.173;  -32.025;  -18.000;    7.000
402.301;  -85.450; -519.000; -397.000
402.428;   30.350;  528.000;  383.000
402.556; -157.525;-1188.000; -913.000
402.683;  -38.475;  -20.000;   -1.000
402.811;  -27.150;  -37.000; -206.000
402.938;  -20.975;   20.000;   27.000
403.066;  148.450; -574.000; -558.000
403.193;  295.425;  299.000;  239.000
403.321;  190.450; -396.000; -574.000
403.448;  250.000;   83.000;   27.000
403.575;  117.625;  -90.000;  -46.000
403.703;  -92.525; -732.000; -557.000
403.830;  -77.150; -531.000; -496.000
403.957; -147.200;-1117.000;-1023.000
404.085;   -2.250;  -61.000; -172.000
404.212;   79.725;  -50.000;   63.000
404.339;  254.450; -566.000; -306.000
404.467; 5979.875; -612.000; -524.000
404.594; 3878.300; -287.000; -227.000
404.721;  838.000; -869.000; -764.000
404.848;   70.800; -113.000; -202.000
404.976; -101.625; -856.000; -783.000
405.103;  -23.475;  -14.000;  -82.000
405.230;   -2.825;  190.000;  226.000
405.357;    2.825;  117.000;   44.000
405.484;  274.950;  -49.000;    5.000
405.612;   56.475; -548.000; -563.000
405.739;  -53.425; -488.000; -243.000
405.866;   86.400;  669.000;  385.000
405.993;  -45.050; -398.000; -102.000
406.120; -154.450; -801.000; -887.000
406.247;  -68.475; -323.000; -342.000
406.374;  357.575;  540.000;  629.000
406.501;   89.500; -632.000; -702.000
406.628;  -92.375; -621.000; -589.000
406.755;  -93.850; -803.000; -620.000
406.882;  -51.500; -228.000; -277.000
407.009; -121.050; -719.000; -628.000
407.136;    0.275; -480.000; -401.000
407.263;   84.750; -939.000; -829.000
407.390;  -96.250; -692.000; -614.000
407.517; -172.825;-1139.000;-1187.000
407.644;  -88.550; -332.000; -256.000
407.771;  -76.000; -249.000; -287.000
407.898;   -5.400;  168.000;  328.000
408.025;  -73.950; -421.000; -313.000
408.151;  -30.825;   82.000;  153.000
408.278;  -62.300; -267.000; -216.000
408.405; -120.275; -931.000; -899.000
408.532;  -67.925; -549.000; -542.000
408.659; -133.275; -677.000; -648.000
408.785; -200.550;-1298.000;-1170.000
408.912;  -74.850; -412.000; -296.000
409.039; -103.200; -610.000; -686.000
409.166; -120.650; -591.000; -555.000
409.292; -108.525; -571.000; -534.000
409.419; -136.125; -665.000; -649.000
409.546;  -93.200; -431.000; -192.000
409.672; -122.575; -713.000; -545.000
409.799;  -14.550;  -36.000;   34.000
409.926;  -49.050; -180.000; -179.000
410.052; -169.475;-1127.000;-1091.000
410.179;  -74.525; -368.000; -392.000
410.305;  -70.175; -375.000; -493.000
410.432;  -62.675; -220.000; -333.000
410.558;  -87.325; -305.000; -380.000
410.685; -120.450; -688.000; -431.000
410.812;  -98.775; -409.000; -588.000
410.938; -154.450; -964.000; -808.000
411.065;  -87.275; -671.000; -645.000
411.191;  -18.000; -189.000; -174.000
411.317; -115.025; -823.000; -742.000
411.444;  -75.700; -317.000; -246.000
411.570;  -80.600; -339.000; -294.000
411.697; -138.050; -758.000; -752.000
411.823; -174.050; -989.000; -999.000
411.949;  -45.575;  -56.000;   17.000
412.076; -112.350; -539.000; -519.000
412.202; -128.700; -758.000; -757.000
412.329; -134.225; -798.000; -752.000
412.455; -126.825; -821.000; -657.000
412.581;  -22.100;  -15.000;  172.000
412.707;  -84.375; -540.000; -457.000
412.834;    8.175;  156.000;  219.000
412.960;  -87.950; -785.000; -784.000
413.086; -100.550; -743.000; -701.000
413.212;  119.575;  604.000;  578.000
413.339;  -68.175; -685.000; -701.000
413.465;  -34.200; -364.000; -310.000
413.591;  -99.775; -757.000; -474.000
413.717;  -74.350; -358.000; -366.000
413.843; -147.150; -839.000; -861.000
413.969;  -78.100;  -47.000; -292.000
414.096; -100.650; -679.000; -679.000
414.222;  -12.300;  -33.000;   85.000
414.348;  -46.025; -652.000; -385.000
414.474;   63.450;   38.000;  -52.000
414.600;  -22.825; -126.000; -144.000
414.726;  -29.000;  -96.000;  -55.000
414.852;  -63.125; -365.000; -342.000
414.978;   17.025;  104.000;  -18.000
415.104;   26.775;   38.000;   80.000
415.230;   18.450; -329.000; -330.000
415.356;   29.425; -409.000; -514.000
415.482;  179.275;   13.000;  -35.000
415.608;  288.375; -247.000; -323.000
415.734;  958.425;   67.000;   38.000
415.860;20143.050; -875.000; -767.000
415.986;15009.475; -685.000; -607.000
416.111; 1290.950; -798.000; -652.000
416.237;  256.075; -424.000; -571.000
416.363; 1154.175; -765.000; -733.000
416.489; 4385.200; -324.000; -251.000
416.615;  484.675; -707.000; -742.000
416.741;  -19.750; -677.000; -784.000
416.866;  -92.125; -673.000; -736.000
416.992; -129.525; -801.000; -818.000
417.118;  -29.000;  -41.000;  -80.000
417.244;  -91.175; -798.000; -531.000
417.369;  -81.800; -801.000; -612.000
417.495;  -18.000; -325.000; -254.000
417.621;  -89.950;-1015.000; -803.000
417.746;    0.725; -579.000; -572.000
417.872;   43.700; -254.000; -144.000
417.998;   50.850; -515.000; -530.000
418.123; 1078.075;-1073.000; -845.000
418.249; 5617.575; -512.000; -601.000
418.374;  840.250; -916.000; -824.000
418.500;   94.125; -383.000; -482.000
418.626;  108.150;   70.000;  -59.000
418.751;   98.825; -549.000; -448.000
418.877;  196.150; -637.000; -643.000
419.002; 1820.650; -688.000; -560.000
419.128;13053.775; -930.000; -721.000
419.253; 3287.625; -967.000; -837.000
419.379;  445.875; -391.000; -338.000
419.504;  413.100;  325.000;  415.000
419.629;  535.200; -393.000; -212.000
419.755; 3676.875; -317.000; -254.000
419.880;22378.125;  -98.000;   67.000
420.006;11852.025; -280.000; -221.000
420.131;30464.300; -662.000; -775.000
420.256; 4497.625; -315.000; -316.000
420.382;  608.800; -665.000; -687.000
420.507;   53.650; -649.000; -778.000
420.632;  117.525; -337.000; -339.000
420.758;  176.575; -251.000; -425.000
420.883;  -93.675; -876.000; -672.000
421.008; -117.100; -775.000; -619.000
421.133;  -83.175; -509.000; -467.000
421.259;  -65.025; -325.000; -259.000
421.384; -112.100; -834.000; -693.000
421.509;  -74.350;-1052.000; -862.000
421.634;  906.250; -936.000; -820.000
421.759;  406.175; -359.000; -327.000
421.885;  -66.425; -717.000; -656.000
422.010;  -76.050; -673.000; -542.000
422.135; -148.550; -695.000; -727.000
422.260;   22.350;  340.000;  280.000
422.385;  -49.600;   12.000;  -98.000
422.510;  -12.525;  151.000;  -26.000
422.635;   18.850;  -87.000;  -43.000
422.760;   75.400; -766.000; -791.000
422.885;   45.400;  -57.000;  -80.000
423.010;  -56.075; -112.000; -169.000
423.135; -100.500; -481.000; -561.000
423.260;  -37.175; -150.000; -245.000
423.385;   52.625;  476.000;  222.000
423.510;   15.350;   71.000;  -22.000
423.635;   67.350;  133.000;   45.000
423.760;   44.250;  383.000;  328.000
423.885;   38.325;  336.000;  391.000
424.010;   -3.925;  -68.000;  -13.000
424.135;  -27.275;    5.000;  -33.000
424.259; -101.950; -654.000; -457.000
424.384;  -52.950; -279.000; -272.000
424.509;  -32.200; -260.000; -186.000
424.634;  -98.300; -761.000; -623.000
424.759;  -28.625; -688.000; -544.000
424.883;  -16.050; -506.000; -527.000
425.008;  154.000; -502.000; -410.000
425.133; 2076.725; -679.000; -653.000
425.258;  971.900; -517.000; -381.000
425.382;  917.325; -867.000; -774.000
425.507; 2408.725; -487.000; -543.000
425.632;  402.850; -802.000; -663.000
425.756;  471.500; -256.000; -146.000
425.881; 6870.425; -831.000; -857.000
426.006;19274.250; -604.000; -355.000
426.130; 3020.475; -696.000; -508.000
426.255;  390.575; -611.000; -491.000
426.379;  159.500; -189.000; -577.000
426.504;  355.650;  660.000;  544.000
426.629; 4096.950; -519.000; -466.000
426.753; 2879.450;   64.000;  -46.000
426.878;  328.800; -252.000; -288.000
427.002;  144.500; -651.000; -668.000
427.127; 1631.200;  -35.000; -158.000
427.251;11820.750;  372.000;  401.000
427.375; 3491.175; -191.000; -173.000
427.500; 2116.650; -616.000; -610.000
427.624;  735.625; -234.000; -400.000
427.749;   84.725; -216.000; -225.000
427.873;  -48.525; -499.000; -412.000
427.997;  -50.975; -222.000; -230.000
428.122;   60.050;  795.000;  703.000
428.246;   40.825;  433.000;  434.000
428.371; -123.425; -869.000; -773.000
428.495; -126.000; -624.000; -646.000
428.619;  -22.475; -186.000; -117.000
428.743;    3.925;   65.000;  132.000
428.868;   -7.500; -732.000; -643.000
428.992; 1229.325; -219.000; -326.000
429.116;  492.325; -329.000; -357.000
429.240;  228.300;  419.000;  426.000
429.365;  -26.400; -454.000; -574.000
429.489;  -62.475; -638.000; -647.000
429.613;   23.175; -236.000; -177.000
429.737;   17.525; -563.000; -432.000
429.861;  244.425; -247.000; -133.000
429.985; 5639.825; -425.000; -305.000
430.109; 6383.650; -770.000; -908.000
430.234;  752.125;   76.000;  -50.000
430.358;   77.150; -250.000; -160.000
430.482;  -74.325; -672.000; -564.000
430.606;  -63.600; -655.000; -375.000
430.730;  -21.375; -437.000; -388.000
430.854;   87.700; -909.000; -835.000
430.978;  -93.775; -795.000; -764.000
431.102; -102.825; -499.000; -422.000
431.226; -136.875; -874.000; -815.000
431.350;   15.775;  345.000;  422.000
431.474;  -90.575; -661.000; -373.000
431.597; -156.025;-1060.000; -848.000
431.721;  -88.825; -276.000; -267.000
431.845; -134.725; -704.000; -472.000
431.969;  -91.225; -304.000; -349.000
432.093;  -90.850; -395.000; -317.000
432.217;  -27.475;   32.000;   82.000
432.341;  -83.250; -523.000; -518.000
432.464;  -11.900;   96.000;   40.000
432.588;  146.825; -401.000; -329.000
432.712;   64.025;  -52.000;  -52.000
432.836;   43.250;  213.000;  263.000
432.959;  -35.025; -372.000; -311.000
433.083;   86.450;   11.000;    2.000
433.207;  352.900;  285.000;  930.000
433.330; 5199.650; -391.000; -200.000
433.454; 6575.450; -654.000; -638.000
433.578; 3762.450;  583.000;  278.000
433.701;  688.600; -623.000; -675.000
433.825;  121.925; -292.000; -299.000
433.949;  104.700;   28.000;  -72.000
434.072;   24.325; -410.000; -323.000
434.196;  -40.175; -309.000; -117.000
434.319; 3703.075;25482.000;25124.000
434.443;  695.725; -656.000; -603.000
434.566; 2792.125;  281.000;   62.000
434.690;  479.225; -637.000; -383.000
434.813;   43.100; -251.000; -173.000
434.937;  -84.525; -569.000; -696.000
435.060;  -64.950; -423.000; -332.000
435.184;  201.925; -492.000; -217.000
435.307;  139.425;  159.000;  102.000
435.431;  -26.100;  -40.000;   24.000
435.554;  -79.975; -399.000; -240.000
435.677;  -94.775; -350.000; -258.000
435.801;  -40.250;  -25.000;   49.000
435.924;  -33.675;    1.000;  -67.000
436.048; -129.400;-1019.000; -732.000
436.171;  -81.175; -240.000;  -66.000
436.294;  -30.175; -248.000; -229.000
436.417;   91.475; -963.000; -849.000
436.541;  -62.850; -814.000; -840.000
436.664;  -61.725; -242.000; -316.000
436.787;  -35.550;   13.000;  113.000
436.910; -113.975; -792.000; -422.000
437.034;   -9.150;  142.000;  143.000
437.157;   26.375;  -11.000;    0.000
437.280;  -64.625; -392.000; -292.000
437.403; -103.475; -982.000; -869.000
437.526;  431.300; -903.000; -865.000
437.649; 1758.675; -505.000; -332.000
437.772;  254.650; -692.000; -540.000
437.896;   91.900;  700.000;  544.000
438.019; -109.575; -758.000; -503.000
438.142;  -96.675; -596.000; -506.000
438.265;  -29.525; -639.000; -670.000
438.388;  434.275; -520.000; -410.000
438.511;   57.375; -597.000; -394.000
438.634;  -64.125; -247.000; -125.000
438.757; -142.400; -693.000; -619.000
438.880;  -27.300;  -34.000;  -57.000
439.003;  -80.525; -417.000; -437.000
439.126;  -87.350; -287.000; -167.000
439.248;  -67.250;  -98.000; -139.000
439.371;  -61.425;    9.000;  -53.000
439.494;   21.950;  510.000;  439.000
439.617;  -76.150;   65.000;  -88.000
439.740; -172.750; -968.000; -816.000
439.863; -144.450; -755.000; -595.000
439.986; -125.875; -476.000; -431.000
440.108;  -57.900; -161.000; -112.000
440.231; -161.800; -950.000; -836.000
440.354;  -61.475;  -64.000; -150.000
440.477;    0.750; -566.000; -542.000
440.599;  -33.275; -200.000; -225.000
440.722; -122.525; -709.000; -586.000
440.845;   54.600;  751.000;  928.000
440.968;  -93.100; -415.000; -311.000
441.090;  -80.675; -199.000;  -33.000
441.213; -154.875;-1021.000; -825.000
441.336;  -79.775; -159.000;   -5.000
441.458;  -97.850; -549.000; -396.000
441.581; -102.250; -628.000; -629.000
441.703;  -69.075; -152.000;   13.000
441.826; -115.325; -557.000; -400.000
441.948;  -40.775;   56.000;   51.000
442.071;   10.325;  555.000;  424.000
442.193; -104.875; -531.000; -485.000
442.316;    4.575;  152.000;   97.000
442.438;   48.650; -233.000;  -10.000
442.561;   59.575;  272.000;  262.000
442.683;  383.950; -809.000; -522.000
442.806;  898.875;   -8.000;   74.000
442.928;   -4.725; -859.000; -604.000
443.051;  -92.975; -577.000; -373.000
443.173; -100.775; -341.000; -339.000
443.295;  -93.800; -263.000; -371.000
443.418;  -82.675; -321.000;  -29.000
443.540;  -21.775; -106.000;   -4.000
443.662; -112.250; -563.000; -465.000
443.785;  -20.925;  335.000;  199.000
443.907;  -97.850; -362.000; -208.000
444.029; -131.850; -767.000; -494.000
444.152; -138.000; -644.000; -554.000
444.274;  -43.350;  -18.000;  -24.000
444.396; -113.625; -461.000; -221.000
444.518; -147.900; -691.000; -454.000
444.640; -105.050; -268.000; -111.000
444.763;  -35.875;  388.000;  249.000
444.885; -124.075; -432.000; -392.000
445.007;  -50.525;   35.000;   86.000
445.129; -132.050; -610.000; -515.000
445.251; -117.825; -372.000; -439.000
445.373; -145.500; -537.000; -386.000
445.495;  -15.850;  242.000;  350.000
445.617;   34.025;  853.000;  753.000
445.739;  -81.200; -215.000;  -97.000
445.861;  -32.175; -245.000; -112.000
445.984;  -66.700; -267.000; -101.000
446.105;  148.375; -418.000; -251.000
446.227;  476.075; -176.000;  -19.000
446.349;  -16.075; -358.000; -249.000
446.471; -107.925; -615.000; -448.000
446.593;  -66.050; -316.000;   19.000
446.715;  -11.925;  -67.000;   41.000
446.837;   55.450;  697.000;  832.000
446.959; -111.225; -457.000; -478.000
447.081; -126.750; -628.000; -518.000
447.203;   42.825;  862.000;  834.000
447.325;  -72.275; -270.000;   42.000
447.446;  -25.125;  286.000;  530.000
447.568; -155.450; -921.000; -803.000
447.690;  -76.150; -236.000; -245.000
447.812; -146.200; -798.000; -519.000
447.933;  -39.875;  155.000;  127.000
448.055;  -68.500; -306.000; -261.000
448.177;  108.775;   31.000;   79.000
448.299;   44.375; -935.000; -727.000
448.420;   -5.875;  -25.000;  159.000
448.542;  -56.650;   -3.000;   33.000
448.664;  -32.950;  109.000;  322.000
448.785;  -40.250;  265.000;   83.000
448.907; -104.025; -614.000; -353.000
449.028;  -56.950; -771.000; -471.000
449.150;   53.125;  492.000;  589.000
449.272; -182.800;-1044.000; -913.000
449.393;   26.875;  612.000;  694.000
449.515; -148.300; -634.000; -581.000
449.636;  -63.050; -264.000; -155.000
449.758;   55.000;  763.000;  622.000
449.879; -106.450; -498.000; -396.000
450.001;  -78.325; -149.000;  -49.000
450.122;  -63.250;  -95.000;  162.000
450.244;  -24.550;   37.000;  364.000
450.365;  -96.950; -495.000; -301.000
450.486;  -35.150;   80.000;  268.000
450.608;   19.900;  393.000;  326.000
450.729;   83.375;  578.000;  645.000
450.850;    8.000; -574.000; -466.000
450.972;  776.575; -552.000; -389.000
451.093; 5181.250;  190.000;  588.000
451.214; 2343.450; -516.000; -337.000
451.336;  402.350;  773.000;  579.000
451.457;   78.350;  264.000;  393.000
451.578;  -36.000; -118.000;  -74.000
451.699; -121.075; -546.000; -540.000
451.821;  -78.000; -284.000;  -50.000
451.942;    7.650;  278.000;  285.000
452.063;   36.000;  228.000;  419.000
452.184;  570.550;  -54.000;  -49.000
452.305; 1124.025;  103.000;  170.000
452.427;  149.050; -549.000; -301.000
452.548;  -28.775;   23.000;   79.000
452.669;  -59.300; -257.000;  -89.000
452.790;  -56.375;    3.000;  -18.000
452.911;  -18.125;  195.000;  259.000
453.032;  -74.100; -289.000;  -60.000
453.153;  -52.825;  -29.000;   81.000
453.274;   39.275;  737.000;  868.000
453.395;  -67.600;  -51.000;  175.000
453.516;  114.275; 1317.000; 1388.000
453.637;  -74.350; -205.000; -150.000
453.758;  -60.750;   15.000;   69.000
453.879; -117.875; -462.000; -250.000
454.000;   56.950; 1086.000;  948.000
454.121; -119.425; -554.000; -326.000
454.242; -136.525; -599.000; -383.000
454.362;  -52.500;  -99.000;  114.000
454.483;  -45.675; -309.000; -229.000
454.604;   39.725;  512.000;  580.000
454.725; -137.300; -627.000; -555.000
454.846; -114.075; -474.000; -406.000
454.967;  -36.050;  230.000;  539.000
455.087;  -45.175;  179.000;  153.000
455.208;    7.950;  554.000;  856.000
455.329;  -67.950;  -22.000;   82.000
455.450;   15.350;  473.000;  633.000
455.570;  -78.175; -234.000; -211.000
455.691;  -49.375;  201.000;  407.000
455.812; -111.575; -270.000;  -92.000
455.932;  -75.125;  107.000;  -97.000
456.053;  -81.325;   36.000;   24.000
456.173; -127.125; -433.000; -355.000
456.294; -138.050; -476.000; -303.000
456.415;  -75.475;  -73.000;   70.000
456.535;  -36.625;  297.000;  273.000
456.656;  -50.375;  132.000;  240.000
456.776;  -53.300;    3.000;  298.000
456.897;  -15.975;  308.000;  513.000
457.017;  -75.075; -153.000;   -3.000
457.138; -120.525; -402.000; -249.000
457.258;  -20.725;  263.000;  224.000
457.379;  -15.275;  509.000;  521.000
457.499;  -26.625;  443.000;  432.000
457.620; -135.300; -407.000; -231.000
457.740;  -90.100; -132.000;  -11.000
457.860;  -69.600;   87.000;   44.000
457.981;  -54.075;  132.000;  124.000
458.101;  -80.200;  -89.000;   40.000
458.221;   -9.850;  336.000;  402.000
458.342;  -73.150;   -4.000;  -37.000
458.462;   25.400;  617.000;  352.000
458.582;  -30.975; -302.000; -294.000
458.703;   14.775;  303.000;  154.000
458.823;  -38.925;   22.000;  163.000
458.943;   26.600;  341.000;  467.000
459.063;  -39.875; 1124.000;  192.000
459.183;  -20.325;  328.000;  313.000
459.304;    8.750;  315.000;  517.000
459.424;  -65.700; -246.000;  -89.000
459.544;  316.775;  388.000;  764.000
459.664;  888.675;  499.000;  506.000
459.784;  315.600; 1004.000; 1175.000
459.904;   63.375;  867.000;  744.000
460.024;   60.225;  867.000;  684.000
460.144;   -2.175;  449.000;  554.000
460.264;  -25.050;  515.000;  327.000
460.385;  -94.450; -145.000; -119.000
460.505;   33.650;  905.000;  858.000
460.625;  -90.200;  -17.000;  -68.000
460.745;  -40.425;  396.000;  541.000
460.864;  -61.075;  153.000;  469.000
460.984;   11.950;  499.000;  573.000
461.104;  155.225; 1656.000; 1775.000
461.224;    3.700;  657.000;  650.000
461.344;  -24.800;  431.000;  360.000
461.464;  -37.150;  258.000;  513.000
461.584;  -16.950;  283.000;  466.000
461.704;  -55.725;   58.000;  108.000
461.824;  -54.425;  238.000;  259.000
461.943;  -54.625;  191.000;  130.000
462.063;  -85.650;    2.000;  324.000
462.183;   16.375;  639.000;  717.000
462.303;  107.800; 1678.000; 1230.000
462.422;   20.275;  781.000;  840.000
462.542;  -33.475;  271.000;  391.000
462.662;   25.625;  353.000;  380.000
462.782;  242.200;  833.000;  572.000
462.901;  481.400;  545.000;  717.000
463.021;  291.300; 1702.000; 1638.000
463.141;  -12.400;  337.000;  770.000
463.260;  -14.375;  614.000;  474.000
463.380;    5.200;  902.000;  884.000
463.499;  -32.300;  342.000;  332.000
463.619;  -41.775;  581.000;  559.000
463.738;  108.825; 1644.000;  903.000
463.858;    0.950;  657.000;  811.000
463.978;  -30.125;  542.000;  396.000
464.097;   37.300;  921.000; 1114.000
464.217;  119.675; 1196.000; 1143.000
464.336;  121.250; 1068.000; 1130.000
464.455;  -27.400;  328.000;  659.000
464.575;   20.450;  597.000;  602.000
464.694;  170.950; 1204.000; 1179.000
464.814;  123.675; 1190.000; 1138.000
464.933;   76.350; 1095.000; 1027.000
465.052;   89.350; 1412.000; 1054.000
465.172;   68.175;  922.000;  799.000
465.291;  116.100; 1376.000; 1320.000
465.410;   16.300;  462.000;  735.000
465.530;   63.700; 1355.000; 1310.000
465.649;   60.050; 1209.000; 1273.000
465.768;  123.075; 1673.000; 1508.000
465.888;   42.950;  941.000; 1174.000
466.007;   90.075; 1335.000; 1440.000
466.126;    2.225;  721.000;  641.000
466.245;   26.125; 1176.000; 1187.000
466.364;   33.600;  950.000; 1060.000
466.484;   41.075; 1024.000; 1213.000
466.603;   45.025; 1101.000; 1222.000
466.722;   91.450; 1490.000; 1769.000
466.841;   66.250; 1151.000; 1401.000
466.960;   30.450; 1069.000;  972.000
467.079;  122.325; 1971.000; 1786.000
467.198;   44.500; 1238.000; 1181.000
467.317;  103.775; 1768.000; 1162.000
467.436;   71.150; 1709.000; 1261.000
467.555;  120.425; 1796.000; 1746.000
467.674;   44.425; 1227.000; 1329.000
467.793;   41.075; 1376.000; 1374.000
467.912;   88.225; 1658.000; 1539.000
468.031;  142.475; 2038.000; 1930.000
468.150;  118.900; 1842.000; 1837.000
468.269;  190.925; 2313.000; 2090.000
468.388;  183.150; 2168.000; 2339.000
468.507;  263.775; 2884.000; 2903.000
468.626;  265.150; 2555.000; 2541.000
468.744;  143.775; 2018.000; 2174.000
468.863;  178.000; 2312.000; 2523.000
468.982;  110.800; 1503.000; 1555.000
469.101;  224.425; 2788.000; 2692.000
469.220;  162.875; 2333.000; 2176.000
469.338;  248.025; 2935.000; 3051.000
469.457;  202.900; 2719.000; 2545.000
469.576;  335.800; 3953.000; 3784.000
469.695;  239.450; 2877.000; 3066.000
469.813;  429.075; 4148.000; 4192.000
469.932;  410.150; 4255.000; 4485.000
470.051;  429.050; 4075.000; 4161.000
470.169;  866.350; 4470.000; 4338.000
470.288; 1501.475; 4700.000; 4809.000
470.406;  892.850; 5059.000; 5194.000
470.525;  646.475; 6101.000; 5787.000
470.644;  653.975; 6847.000; 6794.000
470.762;  790.100; 8397.000; 7873.000
470.881;  924.325; 8651.000; 8464.000
470.999; 1040.500; 9685.000; 9151.000
471.118; 1103.950;11174.000;10711.000

