
Integration time [ms]: 100.000
Averaging Nr. [scans]: 40
Smoothing Nr. [pixels]: 0
Data measured with spectrometer [name]: 2101012U2
Wave   ;Sample   ;Dark     ;Reference
[nm]   ;[counts] ;[counts] ;[counts] 

197.733;   47.350;  516.000;  404.000
197.879;  -93.425; -610.000; -634.000
198.025;  -43.550; -475.000; -420.000
198.171;  -57.675; -602.000; -612.000
198.317;  -37.450; -401.000; -316.000
198.463;  -58.450; -655.000; -404.000
198.609;   23.775;  181.000; -137.000
198.755;  -76.850; -644.000; -410.000
198.901;  -60.450; -505.000; -424.000
199.047;  -65.225; -615.000; -488.000
199.193;  -32.000; -230.000; -468.000
199.339;  -55.075; -222.000; -369.000
199.485;   30.700;  330.000;  271.000
199.631;    8.025;  227.000;  310.000
199.777;  -40.950; -466.000; -398.000
199.923;  -68.325; -610.000; -424.000
200.069;    1.150; -141.000;  -58.000
200.215;   49.650;  128.000;  453.000
200.361;   42.750;  243.000;  477.000
200.507;  -61.050; -600.000; -373.000
200.653;  -24.825; -371.000; -194.000
200.798;  -36.250; -215.000; -125.000
200.944;   -8.925; -146.000;  -41.000
201.090;   19.550;   61.000;  222.000
201.236;   -4.925; -116.000; -158.000
201.382;  117.825;  874.000;  903.000
201.528;   -9.250;  -58.000;  -48.000
201.674;  -56.200; -386.000; -293.000
201.819;  -47.925; -540.000; -439.000
201.965;  -90.900; -699.000; -447.000
202.111;  -28.875; -273.000; -226.000
202.257;  -56.550; -250.000; -238.000
202.402;    5.325;   13.000;  -36.000
202.548;  -29.375; -169.000; -116.000
202.694;   74.600;  410.000; -183.000
202.840;  -89.825; -603.000; -531.000
202.985;  -67.400; -681.000; -639.000
203.131; -117.675; -832.000; -666.000
203.277;  -21.800; -199.000; -262.000
203.423;  -64.050; -434.000; -520.000
203.568;  -36.150; -462.000; -237.000
203.714;  -59.750; -535.000; -542.000
203.860;  -77.200; -682.000; -641.000
204.005;   13.100;  112.000;  167.000
204.151;   74.450;  561.000;  556.000
204.296;  -46.775; -354.000; -221.000
204.442;  -77.650; -600.000; -547.000
204.588;  -78.050; -592.000; -579.000
204.733;   11.725;  178.000;  168.000
204.879; -132.325;-1018.000; -822.000
205.025;   18.175;  -99.000;  126.000
205.170;   -5.500;  -17.000;   94.000
205.316;   85.100;  438.000;  661.000
205.461;  -80.275; -698.000; -554.000
205.607;   82.850;  609.000;  665.000
205.752;  -83.050; -626.000; -551.000
205.898;  -50.025; -501.000; -391.000
206.043;  -72.600; -578.000; -506.000
206.189;  -35.700; -243.000; -285.000
206.334;   70.625;  554.000;  606.000
206.480;   83.300;  409.000;  239.000
206.625;  -83.100; -529.000; -552.000
206.771;  -31.500; -451.000; -373.000
206.916;  -38.150; -210.000; -537.000
207.062;  -62.875; -545.000; -591.000
207.207;  -75.650; -546.000; -443.000
207.353;   49.725;  185.000;  460.000
207.498;   10.775;  196.000;   85.000
207.643;  -53.075; -501.000; -370.000
207.789; -140.550;-1069.000; -910.000
207.934;  -78.175; -665.000; -713.000
208.080;  -29.225; -154.000;   66.000
208.225;   -7.500;  -22.000;  -57.000
208.370;  -91.425; -727.000; -619.000
208.516;  -74.000; -741.000; -487.000
208.661;  -27.000; -127.000;  -69.000
208.806;  -24.725; -165.000; -171.000
208.952; -118.800;-1044.000; -731.000
209.097;   71.325;  378.000;  349.000
209.242;  -53.100; -307.000; -382.000
209.387;   82.225;  392.000;  350.000
209.533;  -53.350; -321.000; -350.000
209.678;   76.725;  472.000;  543.000
209.823;  -47.150; -408.000; -310.000
209.969;  -85.300; -860.000; -757.000
210.114; -111.350; -907.000; -719.000
210.259; -112.150; -939.000; -889.000
210.404;   -7.550; -171.000;  103.000
210.549;   -3.500;  108.000;    3.000
210.695;  -24.850;   -3.000;  -95.000
210.840;   31.900;   94.000;   67.000
210.985;  -71.525; -484.000; -303.000
211.130;   65.475;  268.000;  406.000
211.275;   -1.000;  207.000;  199.000
211.420;  -39.275; -300.000; -289.000
211.566;  -69.000; -536.000; -489.000
211.711;   22.300;  218.000;  157.000
211.856;  -73.450; -545.000; -519.000
212.001;    5.425;  151.000;   44.000
212.146;   11.550;  153.000;   49.000
212.291;  -20.850; -210.000; -186.000
212.436;  -43.975; -280.000;   -6.000
212.581;  -88.700; -685.000; -653.000
212.726;  -72.475; -487.000; -538.000
212.871;  -49.050; -552.000; -217.000
213.016; -157.275;-1172.000;-1029.000
213.161;   54.425;  406.000;  291.000
213.306;  -69.975; -435.000; -577.000
213.451;  -94.925; -778.000; -689.000
213.596;  -55.650; -455.000; -347.000
213.741;  -44.975; -448.000; -538.000
213.886;  -77.650; -498.000; -517.000
214.031;  -18.075; -294.000; -124.000
214.176;  -57.275; -408.000; -341.000
214.321;  -17.850; -296.000; -157.000
214.466;  -19.800; -163.000;  -43.000
214.611;   -9.075;  -61.000;  -10.000
214.756; -114.275; -948.000; -858.000
214.901;  -15.325; -388.000; -226.000
215.046; -122.925; -797.000; -825.000
215.191;    8.750;  128.000;   35.000
215.336;  -11.200; -157.000;  -19.000
215.480;  -65.825; -684.000; -505.000
215.625;  -14.700; -175.000;  -19.000
215.770;  -68.725; -757.000; -662.000
215.915;  -11.825;   -5.000;  -97.000
216.060;  -11.300; -113.000;  -21.000
216.205; -104.025; -731.000; -779.000
216.349;  -56.425; -470.000; -533.000
216.494; -136.075; -939.000; -867.000
216.639; -107.025; -823.000; -888.000
216.784; -100.675; -577.000; -525.000
216.929;   45.875;  392.000;  281.000
217.073;  -11.575; -244.000;  -31.000
217.218;   -4.850;   78.000;  -47.000
217.363;  -90.200; -656.000; -618.000
217.507;  -72.075; -623.000; -588.000
217.652; -130.725; -845.000; -874.000
217.797;  -80.975; -708.000; -659.000
217.942; -102.775; -856.000; -720.000
218.086;   57.500;  608.000;  539.000
218.231;  -10.900; -174.000;  -26.000
218.376;  -31.050; -337.000; -229.000
218.520;    3.125;  -41.000;   96.000
218.665;  -30.425; -338.000; -204.000
218.810;  -37.950; -275.000; -233.000
218.954;   31.650;  201.000;   35.000
219.099; -104.300; -713.000; -963.000
219.243;  -66.525; -589.000; -554.000
219.388;  -40.050; -264.000; -136.000
219.532;  -15.875; -116.000; -116.000
219.677;  -78.325; -564.000; -521.000
219.822;   -7.775;   33.000;   89.000
219.966;   -8.200;   17.000;  -99.000
220.111;  -39.125; -328.000;  -40.000
220.255;  -95.750; -797.000; -750.000
220.400;  -16.100; -180.000; -146.000
220.544;  -67.025; -516.000; -450.000
220.689;  -52.075; -422.000; -451.000
220.833;  -20.625; -123.000;  -58.000
220.978;  -36.100; -393.000; -563.000
221.122;   20.200;  319.000;  307.000
221.267; -104.800; -906.000; -837.000
221.411;  -67.175; -478.000; -394.000
221.555;   10.500; -104.000;  -23.000
221.700;  -52.325; -329.000; -222.000
221.844;   19.250;  255.000;  272.000
221.989;  -45.450; -328.000; -311.000
222.133;  -40.350; -289.000; -307.000
222.277;  -15.025;    5.000;   78.000
222.422;   13.400;  227.000;  113.000
222.566;  -52.400; -381.000; -214.000
222.711;  -45.350; -414.000; -479.000
222.855;  -81.700; -643.000; -586.000
222.999;  -75.400; -642.000; -717.000
223.144;  -41.075; -195.000; -194.000
223.288;   66.625;  423.000;  251.000
223.432;   18.775;  184.000;  230.000
223.576;   20.125;  152.000;  -21.000
223.721;    8.650;  364.000;  273.000
223.865;  -49.900; -472.000; -475.000
224.009;  211.575; 1673.000; 1631.000
224.153;  -76.550; -660.000; -671.000
224.298;  -80.125; -531.000; -489.000
224.442;  -16.400;  -74.000;  -33.000
224.586;  -17.675; -169.000; -106.000
224.730;  -90.925; -858.000; -670.000
224.875;  -94.725; -739.000; -688.000
225.019;   14.450;  102.000;  188.000
225.163;   36.750;  208.000;  341.000
225.307;   13.300;   97.000;  -91.000
225.451;   26.025;  360.000;  481.000
225.595;    9.725;  264.000;  176.000
225.739;  -21.000; -170.000;  -94.000
225.884;   -4.150;   86.000;    5.000
226.028; -104.350; -760.000; -626.000
226.172;  -29.825; -260.000; -273.000
226.316; -118.175; -941.000; -902.000
226.460;  -69.350; -645.000; -493.000
226.604;  -53.075; -406.000; -400.000
226.748;  -87.925; -836.000; -733.000
226.892;  -43.625; -227.000; -181.000
227.036;  -57.600; -537.000; -447.000
227.180;  -62.050; -551.000; -375.000
227.324;  -74.525; -561.000; -580.000
227.468; -126.875; -819.000; -717.000
227.612;   17.600;  242.000;  -28.000
227.756; -104.725; -845.000; -698.000
227.900;   47.975;  342.000;  441.000
228.044;  -69.425; -509.000; -290.000
228.188;   56.650;  448.000;  568.000
228.332;  -99.275; -546.000; -472.000
228.476;  -31.750; -223.000; -149.000
228.620;  -42.275; -210.000; -150.000
228.764;   61.750;  431.000;  349.000
228.908;  -23.900; -155.000;   30.000
229.052;  -61.050; -615.000; -528.000
229.195;  -32.575; -172.000;   13.000
229.339;  -11.500; -235.000; -305.000
229.483;  -34.025;    5.000; -162.000
229.627;   -1.325; -156.000;  139.000
229.771;  -61.900; -218.000; -294.000
229.915;    9.725;  230.000;   79.000
230.059;  -92.175; -648.000; -663.000
230.202;  -35.450; -370.000; -317.000
230.346;  -29.225; -107.000;  107.000
230.490;  -60.025; -489.000; -521.000
230.634; -114.725; -736.000; -553.000
230.777;   68.825;  478.000;  509.000
230.921;  -51.250; -450.000; -359.000
231.065;  -42.825; -246.000; -286.000
231.209;   15.375;  261.000;  265.000
231.352;   20.650;   54.000;   40.000
231.496;   18.850;  568.000;  188.000
231.640;  -79.850; -693.000; -621.000
231.783;   50.725;  546.000;  525.000
231.927;  -29.950; -294.000; -365.000
232.071; -121.350; -962.000; -736.000
232.214; -104.750; -980.000; -764.000
232.358;  -95.775; -683.000; -599.000
232.502;    7.425;  -19.000;    7.000
232.645; -143.825;-1090.000; -927.000
232.789;  -18.125; -257.000; -218.000
232.933;  -62.100; -407.000; -224.000
233.076; -124.075;-1038.000; -897.000
233.220;  -96.150; -752.000; -777.000
233.363;  -86.825; -669.000; -477.000
233.507;   52.200;  371.000;  129.000
233.650;  -89.125; -764.000; -834.000
233.794;   44.825;  438.000;  461.000
233.938;  -53.175; -530.000; -362.000
234.081;  -28.925;  -93.000;   31.000
234.225;  -65.475; -631.000; -539.000
234.368; -110.250; -773.000; -723.000
234.512;  -35.325; -385.000; -299.000
234.655;  -90.725; -582.000; -555.000
234.798;  -61.450; -493.000; -466.000
234.942; -133.825; -884.000;-1002.000
235.085;  -72.025; -651.000; -443.000
235.229;  -70.200; -405.000; -410.000
235.372;  -51.100; -247.000; -191.000
235.516;  -72.875; -397.000; -321.000
235.659;   20.300;   92.000;  121.000
235.802;  -14.475;  -38.000;  -22.000
235.946;   23.275;  335.000;  215.000
236.089;   20.325;  126.000;  250.000
236.233;   41.125;  275.000;  298.000
236.376;  -67.225; -235.000; -378.000
236.519;  -46.200; -297.000; -319.000
236.663;  -40.125; -215.000; -117.000
236.806; -132.650;-1029.000; -999.000
236.949;   51.650;  543.000;  431.000
237.092;   62.300;  412.000;  391.000
237.236;  -94.250; -589.000; -502.000
237.379;   52.075;  352.000;  428.000
237.522; -118.175; -879.000; -768.000
237.666;  -21.375; -271.000;   18.000
237.809; -132.050; -851.000; -823.000
237.952;   45.775;  469.000;  271.000
238.095;  -76.200; -447.000; -442.000
238.238;   74.875;  688.000;  700.000
238.382;   -1.400;  166.000;  103.000
238.525;  -68.650; -598.000; -511.000
238.668; -140.800;-1060.000; -985.000
238.811;  -78.125; -638.000; -643.000
238.954;  -60.125; -483.000; -334.000
239.097;   81.225;  617.000;  664.000
239.241;   14.675;  394.000;  326.000
239.384;  -45.225; -254.000; -214.000
239.527;  -70.050; -424.000; -224.000
239.670; -124.750; -994.000;-1091.000
239.813; -115.650; -696.000; -658.000
239.956;   63.900;  579.000;  473.000
240.099; -119.400; -778.000; -725.000
240.242;   50.900;  428.000;  432.000
240.385;   38.250;  466.000;  450.000
240.528;  -80.050; -706.000; -473.000
240.671;   10.525;  189.000;  134.000
240.814;  -53.750; -441.000; -158.000
240.957; -114.525; -767.000; -578.000
241.100;  -83.425; -779.000; -755.000
241.243; -147.625;-1234.000; -893.000
241.386;  -68.600; -508.000; -379.000
241.529;  -94.175; -735.000; -547.000
241.672;  -51.625; -566.000; -495.000
241.815; -129.925; -832.000; -808.000
241.958;  -27.700; -125.000; -182.000
242.101;  -78.525; -545.000; -390.000
242.244;  -47.050; -270.000; -325.000
242.387;  -53.300; -304.000; -246.000
242.530;   46.525;  470.000;  134.000
242.673;  -47.825; -381.000; -309.000
242.815; -107.550; -925.000; -899.000
242.958;  -55.325; -482.000; -381.000
243.101;   13.325;  132.000;  187.000
243.244;  -87.500; -564.000; -521.000
243.387;  -45.825; -313.000; -316.000
243.530;  -92.050; -657.000; -674.000
243.672;    1.375;   43.000;  -92.000
243.815;  -62.125; -355.000; -283.000
243.958;  -13.825;   98.000;  -26.000
244.101;  -16.625;   59.000;  -16.000
244.243;  -12.075;  -47.000;  101.000
244.386; -109.075; -761.000; -630.000
244.529;  -21.250; -132.000; -139.000
244.672; -154.200;-1154.000; -951.000
244.814;  -94.925; -621.000; -794.000
244.957;  -66.625; -380.000; -304.000
245.100;  -68.200; -489.000; -489.000
245.242;  -84.650; -387.000; -374.000
245.385;    2.900;  -59.000;  -39.000
245.528; -117.500; -871.000; -705.000
245.670;   71.225;  612.000;  634.000
245.813;  -92.025; -599.000; -547.000
245.956;  -36.875; -324.000; -275.000
246.098;  -68.750; -508.000; -650.000
246.241;    6.275;  194.000;   48.000
246.383;  -35.500; -119.000;  -73.000
246.526;  -76.775; -454.000; -525.000
246.669; -114.325; -889.000; -780.000
246.811;    9.150;  172.000;   -1.000
246.954;  -77.550; -512.000; -426.000
247.096;  -15.300;  -84.000;   -6.000
247.239;  -70.250; -482.000; -445.000
247.381;  -85.225; -647.000; -488.000
247.524;   53.300;  645.000;  679.000
247.666;   -4.850;   58.000;   11.000
247.809; -124.825; -887.000; -691.000
247.951;   -9.325;  -75.000;  138.000
248.094;   19.175;  432.000;  308.000
248.236; -149.275;-1262.000;-1238.000
248.378;  -36.725; -356.000;  -81.000
248.521;  -48.500; -334.000; -337.000
248.663;  -43.250; -236.000; -267.000
248.806;  -38.350; -300.000; -266.000
248.948; -124.975; -886.000; -763.000
249.090;  -56.200; -428.000; -398.000
249.233;  -66.375; -344.000; -381.000
249.375;  -65.275; -474.000; -451.000
249.518;  -34.975;  -83.000; -133.000
249.660;   -9.100; -103.000;    3.000
249.802; -176.600;-1303.000;-1189.000
249.945;  -71.375; -612.000; -540.000
250.087; -111.325; -834.000; -768.000
250.229;  -55.900; -362.000; -480.000
250.371;  -69.050; -494.000; -439.000
250.514;  -43.950; -310.000; -244.000
250.656;  -33.750;   69.000;  102.000
250.798; -118.475; -849.000; -800.000
250.940;  -68.950; -322.000; -322.000
251.083;  -39.000; -335.000; -111.000
251.225;   39.875;  338.000;  310.000
251.367;  -32.375; -274.000; -373.000
251.509;  -40.250; -265.000; -210.000
251.651; -102.900; -731.000; -671.000
251.794;   39.975;  538.000;  632.000
251.936; -110.850; -821.000; -747.000
252.078;  -77.525; -540.000; -461.000
252.220;  -65.375; -645.000; -477.000
252.362;   37.275;  344.000;  462.000
252.504;  -73.825; -677.000; -584.000
252.646; -109.225; -875.000; -722.000
252.788;  -20.750;   14.000; -128.000
252.931;  -55.525; -257.000; -253.000
253.073;  -41.525; -376.000; -317.000
253.215;  -18.925;  141.000;  122.000
253.357;   -7.725;   82.000; -153.000
253.499;  -52.925; -374.000; -234.000
253.641;  -93.100; -749.000; -594.000
253.783; -102.100; -609.000; -527.000
253.925;  -77.300; -586.000; -591.000
254.067; -123.600; -744.000; -667.000
254.209;  -34.625; -391.000; -259.000
254.351; -146.600; -865.000; -883.000
254.493;  -62.250; -441.000; -417.000
254.635; -131.950; -936.000; -818.000
254.777;  -95.950; -752.000; -687.000
254.918;  -66.050; -512.000; -430.000
255.060;  -62.825; -551.000; -395.000
255.202;  -58.475; -473.000; -261.000
255.344;  -72.925; -658.000; -455.000
255.486;  -81.775; -471.000; -406.000
255.628;  -96.275; -780.000; -781.000
255.770;  -91.950; -676.000; -536.000
255.912;  -54.900; -559.000; -468.000
256.053; -106.050; -730.000; -508.000
256.195;  143.175; 1008.000;  903.000
256.337; -105.725; -861.000; -595.000
256.479;   49.375;  532.000;  416.000
256.621;  -49.450; -394.000; -212.000
256.762;  -84.200; -789.000; -742.000
256.904;   42.275;  485.000;  487.000
257.046;  -42.900; -381.000; -271.000
257.188;  -46.700; -351.000; -264.000
257.329;  -71.500; -525.000; -464.000
257.471; -116.650; -939.000; -807.000
257.613;  -66.075; -584.000; -498.000
257.755; -147.375;-1073.000; -982.000
257.896;   29.325;  286.000;  392.000
258.038;  -72.100; -403.000; -352.000
258.180;  -40.700; -354.000; -279.000
258.321;  -89.275; -581.000; -457.000
258.463;  -19.350;  -71.000;  133.000
258.605;  -89.750; -562.000; -570.000
258.746;  -95.825; -886.000; -772.000
258.888; -144.675;-1026.000;-1020.000
259.029;   12.000;  121.000;   -8.000
259.171;  -88.875; -614.000; -550.000
259.313;   -6.250;  -49.000;  -47.000
259.454;  -79.825; -536.000; -414.000
259.596;  -56.800; -483.000; -390.000
259.737;  -76.175; -590.000; -474.000
259.879;   34.450;  217.000;  311.000
260.020;   51.650;  901.000;  636.000
260.162;  -33.275; -146.000; -253.000
260.303; -116.500; -768.000; -687.000
260.445;  -74.100; -609.000; -613.000
260.586;   13.550;  392.000;  157.000
260.728;  -58.250; -360.000; -248.000
260.869;  -66.775; -350.000; -343.000
261.011;   67.500;  706.000;  537.000
261.152;  -61.875; -479.000; -319.000
261.293;  -86.900; -576.000; -595.000
261.435;  -43.050; -219.000; -184.000
261.576;  -60.025; -455.000; -325.000
261.718;   23.900;  420.000;  470.000
261.859; -119.725; -940.000; -949.000
262.000; -121.575; -951.000;-1016.000
262.142;  -26.025;  -52.000;  -60.000
262.283; -119.150; -808.000; -691.000
262.424;  -92.350; -666.000; -625.000
262.566; -158.975;-1161.000; -983.000
262.707; -109.150; -840.000; -830.000
262.848; -140.175; -769.000; -726.000
262.990;  -58.800; -362.000; -345.000
263.131;   59.350;  650.000;  681.000
263.272;  -17.575;  -61.000;  -41.000
263.413;  -99.650; -589.000; -561.000
263.555;  -74.225; -669.000; -143.000
263.696;  -93.075; -550.000; -641.000
263.837;  -61.025; -449.000; -551.000
263.978;   -7.925;   -5.000;  -77.000
264.119;  -52.025; -283.000; -264.000
264.261; -116.075; -847.000; -630.000
264.402;  -16.450;   33.000;   40.000
264.543;  -84.450; -509.000; -524.000
264.684;  -26.025;   61.000;  -50.000
264.825;  -84.550; -816.000; -538.000
264.966;   -9.050;  -84.000;  -67.000
265.107; -120.350; -646.000; -670.000
265.248; -107.100; -825.000; -812.000
265.390;  -14.825;  152.000;   -9.000
265.531;  -21.000; -238.000; -107.000
265.672;  -91.250; -557.000; -630.000
265.813;   48.025;  563.000;  439.000
265.954; -149.025; -959.000; -940.000
266.095;  -27.600; -372.000; -322.000
266.236;  -98.400; -686.000; -548.000
266.377;  -48.575; -243.000; -297.000
266.518;  -71.700; -619.000; -547.000
266.659;   21.850;  170.000;  268.000
266.800;   -6.700;   83.000;   85.000
266.941;  -79.050; -487.000; -478.000
267.082;   -3.800;  354.000;   99.000
267.223;  -64.975; -344.000; -273.000
267.364; -119.900; -892.000; -686.000
267.504;  -14.100;    3.000;  135.000
267.645;   -1.125;  160.000;   67.000
267.786;  -34.875; -147.000;  -86.000
267.927;  -80.950; -473.000; -379.000
268.068;  -26.075; -186.000;  -61.000
268.209;  -53.475; -175.000; -413.000
268.350;  -69.125; -388.000; -532.000
268.490;  -85.575; -648.000; -521.000
268.631;   16.475;  127.000;  225.000
268.772; -110.650; -874.000; -647.000
268.913;  -52.275; -328.000; -476.000
269.054;  -28.925; -117.000;   12.000
269.194;  -42.925; -418.000; -402.000
269.335; -158.625;-1137.000;-1074.000
269.476;  -17.475;   33.000;  -35.000
269.617;  -63.850; -347.000; -392.000
269.757; -103.475; -713.000; -646.000
269.898;  -98.725; -856.000; -613.000
270.039;  -60.125; -415.000; -405.000
270.180; -146.650; -952.000; -816.000
270.320;  -23.200; -190.000; -250.000
270.461;  -53.700; -277.000; -249.000
270.602;   -6.825; -186.000; -156.000
270.742; -123.300; -868.000; -943.000
270.883;  -64.200; -442.000; -390.000
271.023;  -74.300; -358.000; -357.000
271.164;  -72.325; -607.000; -528.000
271.305; -104.700; -666.000; -654.000
271.445;  -93.750; -722.000; -683.000
271.586;  -80.100; -462.000; -283.000
271.726;  -52.475; -397.000; -322.000
271.867;  -82.075; -594.000; -534.000
272.008;   30.575; -473.000; -285.000
272.148;   65.450;  462.000;  468.000
272.289;   -9.150; -113.000; -181.000
272.429;  -11.100;   19.000;  185.000
272.570;  -95.875; -633.000; -737.000
272.710; -108.475; -825.000; -775.000
272.851;  -37.675;  113.000; -130.000
272.991; -161.500;-1173.000;-1077.000
273.131;  -64.950; -419.000; -459.000
273.272;  -97.075; -683.000; -723.000
273.412;  -16.250; -143.000;  -31.000
273.553;  -75.125; -488.000; -507.000
273.693;  108.650;  913.000;  858.000
273.834; -121.800; -894.000; -692.000
273.974;  -85.975; -664.000; -615.000
274.114; -115.175; -772.000; -560.000
274.255;   45.050;  414.000;  373.000
274.395;  -30.650; -180.000; -125.000
274.535;   19.775;  199.000;  350.000
274.676;   10.475;  225.000;   94.000
274.816;   -5.600;  110.000;   34.000
274.956;  -98.325; -624.000; -690.000
275.097;  -88.100;-1014.000; -922.000
275.237; -120.575; -913.000; -803.000
275.377;  -89.600; -778.000; -689.000
275.517; -155.525; -878.000; -937.000
275.658;  -65.050; -590.000; -555.000
275.798;  -88.225; -606.000; -413.000
275.938;   17.000;  215.000;  323.000
276.078;  -99.525; -626.000; -395.000
276.218;   -6.150;   99.000;  104.000
276.359; -135.550;-1026.000;-1024.000
276.499;  -71.725; -605.000; -446.000
276.639;  -36.525; -305.000; -151.000
276.779;  -68.650; -475.000; -357.000
276.919; -112.100; -783.000; -624.000
277.059;  -33.675; -261.000; -212.000
277.199;  -51.225; -357.000; -259.000
277.340;   35.175;  287.000;  175.000
277.480; -119.025; -840.000; -693.000
277.620;   17.675;  192.000;   16.000
277.760; -188.375;-1533.000;-1294.000
277.900;   -8.375;  113.000;   33.000
278.040;   -8.250;  137.000;  159.000
278.180;   12.800;  270.000;  170.000
278.320;   -2.575;   21.000;   56.000
278.460;  -62.250; -443.000; -469.000
278.600;  -87.775; -708.000; -598.000
278.740;   45.550;  448.000;  224.000
278.880; -104.575; -768.000; -791.000
279.020;  -38.150; -194.000; -144.000
279.160;  -90.325; -672.000; -595.000
279.300; -117.200; -926.000; -873.000
279.440;  -97.800; -709.000; -622.000
279.579;  -77.775;-1014.000; -929.000
279.719;  -73.925; -410.000; -394.000
279.859;   22.125;   -4.000;   41.000
279.999;  -21.025; -208.000;  101.000
280.139;  -41.075; -435.000; -387.000
280.279; -103.625; -708.000; -745.000
280.419;  -18.250; -229.000; -147.000
280.559;  -47.900; -259.000; -180.000
280.698;  -98.925; -790.000; -639.000
280.838; -122.900; -778.000; -800.000
280.978;  -96.475; -846.000; -790.000
281.118; -115.725; -811.000; -704.000
281.257;    2.950;   24.000;    6.000
281.397; -141.250;-1094.000; -960.000
281.537; -100.275; -599.000; -712.000
281.677;  -12.125; -150.000; -101.000
281.816;  -78.100; -700.000; -630.000
281.956;  -47.675; -193.000; -257.000
282.096;  -66.200; -539.000; -396.000
282.235; -103.975; -672.000; -638.000
282.375;  -25.350; -243.000;  -98.000
282.515; -101.250; -715.000; -707.000
282.654;   20.625;   29.000;  106.000
282.794;   17.625;  388.000;  244.000
282.934;  -49.450; -530.000; -491.000
283.073; -127.000;-1030.000; -857.000
283.213;  -51.825; -460.000; -467.000
283.353;  -56.450; -408.000; -349.000
283.492;  -31.600; -264.000; -296.000
283.632;  -51.075; -254.000; -168.000
283.771;  -95.625; -859.000; -730.000
283.911;  -64.350; -369.000; -260.000
284.050; -108.800; -794.000; -748.000
284.190; -161.250;-1229.000;-1096.000
284.329; -136.025;-1055.000; -964.000
284.469;  -97.325; -516.000; -591.000
284.608;  -62.325; -559.000; -598.000
284.748;  -90.725; -614.000; -570.000
284.887;   -6.775;  -87.000;  -20.000
285.027; -115.200; -844.000; -892.000
285.166;  -30.300; -192.000; -249.000
285.306;  -29.575; -116.000;  -33.000
285.445;  -46.200; -229.000; -343.000
285.584; -106.350; -630.000; -494.000
285.724;  -42.375; -282.000; -322.000
285.863; -108.825; -857.000; -507.000
286.002;  -50.675; -366.000; -276.000
286.142; -114.425; -715.000; -622.000
286.281;  -77.525; -525.000; -493.000
286.420;  -82.600; -554.000; -417.000
286.560;   77.175;  653.000;  623.000
286.699; -130.300; -958.000; -912.000
286.838;  -84.300; -590.000; -591.000
286.978;  -85.750; -533.000; -537.000
287.117; -146.250;-1085.000; -950.000
287.256;  -46.375; -228.000; -211.000
287.395;  -47.450; -197.000; -378.000
287.535;  -66.525; -370.000; -298.000
287.674;  -82.050; -509.000; -484.000
287.813;   34.550;  661.000;  533.000
287.952; -124.475;-1010.000; -871.000
288.091; -153.225;-1049.000; -915.000
288.231;   -0.450;   13.000;   15.000
288.370; -172.900;-1217.000;-1200.000
288.509;  -80.525; -728.000; -645.000
288.648;  -99.500; -770.000; -548.000
288.787;  -38.375; -243.000;  -87.000
288.926;  -88.125; -454.000; -475.000
289.065;   90.300;  859.000;  672.000
289.204;  -50.650; -377.000; -217.000
289.344;  -98.525; -791.000; -690.000
289.483;    6.125;  416.000;  304.000
289.622;  -26.675; -291.000; -149.000
289.761;  -36.525; -309.000; -166.000
289.900; -101.375; -785.000; -626.000
290.039;  -32.475;  -12.000;  -95.000
290.178;  -48.675; -274.000; -180.000
290.317;  -86.875; -618.000; -479.000
290.456;  -57.375; -463.000; -451.000
290.595; -125.625; -961.000; -833.000
290.734; -141.800; -904.000; -891.000
290.873;  -71.700; -456.000; -420.000
291.011; -104.775; -833.000; -843.000
291.150; -105.225; -770.000; -682.000
291.289;  -39.975; -343.000; -110.000
291.428; -109.225; -599.000; -480.000
291.567;  -46.575; -370.000; -442.000
291.706;  -17.050;  109.000;  154.000
291.845; -105.400; -597.000; -505.000
291.984; -175.300;-1234.000;-1061.000
292.122;   52.975;  602.000;  582.000
292.261;   32.975;  620.000;  463.000
292.400;  -31.025; -144.000;  211.000
292.539; -128.225; -959.000; -813.000
292.678;  -36.100; -325.000; -300.000
292.816; -151.900;-1136.000; -965.000
292.955;  -91.325; -844.000; -684.000
293.094;  -45.400; -173.000; -337.000
293.233;  -48.225; -556.000; -400.000
293.371;  -57.850; -225.000;  -84.000
293.510; -118.375; -866.000; -780.000
293.649; -132.600; -959.000; -924.000
293.787; -113.300;-1083.000;-1012.000
293.926;  -22.725; -113.000;  -32.000
294.065;  -50.475; -379.000; -290.000
294.203;   34.675;  298.000;  406.000
294.342;   27.000;   74.000;  156.000
294.481; 5317.150;51180.000; -836.000
294.619;  -31.875; -425.000; -582.000
294.758; -158.725;-1230.000;-1137.000
294.896;   15.350; -125.000;    5.000
295.035; -140.775;-1040.000;-1006.000
295.174; -118.050;-1082.000; -954.000
295.312;  -45.825; -323.000; -203.000
295.451;  -37.550; -307.000; -428.000
295.589;  -69.950; -389.000; -518.000
295.728;    1.700; -292.000; -165.000
295.866;  -22.925;  -36.000;  -51.000
296.005;  -70.225; -584.000; -341.000
296.143;  -85.200; -558.000; -596.000
296.282; -105.150; -957.000; -881.000
296.420;  -90.325; -657.000; -557.000
296.559;  -81.950; -892.000; -633.000
296.697;  -63.175; -847.000; -665.000
296.835;  -72.975;-1141.000;-1002.000
296.974;    2.450;  -23.000;   39.000
297.112;  -31.150; -443.000; -504.000
297.251;  -75.925; -815.000; -755.000
297.389;  -17.050; -576.000; -438.000
297.527;  -13.225; -145.000;  -83.000
297.666;  -56.575; -486.000; -438.000
297.804;  -58.775; -404.000; -264.000
297.942;    0.075; -136.000; -161.000
298.081;  -18.100; -183.000;   63.000
298.219;   16.300;  -17.000;  -19.000
298.357;  -33.475; -144.000;  -71.000
298.495;  -76.550; -810.000; -812.000
298.634;   -6.550;  245.000;  219.000
298.772;  -25.250; -220.000; -338.000
298.910;  -70.725; -309.000; -182.000
299.048;  -22.350; -130.000; -153.000
299.187;  -40.850; -350.000; -250.000
299.325;  -13.100;   52.000;  122.000
299.463;  -31.100; -389.000; -299.000
299.601;   -7.075; -327.000; -271.000
299.739; -130.125; -908.000; -883.000
299.877;  -92.375; -791.000; -703.000
300.016; -131.150;-1095.000; -935.000
300.154;   32.050;  -19.000; -161.000
300.292;  -46.100; -428.000; -348.000
300.430;  -29.525; -408.000; -291.000
300.568; -143.425; -940.000; -874.000
300.706;  -69.625; -366.000; -469.000
300.844; -130.825;-1108.000; -979.000
300.982;   72.575;  246.000;  282.000
301.120; -116.275; -965.000; -866.000
301.258;  -79.600; -812.000; -705.000
301.396;   -9.200;  104.000;  -41.000
301.534;  -27.175; -218.000; -293.000
301.672;  -92.850; -664.000; -521.000
301.810;  -68.000; -613.000; -545.000
301.948;   36.725;   53.000;  149.000
302.086;  159.125; -250.000;  -32.000
302.224;  154.250; -610.000; -585.000
302.362;  -71.800; -558.000; -622.000
302.500; -102.800; -923.000; -893.000
302.638;   15.650;  128.000;  245.000
302.776;  -53.925; -352.000; -408.000
302.913;   39.750;  447.000;  236.000
303.051;  -32.725;  -86.000;  -23.000
303.189;    8.850;   90.000;  118.000
303.327;  -70.075; -341.000; -256.000
303.465;  -82.350; -832.000; -588.000
303.603; -106.775; -805.000; -604.000
303.740;   59.500;  417.000;  241.000
303.878;  -80.550; -800.000; -759.000
304.016;  -95.125; -915.000; -790.000
304.154; -154.850;-1123.000;-1152.000
304.291;  -48.850; -505.000; -554.000
304.429;   -5.475;  102.000;   74.000
304.567; -129.775; -908.000; -893.000
304.705;  -70.750; -408.000; -515.000
304.842;  -27.125; -616.000; -540.000
304.980;    9.200;  215.000;   35.000
305.118;  -36.850; -367.000; -365.000
305.255; -120.000; -945.000; -927.000
305.393;   46.000;  178.000;  239.000
305.531; -146.975;-1173.000; -956.000
305.668;  -80.625; -663.000; -582.000
305.806;   -8.925; -358.000; -439.000
305.943;  -48.075; -629.000; -637.000
306.081;  -28.675; -378.000; -267.000
306.219;  -98.900; -863.000; -748.000
306.356;    7.075;  158.000;   27.000
306.494;  126.300;  981.000;  761.000
306.631;    8.075;  -11.000;  -55.000
306.769;   14.150; -613.000; -485.000
306.906;  -14.550; -284.000; -258.000
307.044;  -50.225; -473.000; -488.000
307.181;  -54.450; -410.000; -332.000
307.319;   13.275;  112.000;   87.000
307.456; -161.850;-1191.000;-1153.000
307.594; -109.550; -980.000; -727.000
307.731;  -38.850; -371.000; -164.000
307.868;   14.125;  -15.000;   20.000
308.006; -123.925; -961.000; -847.000
308.143;  -74.325; -618.000; -330.000
308.281;   33.775;  -37.000; -254.000
308.418;  -51.575; -748.000; -640.000
308.555;  -68.475; -400.000; -250.000
308.693;  -46.750; -577.000; -573.000
308.830;  -94.075; -712.000; -657.000
308.967;   -6.525; -215.000;  -95.000
309.105;  -28.350; -507.000; -396.000
309.242;    7.100; -468.000; -367.000
309.379;   21.250; -577.000; -655.000
309.517;  -99.100; -936.000; -948.000
309.654;  -87.525; -910.000; -734.000
309.791;  -49.350; -662.000; -580.000
309.928; -101.750; -977.000; -914.000
310.065;  126.075;  819.000;  697.000
310.203;  -72.450; -825.000; -850.000
310.340;  -28.350; -465.000; -321.000
310.477;  -74.225; -412.000; -516.000
310.614;  -60.775; -383.000; -473.000
310.751;  -56.425; -427.000; -518.000
310.889;  -24.950;    1.000;   11.000
311.026; -140.725;-1161.000; -939.000
311.163;  -41.850; -386.000; -380.000
311.300;  -64.650; -512.000; -479.000
311.437;  -61.475; -658.000; -619.000
311.574; -137.950;-1226.000; -985.000
311.711;  -57.150; -595.000; -433.000
311.848;  -24.200; -380.000; -388.000
311.985;   16.775;  270.000;   93.000
312.122; -106.450; -932.000; -762.000
312.259;  -89.200; -941.000; -994.000
312.396;  -43.825; -508.000; -551.000
312.533;  -51.525; -812.000; -790.000
312.670; -112.325;-1070.000; -898.000
312.807;  -19.425; -352.000; -367.000
312.944;  -49.600; -513.000; -611.000
313.081;    4.925; -150.000; -415.000
313.218;  -76.500;-1111.000; -867.000
313.355;  -19.975; -531.000; -449.000
313.492;  -12.150; -455.000; -292.000
313.629;  140.100;  815.000;  735.000
313.766; -144.225;-1176.000;-1008.000
313.902;    0.050; -186.000;   21.000
314.039;  -51.300; -372.000; -289.000
314.176;   42.250;  286.000;  192.000
314.313;  -83.550; -569.000; -473.000
314.450;  -73.625; -788.000; -684.000
314.587;  -65.000; -468.000; -480.000
314.723;   27.175;  -78.000;  130.000
314.860;   54.725;  318.000;  332.000
314.997;   29.550;  223.000;  142.000
315.134;  -37.700; -385.000; -368.000
315.270;  -23.075; -480.000; -496.000
315.407; -115.450;-1094.000; -967.000
315.544;  -31.400; -657.000; -538.000
315.681;  -66.775; -681.000; -565.000
315.817;   23.925; -133.000; -176.000
315.954;   36.025; -613.000; -392.000
316.091; -111.575;-1045.000;-1023.000
316.227;  -23.975;  -71.000; -179.000
316.364;    1.000;   23.000;    6.000
316.500;  -43.975; -113.000; -300.000
316.637;  -27.725; -181.000; -302.000
316.774; -100.400; -625.000; -358.000
316.910;  -82.275; -598.000; -629.000
317.047;  -66.400; -487.000; -351.000
317.183;  -46.350; -435.000; -566.000
317.320;   28.900; -367.000; -321.000
317.456;  -33.650; -733.000; -805.000
317.593;  -86.350; -598.000; -641.000
317.729;  -14.850;  168.000;  -67.000
317.866; -182.550;-1434.000;-1285.000
318.002;  -94.575; -708.000; -948.000
318.139; -122.225; -883.000; -867.000
318.275; -112.875;-1003.000; -738.000
318.412;  -70.350; -517.000; -336.000
318.548;  -82.875; -751.000; -720.000
318.685; -107.050; -985.000; -888.000
318.821;  -81.500; -762.000; -735.000
318.957;  -31.575;   34.000;  -23.000
319.094;   23.275;  297.000;  154.000
319.230;  -95.750; -756.000; -742.000
319.367;   -2.850; -471.000; -520.000
319.503;  -26.850; -538.000; -436.000
319.639; -103.075; -877.000; -793.000
319.775;  -87.050; -750.000; -685.000
319.912;  -74.825; -424.000; -519.000
320.048; -105.975;-1184.000;-1184.000
320.184;   70.675;   59.000;   70.000
320.321;  -51.825; -497.000; -467.000
320.457;   63.225;  475.000;  662.000
320.593;  -64.550; -375.000; -382.000
320.729; -103.725; -732.000; -734.000
320.866;  -81.350; -577.000; -635.000
321.002; -102.950; -759.000; -809.000
321.138;  -57.575; -135.000; -211.000
321.274;   -2.800; -148.000; -115.000
321.410;  -60.875; -585.000; -353.000
321.546;  -98.475;-1011.000; -911.000
321.683;   18.375;  400.000;  185.000
321.819;  -20.225;  -48.000; -117.000
321.955; -124.150; -743.000; -722.000
322.091;  -70.850; -585.000; -540.000
322.227;  -55.300; -382.000; -202.000
322.363;  -44.100; -320.000; -215.000
322.499;  -65.875; -343.000; -331.000
322.635;   83.600;  636.000;  443.000
322.771;  -21.300; -139.000;   12.000
322.907;   55.300;  129.000;  327.000
323.043;  -47.450; -115.000; -206.000
323.179;  -60.600; -394.000; -363.000
323.315;  -59.500; -401.000; -371.000
323.451;   15.775; -328.000; -236.000
323.587;   41.775;  -60.000;  -77.000
323.723;  -62.475; -682.000; -601.000
323.859;  -38.175; -258.000;  -76.000
323.995;  -56.125; -467.000; -409.000
324.131; -138.450; -967.000; -892.000
324.267;  -51.725; -254.000; -276.000
324.402; -138.175; -960.000; -983.000
324.538;  -28.475; -279.000; -104.000
324.674;  -23.325;  164.000;   77.000
324.810;   33.775;  226.000;  308.000
324.946;  -55.025; -810.000; -658.000
325.082;  -82.050; -568.000; -475.000
325.217;  -42.725;  -62.000;   16.000
325.353; -103.575; -764.000; -659.000
325.489;  -93.425; -540.000; -506.000
325.625;  -74.725; -579.000; -525.000
325.760;   68.400;  517.000;  376.000
325.896;   33.800; -515.000; -702.000
326.032;  -47.600; -403.000; -352.000
326.168;  -68.675; -462.000; -369.000
326.303;  -70.050; -352.000; -461.000
326.439;  -19.750; -336.000; -276.000
326.575;  -13.975; -190.000;  -29.000
326.710;  -24.300; -156.000;  -30.000
326.846;  -11.900;  146.000;  103.000
326.982;  -95.975; -530.000; -548.000
327.117;  -80.675; -481.000; -442.000
327.253;  -75.775; -745.000; -742.000
327.388; -159.150;-1137.000;-1153.000
327.524;  -83.650; -811.000; -578.000
327.659;  -31.900;  -58.000;  -22.000
327.795;  -17.525;   69.000;   45.000
327.931;  -86.250; -723.000; -499.000
328.066;  -33.750; -417.000; -276.000
328.202;  -36.700;   12.000; -129.000
328.337;   91.375;  957.000;  713.000
328.473;   15.275;  -12.000;  -74.000
328.608;  -25.675; -256.000; -267.000
328.743; -105.425; -799.000; -664.000
328.879;   12.900;  214.000;  114.000
329.014;  -46.425; -102.000; -122.000
329.150;  -87.900; -358.000; -483.000
329.285;  -87.000; -465.000; -466.000
329.421;  -51.575; -548.000; -246.000
329.556;  -24.250;  -36.000;   85.000
329.691;  -85.225; -633.000; -615.000
329.827;  -98.750; -626.000; -480.000
329.962;  -39.575;  131.000; -301.000
330.097;  -85.025; -673.000; -585.000
330.233;  -38.350; -410.000; -223.000
330.368; -111.825; -839.000; -628.000
330.503;  -15.450;    3.000;   98.000
330.638;  -16.225;  -93.000; -125.000
330.774;  -80.550; -609.000; -530.000
330.909;  -70.700; -434.000; -244.000
331.044;  -94.325; -714.000; -708.000
331.179; -168.025;-1217.000;-1109.000
331.315;    7.850;   77.000;   20.000
331.450;   -5.725;  157.000;  285.000
331.585;  -85.450; -805.000; -706.000
331.720;  -94.650; -510.000; -460.000
331.855;    6.450;  -35.000; -102.000
331.990;  429.800;   62.000;  138.000
332.126;  219.200; -110.000;   71.000
332.261;   -2.450; -379.000; -265.000
332.396;   17.975; -135.000; -242.000
332.531;  -59.750;-1074.000;-1031.000
332.666;   95.900; -519.000; -363.000
332.801;  -98.125; -726.000; -807.000
332.936;  -19.200; -192.000; -122.000
333.071; -153.150; -870.000; -817.000
333.206;   16.975;  307.000;  379.000
333.341;   17.000;  344.000;  418.000
333.476;  -87.450; -627.000; -623.000
333.611;  -50.925; -251.000; -173.000
333.746;  -53.300; -381.000; -464.000
333.881; -136.550; -973.000; -935.000
334.016; -119.625; -936.000; -917.000
334.151; -122.275; -746.000; -702.000
334.286;   -2.225;  152.000;  186.000
334.421;  -41.300; -125.000; -178.000
334.556;  -97.100; -611.000; -567.000
334.690;  -96.500; -631.000; -577.000
334.825;   55.950;  381.000;   83.000
334.960;  -67.350; -285.000; -413.000
335.095;    8.925;  135.000;  -91.000
335.230; -102.300; -722.000; -738.000
335.365; -120.450;-1084.000; -990.000
335.499; -142.400;-1108.000;-1037.000
335.634;   10.425;    9.000;  534.000
335.769; -101.400; -755.000; -720.000
335.904;  -58.725; -603.000; -561.000
336.038;  -48.100; -735.000; -657.000
336.173; -110.225;-1206.000;-1194.000
336.308;    6.150; -116.000; -189.000
336.443;   69.475; -544.000; -634.000
336.577;  -58.600; -936.000; -787.000
336.712;   68.475;   -4.000;  -12.000
336.847;  -39.950; -724.000; -607.000
336.981;   42.325; -272.000; -208.000
337.116;  247.075;  615.000;  501.000
337.250;   82.600; -434.000; -421.000
337.385;  463.675; -297.000; -208.000
337.520;  247.800; -632.000; -603.000
337.654;  -34.425; -215.000; -126.000
337.789; -138.225; -989.000; -933.000
337.923;  -56.550; -104.000; -205.000
338.058; -104.800; -673.000; -738.000
338.192;  -64.050; -611.000; -488.000
338.327;   -4.975;  -18.000; -155.000
338.461;  -78.875; -299.000; -469.000
338.596;  -93.750; -780.000; -638.000
338.730;  -89.550; -767.000; -803.000
338.865;  171.100;  -46.000; -140.000
338.999;   11.725; -846.000; -702.000
339.134;    1.250; -634.000; -536.000
339.268;   38.675; -741.000; -603.000
339.403;  573.350; -740.000; -775.000
339.537;  268.475; -894.000; -820.000
339.671;  -94.950; -829.000; -813.000
339.806;  -35.325; -556.000; -512.000
339.940;   27.400; -261.000; -235.000
340.074; -103.750; -685.000; -510.000
340.209;  -58.875; -351.000; -230.000
340.343; -104.100; -517.000; -573.000
340.477;  126.600;  998.000; 1036.000
340.612;   19.125;-1033.000; -900.000
340.746;  245.025; -199.000; -243.000
340.880;  -89.800; -924.000; -785.000
341.014;  -38.350;  -45.000; -154.000
341.149; -132.125; -756.000; -718.000
341.283; -110.050; -839.000; -754.000
341.417; -135.625;-1124.000; -938.000
341.551;  -33.675; -768.000; -708.000
341.685;  -57.275; -633.000; -611.000
341.820;  -54.050; -562.000; -493.000
341.954;  -67.475; -218.000; -349.000
342.088; -152.475;-1102.000;-1019.000
342.222;   43.425;  565.000;  618.000
342.356;  -85.000; -395.000; -335.000
342.490; -129.025; -880.000; -841.000
342.624;  -62.800; -339.000; -242.000
342.758;  -62.875; -364.000; -312.000
342.892;  -98.900; -710.000; -585.000
343.026;  -39.900;  -58.000; -116.000
343.160;  -43.625; -426.000; -376.000
343.294;  -91.700; -474.000; -337.000
343.428;  -63.175; -488.000; -448.000
343.562;  -50.300; -172.000;  -23.000
343.696;  -64.450; -385.000; -314.000
343.830;  -63.550; -362.000; -356.000
343.964;  -26.450; -231.000; -168.000
344.098;  219.350;  199.000;   70.000
344.232;  198.575; -266.000; -127.000
344.366;   51.525; -567.000; -453.000
344.500;  -48.525; -665.000; -744.000
344.634;  -35.775; -324.000; -164.000
344.768;  -64.600; -531.000; -341.000
344.902;   -9.200;  278.000;  256.000
345.035;  -77.825; -556.000; -496.000
345.169; -133.975; -933.000; -656.000
345.303;  -60.300; -308.000; -482.000
345.437; -113.800; -826.000; -717.000
345.571;  -65.000; -675.000; -594.000
345.704;  -76.225; -309.000; -532.000
345.838;  -23.900; -331.000; -284.000
345.972;  -68.050; -543.000; -495.000
346.106;  255.375; -179.000; -190.000
346.239;  480.800; -312.000; -243.000
346.373;   -8.450; -343.000; -302.000
346.507; -131.175; -950.000; -962.000
346.640;   14.325;  -30.000;   13.000
346.774; -106.125; -650.000; -797.000
346.908;  -30.725; -138.000;  -11.000
347.041;  -97.650; -646.000; -593.000
347.175;   -8.600;  259.000;   27.000
347.309; -101.925; -698.000; -628.000
347.442; -101.950; -883.000; -732.000
347.576;  107.400;  670.000;  668.000
347.709;   33.650; -123.000;  -52.000
347.843; -126.725; -933.000; -825.000
347.976;   19.825;  235.000;  294.000
348.110; -180.575;-1268.000;-1186.000
348.243; -104.825; -679.000; -772.000
348.377;    2.575;  -26.000;   60.000
348.510;   40.250;  403.000;  540.000
348.644;  -55.425;  -37.000; -159.000
348.777;   -0.125;  180.000;  191.000
348.911;  -53.900; -142.000; -112.000
349.044;   60.075;  471.000;  448.000
349.178;  -46.050;-1069.000;-1006.000
349.311;   86.875;  141.000;  255.000
349.444;   31.600; -927.000; -813.000
349.578;  -27.400; -347.000; -200.000
349.711; -137.125; -959.000; -862.000
349.845;  -71.625; -661.000; -591.000
349.978; -167.725;-1224.000;-1137.000
350.111;  -80.500; -546.000; -612.000
350.244; -105.750; -596.000; -700.000
350.378;  -56.025; -392.000; -393.000
350.511;  -85.600; -393.000; -426.000
350.644;  -81.400; -808.000; -806.000
350.778;    9.025;  168.000;  104.000
350.911;   -4.050;  134.000;  140.000
351.044; -103.025; -685.000; -615.000
351.177;  -46.325; -321.000; -281.000
351.310;  -40.900;    3.000; -131.000
351.444; -114.750; -888.000; -788.000
351.577;   15.850;  140.000;   90.000
351.710;   75.825;  593.000;  417.000
351.843;  -48.800; -165.000;  -77.000
351.976;  -19.375;  149.000;  -79.000
352.109; -110.875; -621.000; -612.000
352.242;  -69.950; -464.000; -419.000
352.376; -101.475; -580.000; -636.000
352.509;    1.325; -437.000; -356.000
352.642; -107.700; -654.000; -604.000
352.775;  -10.400; -141.000;  -98.000
352.908; -136.325; -933.000; -904.000
353.041; -114.000; -814.000; -824.000
353.174;  -72.875; -551.000; -424.000
353.307;  -98.325; -753.000; -764.000
353.440;   44.600;  541.000;  453.000
353.573; -108.425; -957.000;-1008.000
353.706;  -55.550; -384.000; -558.000
353.839;  -31.925; -264.000; -220.000
353.971;  -92.875; -657.000; -512.000
354.104; -114.925; -896.000; -835.000
354.237;  -96.950; -627.000; -662.000
354.370; -105.150; -846.000; -879.000
354.503; -179.225;-1231.000;-1308.000
354.636;  -31.250; -529.000; -348.000
354.769; -121.800; -937.000; -860.000
354.902;  -44.250; -230.000; -139.000
355.034;  -30.150; -164.000; -220.000
355.167;   -3.675; -262.000; -162.000
355.300;  -80.400;-1061.000; -880.000
355.433; 1473.525;  -71.000;  -14.000
355.565; 2330.050; -402.000; -384.000
355.698;  584.900; -356.000; -296.000
355.831;  -20.250; -882.000; -801.000
355.964;   26.175; -285.000; -170.000
356.096;  -80.825; -856.000; -843.000
356.229;    4.675; -523.000; -530.000
356.362;  514.550; -373.000; -266.000
356.494;  949.975; -229.000; -162.000
356.627;  329.175;  269.000;  377.000
356.760;  902.100;  120.000;   53.000
356.892; 1562.150; -286.000; -601.000
357.025;  331.200;  403.000;  389.000
357.157;  206.375; -167.000; -179.000
357.290; 1220.850; -856.000; -713.000
357.423;  356.250; -667.000; -556.000
357.555;   80.025; -217.000; -228.000
357.688;  109.100; -483.000; -364.000
357.820;  132.500; -870.000; -877.000
357.953; 1148.550; -563.000; -589.000
358.085;  181.550; -632.000; -612.000
358.218;   64.450;-1131.000; -932.000
358.350;   40.650;  -58.000;  312.000
358.483; -169.675;-1300.000;-1187.000
358.615; -130.225;-1182.000;-1078.000
358.747; -153.775;-1187.000;-1058.000
358.880;  -59.300; -810.000; -744.000
359.012;  -44.075; -376.000; -202.000
359.145;  -57.850; -480.000; -511.000
359.277;  -78.325; -962.000; -913.000
359.409;  989.825;  536.000;  231.000
359.542;  192.100; -738.000; -688.000
359.674;   13.125;   46.000;   13.000
359.806;  -75.275; -565.000; -438.000
359.939;  -33.600; -617.000; -516.000
360.071;   28.875; -583.000; -579.000
360.203;  -25.325; -411.000; -364.000
360.335;   21.400;  164.000;  -16.000
360.468;   71.875; -249.000; -307.000
360.600; 1142.200; -547.000; -454.000
360.732; 4351.175; -546.000; -423.000
360.864;  667.975;-1216.000;-1044.000
360.996;   78.725; -516.000; -554.000
361.129;  -55.000; -389.000; -598.000
361.261;   -3.625;  110.000; -113.000
361.393;  -50.275; -252.000; -214.000
361.525;    8.450;   94.000;  244.000
361.657; -119.325; -821.000; -703.000
361.789;  -38.650; -139.000; -155.000
361.921;  -55.700; -642.000; -593.000
362.053;   80.050;  524.000;  541.000
362.185;   -5.725;  288.000;   72.000
362.318; -113.925; -709.000; -705.000
362.450;   25.400;  294.000;  444.000
362.582;  -84.125; -913.000; -870.000
362.714;  -65.500; -353.000; -332.000
362.846;  -82.525; -606.000; -490.000
362.978; -142.650; -941.000; -811.000
363.109;  -21.325; -161.000; -260.000
363.241;  140.100; -739.000; -749.000
363.373;  667.675; -649.000; -564.000
363.505; 1088.575; -186.000;  -91.000
363.637;  246.750; -787.000; -601.000
363.769; -142.150;-1067.000;-1080.000
363.901;  -77.450; -596.000; -654.000
364.033; -156.925;-1103.000;-1062.000
364.165;  -45.275; -283.000; -283.000
364.296;   94.950; -316.000; -177.000
364.428;  211.125;-1344.000;-1220.000
364.560;  -61.450; -679.000; -661.000
364.692;  -75.500; -738.000; -835.000
364.824;  -19.250; -588.000; -456.000
364.955;  532.250; -402.000; -564.000
365.087; 1764.825;-1097.000; -852.000
365.219;  110.050; -686.000; -816.000
365.351;  -77.800; -526.000; -572.000
365.482;   25.425;  300.000;  240.000
365.614;  -77.225; -402.000; -314.000
365.746;  -98.350; -729.000; -752.000
365.877;  -94.525; -706.000; -672.000
366.009;  424.250;  -35.000;  -62.000
366.141;  -24.375;-1249.000;-1134.000
366.272; -101.450; -803.000; -719.000
366.404; -113.200;-1005.000; -874.000
366.535;  -10.725; -139.000;  -12.000
366.667; -108.825; -644.000; -649.000
366.799;   15.300;  353.000;  203.000
366.930; -130.825; -862.000; -996.000
367.062;  197.100; -639.000; -613.000
367.193;  362.850; -872.000; -842.000
367.325;  -27.475; -580.000; -684.000
367.456;   -8.475; -246.000;   31.000
367.588;  277.925; -371.000; -318.000
367.719;   39.775;  -44.000;  -45.000
367.851;  -40.225; -222.000; -241.000
367.982; -129.125; -875.000; -732.000
368.113;  -18.475; -475.000; -358.000
368.245; -169.050; -960.000; -841.000
368.376;  -58.875; -254.000; -302.000
368.508;  -46.175; -188.000; -263.000
368.639; -155.225;-1166.000;-1034.000
368.770;  -98.550; -670.000; -589.000
368.902; -123.850; -836.000; -926.000
369.033; -124.275; -906.000; -855.000
369.164;  -31.250; -720.000; -653.000
369.296; -106.500; -452.000; -601.000
369.427;  -31.925; -209.000; -144.000
369.558;  -85.225; -593.000; -377.000
369.689;  -68.675; -721.000; -569.000
369.821; -131.100; -951.000; -845.000
369.952;   -2.800;   42.000; -108.000
370.083;  -65.250; -229.000; -108.000
370.214; -103.275; -735.000; -650.000
370.345;  -13.325;   65.000;   81.000
370.477; -102.550; -810.000; -790.000
370.608;    6.000; -328.000; -264.000
370.739; -130.375;-1233.000;-1292.000
370.870; -115.550;-1102.000; -923.000
371.001;  -33.325; -378.000; -467.000
371.132; -105.675; -754.000; -735.000
371.263;  -29.575;  -42.000; -148.000
371.394; -130.700; -841.000; -748.000
371.525;   18.250;  345.000;  225.000
371.657; -125.075; -808.000; -670.000
371.788;   31.100;  103.000;  199.000
371.919;   -2.500; -384.000; -304.000
372.050; 1018.225;  -91.000; -156.000
372.181;  291.600; -188.000; -294.000
372.311;   72.425;   42.000; -127.000
372.442;  -52.675; -457.000; -451.000
372.573;  -48.850; -444.000; -340.000
372.704; -158.775;-1008.000; -980.000
372.835;  -23.100; -228.000; -289.000
372.966; -100.575; -646.000; -554.000
373.097;  -95.900; -575.000; -711.000
373.228; -114.125; -717.000; -542.000
373.359;  -48.225; -824.000; -536.000
373.490;  104.975; -881.000; -727.000
373.620;  184.125;-1001.000; -803.000
373.751;  382.800; -332.000; -396.000
373.882;  159.200; -663.000; -733.000
374.013;  -28.650; -449.000; -262.000
374.143; -102.500; -581.000; -659.000
374.274; -137.625; -987.000; -908.000
374.405;   53.400; -388.000; -276.000
374.536;   86.850; -526.000; -387.000
374.666;  202.975; -759.000; -807.000
374.797;  -33.950; -817.000; -868.000
374.928;  124.925; -710.000; -560.000
375.058;  138.600; -535.000; -500.000
375.189;   11.000;  -59.000;  -93.000
375.320; -158.100; -928.000;-1034.000
375.450;  -44.225; -625.000; -616.000
375.581;  -52.800; -526.000; -436.000
375.712;  -63.200; -574.000; -250.000
375.842;  -21.575; -438.000; -415.000
375.973;  -26.900; -554.000; -513.000
376.103; -113.575; -665.000; -648.000
376.234;  -97.075; -531.000; -552.000
376.364; -139.225; -944.000; -867.000
376.495;  123.825;  925.000;  529.000
376.625;  -70.075; -472.000; -485.000
376.756;  -77.700; -709.000; -678.000
376.886; -147.225;-1178.000;-1026.000
377.017;  150.975;-1048.000;-1061.000
377.147;  675.125; -786.000; -782.000
377.278;   93.725;  174.000;  228.000
377.408; -124.500; -801.000; -815.000
377.538; -103.875; -707.000; -693.000
377.669;  -81.150; -537.000; -613.000
377.799; -101.050; -645.000; -635.000
377.929;  -86.525; -610.000; -428.000
378.060; -119.025; -781.000; -847.000
378.190;  -39.425; -726.000; -531.000
378.320;  -33.750; -401.000; -406.000
378.451;  -24.650; -131.000;  -22.000
378.581;  -12.375;  -67.000; -110.000
378.711;   93.550; 1035.000;  866.000
378.841;  -69.625; -533.000; -675.000
378.972; -121.325; -871.000; -751.000
379.102;  -57.025; -652.000; -579.000
379.232;  -47.025; -126.000;  -73.000
379.362; -130.875;-1001.000; -885.000
379.492;  -58.200; -373.000; -424.000
379.623;   19.100;    0.000;  111.000
379.753; -118.500;-1107.000; -974.000
379.883;   54.275;   59.000;  156.000
380.013; -107.725;-1081.000;-1017.000
380.143; -115.325;-1097.000;-1056.000
380.273; -113.375; -985.000; -861.000
380.403;    2.025; -344.000; -257.000
380.533;  -74.675; -651.000; -664.000
380.663;   26.275;  173.000;  128.000
380.793; -141.050;-1027.000;-1074.000
380.923;  -22.650; -103.000;  -34.000
381.053;  -96.325; -613.000; -623.000
381.183;  -44.150; -106.000; -248.000
381.313;  -71.625; -656.000; -470.000
381.443;  -54.325; -692.000; -473.000
381.573;  -35.150; -402.000; -409.000
381.703; -107.650;-1249.000;-1095.000
381.833; -191.000;-1454.000;-1336.000
381.963;   15.850; -134.000;  -87.000
382.093;  290.100; -925.000; -909.000
382.223;   65.325; -713.000; -602.000
382.353;  -97.675; -801.000; -608.000
382.482;  -14.700;-1091.000; -964.000
382.612;  118.825; -872.000; -644.000
382.742;   69.850; -695.000; -622.000
382.872;  -34.875; -565.000; -551.000
383.002;   17.950;  347.000; -132.000
383.131;  -27.600; -226.000; -160.000
383.261;  -24.925; -706.000; -768.000
383.391;  338.850; -552.000; -377.000
383.521; 5189.125;  451.000;  263.000
383.650; 1599.825; -947.000; -904.000
383.780;   59.150; -783.000; -656.000
383.910;   82.550;  880.000;  802.000
384.039;  -87.375; -794.000; -656.000
384.169; -106.375;-1205.000;-1017.000
384.299;  -86.525; -650.000; -662.000
384.428; -117.800; -764.000; -680.000
384.558;  -61.350; -308.000; -275.000
384.687;  -77.625; -414.000; -334.000
384.817;  -10.375;   75.000;   -2.000
384.947;  -42.050; -234.000; -141.000
385.076;  148.150;  982.000;  912.000
385.206;   45.325;  369.000;  480.000
385.335;  -71.325; -549.000; -417.000
385.465; -112.400; -655.000; -663.000
385.594;   15.800;  -53.000;  -44.000
385.724;   -3.275; -868.000; -838.000
385.853;  -19.350; -296.000; -270.000
385.982;  250.050; -743.000; -787.000
386.112;  513.175;-1052.000; -871.000
386.241;  -10.450; -307.000; -312.000
386.371;  -24.050; -174.000;  -87.000
386.500;  -72.600; -825.000; -789.000
386.629;   -0.775; -874.000; -817.000
386.759;   75.875;  -43.000;   68.000
386.888;  -24.775; -170.000; -250.000
387.017;  -97.475; -648.000; -620.000
387.147; -107.900; -771.000; -798.000
387.276;  -57.275; -410.000; -397.000
387.405;  -38.350; -398.000; -342.000
387.535;  -86.050; -452.000; -361.000
387.664;  -51.100; -692.000; -620.000
387.793;  -29.250; -198.000; -113.000
387.922;  125.900;  255.000;  200.000
388.052;  -69.100; -576.000; -423.000
388.181;  -49.950; -342.000; -472.000
388.310;  -97.950; -889.000; -710.000
388.439;  -96.000; -749.000; -742.000
388.568;   22.600;  365.000;  244.000
388.697;  201.775; -756.000; -653.000
388.826;  -32.450; -768.000; -666.000
388.956;  -39.575; -285.000; -307.000
389.085;  -74.850; -347.000; -287.000
389.214; -119.025; -842.000; -872.000
389.343;  -85.475; -645.000; -413.000
389.472;  563.950;  126.000;  149.000
389.601;  660.875;   91.000;    0.000
389.730;  -11.850; -568.000; -687.000
389.859;   17.600;  226.000;   46.000
389.988;   16.050; -423.000; -408.000
390.117;   19.200; -168.000; -146.000
390.246;  -36.150; -331.000; -320.000
390.375;  -76.550; -673.000; -626.000
390.504;  -82.950; -703.000; -621.000
390.633; -111.900; -672.000; -726.000
390.761; -108.025; -732.000; -645.000
390.890;  -34.150;   -4.000; -130.000
391.019;  -58.925; -421.000; -441.000
391.148; -122.650; -826.000; -855.000
391.277;  -77.075; -576.000; -493.000
391.406; -120.500; -821.000; -805.000
391.534;   22.550;  574.000; -301.000
391.663;  -90.100; -583.000; -645.000
391.792; -101.700; -673.000; -701.000
391.921;  -38.325;   -3.000;   15.000
392.050;  -14.000; -287.000; -228.000
392.178; -132.400;-1206.000;-1061.000
392.307;  -48.825; -758.000; -712.000
392.436;  -65.550; -427.000; -641.000
392.564;   -9.700;  166.000;   -6.000
392.693; -112.100; -860.000; -682.000
392.822;   -7.700; -529.000; -534.000
392.950;  -49.350; -880.000; -714.000
393.079;   26.625; -188.000; -328.000
393.208;  -70.400; -488.000; -511.000
393.336;  -21.225; -170.000; -145.000
393.465;  -49.400; -317.000; -199.000
393.593;    1.550;   62.000;   79.000
393.722; -150.100;-1121.000; -916.000
393.850;  -34.000; -188.000;  -61.000
393.979; -129.425; -926.000; -805.000
394.107;  -69.700; -517.000; -537.000
394.236;  -51.625; -570.000; -507.000
394.364;   90.925;  383.000;  206.000
394.493;   31.075; -911.000; -767.000
394.621;   13.325; -955.000; -916.000
394.750; 1178.875; -873.000; -923.000
394.878; 4574.375; -247.000; -149.000
395.007; 6755.350; -721.000; -807.000
395.135;  620.125; -790.000; -721.000
395.263;  -49.150;-1038.000;-1040.000
395.392;    5.375;  -25.000; -107.000
395.520; -133.925; -818.000; -679.000
395.648; -111.775; -865.000; -915.000
395.777;  -90.000; -366.000; -405.000
395.905;  -70.050; -449.000; -564.000
396.033;  -22.850;  217.000;  172.000
396.162;   56.800; -399.000; -453.000
396.290;   66.525;  -17.000;   -2.000
396.418;  -48.175; -555.000; -514.000
396.546; -104.675; -571.000; -466.000
396.674; -135.275; -850.000; -878.000
396.803;  -35.175;  -72.000;  -23.000
396.931;  -30.625; -179.000; -199.000
397.059; -138.875;-1026.000; -989.000
397.187; -144.575;-1026.000; -975.000
397.315; -138.725; -884.000; -649.000
397.443; -100.725; -592.000; -443.000
397.572; -104.350; -578.000; -424.000
397.700;  -86.775; -607.000; -614.000
397.828;  -57.025;  120.000;  -90.000
397.956;  -28.225; -508.000; -478.000
398.084;  -30.475; -767.000; -626.000
398.212;    3.250;  137.000;  124.000
398.340;  -41.100;  -56.000;  159.000
398.468;  -59.100; -390.000; -169.000
398.596; -147.125; -993.000; -953.000
398.724; -107.900; -762.000; -767.000
398.852; -163.825;-1024.000; -976.000
398.980;  -82.425; -560.000; -560.000
399.108; -112.075; -982.000; -735.000
399.236;  -11.800;   13.000;    8.000
399.363;   -7.325;  222.000;  196.000
399.491;  -71.425; -404.000; -398.000
399.619; -121.100; -829.000; -800.000
399.747; -113.775; -859.000; -771.000
399.875;   23.700;  220.000;  234.000
400.003;  -59.925; -359.000; -284.000
400.130;  -92.400; -421.000; -341.000
400.258;  -37.325;  -83.000;   38.000
400.386;  -82.725; -352.000; -168.000
400.514; -103.775; -526.000; -587.000
400.641; -153.250; -928.000; -802.000
400.769; -144.550; -979.000; -888.000
400.897; -138.750; -838.000; -793.000
401.025;  -34.750; -166.000; -152.000
401.152;  -21.525;  220.000;   38.000
401.280;  -85.000; -430.000; -429.000
401.408; -109.625; -712.000; -576.000
401.535; -112.725; -735.000; -758.000
401.663; -190.475;-1134.000;-1054.000
401.790; -103.575; -514.000; -525.000
401.918;   13.475;  436.000;  405.000
402.046;  -16.250;  134.000;  122.000
402.173;  -47.450;  -18.000;    7.000
402.301;  -81.775; -519.000; -397.000
402.428;   35.500;  528.000;  383.000
402.556; -148.025;-1188.000; -913.000
402.683;  -44.625;  -20.000;   -1.000
402.811;  -27.750;  -37.000; -206.000
402.938;  -23.275;   20.000;   27.000
403.066;  -28.250; -574.000; -558.000
403.193;   70.550;  299.000;  239.000
403.321;   50.650; -396.000; -574.000
403.448;   95.375;   83.000;   27.000
403.575;   31.050;  -90.000;  -46.000
403.703;  -93.525; -732.000; -557.000
403.830;  -48.575; -531.000; -496.000
403.957; -129.125;-1117.000;-1023.000
404.085;   23.625;  -61.000; -172.000
404.212;  116.875;  -50.000;   63.000
404.339;  459.125; -566.000; -306.000
404.467; 9254.475; -612.000; -524.000
404.594; 5755.275; -287.000; -227.000
404.721;  969.850; -869.000; -764.000
404.848;  125.800; -113.000; -202.000
404.976;  -91.725; -856.000; -783.000
405.103;   -6.575;  -14.000;  -82.000
405.230;    5.950;  190.000;  226.000
405.357;   58.300;  117.000;   44.000
405.484;  437.800;  -49.000;    5.000
405.612;  139.275; -548.000; -563.000
405.739;  -63.100; -488.000; -243.000
405.866;   66.400;  669.000;  385.000
405.993;  -71.250; -398.000; -102.000
406.120; -130.900; -801.000; -887.000
406.247;  -75.025; -323.000; -342.000
406.374;   88.475;  540.000;  629.000
406.501;  -89.975; -632.000; -702.000
406.628;  -87.875; -621.000; -589.000
406.755; -125.625; -803.000; -620.000
406.882;  -57.975; -228.000; -277.000
407.009; -110.100; -719.000; -628.000
407.136;  -46.725; -480.000; -401.000
407.263;  -56.800; -939.000; -829.000
407.390;  -98.225; -692.000; -614.000
407.517; -183.925;-1139.000;-1187.000
407.644;  -76.250; -332.000; -256.000
407.771;  -76.150; -249.000; -287.000
407.898;   -1.750;  168.000;  328.000
408.025;  -84.250; -421.000; -313.000
408.151;  -14.650;   82.000;  153.000
408.278;  -62.525; -267.000; -216.000
408.405; -124.600; -931.000; -899.000
408.532; -100.650; -549.000; -542.000
408.659; -111.025; -677.000; -648.000
408.785; -187.525;-1298.000;-1170.000
408.912;  -62.025; -412.000; -296.000
409.039; -122.125; -610.000; -686.000
409.166;  -96.800; -591.000; -555.000
409.292; -104.975; -571.000; -534.000
409.419; -112.525; -665.000; -649.000
409.546;  -91.050; -431.000; -192.000
409.672; -107.625; -713.000; -545.000
409.799;  -49.175;  -36.000;   34.000
409.926;  -42.125; -180.000; -179.000
410.052; -190.825;-1127.000;-1091.000
410.179;  -68.200; -368.000; -392.000
410.305;  -88.550; -375.000; -493.000
410.432;  -30.075; -220.000; -333.000
410.558; -100.125; -305.000; -380.000
410.685;  -96.350; -688.000; -431.000
410.812; -104.200; -409.000; -588.000
410.938; -136.075; -964.000; -808.000
411.065; -115.075; -671.000; -645.000
411.191;  -45.625; -189.000; -174.000
411.317; -139.700; -823.000; -742.000
411.444;  -68.625; -317.000; -246.000
411.570;  -78.125; -339.000; -294.000
411.697; -121.000; -758.000; -752.000
411.823; -173.750; -989.000; -999.000
411.949;  -48.150;  -56.000;   17.000
412.076; -107.150; -539.000; -519.000
412.202; -122.325; -758.000; -757.000
412.329; -155.600; -798.000; -752.000
412.455; -120.325; -821.000; -657.000
412.581;  -43.350;  -15.000;  172.000
412.707;  -84.300; -540.000; -457.000
412.834;  -16.050;  156.000;  219.000
412.960; -113.150; -785.000; -784.000
413.086; -125.125; -743.000; -701.000
413.212;  105.425;  604.000;  578.000
413.339;  -99.225; -685.000; -701.000
413.465;  -65.975; -364.000; -310.000
413.591; -113.725; -757.000; -474.000
413.717;  -62.225; -358.000; -366.000
413.843; -138.025; -839.000; -861.000
413.969;  -54.500;  -47.000; -292.000
414.096; -107.025; -679.000; -679.000
414.222;  -19.275;  -33.000;   85.000
414.348;  -86.400; -652.000; -385.000
414.474;   -7.375;   38.000;  -52.000
414.600;  -23.925; -126.000; -144.000
414.726;   -4.050;  -96.000;  -55.000
414.852;  -43.200; -365.000; -342.000
414.978;   46.650;  104.000;  -18.000
415.104;   53.550;   38.000;   80.000
415.230;   57.500; -329.000; -330.000
415.356;   61.275; -409.000; -514.000
415.482;  230.825;   13.000;  -35.000
415.608;  427.175; -247.000; -323.000
415.734; 1365.275;   67.000;   38.000
415.860;28094.675; -875.000; -767.000
415.986;23707.200; -685.000; -607.000
416.111; 2240.775; -798.000; -652.000
416.237;  470.325; -424.000; -571.000
416.363; 1702.750; -765.000; -733.000
416.489; 7024.825; -324.000; -251.000
416.615; 1007.950; -707.000; -742.000
416.741;   43.850; -677.000; -784.000
416.866;  -59.050; -673.000; -736.000
416.992;  -89.725; -801.000; -818.000
417.118;  -20.350;  -41.000;  -80.000
417.244;  -76.425; -798.000; -531.000
417.369;  -76.250; -801.000; -612.000
417.495;   -1.575; -325.000; -254.000
417.621;  -75.025;-1015.000; -803.000
417.746;   15.900; -579.000; -572.000
417.872;   70.300; -254.000; -144.000
417.998;  140.275; -515.000; -530.000
418.123; 1553.225;-1073.000; -845.000
418.249; 8905.900; -512.000; -601.000
418.374; 1564.475; -916.000; -824.000
418.500;  252.125; -383.000; -482.000
418.626;  170.700;   70.000;  -59.000
418.751;  183.900; -549.000; -448.000
418.877;  333.750; -637.000; -643.000
419.002; 2628.125; -688.000; -560.000
419.128;20070.000; -930.000; -721.000
419.253; 5879.175; -967.000; -837.000
419.379;  830.875; -391.000; -338.000
419.504;  611.325;  325.000;  415.000
419.629;  863.075; -393.000; -212.000
419.755; 5422.750; -317.000; -254.000
419.880;35788.950;  -98.000;   67.000
420.006;18142.200; -280.000; -221.000
420.131;44898.975; -662.000; -775.000
420.256; 7421.750; -315.000; -316.000
420.382; 1016.200; -665.000; -687.000
420.507;  187.975; -649.000; -778.000
420.632;   45.175; -337.000; -339.000
420.758;   33.525; -251.000; -425.000
420.883;  -90.425; -876.000; -672.000
421.008;  -97.225; -775.000; -619.000
421.133;  -86.850; -509.000; -467.000
421.259;  -47.825; -325.000; -259.000
421.384; -121.350; -834.000; -693.000
421.509; -112.100;-1052.000; -862.000
421.634;  101.725; -936.000; -820.000
421.759;   72.450; -359.000; -327.000
421.885;  -96.900; -717.000; -656.000
422.010;  -89.200; -673.000; -542.000
422.135; -154.050; -695.000; -727.000
422.260;   25.650;  340.000;  280.000
422.385;  -46.000;   12.000;  -98.000
422.510;    4.150;  151.000;  -26.000
422.635;  -29.725;  -87.000;  -43.000
422.760;  -26.300; -766.000; -791.000
422.885;   21.275;  -57.000;  -80.000
423.010;  -20.425; -112.000; -169.000
423.135;  -94.400; -481.000; -561.000
423.260;  -40.975; -150.000; -245.000
423.385;   11.725;  476.000;  222.000
423.510;    4.100;   71.000;  -22.000
423.635;   -8.200;  133.000;   45.000
423.760;   50.025;  383.000;  328.000
423.885;   38.525;  336.000;  391.000
424.010;  -17.675;  -68.000;  -13.000
424.135;  -34.875;    5.000;  -33.000
424.259;  -60.075; -654.000; -457.000
424.384;  -49.250; -279.000; -272.000
424.509;  -13.825; -260.000; -186.000
424.634;  -86.550; -761.000; -623.000
424.759;  -28.200; -688.000; -544.000
424.883;    8.450; -506.000; -527.000
425.008;  210.725; -502.000; -410.000
425.133; 2956.850; -679.000; -653.000
425.258; 1634.425; -517.000; -381.000
425.382;  436.475; -867.000; -774.000
425.507;  960.025; -487.000; -543.000
425.632;  361.325; -802.000; -663.000
425.756;  710.325; -256.000; -146.000
425.881;10240.550; -831.000; -857.000
426.006;32242.375; -604.000; -355.000
426.130; 5441.000; -696.000; -508.000
426.255;  751.125; -611.000; -491.000
426.379;  296.675; -189.000; -577.000
426.504;  522.375;  660.000;  544.000
426.629; 5809.075; -519.000; -466.000
426.753; 4659.100;   64.000;  -46.000
426.878;  573.650; -252.000; -288.000
427.002;  334.475; -651.000; -668.000
427.127; 2085.725;  -35.000; -158.000
427.251;17734.625;  372.000;  401.000
427.375; 5931.125; -191.000; -173.000
427.500; 1210.425; -616.000; -610.000
427.624;  347.375; -234.000; -400.000
427.749;   84.900; -216.000; -225.000
427.873;  -17.650; -499.000; -412.000
427.997;  -50.100; -222.000; -230.000
428.122;   62.900;  795.000;  703.000
428.246;   29.200;  433.000;  434.000
428.371; -142.250; -869.000; -773.000
428.495; -109.375; -624.000; -646.000
428.619;  -57.125; -186.000; -117.000
428.743;    4.425;   65.000;  132.000
428.868;  -86.825; -732.000; -643.000
428.992;  350.000; -219.000; -326.000
429.116;  139.250; -329.000; -357.000
429.240;   95.850;  419.000;  426.000
429.365;  -43.750; -454.000; -574.000
429.489;  -51.200; -638.000; -647.000
429.613;   29.725; -236.000; -177.000
429.737;  104.925; -563.000; -432.000
429.861;  387.925; -247.000; -133.000
429.985; 8087.650; -425.000; -305.000
430.109;10552.750; -770.000; -908.000
430.234; 1319.175;   76.000;  -50.000
430.358;  188.900; -250.000; -160.000
430.482;  -30.800; -672.000; -564.000
430.606;  -77.425; -655.000; -375.000
430.730;  -46.500; -437.000; -388.000
430.854;  -84.800; -909.000; -835.000
430.978;  -80.175; -795.000; -764.000
431.102;  -93.000; -499.000; -422.000
431.226; -104.650; -874.000; -815.000
431.350;   15.775;  345.000;  422.000
431.474;  -77.450; -661.000; -373.000
431.597; -152.550;-1060.000; -848.000
431.721;  -81.300; -276.000; -267.000
431.845; -123.775; -704.000; -472.000
431.969;  -77.900; -304.000; -349.000
432.093;  -81.650; -395.000; -317.000
432.217;  -24.175;   32.000;   82.000
432.341;  -96.725; -523.000; -518.000
432.464;   -1.750;   96.000;   40.000
432.588;  -42.225; -401.000; -329.000
432.712;   19.400;  -52.000;  -52.000
432.836;   59.825;  213.000;  263.000
432.959;   33.775; -372.000; -311.000
433.083;  170.850;   11.000;    2.000
433.207;  576.175;  285.000;  930.000
433.330; 7767.300; -391.000; -200.000
433.454;11019.225; -654.000; -638.000
433.578; 6052.000;  583.000;  278.000
433.701; 1364.175; -623.000; -675.000
433.825;  162.500; -292.000; -299.000
433.949;   42.025;   28.000;  -72.000
434.072;  -16.600; -410.000; -323.000
434.196;    0.225; -309.000; -117.000
434.319; 3434.150;25482.000;25124.000
434.443;  892.350; -656.000; -603.000
434.566; 4224.875;  281.000;   62.000
434.690;  965.225; -637.000; -383.000
434.813;  173.750; -251.000; -173.000
434.937;  -16.725; -569.000; -696.000
435.060;  -77.125; -423.000; -332.000
435.184;  -17.375; -492.000; -217.000
435.307;   21.100;  159.000;  102.000
435.431;  -24.950;  -40.000;   24.000
435.554;  -83.875; -399.000; -240.000
435.677;  -73.075; -350.000; -258.000
435.801;  -42.450;  -25.000;   49.000
435.924;  -29.675;    1.000;  -67.000
436.048; -152.525;-1019.000; -732.000
436.171;  -81.100; -240.000;  -66.000
436.294;  -11.575; -248.000; -229.000
436.417;  241.350; -963.000; -849.000
436.541;  -20.275; -814.000; -840.000
436.664;  -36.700; -242.000; -316.000
436.787;  -35.425;   13.000;  113.000
436.910; -108.700; -792.000; -422.000
437.034;  -16.675;  142.000;  143.000
437.157;   20.975;  -11.000;    0.000
437.280;  -88.050; -392.000; -292.000
437.403; -155.100; -982.000; -869.000
437.526;  -23.550; -903.000; -865.000
437.649;  372.025; -505.000; -332.000
437.772;  -28.600; -692.000; -540.000
437.896;   40.750;  700.000;  544.000
438.019; -102.375; -758.000; -503.000
438.142;  -92.200; -596.000; -506.000
438.265; -127.600; -639.000; -670.000
438.388;    8.700; -520.000; -410.000
438.511;  -86.300; -597.000; -394.000
438.634;  -61.525; -247.000; -125.000
438.757; -139.250; -693.000; -619.000
438.880;  -50.325;  -34.000;  -57.000
439.003; -104.600; -417.000; -437.000
439.126;  -65.000; -287.000; -167.000
439.248;  -72.775;  -98.000; -139.000
439.371;  -43.500;    9.000;  -53.000
439.494;   10.875;  510.000;  439.000
439.617;  -57.050;   65.000;  -88.000
439.740; -168.425; -968.000; -816.000
439.863; -139.375; -755.000; -595.000
439.986; -118.000; -476.000; -431.000
440.108;  -30.350; -161.000; -112.000
440.231; -167.675; -950.000; -836.000
440.354;  -40.350;  -64.000; -150.000
440.477; -116.900; -566.000; -542.000
440.599;  -74.925; -200.000; -225.000
440.722; -123.100; -709.000; -586.000
440.845;   64.875;  751.000;  928.000
440.968; -114.850; -415.000; -311.000
441.090;  -59.250; -199.000;  -33.000
441.213; -166.950;-1021.000; -825.000
441.336;  -47.000; -159.000;   -5.000
441.458;  -96.750; -549.000; -396.000
441.581; -130.250; -628.000; -629.000
441.703;  -80.925; -152.000;   13.000
441.826; -107.425; -557.000; -400.000
441.948;  -53.600;   56.000;   51.000
442.071;   12.125;  555.000;  424.000
442.193; -126.225; -531.000; -485.000
442.316;    1.150;  152.000;   97.000
442.438;   82.425; -233.000;  -10.000
442.561;   71.675;  272.000;  262.000
442.683;   31.100; -809.000; -522.000
442.806;  195.100;   -8.000;   74.000
442.928; -119.500; -859.000; -604.000
443.051;  -87.575; -577.000; -373.000
443.173; -102.800; -341.000; -339.000
443.295;  -85.975; -263.000; -371.000
443.418;  -80.200; -321.000;  -29.000
443.540;  -42.350; -106.000;   -4.000
443.662; -125.225; -563.000; -465.000
443.785;  -14.225;  335.000;  199.000
443.907; -103.125; -362.000; -208.000
444.029; -126.275; -767.000; -494.000
444.152; -141.450; -644.000; -554.000
444.274;  -39.875;  -18.000;  -24.000
444.396; -125.125; -461.000; -221.000
444.518; -115.900; -691.000; -454.000
444.640; -112.350; -268.000; -111.000
444.763;  -27.925;  388.000;  249.000
444.885; -126.900; -432.000; -392.000
445.007;  -33.125;   35.000;   86.000
445.129; -118.550; -610.000; -515.000
445.251; -105.975; -372.000; -439.000
445.373; -150.250; -537.000; -386.000
445.495;  -21.050;  242.000;  350.000
445.617;   27.775;  853.000;  753.000
445.739;  -90.600; -215.000;  -97.000
445.861;  -66.650; -245.000; -112.000
445.984;  -70.400; -267.000; -101.000
446.105;  -34.375; -418.000; -251.000
446.227;   75.825; -176.000;  -19.000
446.349;  -97.150; -358.000; -249.000
446.471; -122.100; -615.000; -448.000
446.593; -100.275; -316.000;   19.000
446.715;  -39.425;  -67.000;   41.000
446.837;   33.275;  697.000;  832.000
446.959;  -99.175; -457.000; -478.000
447.081; -138.150; -628.000; -518.000
447.203;   56.725;  862.000;  834.000
447.325;  -88.175; -270.000;   42.000
447.446;    5.925;  286.000;  530.000
447.568; -153.300; -921.000; -803.000
447.690;  -97.950; -236.000; -245.000
447.812; -153.225; -798.000; -519.000
447.933;  -39.250;  155.000;  127.000
448.055;  -82.025; -306.000; -261.000
448.177;    6.275;   31.000;   79.000
448.299; -101.650; -935.000; -727.000
448.420;  -13.275;  -25.000;  159.000
448.542;  -71.050;   -3.000;   33.000
448.664;  -30.650;  109.000;  322.000
448.785;  -38.075;  265.000;   83.000
448.907;  -93.250; -614.000; -353.000
449.028; -123.150; -771.000; -471.000
449.150;   37.950;  492.000;  589.000
449.272; -175.950;-1044.000; -913.000
449.393;   31.600;  612.000;  694.000
449.515; -139.025; -634.000; -581.000
449.636;  -59.375; -264.000; -155.000
449.758;   54.725;  763.000;  622.000
449.879;  -91.325; -498.000; -396.000
450.001;  -81.250; -149.000;  -49.000
450.122;  -26.000;  -95.000;  162.000
450.244;    1.725;   37.000;  364.000
450.365;  -57.350; -495.000; -301.000
450.486;   -2.200;   80.000;  268.000
450.608;   54.525;  393.000;  326.000
450.729;  104.075;  578.000;  645.000
450.850;  113.525; -574.000; -466.000
450.972; 1250.350; -552.000; -389.000
451.093; 8226.125;  190.000;  588.000
451.214; 4318.825; -516.000; -337.000
451.336;  747.275;  773.000;  579.000
451.457;  118.300;  264.000;  393.000
451.578;  -25.425; -118.000;  -74.000
451.699; -112.850; -546.000; -540.000
451.821;  -54.000; -284.000;  -50.000
451.942;   15.450;  278.000;  285.000
452.063;   56.475;  228.000;  419.000
452.184;  838.325;  -54.000;  -49.000
452.305; 1844.300;  103.000;  170.000
452.427;  372.475; -549.000; -301.000
452.548;   20.175;   23.000;   79.000
452.669;  -64.425; -257.000;  -89.000
452.790;  -63.950;    3.000;  -18.000
452.911;  -17.150;  195.000;  259.000
453.032;  -77.325; -289.000;  -60.000
453.153;  -55.300;  -29.000;   81.000
453.274;   55.025;  737.000;  868.000
453.395;  -67.125;  -51.000;  175.000
453.516;   95.450; 1317.000; 1388.000
453.637;  -91.425; -205.000; -150.000
453.758;  -54.575;   15.000;   69.000
453.879; -120.900; -462.000; -250.000
454.000;   61.900; 1086.000;  948.000
454.121; -134.675; -554.000; -326.000
454.242; -116.625; -599.000; -383.000
454.362;  -60.325;  -99.000;  114.000
454.483;   -2.125; -309.000; -229.000
454.604;   59.125;  512.000;  580.000
454.725; -119.800; -627.000; -555.000
454.846; -125.375; -474.000; -406.000
454.967;  -15.925;  230.000;  539.000
455.087;  -45.000;  179.000;  153.000
455.208;    5.825;  554.000;  856.000
455.329;  -54.225;  -22.000;   82.000
455.450;   64.450;  473.000;  633.000
455.570;  -63.575; -234.000; -211.000
455.691;  -23.625;  201.000;  407.000
455.812; -100.800; -270.000;  -92.000
455.932;  -55.350;  107.000;  -97.000
456.053;  -70.150;   36.000;   24.000
456.173;  -97.825; -433.000; -355.000
456.294; -138.550; -476.000; -303.000
456.415;  -54.125;  -73.000;   70.000
456.535;  -44.850;  297.000;  273.000
456.656;  -44.150;  132.000;  240.000
456.776;  -68.800;    3.000;  298.000
456.897;   -3.150;  308.000;  513.000
457.017;  -66.075; -153.000;   -3.000
457.138; -106.025; -402.000; -249.000
457.258;  -34.600;  263.000;  224.000
457.379;  -11.350;  509.000;  521.000
457.499;  -44.300;  443.000;  432.000
457.620; -112.925; -407.000; -231.000
457.740; -105.900; -132.000;  -11.000
457.860;  -52.025;   87.000;   44.000
457.981;  -30.500;  132.000;  124.000
458.101;  -63.775;  -89.000;   40.000
458.221;  -19.350;  336.000;  402.000
458.342;  -57.525;   -4.000;  -37.000
458.462;   39.200;  617.000;  352.000
458.582;   25.300; -302.000; -294.000
458.703;   71.175;  303.000;  154.000
458.823;   19.300;   22.000;  163.000
458.943;   49.400;  341.000;  467.000
459.063;   16.500; 1124.000;  192.000
459.183;  -12.475;  328.000;  313.000
459.304;   18.275;  315.000;  517.000
459.424;  -51.775; -246.000;  -89.000
459.544;  477.325;  388.000;  764.000
459.664; 1341.325;  499.000;  506.000
459.784;  547.500; 1004.000; 1175.000
459.904;   68.300;  867.000;  744.000
460.024;   63.750;  867.000;  684.000
460.144;  -15.275;  449.000;  554.000
460.264;  -19.000;  515.000;  327.000
460.385;  -97.300; -145.000; -119.000
460.505;   27.950;  905.000;  858.000
460.625; -102.575;  -17.000;  -68.000
460.745;   -4.600;  396.000;  541.000
460.864;  -37.075;  153.000;  469.000
460.984;   30.550;  499.000;  573.000
461.104;  142.475; 1656.000; 1775.000
461.224;   18.675;  657.000;  650.000
461.344;  -47.500;  431.000;  360.000
461.464;  -27.775;  258.000;  513.000
461.584;  -37.750;  283.000;  466.000
461.704;  -72.450;   58.000;  108.000
461.824;  -73.575;  238.000;  259.000
461.943;  -47.800;  191.000;  130.000
462.063;  -75.675;    2.000;  324.000
462.183;   14.175;  639.000;  717.000
462.303;   82.850; 1678.000; 1230.000
462.422;   44.600;  781.000;  840.000
462.542;  -41.075;  271.000;  391.000
462.662;   43.750;  353.000;  380.000
462.782;  329.325;  833.000;  572.000
462.901;  757.825;  545.000;  717.000
463.021;  410.050; 1702.000; 1638.000
463.141;   26.900;  337.000;  770.000
463.260;  -16.275;  614.000;  474.000
463.380;   10.075;  902.000;  884.000
463.499;  -34.125;  342.000;  332.000
463.619;  -23.200;  581.000;  559.000
463.738;   87.125; 1644.000;  903.000
463.858;   25.425;  657.000;  811.000
463.978;  -32.500;  542.000;  396.000
464.097;   51.475;  921.000; 1114.000
464.217;  158.225; 1196.000; 1143.000
464.336;  159.025; 1068.000; 1130.000
464.455;  -31.750;  328.000;  659.000
464.575;   16.575;  597.000;  602.000
464.694;  123.375; 1204.000; 1179.000
464.814;  143.625; 1190.000; 1138.000
464.933;   85.450; 1095.000; 1027.000
465.052;   97.450; 1412.000; 1054.000
465.172;   60.500;  922.000;  799.000
465.291;  124.725; 1376.000; 1320.000
465.410;   10.925;  462.000;  735.000
465.530;   75.575; 1355.000; 1310.000
465.649;   51.000; 1209.000; 1273.000
465.768;  135.700; 1673.000; 1508.000
465.888;   70.300;  941.000; 1174.000
466.007;   85.800; 1335.000; 1440.000
466.126;    2.175;  721.000;  641.000
466.245;   27.900; 1176.000; 1187.000
466.364;   12.500;  950.000; 1060.000
466.484;   48.275; 1024.000; 1213.000
466.603;   12.500; 1101.000; 1222.000
466.722;  107.675; 1490.000; 1769.000
466.841;   56.800; 1151.000; 1401.000
466.960;   36.800; 1069.000;  972.000
467.079;  133.375; 1971.000; 1786.000
467.198;   59.975; 1238.000; 1181.000
467.317;   82.800; 1768.000; 1162.000
467.436;   71.000; 1709.000; 1261.000
467.555;  115.175; 1796.000; 1746.000
467.674;   76.350; 1227.000; 1329.000
467.793;   51.125; 1376.000; 1374.000
467.912;   85.750; 1658.000; 1539.000
468.031;  109.225; 2038.000; 1930.000
468.150;  120.750; 1842.000; 1837.000
468.269;  177.675; 2313.000; 2090.000
468.388;  185.000; 2168.000; 2339.000
468.507;  243.525; 2884.000; 2903.000
468.626;  223.425; 2555.000; 2541.000
468.744;  144.925; 2018.000; 2174.000
468.863;  217.825; 2312.000; 2523.000
468.982;   87.050; 1503.000; 1555.000
469.101;  227.475; 2788.000; 2692.000
469.220;  145.150; 2333.000; 2176.000
469.338;  245.500; 2935.000; 3051.000
469.457;  200.125; 2719.000; 2545.000
469.576;  352.325; 3953.000; 3784.000
469.695;  234.450; 2877.000; 3066.000
469.813;  395.500; 4148.000; 4192.000
469.932;  411.100; 4255.000; 4485.000
470.051;  453.900; 4075.000; 4161.000
470.169; 1036.900; 4470.000; 4338.000
470.288; 2096.725; 4700.000; 4809.000
470.406; 1217.625; 5059.000; 5194.000
470.525;  675.250; 6101.000; 5787.000
470.644;  634.375; 6847.000; 6794.000
470.762;  807.800; 8397.000; 7873.000
470.881;  908.075; 8651.000; 8464.000
470.999; 1043.000; 9685.000; 9151.000
471.118; 1101.275;11174.000;10711.000

