
Integration time [ms]: 100.000
Averaging Nr. [scans]: 40
Smoothing Nr. [pixels]: 0
Data measured with spectrometer [name]: 2101012U2
Wave   ;Sample   ;Dark     ;Reference
[nm]   ;[counts] ;[counts] ;[counts] 

197.733;   54.075;  516.000;  404.000
197.879;  -72.450; -610.000; -634.000
198.025;  -32.925; -475.000; -420.000
198.171;  -54.875; -602.000; -612.000
198.317;  -15.150; -401.000; -316.000
198.463;  -58.000; -655.000; -404.000
198.609;   22.400;  181.000; -137.000
198.755;  -71.450; -644.000; -410.000
198.901;  -39.050; -505.000; -424.000
199.047;  -52.075; -615.000; -488.000
199.193;  -30.500; -230.000; -468.000
199.339;  -31.325; -222.000; -369.000
199.485;   37.700;  330.000;  271.000
199.631;    9.125;  227.000;  310.000
199.777;  -38.125; -466.000; -398.000
199.923;  -65.600; -610.000; -424.000
200.069;    4.125; -141.000;  -58.000
200.215;   55.025;  128.000;  453.000
200.361;   39.300;  243.000;  477.000
200.507;  -51.350; -600.000; -373.000
200.653;  -30.325; -371.000; -194.000
200.798;  -48.700; -215.000; -125.000
200.944;   10.800; -146.000;  -41.000
201.090;   35.150;   61.000;  222.000
201.236;   -4.250; -116.000; -158.000
201.382;  121.300;  874.000;  903.000
201.528;   13.725;  -58.000;  -48.000
201.674;  -52.825; -386.000; -293.000
201.819;  -53.400; -540.000; -439.000
201.965;  -68.600; -699.000; -447.000
202.111;  -22.325; -273.000; -226.000
202.257;  -36.125; -250.000; -238.000
202.402;   -2.225;   13.000;  -36.000
202.548;  -25.175; -169.000; -116.000
202.694;   77.200;  410.000; -183.000
202.840;  -60.275; -603.000; -531.000
202.985;  -62.375; -681.000; -639.000
203.131;  -91.150; -832.000; -666.000
203.277;  -18.975; -199.000; -262.000
203.423;  -50.550; -434.000; -520.000
203.568;  -35.725; -462.000; -237.000
203.714;  -64.575; -535.000; -542.000
203.860;  -65.575; -682.000; -641.000
204.005;    5.700;  112.000;  167.000
204.151;   73.175;  561.000;  556.000
204.296;  -34.125; -354.000; -221.000
204.442;  -71.175; -600.000; -547.000
204.588;  -64.750; -592.000; -579.000
204.733;   19.350;  178.000;  168.000
204.879; -116.725;-1018.000; -822.000
205.025;    8.775;  -99.000;  126.000
205.170;    4.275;  -17.000;   94.000
205.316;   83.725;  438.000;  661.000
205.461;  -64.275; -698.000; -554.000
205.607;   93.400;  609.000;  665.000
205.752;  -58.100; -626.000; -551.000
205.898;  -42.400; -501.000; -391.000
206.043;  -56.500; -578.000; -506.000
206.189;  -32.125; -243.000; -285.000
206.334;   72.400;  554.000;  606.000
206.480;   78.975;  409.000;  239.000
206.625;  -75.275; -529.000; -552.000
206.771;  -39.100; -451.000; -373.000
206.916;  -23.850; -210.000; -537.000
207.062;  -51.750; -545.000; -591.000
207.207;  -61.275; -546.000; -443.000
207.353;   43.525;  185.000;  460.000
207.498;    5.000;  196.000;   85.000
207.643;  -36.650; -501.000; -370.000
207.789; -118.325;-1069.000; -910.000
207.934;  -84.300; -665.000; -713.000
208.080;  -23.000; -154.000;   66.000
208.225;   -4.800;  -22.000;  -57.000
208.370;  -73.375; -727.000; -619.000
208.516;  -63.175; -741.000; -487.000
208.661;  -18.900; -127.000;  -69.000
208.806;  -14.200; -165.000; -171.000
208.952; -105.275;-1044.000; -731.000
209.097;   60.650;  378.000;  349.000
209.242;  -35.050; -307.000; -382.000
209.387;   79.050;  392.000;  350.000
209.533;  -49.000; -321.000; -350.000
209.678;   75.750;  472.000;  543.000
209.823;  -50.150; -408.000; -310.000
209.969;  -76.425; -860.000; -757.000
210.114;  -93.675; -907.000; -719.000
210.259;  -94.400; -939.000; -889.000
210.404;    5.325; -171.000;  103.000
210.549;   12.650;  108.000;    3.000
210.695;  -11.100;   -3.000;  -95.000
210.840;   29.200;   94.000;   67.000
210.985;  -57.950; -484.000; -303.000
211.130;   66.775;  268.000;  406.000
211.275;   17.250;  207.000;  199.000
211.420;  -44.000; -300.000; -289.000
211.566;  -61.925; -536.000; -489.000
211.711;   29.800;  218.000;  157.000
211.856;  -52.200; -545.000; -519.000
212.001;   14.600;  151.000;   44.000
212.146;   25.000;  153.000;   49.000
212.291;   -8.425; -210.000; -186.000
212.436;  -22.200; -280.000;   -6.000
212.581;  -68.100; -685.000; -653.000
212.726;  -61.250; -487.000; -538.000
212.871;  -40.525; -552.000; -217.000
213.016; -139.550;-1172.000;-1029.000
213.161;   63.550;  406.000;  291.000
213.306;  -58.475; -435.000; -577.000
213.451;  -85.225; -778.000; -689.000
213.596;  -47.300; -455.000; -347.000
213.741;  -48.900; -448.000; -538.000
213.886;  -67.050; -498.000; -517.000
214.031;  -24.450; -294.000; -124.000
214.176;  -47.150; -408.000; -341.000
214.321;   -6.900; -296.000; -157.000
214.466;  -28.700; -163.000;  -43.000
214.611;    4.275;  -61.000;  -10.000
214.756; -112.350; -948.000; -858.000
214.901;   -7.625; -388.000; -226.000
215.046; -116.150; -797.000; -825.000
215.191;   23.150;  128.000;   35.000
215.336;    1.300; -157.000;  -19.000
215.480;  -60.650; -684.000; -505.000
215.625;   -4.250; -175.000;  -19.000
215.770;  -71.475; -757.000; -662.000
215.915;  -14.075;   -5.000;  -97.000
216.060;   11.900; -113.000;  -21.000
216.205;  -98.250; -731.000; -779.000
216.349;  -61.075; -470.000; -533.000
216.494; -122.550; -939.000; -867.000
216.639;  -96.600; -823.000; -888.000
216.784;  -79.500; -577.000; -525.000
216.929;   52.100;  392.000;  281.000
217.073;   -9.625; -244.000;  -31.000
217.218;   18.725;   78.000;  -47.000
217.363;  -74.350; -656.000; -618.000
217.507;  -75.525; -623.000; -588.000
217.652; -126.050; -845.000; -874.000
217.797;  -77.350; -708.000; -659.000
217.942; -108.600; -856.000; -720.000
218.086;   87.650;  608.000;  539.000
218.231;  -16.275; -174.000;  -26.000
218.376;  -19.225; -337.000; -229.000
218.520;    0.875;  -41.000;   96.000
218.665;  -14.825; -338.000; -204.000
218.810;  -35.250; -275.000; -233.000
218.954;   26.000;  201.000;   35.000
219.099; -106.225; -713.000; -963.000
219.243;  -56.375; -589.000; -554.000
219.388;  -34.825; -264.000; -136.000
219.532;    0.625; -116.000; -116.000
219.677;  -70.550; -564.000; -521.000
219.822;    5.175;   33.000;   89.000
219.966;    0.075;   17.000;  -99.000
220.111;  -38.825; -328.000;  -40.000
220.255;  -92.925; -797.000; -750.000
220.400;  -13.350; -180.000; -146.000
220.544;  -72.050; -516.000; -450.000
220.689;  -47.125; -422.000; -451.000
220.833;  -21.025; -123.000;  -58.000
220.978;  -38.675; -393.000; -563.000
221.122;   11.625;  319.000;  307.000
221.267; -118.425; -906.000; -837.000
221.411;  -58.875; -478.000; -394.000
221.555;    5.700; -104.000;  -23.000
221.700;  -54.925; -329.000; -222.000
221.844;   41.425;  255.000;  272.000
221.989;  -47.175; -328.000; -311.000
222.133;  -27.150; -289.000; -307.000
222.277;   -3.000;    5.000;   78.000
222.422;    9.550;  227.000;  113.000
222.566;  -30.375; -381.000; -214.000
222.711;  -44.225; -414.000; -479.000
222.855;  -79.725; -643.000; -586.000
222.999;  -74.425; -642.000; -717.000
223.144;  -26.450; -195.000; -194.000
223.288;   68.900;  423.000;  251.000
223.432;   23.450;  184.000;  230.000
223.576;   21.050;  152.000;  -21.000
223.721;   42.175;  364.000;  273.000
223.865;  -49.075; -472.000; -475.000
224.009;  236.275; 1673.000; 1631.000
224.153;  -60.050; -660.000; -671.000
224.298;  -54.400; -531.000; -489.000
224.442;  -20.275;  -74.000;  -33.000
224.586;    5.750; -169.000; -106.000
224.730;  -88.350; -858.000; -670.000
224.875; -109.950; -739.000; -688.000
225.019;   13.525;  102.000;  188.000
225.163;   48.975;  208.000;  341.000
225.307;   20.650;   97.000;  -91.000
225.451;   50.025;  360.000;  481.000
225.595;   51.000;  264.000;  176.000
225.739;  -24.625; -170.000;  -94.000
225.884;   13.050;   86.000;    5.000
226.028;  -83.025; -760.000; -626.000
226.172;  -22.425; -260.000; -273.000
226.316; -105.325; -941.000; -902.000
226.460;  -57.600; -645.000; -493.000
226.604;  -46.225; -406.000; -400.000
226.748;  -84.475; -836.000; -733.000
226.892;  -36.525; -227.000; -181.000
227.036;  -26.700; -537.000; -447.000
227.180;  -58.875; -551.000; -375.000
227.324;  -57.000; -561.000; -580.000
227.468; -109.425; -819.000; -717.000
227.612;    9.575;  242.000;  -28.000
227.756;  -92.800; -845.000; -698.000
227.900;   56.575;  342.000;  441.000
228.044;  -56.575; -509.000; -290.000
228.188;   57.850;  448.000;  568.000
228.332;  -70.025; -546.000; -472.000
228.476;  -14.325; -223.000; -149.000
228.620;  -37.050; -210.000; -150.000
228.764;   79.050;  431.000;  349.000
228.908;  -21.075; -155.000;   30.000
229.052;  -51.100; -615.000; -528.000
229.195;  -15.125; -172.000;   13.000
229.339;  -12.125; -235.000; -305.000
229.483;  -20.575;    5.000; -162.000
229.627;   -0.900; -156.000;  139.000
229.771;  -46.300; -218.000; -294.000
229.915;   10.725;  230.000;   79.000
230.059;  -74.125; -648.000; -663.000
230.202;  -25.900; -370.000; -317.000
230.346;  -31.000; -107.000;  107.000
230.490;  -53.950; -489.000; -521.000
230.634; -103.375; -736.000; -553.000
230.777;   77.425;  478.000;  509.000
230.921;  -59.100; -450.000; -359.000
231.065;  -27.275; -246.000; -286.000
231.209;   13.850;  261.000;  265.000
231.352;   21.025;   54.000;   40.000
231.496;   26.350;  568.000;  188.000
231.640;  -84.875; -693.000; -621.000
231.783;   45.650;  546.000;  525.000
231.927;  -33.100; -294.000; -365.000
232.071; -113.050; -962.000; -736.000
232.214; -114.025; -980.000; -764.000
232.358;  -90.375; -683.000; -599.000
232.502;    0.725;  -19.000;    7.000
232.645; -121.025;-1090.000; -927.000
232.789;  -14.500; -257.000; -218.000
232.933;  -46.375; -407.000; -224.000
233.076; -114.875;-1038.000; -897.000
233.220;  -97.525; -752.000; -777.000
233.363;  -74.525; -669.000; -477.000
233.507;   43.675;  371.000;  129.000
233.650;  -90.850; -764.000; -834.000
233.794;   46.025;  438.000;  461.000
233.938;  -50.000; -530.000; -362.000
234.081;  -25.550;  -93.000;   31.000
234.225;  -64.175; -631.000; -539.000
234.368; -101.625; -773.000; -723.000
234.512;  -34.600; -385.000; -299.000
234.655;  -90.575; -582.000; -555.000
234.798;  -55.550; -493.000; -466.000
234.942; -128.075; -884.000;-1002.000
235.085;  -71.075; -651.000; -443.000
235.229;  -66.575; -405.000; -410.000
235.372;  -40.900; -247.000; -191.000
235.516;  -49.175; -397.000; -321.000
235.659;   15.100;   92.000;  121.000
235.802;  -16.050;  -38.000;  -22.000
235.946;   36.200;  335.000;  215.000
236.089;   23.150;  126.000;  250.000
236.233;   44.275;  275.000;  298.000
236.376;  -42.025; -235.000; -378.000
236.519;  -51.325; -297.000; -319.000
236.663;  -27.100; -215.000; -117.000
236.806; -114.800;-1029.000; -999.000
236.949;   77.150;  543.000;  431.000
237.092;   57.000;  412.000;  391.000
237.236;  -84.200; -589.000; -502.000
237.379;   64.325;  352.000;  428.000
237.522; -125.925; -879.000; -768.000
237.666;  -13.225; -271.000;   18.000
237.809; -110.750; -851.000; -823.000
237.952;   45.700;  469.000;  271.000
238.095;  -60.225; -447.000; -442.000
238.238;   88.475;  688.000;  700.000
238.382;   -0.125;  166.000;  103.000
238.525;  -65.050; -598.000; -511.000
238.668; -128.050;-1060.000; -985.000
238.811;  -72.700; -638.000; -643.000
238.954;  -54.100; -483.000; -334.000
239.097;   86.400;  617.000;  664.000
239.241;   19.650;  394.000;  326.000
239.384;  -32.850; -254.000; -214.000
239.527;  -63.425; -424.000; -224.000
239.670; -137.050; -994.000;-1091.000
239.813; -114.675; -696.000; -658.000
239.956;   79.000;  579.000;  473.000
240.099;  -99.225; -778.000; -725.000
240.242;   60.325;  428.000;  432.000
240.385;   36.950;  466.000;  450.000
240.528;  -66.100; -706.000; -473.000
240.671;   22.275;  189.000;  134.000
240.814;  -42.850; -441.000; -158.000
240.957;  -93.625; -767.000; -578.000
241.100;  -76.300; -779.000; -755.000
241.243; -129.150;-1234.000; -893.000
241.386;  -67.250; -508.000; -379.000
241.529;  -79.325; -735.000; -547.000
241.672;  -56.300; -566.000; -495.000
241.815; -102.325; -832.000; -808.000
241.958;   -1.900; -125.000; -182.000
242.101;  -62.300; -545.000; -390.000
242.244;  -27.925; -270.000; -325.000
242.387;  -42.000; -304.000; -246.000
242.530;   56.875;  470.000;  134.000
242.673;  -43.425; -381.000; -309.000
242.815;  -99.525; -925.000; -899.000
242.958;  -64.925; -482.000; -381.000
243.101;   11.400;  132.000;  187.000
243.244;  -70.825; -564.000; -521.000
243.387;  -34.475; -313.000; -316.000
243.530;  -88.050; -657.000; -674.000
243.672;   11.550;   43.000;  -92.000
243.815;  -33.600; -355.000; -283.000
243.958;   -6.025;   98.000;  -26.000
244.101;   -9.075;   59.000;  -16.000
244.243;  -11.850;  -47.000;  101.000
244.386; -110.550; -761.000; -630.000
244.529;  -20.050; -132.000; -139.000
244.672; -142.775;-1154.000; -951.000
244.814;  -78.025; -621.000; -794.000
244.957;  -41.975; -380.000; -304.000
245.100;  -70.800; -489.000; -489.000
245.242;  -66.800; -387.000; -374.000
245.385;    4.525;  -59.000;  -39.000
245.528; -106.050; -871.000; -705.000
245.670;   88.500;  612.000;  634.000
245.813;  -70.900; -599.000; -547.000
245.956;  -27.150; -324.000; -275.000
246.098;  -71.250; -508.000; -650.000
246.241;   11.550;  194.000;   48.000
246.383;  -26.150; -119.000;  -73.000
246.526;  -78.325; -454.000; -525.000
246.669; -109.800; -889.000; -780.000
246.811;   28.800;  172.000;   -1.000
246.954;  -60.575; -512.000; -426.000
247.096;   -9.450;  -84.000;   -6.000
247.239;  -78.875; -482.000; -445.000
247.381;  -77.725; -647.000; -488.000
247.524;   68.725;  645.000;  679.000
247.666;   -9.350;   58.000;   11.000
247.809; -107.675; -887.000; -691.000
247.951;   -8.200;  -75.000;  138.000
248.094;   24.475;  432.000;  308.000
248.236; -137.050;-1262.000;-1238.000
248.378;  -28.975; -356.000;  -81.000
248.521;  -31.225; -334.000; -337.000
248.663;  -48.350; -236.000; -267.000
248.806;  -37.175; -300.000; -266.000
248.948;  -96.075; -886.000; -763.000
249.090;  -64.575; -428.000; -398.000
249.233;  -53.300; -344.000; -381.000
249.375;  -60.925; -474.000; -451.000
249.518;   -6.250;  -83.000; -133.000
249.660;   -5.450; -103.000;    3.000
249.802; -162.750;-1303.000;-1189.000
249.945;  -67.725; -612.000; -540.000
250.087; -111.900; -834.000; -768.000
250.229;  -38.375; -362.000; -480.000
250.371;  -63.575; -494.000; -439.000
250.514;  -37.225; -310.000; -244.000
250.656;   -1.325;   69.000;  102.000
250.798; -106.800; -849.000; -800.000
250.940;  -47.650; -322.000; -322.000
251.083;  -28.150; -335.000; -111.000
251.225;   61.975;  338.000;  310.000
251.367;  -37.150; -274.000; -373.000
251.509;  -23.325; -265.000; -210.000
251.651;  -79.925; -731.000; -671.000
251.794;   48.300;  538.000;  632.000
251.936; -100.125; -821.000; -747.000
252.078;  -67.900; -540.000; -461.000
252.220;  -66.450; -645.000; -477.000
252.362;   45.575;  344.000;  462.000
252.504;  -62.725; -677.000; -584.000
252.646; -109.125; -875.000; -722.000
252.788;   -1.925;   14.000; -128.000
252.931;  -47.975; -257.000; -253.000
253.073;  -30.250; -376.000; -317.000
253.215;   -9.300;  141.000;  122.000
253.357;   -5.800;   82.000; -153.000
253.499;  -57.000; -374.000; -234.000
253.641;  -80.900; -749.000; -594.000
253.783;  -88.150; -609.000; -527.000
253.925;  -70.450; -586.000; -591.000
254.067; -102.025; -744.000; -667.000
254.209;  -24.000; -391.000; -259.000
254.351; -133.775; -865.000; -883.000
254.493;  -55.875; -441.000; -417.000
254.635; -128.275; -936.000; -818.000
254.777;  -83.625; -752.000; -687.000
254.918;  -62.100; -512.000; -430.000
255.060;  -60.075; -551.000; -395.000
255.202;  -55.175; -473.000; -261.000
255.344;  -73.075; -658.000; -455.000
255.486;  -69.850; -471.000; -406.000
255.628;  -90.000; -780.000; -781.000
255.770;  -71.375; -676.000; -536.000
255.912;  -49.775; -559.000; -468.000
256.053;  -77.900; -730.000; -508.000
256.195;  137.700; 1008.000;  903.000
256.337;  -86.775; -861.000; -595.000
256.479;   76.300;  532.000;  416.000
256.621;  -34.850; -394.000; -212.000
256.762;  -80.425; -789.000; -742.000
256.904;   50.750;  485.000;  487.000
257.046;  -24.425; -381.000; -271.000
257.188;  -48.225; -351.000; -264.000
257.329;  -65.625; -525.000; -464.000
257.471; -105.525; -939.000; -807.000
257.613;  -48.625; -584.000; -498.000
257.755; -139.875;-1073.000; -982.000
257.896;   28.275;  286.000;  392.000
258.038;  -61.125; -403.000; -352.000
258.180;  -30.925; -354.000; -279.000
258.321;  -76.250; -581.000; -457.000
258.463;    3.500;  -71.000;  133.000
258.605;  -84.775; -562.000; -570.000
258.746;  -91.650; -886.000; -772.000
258.888; -146.950;-1026.000;-1020.000
259.029;   29.650;  121.000;   -8.000
259.171;  -87.800; -614.000; -550.000
259.313;   -7.300;  -49.000;  -47.000
259.454;  -67.000; -536.000; -414.000
259.596;  -49.925; -483.000; -390.000
259.737;  -70.450; -590.000; -474.000
259.879;   34.125;  217.000;  311.000
260.020;   77.100;  901.000;  636.000
260.162;  -24.750; -146.000; -253.000
260.303; -100.050; -768.000; -687.000
260.445;  -72.250; -609.000; -613.000
260.586;   32.200;  392.000;  157.000
260.728;  -44.475; -360.000; -248.000
260.869;  -82.650; -350.000; -343.000
261.011;   63.775;  706.000;  537.000
261.152;  -60.700; -479.000; -319.000
261.293;  -72.075; -576.000; -595.000
261.435;  -29.875; -219.000; -184.000
261.576;  -38.200; -455.000; -325.000
261.718;   42.500;  420.000;  470.000
261.859; -115.275; -940.000; -949.000
262.000; -122.300; -951.000;-1016.000
262.142;  -17.700;  -52.000;  -60.000
262.283; -110.450; -808.000; -691.000
262.424;  -86.925; -666.000; -625.000
262.566; -141.550;-1161.000; -983.000
262.707;  -87.600; -840.000; -830.000
262.848; -121.800; -769.000; -726.000
262.990;  -39.200; -362.000; -345.000
263.131;   66.825;  650.000;  681.000
263.272;  -16.525;  -61.000;  -41.000
263.413;  -84.475; -589.000; -561.000
263.555;  -59.725; -669.000; -143.000
263.696;  -85.500; -550.000; -641.000
263.837;  -46.500; -449.000; -551.000
263.978;   -0.550;   -5.000;  -77.000
264.119;  -34.800; -283.000; -264.000
264.261; -101.825; -847.000; -630.000
264.402;    9.050;   33.000;   40.000
264.543;  -83.150; -509.000; -524.000
264.684;   -6.175;   61.000;  -50.000
264.825;  -64.375; -816.000; -538.000
264.966;    6.375;  -84.000;  -67.000
265.107; -112.100; -646.000; -670.000
265.248; -105.275; -825.000; -812.000
265.390;  -13.775;  152.000;   -9.000
265.531;    3.150; -238.000; -107.000
265.672;  -65.900; -557.000; -630.000
265.813;   75.825;  563.000;  439.000
265.954; -139.075; -959.000; -940.000
266.095;  -14.025; -372.000; -322.000
266.236; -100.325; -686.000; -548.000
266.377;  -31.400; -243.000; -297.000
266.518;  -54.825; -619.000; -547.000
266.659;   33.475;  170.000;  268.000
266.800;    4.175;   83.000;   85.000
266.941;  -75.500; -487.000; -478.000
267.082;   14.475;  354.000;   99.000
267.223;  -38.525; -344.000; -273.000
267.364; -109.975; -892.000; -686.000
267.504;   -1.075;    3.000;  135.000
267.645;   -1.800;  160.000;   67.000
267.786;  -35.875; -147.000;  -86.000
267.927;  -70.825; -473.000; -379.000
268.068;   -9.850; -186.000;  -61.000
268.209;  -39.825; -175.000; -413.000
268.350;  -51.975; -388.000; -532.000
268.490;  -60.650; -648.000; -521.000
268.631;   19.425;  127.000;  225.000
268.772; -100.475; -874.000; -647.000
268.913;  -46.275; -328.000; -476.000
269.054;  -18.975; -117.000;   12.000
269.194;  -28.350; -418.000; -402.000
269.335; -141.700;-1137.000;-1074.000
269.476;    0.450;   33.000;  -35.000
269.617;  -49.650; -347.000; -392.000
269.757;  -84.525; -713.000; -646.000
269.898;  -94.625; -856.000; -613.000
270.039;  -54.600; -415.000; -405.000
270.180; -121.350; -952.000; -816.000
270.320;  -16.575; -190.000; -250.000
270.461;  -44.325; -277.000; -249.000
270.602;  -11.325; -186.000; -156.000
270.742; -123.475; -868.000; -943.000
270.883;  -48.625; -442.000; -390.000
271.023;  -56.800; -358.000; -357.000
271.164;  -70.675; -607.000; -528.000
271.305; -102.000; -666.000; -654.000
271.445;  -84.275; -722.000; -683.000
271.586;  -73.600; -462.000; -283.000
271.726;  -33.675; -397.000; -322.000
271.867;  -70.250; -594.000; -534.000
272.008;   27.250; -473.000; -285.000
272.148;   73.250;  462.000;  468.000
272.289;   -7.650; -113.000; -181.000
272.429;   -5.775;   19.000;  185.000
272.570; -102.100; -633.000; -737.000
272.710; -106.500; -825.000; -775.000
272.851;  -14.000;  113.000; -130.000
272.991; -144.725;-1173.000;-1077.000
273.131;  -53.325; -419.000; -459.000
273.272;  -94.775; -683.000; -723.000
273.412;   -1.125; -143.000;  -31.000
273.553;  -71.875; -488.000; -507.000
273.693;  114.200;  913.000;  858.000
273.834; -110.550; -894.000; -692.000
273.974;  -68.425; -664.000; -615.000
274.114;  -90.775; -772.000; -560.000
274.255;   58.675;  414.000;  373.000
274.395;  -17.075; -180.000; -125.000
274.535;   41.950;  199.000;  350.000
274.676;   16.625;  225.000;   94.000
274.816;    3.800;  110.000;   34.000
274.956;  -90.625; -624.000; -690.000
275.097; -100.225;-1014.000; -922.000
275.237;  -95.525; -913.000; -803.000
275.377;  -91.325; -778.000; -689.000
275.517; -133.075; -878.000; -937.000
275.658;  -68.825; -590.000; -555.000
275.798;  -75.950; -606.000; -413.000
275.938;   25.750;  215.000;  323.000
276.078;  -82.725; -626.000; -395.000
276.218;   17.900;   99.000;  104.000
276.359; -121.275;-1026.000;-1024.000
276.499;  -61.575; -605.000; -446.000
276.639;  -32.800; -305.000; -151.000
276.779;  -48.050; -475.000; -357.000
276.919; -103.575; -783.000; -624.000
277.059;  -10.775; -261.000; -212.000
277.199;  -40.525; -357.000; -259.000
277.340;   43.050;  287.000;  175.000
277.480;  -92.300; -840.000; -693.000
277.620;   31.850;  192.000;   16.000
277.760; -171.350;-1533.000;-1294.000
277.900;   -0.950;  113.000;   33.000
278.040;    6.475;  137.000;  159.000
278.180;   28.675;  270.000;  170.000
278.320;    0.825;   21.000;   56.000
278.460;  -54.375; -443.000; -469.000
278.600;  -80.500; -708.000; -598.000
278.740;   47.175;  448.000;  224.000
278.880; -101.775; -768.000; -791.000
279.020;   -8.250; -194.000; -144.000
279.160;  -83.450; -672.000; -595.000
279.300; -106.525; -926.000; -873.000
279.440;  -78.775; -709.000; -622.000
279.579;  -79.625;-1014.000; -929.000
279.719;  -51.100; -410.000; -394.000
279.859;   32.100;   -4.000;   41.000
279.999;   -6.600; -208.000;  101.000
280.139;  -37.200; -435.000; -387.000
280.279;  -69.975; -708.000; -745.000
280.419;  -12.500; -229.000; -147.000
280.559;  -33.675; -259.000; -180.000
280.698;  -81.550; -790.000; -639.000
280.838;  -99.800; -778.000; -800.000
280.978;  -96.975; -846.000; -790.000
281.118;  -88.275; -811.000; -704.000
281.257;   22.250;   24.000;    6.000
281.397; -124.975;-1094.000; -960.000
281.537;  -72.025; -599.000; -712.000
281.677;   -6.075; -150.000; -101.000
281.816;  -63.275; -700.000; -630.000
281.956;  -11.800; -193.000; -257.000
282.096;  -33.975; -539.000; -396.000
282.235;  -83.825; -672.000; -638.000
282.375;   14.075; -243.000;  -98.000
282.515;  -70.375; -715.000; -707.000
282.654;   54.950;   29.000;  106.000
282.794;   59.075;  388.000;  244.000
282.934;  -25.500; -530.000; -491.000
283.073;  -94.225;-1030.000; -857.000
283.213;  -17.875; -460.000; -467.000
283.353;  -34.875; -408.000; -349.000
283.492;  -11.775; -264.000; -296.000
283.632;  -47.675; -254.000; -168.000
283.771;  -80.650; -859.000; -730.000
283.911;  -36.850; -369.000; -260.000
284.050;  -97.025; -794.000; -748.000
284.190; -138.325;-1229.000;-1096.000
284.329; -108.475;-1055.000; -964.000
284.469;  -72.500; -516.000; -591.000
284.608;  -40.475; -559.000; -598.000
284.748;  -73.525; -614.000; -570.000
284.887;    7.125;  -87.000;  -20.000
285.027; -106.125; -844.000; -892.000
285.166;   -6.725; -192.000; -249.000
285.306;   -4.650; -116.000;  -33.000
285.445;  -28.500; -229.000; -343.000
285.584;  -69.700; -630.000; -494.000
285.724;  -38.550; -282.000; -322.000
285.863;  -96.100; -857.000; -507.000
286.002;  -41.450; -366.000; -276.000
286.142;  -83.025; -715.000; -622.000
286.281;  -52.375; -525.000; -493.000
286.420;  -59.475; -554.000; -417.000
286.560;   98.775;  653.000;  623.000
286.699; -110.950; -958.000; -912.000
286.838;  -58.300; -590.000; -591.000
286.978;  -86.575; -533.000; -537.000
287.117; -114.925;-1085.000; -950.000
287.256;  -28.775; -228.000; -211.000
287.395;  -32.100; -197.000; -378.000
287.535;  -47.025; -370.000; -298.000
287.674;  -73.075; -509.000; -484.000
287.813;   57.850;  661.000;  533.000
287.952;  -97.250;-1010.000; -871.000
288.091; -128.300;-1049.000; -915.000
288.231;    0.325;   13.000;   15.000
288.370; -145.275;-1217.000;-1200.000
288.509;  -73.350; -728.000; -645.000
288.648;  -66.975; -770.000; -548.000
288.787;  -29.475; -243.000;  -87.000
288.926;  -46.750; -454.000; -475.000
289.065;  112.575;  859.000;  672.000
289.204;  -46.075; -377.000; -217.000
289.344;  -74.950; -791.000; -690.000
289.483;   25.875;  416.000;  304.000
289.622;  -18.225; -291.000; -149.000
289.761;  -17.025; -309.000; -166.000
289.900;  -88.200; -785.000; -626.000
290.039;   -6.950;  -12.000;  -95.000
290.178;  -22.650; -274.000; -180.000
290.317;  -64.225; -618.000; -479.000
290.456;  -47.450; -463.000; -451.000
290.595; -113.400; -961.000; -833.000
290.734; -105.225; -904.000; -891.000
290.873;  -63.200; -456.000; -420.000
291.011;  -89.550; -833.000; -843.000
291.150;  -95.025; -770.000; -682.000
291.289;  -15.700; -343.000; -110.000
291.428;  -82.125; -599.000; -480.000
291.567;  -37.575; -370.000; -442.000
291.706;   -5.200;  109.000;  154.000
291.845;  -75.075; -597.000; -505.000
291.984; -146.350;-1234.000;-1061.000
292.122;   77.075;  602.000;  582.000
292.261;   58.150;  620.000;  463.000
292.400;   15.425; -144.000;  211.000
292.539; -116.550; -959.000; -813.000
292.678;  -24.425; -325.000; -300.000
292.816; -150.725;-1136.000; -965.000
292.955;  -77.050; -844.000; -684.000
293.094;  -19.675; -173.000; -337.000
293.233;  -26.600; -556.000; -400.000
293.371;  -23.175; -225.000;  -84.000
293.510;  -89.875; -866.000; -780.000
293.649; -126.950; -959.000; -924.000
293.787; -109.175;-1083.000;-1012.000
293.926;   -7.650; -113.000;  -32.000
294.065;  -21.875; -379.000; -290.000
294.203;   42.650;  298.000;  406.000
294.342;   40.375;   74.000;  156.000
294.481; 4942.975;51180.000; -836.000
294.619;  -29.525; -425.000; -582.000
294.758; -145.100;-1230.000;-1137.000
294.896;   38.525; -125.000;    5.000
295.035; -116.375;-1040.000;-1006.000
295.174; -100.350;-1082.000; -954.000
295.312;  -32.925; -323.000; -203.000
295.451;  -20.900; -307.000; -428.000
295.589;  -59.025; -389.000; -518.000
295.728;   16.900; -292.000; -165.000
295.866;   -2.700;  -36.000;  -51.000
296.005;  -51.125; -584.000; -341.000
296.143;  -64.700; -558.000; -596.000
296.282;  -71.750; -957.000; -881.000
296.420;  -65.475; -657.000; -557.000
296.559;  -58.825; -892.000; -633.000
296.697;  -41.550; -847.000; -665.000
296.835;  -34.825;-1141.000;-1002.000
296.974;   63.675;  -23.000;   39.000
297.112;   14.150; -443.000; -504.000
297.251;  -41.525; -815.000; -755.000
297.389;   17.000; -576.000; -438.000
297.527;   27.050; -145.000;  -83.000
297.666;  -33.050; -486.000; -438.000
297.804;  -24.775; -404.000; -264.000
297.942;  -13.375; -136.000; -161.000
298.081;    3.850; -183.000;   63.000
298.219;    8.375;  -17.000;  -19.000
298.357;   -3.150; -144.000;  -71.000
298.495;  -59.050; -810.000; -812.000
298.634;   25.275;  245.000;  219.000
298.772;   -9.350; -220.000; -338.000
298.910;  -33.350; -309.000; -182.000
299.048;    6.425; -130.000; -153.000
299.187;  -32.950; -350.000; -250.000
299.325;   13.925;   52.000;  122.000
299.463;  -38.450; -389.000; -299.000
299.601;   12.150; -327.000; -271.000
299.739; -108.400; -908.000; -883.000
299.877;  -86.525; -791.000; -703.000
300.016;  -96.450;-1095.000; -935.000
300.154;   36.625;  -19.000; -161.000
300.292;  -18.600; -428.000; -348.000
300.430;  -24.300; -408.000; -291.000
300.568; -110.450; -940.000; -874.000
300.706;  -52.400; -366.000; -469.000
300.844; -122.625;-1108.000; -979.000
300.982;   70.400;  246.000;  282.000
301.120; -110.450; -965.000; -866.000
301.258;  -82.825; -812.000; -705.000
301.396;   10.475;  104.000;  -41.000
301.534;   -7.225; -218.000; -293.000
301.672;  -54.000; -664.000; -521.000
301.810;  -47.775; -613.000; -545.000
301.948;   42.950;   53.000;  149.000
302.086;  148.425; -250.000;  -32.000
302.224;  171.850; -610.000; -585.000
302.362;  -54.950; -558.000; -622.000
302.500;  -77.375; -923.000; -893.000
302.638;   44.975;  128.000;  245.000
302.776;  -27.275; -352.000; -408.000
302.913;   51.700;  447.000;  236.000
303.051;  -18.900;  -86.000;  -23.000
303.189;   32.050;   90.000;  118.000
303.327;  -41.425; -341.000; -256.000
303.465;  -55.275; -832.000; -588.000
303.603;  -71.075; -805.000; -604.000
303.740;   50.025;  417.000;  241.000
303.878;  -62.825; -800.000; -759.000
304.016;  -90.675; -915.000; -790.000
304.154; -124.700;-1123.000;-1152.000
304.291;  -43.175; -505.000; -554.000
304.429;   20.875;  102.000;   74.000
304.567; -116.550; -908.000; -893.000
304.705;  -64.925; -408.000; -515.000
304.842;  -19.225; -616.000; -540.000
304.980;   18.475;  215.000;   35.000
305.118;   -3.550; -367.000; -365.000
305.255; -101.175; -945.000; -927.000
305.393;   38.425;  178.000;  239.000
305.531; -117.650;-1173.000; -956.000
305.668;  -61.700; -663.000; -582.000
305.806;    3.325; -358.000; -439.000
305.943;    0.100; -629.000; -637.000
306.081;  -14.425; -378.000; -267.000
306.219;  -80.650; -863.000; -748.000
306.356;   22.725;  158.000;   27.000
306.494;  168.850;  981.000;  761.000
306.631;   44.825;  -11.000;  -55.000
306.769;   58.025; -613.000; -485.000
306.906;   31.000; -284.000; -258.000
307.044;   -0.675; -473.000; -488.000
307.181;  -27.475; -410.000; -332.000
307.319;   50.025;  112.000;   87.000
307.456; -139.000;-1191.000;-1153.000
307.594;  -79.975; -980.000; -727.000
307.731;   -3.450; -371.000; -164.000
307.868;   22.025;  -15.000;   20.000
308.006; -100.775; -961.000; -847.000
308.143;  -28.400; -618.000; -330.000
308.281;   47.600;  -37.000; -254.000
308.418;  -32.075; -748.000; -640.000
308.555;  -37.950; -400.000; -250.000
308.693;  -13.000; -577.000; -573.000
308.830;  -52.900; -712.000; -657.000
308.967;   30.625; -215.000;  -95.000
309.105;   38.025; -507.000; -396.000
309.242;   43.350; -468.000; -367.000
309.379;   59.475; -577.000; -655.000
309.517;  -38.800; -936.000; -948.000
309.654;  -27.325; -910.000; -734.000
309.791;   -9.725; -662.000; -580.000
309.928;  -69.700; -977.000; -914.000
310.065;  178.925;  819.000;  697.000
310.203;  -47.550; -825.000; -850.000
310.340;   25.350; -465.000; -321.000
310.477;  -54.725; -412.000; -516.000
310.614;   -8.975; -383.000; -473.000
310.751;   -6.775; -427.000; -518.000
310.889;   25.650;    1.000;   11.000
311.026;  -84.150;-1161.000; -939.000
311.163;   -9.275; -386.000; -380.000
311.300;  -18.075; -512.000; -479.000
311.437;  -18.425; -658.000; -619.000
311.574;  -95.500;-1226.000; -985.000
311.711;  -21.825; -595.000; -433.000
311.848;   20.075; -380.000; -388.000
311.985;   72.650;  270.000;   93.000
312.122;  -57.875; -932.000; -762.000
312.259;  -25.875; -941.000; -994.000
312.396;   17.850; -508.000; -551.000
312.533;    6.750; -812.000; -790.000
312.670;  -53.625;-1070.000; -898.000
312.807;   60.575; -352.000; -367.000
312.944;    9.200; -513.000; -611.000
313.081;   49.475; -150.000; -415.000
313.218;  -25.975;-1111.000; -867.000
313.355;   27.975; -531.000; -449.000
313.492;   32.050; -455.000; -292.000
313.629;  156.500;  815.000;  735.000
313.766;  -96.775;-1176.000;-1008.000
313.902;   20.350; -186.000;   21.000
314.039;  -17.775; -372.000; -289.000
314.176;   62.475;  286.000;  192.000
314.313;  -34.675; -569.000; -473.000
314.450;  -38.650; -788.000; -684.000
314.587;  -17.825; -468.000; -480.000
314.723;   55.175;  -78.000;  130.000
314.860;   82.400;  318.000;  332.000
314.997;   74.425;  223.000;  142.000
315.134;   -5.000; -385.000; -368.000
315.270;    9.925; -480.000; -496.000
315.407;  -66.350;-1094.000; -967.000
315.544;    5.800; -657.000; -538.000
315.681;  -24.200; -681.000; -565.000
315.817;   76.150; -133.000; -176.000
315.954;   74.000; -613.000; -392.000
316.091;  -78.575;-1045.000;-1023.000
316.227;    7.750;  -71.000; -179.000
316.364;   28.000;   23.000;    6.000
316.500;  -25.425; -113.000; -300.000
316.637;  -13.900; -181.000; -302.000
316.774;  -58.250; -625.000; -358.000
316.910;  -73.075; -598.000; -629.000
317.047;  -35.825; -487.000; -351.000
317.183;  -31.525; -435.000; -566.000
317.320;   50.675; -367.000; -321.000
317.456;   -2.400; -733.000; -805.000
317.593;  -48.400; -598.000; -641.000
317.729;    4.825;  168.000;  -67.000
317.866; -165.750;-1434.000;-1285.000
318.002;  -75.875; -708.000; -948.000
318.139;  -93.025; -883.000; -867.000
318.275;  -81.750;-1003.000; -738.000
318.412;  -51.075; -517.000; -336.000
318.548;  -58.375; -751.000; -720.000
318.685;  -83.775; -985.000; -888.000
318.821;  -50.225; -762.000; -735.000
318.957;  -19.100;   34.000;  -23.000
319.094;   54.350;  297.000;  154.000
319.230;  -71.500; -756.000; -742.000
319.367;    6.275; -471.000; -520.000
319.503;   -8.450; -538.000; -436.000
319.639;  -79.225; -877.000; -793.000
319.775;  -95.000; -750.000; -685.000
319.912;  -41.575; -424.000; -519.000
320.048;  -81.475;-1184.000;-1184.000
320.184;  118.200;   59.000;   70.000
320.321;  -24.800; -497.000; -467.000
320.457;   85.300;  475.000;  662.000
320.593;  -49.475; -375.000; -382.000
320.729;  -77.225; -732.000; -734.000
320.866;  -52.650; -577.000; -635.000
321.002;  -84.800; -759.000; -809.000
321.138;  -24.600; -135.000; -211.000
321.274;   20.025; -148.000; -115.000
321.410;  -36.500; -585.000; -353.000
321.546;  -75.825;-1011.000; -911.000
321.683;   45.025;  400.000;  185.000
321.819;   -9.575;  -48.000; -117.000
321.955;  -92.125; -743.000; -722.000
322.091;  -51.700; -585.000; -540.000
322.227;  -26.125; -382.000; -202.000
322.363;  -34.550; -320.000; -215.000
322.499;  -37.200; -343.000; -331.000
322.635;  118.850;  636.000;  443.000
322.771;   -8.625; -139.000;   12.000
322.907;   49.500;  129.000;  327.000
323.043;  -37.300; -115.000; -206.000
323.179;  -38.575; -394.000; -363.000
323.315;  -38.625; -401.000; -371.000
323.451;   25.200; -328.000; -236.000
323.587;   75.125;  -60.000;  -77.000
323.723;  -33.100; -682.000; -601.000
323.859;  -25.950; -258.000;  -76.000
323.995;  -37.900; -467.000; -409.000
324.131; -101.925; -967.000; -892.000
324.267;  -24.700; -254.000; -276.000
324.402; -120.600; -960.000; -983.000
324.538;  -16.250; -279.000; -104.000
324.674;    6.000;  164.000;   77.000
324.810;   39.500;  226.000;  308.000
324.946;  -40.750; -810.000; -658.000
325.082;  -40.050; -568.000; -475.000
325.217;   -8.250;  -62.000;   16.000
325.353;  -86.300; -764.000; -659.000
325.489;  -79.500; -540.000; -506.000
325.625;  -59.500; -579.000; -525.000
325.760;   98.625;  517.000;  376.000
325.896;   33.275; -515.000; -702.000
326.032;  -34.950; -403.000; -352.000
326.168;  -39.075; -462.000; -369.000
326.303;  -49.175; -352.000; -461.000
326.439;   -3.925; -336.000; -276.000
326.575;    1.400; -190.000;  -29.000
326.710;    3.800; -156.000;  -30.000
326.846;    6.500;  146.000;  103.000
326.982;  -77.850; -530.000; -548.000
327.117;  -58.375; -481.000; -442.000
327.253;  -62.375; -745.000; -742.000
327.388; -148.750;-1137.000;-1153.000
327.524;  -70.300; -811.000; -578.000
327.659;  -12.800;  -58.000;  -22.000
327.795;   -5.925;   69.000;   45.000
327.931;  -68.800; -723.000; -499.000
328.066;  -10.325; -417.000; -276.000
328.202;  -16.650;   12.000; -129.000
328.337;  108.975;  957.000;  713.000
328.473;   63.650;  -12.000;  -74.000
328.608;    7.675; -256.000; -267.000
328.743;  -89.875; -799.000; -664.000
328.879;   32.700;  214.000;  114.000
329.014;  -10.100; -102.000; -122.000
329.150;  -50.575; -358.000; -483.000
329.285;  -62.650; -465.000; -466.000
329.421;  -21.450; -548.000; -246.000
329.556;   17.825;  -36.000;   85.000
329.691;  -51.800; -633.000; -615.000
329.827;  -52.175; -626.000; -480.000
329.962;   -4.625;  131.000; -301.000
330.097;  -53.875; -673.000; -585.000
330.233;  -18.800; -410.000; -223.000
330.368;  -72.150; -839.000; -628.000
330.503;    2.650;    3.000;   98.000
330.638;   -6.625;  -93.000; -125.000
330.774;  -66.900; -609.000; -530.000
330.909;  -40.650; -434.000; -244.000
331.044;  -85.800; -714.000; -708.000
331.179; -146.575;-1217.000;-1109.000
331.315;    4.500;   77.000;   20.000
331.450;   20.725;  157.000;  285.000
331.585;  -61.000; -805.000; -706.000
331.720;  -92.050; -510.000; -460.000
331.855;   24.075;  -35.000; -102.000
331.990;  438.725;   62.000;  138.000
332.126;  245.675; -110.000;   71.000
332.261;   28.800; -379.000; -265.000
332.396;   33.975; -135.000; -242.000
332.531;  -42.250;-1074.000;-1031.000
332.666;  111.075; -519.000; -363.000
332.801;  -64.925; -726.000; -807.000
332.936;   -4.775; -192.000; -122.000
333.071; -116.325; -870.000; -817.000
333.206;   35.950;  307.000;  379.000
333.341;   24.875;  344.000;  418.000
333.476;  -63.000; -627.000; -623.000
333.611;  -20.025; -251.000; -173.000
333.746;  -49.925; -381.000; -464.000
333.881;  -98.400; -973.000; -935.000
334.016; -109.500; -936.000; -917.000
334.151; -110.375; -746.000; -702.000
334.286;   30.125;  152.000;  186.000
334.421;   -9.675; -125.000; -178.000
334.556;  -56.100; -611.000; -567.000
334.690;  -59.200; -631.000; -577.000
334.825;   65.375;  381.000;   83.000
334.960;  -44.575; -285.000; -413.000
335.095;   26.100;  135.000;  -91.000
335.230;  -78.225; -722.000; -738.000
335.365;  -96.725;-1084.000; -990.000
335.499; -108.375;-1108.000;-1037.000
335.634;   30.400;    9.000;  534.000
335.769;  -68.050; -755.000; -720.000
335.904;  -38.850; -603.000; -561.000
336.038;  -14.800; -735.000; -657.000
336.173;  -84.450;-1206.000;-1194.000
336.308;   37.900; -116.000; -189.000
336.443;   48.650; -544.000; -634.000
336.577;  -30.475; -936.000; -787.000
336.712;   77.475;   -4.000;  -12.000
336.847;  -12.850; -724.000; -607.000
336.981;   78.450; -272.000; -208.000
337.116;  281.550;  615.000;  501.000
337.250;  133.100; -434.000; -421.000
337.385;  453.075; -297.000; -208.000
337.520;  237.300; -632.000; -603.000
337.654;  -13.275; -215.000; -126.000
337.789;  -98.175; -989.000; -933.000
337.923;  -17.525; -104.000; -205.000
338.058;  -97.275; -673.000; -738.000
338.192;  -37.100; -611.000; -488.000
338.327;   10.575;  -18.000; -155.000
338.461;  -40.975; -299.000; -469.000
338.596;  -70.400; -780.000; -638.000
338.730;  -66.275; -767.000; -803.000
338.865;  173.450;  -46.000; -140.000
338.999;   32.550; -846.000; -702.000
339.134;   30.025; -634.000; -536.000
339.268;   57.350; -741.000; -603.000
339.403;  596.175; -740.000; -775.000
339.537;  277.575; -894.000; -820.000
339.671;  -79.500; -829.000; -813.000
339.806;   -6.450; -556.000; -512.000
339.940;   60.600; -261.000; -235.000
340.074;  -82.225; -685.000; -510.000
340.209;  -25.125; -351.000; -230.000
340.343;  -73.125; -517.000; -573.000
340.477;  141.225;  998.000; 1036.000
340.612;   17.225;-1033.000; -900.000
340.746;  244.725; -199.000; -243.000
340.880;  -80.075; -924.000; -785.000
341.014;  -12.475;  -45.000; -154.000
341.149;  -98.725; -756.000; -718.000
341.283;  -87.425; -839.000; -754.000
341.417; -117.950;-1124.000; -938.000
341.551;  -29.575; -768.000; -708.000
341.685;  -61.450; -633.000; -611.000
341.820;  -39.400; -562.000; -493.000
341.954;  -35.550; -218.000; -349.000
342.088; -120.075;-1102.000;-1019.000
342.222;   45.500;  565.000;  618.000
342.356;  -61.350; -395.000; -335.000
342.490; -100.750; -880.000; -841.000
342.624;  -37.275; -339.000; -242.000
342.758;  -45.425; -364.000; -312.000
342.892;  -87.050; -710.000; -585.000
343.026;  -35.525;  -58.000; -116.000
343.160;  -39.400; -426.000; -376.000
343.294;  -67.925; -474.000; -337.000
343.428;  -52.725; -488.000; -448.000
343.562;  -18.450; -172.000;  -23.000
343.696;  -40.525; -385.000; -314.000
343.830;  -28.000; -362.000; -356.000
343.964;   -7.425; -231.000; -168.000
344.098;  239.650;  199.000;   70.000
344.232;  190.625; -266.000; -127.000
344.366;   66.425; -567.000; -453.000
344.500;  -34.075; -665.000; -744.000
344.634;  -25.225; -324.000; -164.000
344.768;  -46.075; -531.000; -341.000
344.902;    5.425;  278.000;  256.000
345.035;  -63.750; -556.000; -496.000
345.169; -112.100; -933.000; -656.000
345.303;  -35.675; -308.000; -482.000
345.437;  -90.975; -826.000; -717.000
345.571;  -49.800; -675.000; -594.000
345.704;  -60.675; -309.000; -532.000
345.838;  -10.575; -331.000; -284.000
345.972;  -52.500; -543.000; -495.000
346.106;  256.550; -179.000; -190.000
346.239;  492.325; -312.000; -243.000
346.373;   13.975; -343.000; -302.000
346.507; -124.200; -950.000; -962.000
346.640;   39.325;  -30.000;   13.000
346.774;  -89.525; -650.000; -797.000
346.908;  -10.300; -138.000;  -11.000
347.041;  -83.075; -646.000; -593.000
347.175;   26.500;  259.000;   27.000
347.309;  -85.600; -698.000; -628.000
347.442;  -89.400; -883.000; -732.000
347.576;  123.450;  670.000;  668.000
347.709;   66.975; -123.000;  -52.000
347.843; -113.100; -933.000; -825.000
347.976;   60.650;  235.000;  294.000
348.110; -160.175;-1268.000;-1186.000
348.243;  -73.675; -679.000; -772.000
348.377;   32.625;  -26.000;   60.000
348.510;   67.175;  403.000;  540.000
348.644;  -20.800;  -37.000; -159.000
348.777;   10.025;  180.000;  191.000
348.911;  -30.150; -142.000; -112.000
349.044;   87.800;  471.000;  448.000
349.178;  -29.900;-1069.000;-1006.000
349.311;  118.100;  141.000;  255.000
349.444;   52.450; -927.000; -813.000
349.578;    0.175; -347.000; -200.000
349.711; -112.000; -959.000; -862.000
349.845;  -37.825; -661.000; -591.000
349.978; -149.650;-1224.000;-1137.000
350.111;  -70.800; -546.000; -612.000
350.244;  -84.750; -596.000; -700.000
350.378;  -31.600; -392.000; -393.000
350.511;  -58.650; -393.000; -426.000
350.644;  -85.800; -808.000; -806.000
350.778;   37.500;  168.000;  104.000
350.911;   14.275;  134.000;  140.000
351.044;  -86.950; -685.000; -615.000
351.177;  -19.700; -321.000; -281.000
351.310;   -8.725;    3.000; -131.000
351.444;  -79.075; -888.000; -788.000
351.577;   33.675;  140.000;   90.000
351.710;   81.325;  593.000;  417.000
351.843;  -27.175; -165.000;  -77.000
351.976;    7.125;  149.000;  -79.000
352.109;  -88.325; -621.000; -612.000
352.242;  -45.575; -464.000; -419.000
352.376;  -70.400; -580.000; -636.000
352.509;    5.000; -437.000; -356.000
352.642; -102.100; -654.000; -604.000
352.775;   -4.700; -141.000;  -98.000
352.908; -101.275; -933.000; -904.000
353.041;  -82.875; -814.000; -824.000
353.174;  -35.225; -551.000; -424.000
353.307;  -73.325; -753.000; -764.000
353.440;   80.650;  541.000;  453.000
353.573;  -74.525; -957.000;-1008.000
353.706;  -24.700; -384.000; -558.000
353.839;  -12.100; -264.000; -220.000
353.971;  -74.900; -657.000; -512.000
354.104;  -82.925; -896.000; -835.000
354.237;  -72.350; -627.000; -662.000
354.370;  -68.850; -846.000; -879.000
354.503; -153.225;-1231.000;-1308.000
354.636;    5.475; -529.000; -348.000
354.769;  -88.150; -937.000; -860.000
354.902;   -6.075; -230.000; -139.000
355.034;  -11.400; -164.000; -220.000
355.167;    8.725; -262.000; -162.000
355.300;  -37.075;-1061.000; -880.000
355.433; 1503.500;  -71.000;  -14.000
355.565; 2349.275; -402.000; -384.000
355.698;  615.125; -356.000; -296.000
355.831;   12.375; -882.000; -801.000
355.964;   44.400; -285.000; -170.000
356.096;  -43.725; -856.000; -843.000
356.229;   44.575; -523.000; -530.000
356.362;  539.475; -373.000; -266.000
356.494;  953.625; -229.000; -162.000
356.627;  338.375;  269.000;  377.000
356.760;  914.375;  120.000;   53.000
356.892; 1570.725; -286.000; -601.000
357.025;  351.950;  403.000;  389.000
357.157;  227.300; -167.000; -179.000
357.290; 1145.375; -856.000; -713.000
357.423;  370.300; -667.000; -556.000
357.555;  107.750; -217.000; -228.000
357.688;  143.250; -483.000; -364.000
357.820;  125.325; -870.000; -877.000
357.953; 1032.025; -563.000; -589.000
358.085;  172.550; -632.000; -612.000
358.218;  114.850;-1131.000; -932.000
358.350;   63.575;  -58.000;  312.000
358.483; -119.100;-1300.000;-1187.000
358.615; -104.525;-1182.000;-1078.000
358.747; -140.075;-1187.000;-1058.000
358.880;  -30.850; -810.000; -744.000
359.012;  -12.900; -376.000; -202.000
359.145;  -56.425; -480.000; -511.000
359.277;  -53.875; -962.000; -913.000
359.409;  937.625;  536.000;  231.000
359.542;  176.800; -738.000; -688.000
359.674;   28.725;   46.000;   13.000
359.806;  -58.150; -565.000; -438.000
359.939;  -19.200; -617.000; -516.000
360.071;   58.825; -583.000; -579.000
360.203;   -0.775; -411.000; -364.000
360.335;   35.350;  164.000;  -16.000
360.468;   90.725; -249.000; -307.000
360.600; 1091.875; -547.000; -454.000
360.732; 4130.000; -546.000; -423.000
360.864;  654.825;-1216.000;-1044.000
360.996;   94.475; -516.000; -554.000
361.129;  -26.725; -389.000; -598.000
361.261;    5.425;  110.000; -113.000
361.393;  -24.550; -252.000; -214.000
361.525;   13.200;   94.000;  244.000
361.657;  -85.050; -821.000; -703.000
361.789;  -15.525; -139.000; -155.000
361.921;  -23.525; -642.000; -593.000
362.053;   83.275;  524.000;  541.000
362.185;   13.525;  288.000;   72.000
362.318;  -90.500; -709.000; -705.000
362.450;   24.825;  294.000;  444.000
362.582;  -66.075; -913.000; -870.000
362.714;  -51.175; -353.000; -332.000
362.846;  -65.375; -606.000; -490.000
362.978; -123.450; -941.000; -811.000
363.109;  -10.400; -161.000; -260.000
363.241;  158.700; -739.000; -749.000
363.373;  691.625; -649.000; -564.000
363.505; 1060.700; -186.000;  -91.000
363.637;  252.525; -787.000; -601.000
363.769; -107.150;-1067.000;-1080.000
363.901;  -48.525; -596.000; -654.000
364.033; -140.575;-1103.000;-1062.000
364.165;  -21.625; -283.000; -283.000
364.296;  112.225; -316.000; -177.000
364.428;  224.850;-1344.000;-1220.000
364.560;  -39.375; -679.000; -661.000
364.692;  -70.700; -738.000; -835.000
364.824;   -8.125; -588.000; -456.000
364.955;  516.550; -402.000; -564.000
365.087; 1661.600;-1097.000; -852.000
365.219;  119.000; -686.000; -816.000
365.351;  -45.600; -526.000; -572.000
365.482;   35.175;  300.000;  240.000
365.614;  -38.575; -402.000; -314.000
365.746; -104.725; -729.000; -752.000
365.877;  -74.425; -706.000; -672.000
366.009;  447.800;  -35.000;  -62.000
366.141;  -15.975;-1249.000;-1134.000
366.272;  -75.950; -803.000; -719.000
366.404;  -91.900;-1005.000; -874.000
366.535;    1.350; -139.000;  -12.000
366.667;  -83.375; -644.000; -649.000
366.799;   46.950;  353.000;  203.000
366.930; -112.600; -862.000; -996.000
367.062;  217.550; -639.000; -613.000
367.193;  375.350; -872.000; -842.000
367.325;  -12.200; -580.000; -684.000
367.456;   18.350; -246.000;   31.000
367.588;  288.050; -371.000; -318.000
367.719;   57.025;  -44.000;  -45.000
367.851;  -20.800; -222.000; -241.000
367.982;  -96.550; -875.000; -732.000
368.113;   -7.350; -475.000; -358.000
368.245; -123.900; -960.000; -841.000
368.376;   -5.650; -254.000; -302.000
368.508;  -32.175; -188.000; -263.000
368.639; -121.550;-1166.000;-1034.000
368.770;  -69.100; -670.000; -589.000
368.902;  -81.750; -836.000; -926.000
369.033;  -96.100; -906.000; -855.000
369.164;    8.200; -720.000; -653.000
369.296;  -75.600; -452.000; -601.000
369.427;   -9.750; -209.000; -144.000
369.558;  -49.425; -593.000; -377.000
369.689;  -54.275; -721.000; -569.000
369.821; -107.000; -951.000; -845.000
369.952;    2.900;   42.000; -108.000
370.083;  -37.850; -229.000; -108.000
370.214;  -75.075; -735.000; -650.000
370.345;   -6.100;   65.000;   81.000
370.477;  -92.425; -810.000; -790.000
370.608;   38.925; -328.000; -264.000
370.739; -108.925;-1233.000;-1292.000
370.870;  -92.850;-1102.000; -923.000
371.001;   -9.800; -378.000; -467.000
371.132;  -82.050; -754.000; -735.000
371.263;   -6.925;  -42.000; -148.000
371.394; -119.675; -841.000; -748.000
371.525;   37.375;  345.000;  225.000
371.657; -104.600; -808.000; -670.000
371.788;   31.000;  103.000;  199.000
371.919;   39.500; -384.000; -304.000
372.050;  925.625;  -91.000; -156.000
372.181;  311.600; -188.000; -294.000
372.311;   87.225;   42.000; -127.000
372.442;  -40.575; -457.000; -451.000
372.573;  -30.750; -444.000; -340.000
372.704; -122.500;-1008.000; -980.000
372.835;   -6.650; -228.000; -289.000
372.966;  -63.275; -646.000; -554.000
373.097;  -66.500; -575.000; -711.000
373.228;  -87.500; -717.000; -542.000
373.359;  -37.500; -824.000; -536.000
373.490;  108.350; -881.000; -727.000
373.620;  166.850;-1001.000; -803.000
373.751;  402.125; -332.000; -396.000
373.882;  161.550; -663.000; -733.000
374.013;  -17.825; -449.000; -262.000
374.143;  -59.200; -581.000; -659.000
374.274; -118.875; -987.000; -908.000
374.405;   74.900; -388.000; -276.000
374.536;   94.525; -526.000; -387.000
374.666;  220.950; -759.000; -807.000
374.797;  -28.025; -817.000; -868.000
374.928;  159.550; -710.000; -560.000
375.058;  136.300; -535.000; -500.000
375.189;   27.050;  -59.000;  -93.000
375.320; -116.100; -928.000;-1034.000
375.450;  -45.875; -625.000; -616.000
375.581;  -38.075; -526.000; -436.000
375.712;  -35.100; -574.000; -250.000
375.842;    9.175; -438.000; -415.000
375.973;   -1.825; -554.000; -513.000
376.103;  -82.850; -665.000; -648.000
376.234;  -72.500; -531.000; -552.000
376.364; -114.600; -944.000; -867.000
376.495;  155.675;  925.000;  529.000
376.625;  -31.225; -472.000; -485.000
376.756;  -42.275; -709.000; -678.000
376.886; -123.925;-1178.000;-1026.000
377.017;  161.900;-1048.000;-1061.000
377.147;  685.275; -786.000; -782.000
377.278;   96.350;  174.000;  228.000
377.408; -102.325; -801.000; -815.000
377.538;  -62.450; -707.000; -693.000
377.669;  -69.425; -537.000; -613.000
377.799;  -70.150; -645.000; -635.000
377.929;  -69.300; -610.000; -428.000
378.060;  -98.300; -781.000; -847.000
378.190;   -2.750; -726.000; -531.000
378.320;   -8.250; -401.000; -406.000
378.451;    8.325; -131.000;  -22.000
378.581;    4.975;  -67.000; -110.000
378.711;  103.800; 1035.000;  866.000
378.841;  -55.125; -533.000; -675.000
378.972;  -82.500; -871.000; -751.000
379.102;  -48.250; -652.000; -579.000
379.232;  -30.325; -126.000;  -73.000
379.362;  -96.200;-1001.000; -885.000
379.492;  -46.425; -373.000; -424.000
379.623;   67.500;    0.000;  111.000
379.753;  -92.300;-1107.000; -974.000
379.883;   83.100;   59.000;  156.000
380.013;  -78.750;-1081.000;-1017.000
380.143;  -97.850;-1097.000;-1056.000
380.273;  -76.225; -985.000; -861.000
380.403;   37.150; -344.000; -257.000
380.533;  -28.375; -651.000; -664.000
380.663;   45.700;  173.000;  128.000
380.793; -125.650;-1027.000;-1074.000
380.923;   -3.500; -103.000;  -34.000
381.053;  -75.950; -613.000; -623.000
381.183;   -6.325; -106.000; -248.000
381.313;  -45.825; -656.000; -470.000
381.443;  -32.500; -692.000; -473.000
381.573;   -6.550; -402.000; -409.000
381.703;  -54.175;-1249.000;-1095.000
381.833; -152.625;-1454.000;-1336.000
381.963;   49.575; -134.000;  -87.000
382.093;  262.550; -925.000; -909.000
382.223;   77.525; -713.000; -602.000
382.353;  -67.075; -801.000; -608.000
382.482;    8.650;-1091.000; -964.000
382.612;  132.150; -872.000; -644.000
382.742;   75.350; -695.000; -622.000
382.872;   11.000; -565.000; -551.000
383.002;   41.575;  347.000; -132.000
383.131;    0.425; -226.000; -160.000
383.261;    5.075; -706.000; -768.000
383.391;  341.725; -552.000; -377.000
383.521; 4985.500;  451.000;  263.000
383.650; 1542.500; -947.000; -904.000
383.780;   79.350; -783.000; -656.000
383.910;  110.950;  880.000;  802.000
384.039;  -61.700; -794.000; -656.000
384.169;  -83.325;-1205.000;-1017.000
384.299;  -59.675; -650.000; -662.000
384.428;  -78.375; -764.000; -680.000
384.558;  -26.275; -308.000; -275.000
384.687;  -41.075; -414.000; -334.000
384.817;   27.200;   75.000;   -2.000
384.947;    1.375; -234.000; -141.000
385.076;  189.625;  982.000;  912.000
385.206;   99.800;  369.000;  480.000
385.335;  -30.425; -549.000; -417.000
385.465;  -83.075; -655.000; -663.000
385.594;   39.550;  -53.000;  -44.000
385.724;   19.750; -868.000; -838.000
385.853;   18.950; -296.000; -270.000
385.982;  248.125; -743.000; -787.000
386.112;  491.850;-1052.000; -871.000
386.241;   27.350; -307.000; -312.000
386.371;   -1.600; -174.000;  -87.000
386.500;  -51.825; -825.000; -789.000
386.629;   14.450; -874.000; -817.000
386.759;  100.000;  -43.000;   68.000
386.888;   -5.775; -170.000; -250.000
387.017;  -56.175; -648.000; -620.000
387.147;  -63.850; -771.000; -798.000
387.276;  -27.075; -410.000; -397.000
387.405;  -28.425; -398.000; -342.000
387.535;  -57.800; -452.000; -361.000
387.664;  -40.850; -692.000; -620.000
387.793;    6.250; -198.000; -113.000
387.922;  153.975;  255.000;  200.000
388.052;  -26.250; -576.000; -423.000
388.181;  -14.925; -342.000; -472.000
388.310;  -58.550; -889.000; -710.000
388.439;  -70.025; -749.000; -742.000
388.568;   50.525;  365.000;  244.000
388.697;  189.850; -756.000; -653.000
388.826;   -5.375; -768.000; -666.000
388.956;    1.075; -285.000; -307.000
389.085;  -23.000; -347.000; -287.000
389.214;  -59.550; -842.000; -872.000
389.343;  -40.175; -645.000; -413.000
389.472;  572.475;  126.000;  149.000
389.601;  674.050;   91.000;    0.000
389.730;    8.975; -568.000; -687.000
389.859;   67.125;  226.000;   46.000
389.988;   51.075; -423.000; -408.000
390.117;   52.850; -168.000; -146.000
390.246;   -8.625; -331.000; -320.000
390.375;  -41.850; -673.000; -626.000
390.504;  -66.550; -703.000; -621.000
390.633;  -82.075; -672.000; -726.000
390.761;  -59.450; -732.000; -645.000
390.890;    2.150;   -4.000; -130.000
391.019;  -30.850; -421.000; -441.000
391.148;  -83.425; -826.000; -855.000
391.277;  -47.900; -576.000; -493.000
391.406;  -88.400; -821.000; -805.000
391.534;   54.475;  574.000; -301.000
391.663;  -48.700; -583.000; -645.000
391.792;  -74.875; -673.000; -701.000
391.921;   16.850;   -3.000;   15.000
392.050;   28.600; -287.000; -228.000
392.178; -108.000;-1206.000;-1061.000
392.307;  -28.850; -758.000; -712.000
392.436;  -43.250; -427.000; -641.000
392.564;   35.775;  166.000;   -6.000
392.693;  -78.900; -860.000; -682.000
392.822;   21.000; -529.000; -534.000
392.950;  -23.625; -880.000; -714.000
393.079;   61.525; -188.000; -328.000
393.208;  -30.425; -488.000; -511.000
393.336;   -0.475; -170.000; -145.000
393.465;  -28.900; -317.000; -199.000
393.593;   24.975;   62.000;   79.000
393.722; -106.050;-1121.000; -916.000
393.850;    9.250; -188.000;  -61.000
393.979;  -96.375; -926.000; -805.000
394.107;  -34.575; -517.000; -537.000
394.236;  -18.400; -570.000; -507.000
394.364;  117.275;  383.000;  206.000
394.493;   59.150; -911.000; -767.000
394.621;   53.700; -955.000; -916.000
394.750; 1221.825; -873.000; -923.000
394.878; 4670.825; -247.000; -149.000
395.007; 6893.275; -721.000; -807.000
395.135;  670.125; -790.000; -721.000
395.263;  -17.850;-1038.000;-1040.000
395.392;   40.650;  -25.000; -107.000
395.520; -104.150; -818.000; -679.000
395.648;  -89.225; -865.000; -915.000
395.777;  -38.800; -366.000; -405.000
395.905;  -54.500; -449.000; -564.000
396.033;    7.325;  217.000;  172.000
396.162;   55.925; -399.000; -453.000
396.290;   77.325;  -17.000;   -2.000
396.418;  -40.575; -555.000; -514.000
396.546;  -72.775; -571.000; -466.000
396.674; -102.575; -850.000; -878.000
396.803;   -5.950;  -72.000;  -23.000
396.931;  -10.200; -179.000; -199.000
397.059; -107.750;-1026.000; -989.000
397.187; -120.925;-1026.000; -975.000
397.315; -104.675; -884.000; -649.000
397.443;  -85.425; -592.000; -443.000
397.572;  -90.050; -578.000; -424.000
397.700;  -63.750; -607.000; -614.000
397.828;  -15.775;  120.000;  -90.000
397.956;   -7.225; -508.000; -478.000
398.084;   -7.175; -767.000; -626.000
398.212;   31.000;  137.000;  124.000
398.340;   -4.925;  -56.000;  159.000
398.468;  -38.300; -390.000; -169.000
398.596; -144.450; -993.000; -953.000
398.724; -110.875; -762.000; -767.000
398.852; -136.400;-1024.000; -976.000
398.980;  -57.200; -560.000; -560.000
399.108; -103.125; -982.000; -735.000
399.236;    1.475;   13.000;    8.000
399.363;    1.550;  222.000;  196.000
399.491;  -35.425; -404.000; -398.000
399.619;  -92.175; -829.000; -800.000
399.747;  -95.750; -859.000; -771.000
399.875;   41.475;  220.000;  234.000
400.003;  -52.750; -359.000; -284.000
400.130;  -81.475; -421.000; -341.000
400.258;  -18.000;  -83.000;   38.000
400.386;  -67.325; -352.000; -168.000
400.514;  -76.450; -526.000; -587.000
400.641; -126.800; -928.000; -802.000
400.769; -132.450; -979.000; -888.000
400.897; -107.875; -838.000; -793.000
401.025;  -20.600; -166.000; -152.000
401.152;    2.700;  220.000;   38.000
401.280;  -71.050; -430.000; -429.000
401.408;  -97.100; -712.000; -576.000
401.535;  -84.275; -735.000; -758.000
401.663; -152.150;-1134.000;-1054.000
401.790;  -67.825; -514.000; -525.000
401.918;   40.750;  436.000;  405.000
402.046;   -2.400;  134.000;  122.000
402.173;  -28.900;  -18.000;    7.000
402.301;  -50.525; -519.000; -397.000
402.428;   71.100;  528.000;  383.000
402.556; -108.275;-1188.000; -913.000
402.683;   -7.050;  -20.000;   -1.000
402.811;   -9.000;  -37.000; -206.000
402.938;   16.675;   20.000;   27.000
403.066;    8.700; -574.000; -558.000
403.193;  102.025;  299.000;  239.000
403.321;   72.400; -396.000; -574.000
403.448;  134.250;   83.000;   27.000
403.575;   76.700;  -90.000;  -46.000
403.703;  -63.675; -732.000; -557.000
403.830;  -17.175; -531.000; -496.000
403.957;  -87.150;-1117.000;-1023.000
404.085;   76.700;  -61.000; -172.000
404.212;  153.200;  -50.000;   63.000
404.339;  495.800; -566.000; -306.000
404.467; 9259.450; -612.000; -524.000
404.594; 5866.500; -287.000; -227.000
404.721; 1059.075; -869.000; -764.000
404.848;  165.425; -113.000; -202.000
404.976;  -53.125; -856.000; -783.000
405.103;   45.850;  -14.000;  -82.000
405.230;   43.200;  190.000;  226.000
405.357;   92.900;  117.000;   44.000
405.484;  472.375;  -49.000;    5.000
405.612;  178.425; -548.000; -563.000
405.739;  -18.250; -488.000; -243.000
405.866;  101.725;  669.000;  385.000
405.993;  -26.275; -398.000; -102.000
406.120; -109.000; -801.000; -887.000
406.247;  -41.200; -323.000; -342.000
406.374;  128.100;  540.000;  629.000
406.501;  -56.975; -632.000; -702.000
406.628;  -47.150; -621.000; -589.000
406.755;  -79.150; -803.000; -620.000
406.882;  -25.600; -228.000; -277.000
407.009;  -89.875; -719.000; -628.000
407.136;  -12.675; -480.000; -401.000
407.263;   -3.200; -939.000; -829.000
407.390;  -57.675; -692.000; -614.000
407.517; -142.875;-1139.000;-1187.000
407.644;  -45.950; -332.000; -256.000
407.771;  -48.975; -249.000; -287.000
407.898;   27.800;  168.000;  328.000
408.025;  -47.975; -421.000; -313.000
408.151;   20.950;   82.000;  153.000
408.278;  -35.275; -267.000; -216.000
408.405; -112.150; -931.000; -899.000
408.532;  -64.600; -549.000; -542.000
408.659;  -93.125; -677.000; -648.000
408.785; -180.700;-1298.000;-1170.000
408.912;  -33.975; -412.000; -296.000
409.039;  -77.925; -610.000; -686.000
409.166;  -82.200; -591.000; -555.000
409.292;  -79.225; -571.000; -534.000
409.419;  -91.575; -665.000; -649.000
409.546;  -51.750; -431.000; -192.000
409.672;  -82.350; -713.000; -545.000
409.799;  -18.725;  -36.000;   34.000
409.926;  -37.050; -180.000; -179.000
410.052; -161.950;-1127.000;-1091.000
410.179;  -49.225; -368.000; -392.000
410.305;  -79.250; -375.000; -493.000
410.432;   -1.175; -220.000; -333.000
410.558;  -63.550; -305.000; -380.000
410.685;  -73.000; -688.000; -431.000
410.812;  -87.125; -409.000; -588.000
410.938; -121.050; -964.000; -808.000
411.065;  -95.275; -671.000; -645.000
411.191;  -15.600; -189.000; -174.000
411.317; -104.300; -823.000; -742.000
411.444;  -48.175; -317.000; -246.000
411.570;  -51.950; -339.000; -294.000
411.697; -102.050; -758.000; -752.000
411.823; -152.700; -989.000; -999.000
411.949;  -30.975;  -56.000;   17.000
412.076;  -97.250; -539.000; -519.000
412.202;  -94.275; -758.000; -757.000
412.329; -117.950; -798.000; -752.000
412.455;  -99.700; -821.000; -657.000
412.581;  -12.150;  -15.000;  172.000
412.707;  -81.325; -540.000; -457.000
412.834;   12.600;  156.000;  219.000
412.960;  -82.825; -785.000; -784.000
413.086;  -83.700; -743.000; -701.000
413.212;  156.000;  604.000;  578.000
413.339;  -64.625; -685.000; -701.000
413.465;  -44.325; -364.000; -310.000
413.591;  -98.300; -757.000; -474.000
413.717;  -39.275; -358.000; -366.000
413.843; -125.925; -839.000; -861.000
413.969;  -36.200;  -47.000; -292.000
414.096;  -76.650; -679.000; -679.000
414.222;   13.525;  -33.000;   85.000
414.348;  -72.200; -652.000; -385.000
414.474;   20.825;   38.000;  -52.000
414.600;   -6.225; -126.000; -144.000
414.726;   14.950;  -96.000;  -55.000
414.852;  -23.350; -365.000; -342.000
414.978;   59.450;  104.000;  -18.000
415.104;   76.325;   38.000;   80.000
415.230;   47.175; -329.000; -330.000
415.356;   78.375; -409.000; -514.000
415.482;  259.450;   13.000;  -35.000
415.608;  454.900; -247.000; -323.000
415.734; 1443.350;   67.000;   38.000
415.860;29058.425; -875.000; -767.000
415.986;24649.925; -685.000; -607.000
416.111; 2362.100; -798.000; -652.000
416.237;  546.100; -424.000; -571.000
416.363; 1750.300; -765.000; -733.000
416.489; 7066.925; -324.000; -251.000
416.615; 1009.850; -707.000; -742.000
416.741;   94.975; -677.000; -784.000
416.866;  -35.925; -673.000; -736.000
416.992;  -67.025; -801.000; -818.000
417.118;   21.750;  -41.000;  -80.000
417.244;  -43.950; -798.000; -531.000
417.369;  -50.950; -801.000; -612.000
417.495;   27.025; -325.000; -254.000
417.621;  -52.725;-1015.000; -803.000
417.746;   48.400; -579.000; -572.000
417.872;  103.675; -254.000; -144.000
417.998;  167.150; -515.000; -530.000
418.123; 1614.375;-1073.000; -845.000
418.249; 9082.600; -512.000; -601.000
418.374; 1633.625; -916.000; -824.000
418.500;  295.250; -383.000; -482.000
418.626;  223.775;   70.000;  -59.000
418.751;  217.950; -549.000; -448.000
418.877;  368.300; -637.000; -643.000
419.002; 2629.400; -688.000; -560.000
419.128;20257.375; -930.000; -721.000
419.253; 5971.700; -967.000; -837.000
419.379;  831.800; -391.000; -338.000
419.504;  655.150;  325.000;  415.000
419.629;  892.550; -393.000; -212.000
419.755; 5402.200; -317.000; -254.000
419.880;35698.525;  -98.000;   67.000
420.006;18239.850; -280.000; -221.000
420.131;45485.375; -662.000; -775.000
420.256; 7623.000; -315.000; -316.000
420.382; 1079.425; -665.000; -687.000
420.507;  228.025; -649.000; -778.000
420.632;   70.800; -337.000; -339.000
420.758;   68.500; -251.000; -425.000
420.883;  -68.625; -876.000; -672.000
421.008;  -68.900; -775.000; -619.000
421.133;  -74.425; -509.000; -467.000
421.259;  -15.500; -325.000; -259.000
421.384; -105.775; -834.000; -693.000
421.509;  -86.700;-1052.000; -862.000
421.634;  143.000; -936.000; -820.000
421.759;  114.250; -359.000; -327.000
421.885;  -81.475; -717.000; -656.000
422.010;  -58.825; -673.000; -542.000
422.135; -135.850; -695.000; -727.000
422.260;   47.500;  340.000;  280.000
422.385;  -15.050;   12.000;  -98.000
422.510;   21.625;  151.000;  -26.000
422.635;   -2.225;  -87.000;  -43.000
422.760;   -6.175; -766.000; -791.000
422.885;   50.125;  -57.000;  -80.000
423.010;  -12.350; -112.000; -169.000
423.135;  -70.025; -481.000; -561.000
423.260;  -10.625; -150.000; -245.000
423.385;   42.200;  476.000;  222.000
423.510;   34.550;   71.000;  -22.000
423.635;   12.800;  133.000;   45.000
423.760;   78.875;  383.000;  328.000
423.885;   65.025;  336.000;  391.000
424.010;   31.250;  -68.000;  -13.000
424.135;   -9.125;    5.000;  -33.000
424.259;  -41.750; -654.000; -457.000
424.384;  -28.450; -279.000; -272.000
424.509;   -5.500; -260.000; -186.000
424.634;  -67.375; -761.000; -623.000
424.759;  -14.050; -688.000; -544.000
424.883;    6.000; -506.000; -527.000
425.008;  225.650; -502.000; -410.000
425.133; 2993.825; -679.000; -653.000
425.258; 1671.150; -517.000; -381.000
425.382;  437.975; -867.000; -774.000
425.507;  896.650; -487.000; -543.000
425.632;  358.350; -802.000; -663.000
425.756;  724.600; -256.000; -146.000
425.881; 9963.700; -831.000; -857.000
426.006;31377.225; -604.000; -355.000
426.130; 5387.300; -696.000; -508.000
426.255;  739.300; -611.000; -491.000
426.379;  304.775; -189.000; -577.000
426.504;  549.300;  660.000;  544.000
426.629; 5995.525; -519.000; -466.000
426.753; 4897.775;   64.000;  -46.000
426.878;  626.100; -252.000; -288.000
427.002;  342.900; -651.000; -668.000
427.127; 2096.350;  -35.000; -158.000
427.251;17776.350;  372.000;  401.000
427.375; 6043.475; -191.000; -173.000
427.500; 1158.925; -616.000; -610.000
427.624;  357.950; -234.000; -400.000
427.749;  148.550; -216.000; -225.000
427.873;   28.025; -499.000; -412.000
427.997;  -13.125; -222.000; -230.000
428.122;   93.575;  795.000;  703.000
428.246;   47.500;  433.000;  434.000
428.371; -110.550; -869.000; -773.000
428.495;  -75.700; -624.000; -646.000
428.619;   -9.650; -186.000; -117.000
428.743;   34.250;   65.000;  132.000
428.868;  -77.300; -732.000; -643.000
428.992;  334.325; -219.000; -326.000
429.116;  130.900; -329.000; -357.000
429.240;  142.325;  419.000;  426.000
429.365;  -22.125; -454.000; -574.000
429.489;  -25.625; -638.000; -647.000
429.613;   67.750; -236.000; -177.000
429.737;  128.800; -563.000; -432.000
429.861;  428.425; -247.000; -133.000
429.985; 8229.425; -425.000; -305.000
430.109;10736.875; -770.000; -908.000
430.234; 1376.800;   76.000;  -50.000
430.358;  199.900; -250.000; -160.000
430.482;   20.650; -672.000; -564.000
430.606;  -22.150; -655.000; -375.000
430.730;   -5.100; -437.000; -388.000
430.854;  -37.525; -909.000; -835.000
430.978;  -44.150; -795.000; -764.000
431.102;  -33.175; -499.000; -422.000
431.226;  -59.900; -874.000; -815.000
431.350;   63.050;  345.000;  422.000
431.474;  -35.425; -661.000; -373.000
431.597; -124.100;-1060.000; -848.000
431.721;  -48.300; -276.000; -267.000
431.845;  -98.100; -704.000; -472.000
431.969;  -55.150; -304.000; -349.000
432.093;  -69.100; -395.000; -317.000
432.217;   16.400;   32.000;   82.000
432.341;  -52.725; -523.000; -518.000
432.464;   28.250;   96.000;   40.000
432.588;    0.750; -401.000; -329.000
432.712;   52.400;  -52.000;  -52.000
432.836;   88.325;  213.000;  263.000
432.959;   60.800; -372.000; -311.000
433.083;  222.275;   11.000;    2.000
433.207;  627.600;  285.000;  930.000
433.330; 7836.850; -391.000; -200.000
433.454;11174.525; -654.000; -638.000
433.578; 6185.925;  583.000;  278.000
433.701; 1396.175; -623.000; -675.000
433.825;  198.475; -292.000; -299.000
433.949;   86.550;   28.000;  -72.000
434.072;   20.450; -410.000; -323.000
434.196;   46.725; -309.000; -117.000
434.319; 3521.200;25482.000;25124.000
434.443;  909.025; -656.000; -603.000
434.566; 4266.775;  281.000;   62.000
434.690; 1009.725; -637.000; -383.000
434.813;  224.300; -251.000; -173.000
434.937;   16.525; -569.000; -696.000
435.060;  -61.175; -423.000; -332.000
435.184;   14.275; -492.000; -217.000
435.307;   36.800;  159.000;  102.000
435.431;   -4.000;  -40.000;   24.000
435.554;  -43.725; -399.000; -240.000
435.677;  -68.025; -350.000; -258.000
435.801;  -20.275;  -25.000;   49.000
435.924;  -17.100;    1.000;  -67.000
436.048; -122.650;-1019.000; -732.000
436.171;  -39.375; -240.000;  -66.000
436.294;   23.325; -248.000; -229.000
436.417;  264.950; -963.000; -849.000
436.541;   15.250; -814.000; -840.000
436.664;  -22.150; -242.000; -316.000
436.787;   -4.075;   13.000;  113.000
436.910;  -87.225; -792.000; -422.000
437.034;   31.750;  142.000;  143.000
437.157;   46.800;  -11.000;    0.000
437.280;  -57.850; -392.000; -292.000
437.403; -110.550; -982.000; -869.000
437.526;    6.225; -903.000; -865.000
437.649;  456.275; -505.000; -332.000
437.772;    5.550; -692.000; -540.000
437.896;   57.150;  700.000;  544.000
438.019;  -63.325; -758.000; -503.000
438.142;  -87.600; -596.000; -506.000
438.265;  -89.000; -639.000; -670.000
438.388;   33.900; -520.000; -410.000
438.511;  -44.275; -597.000; -394.000
438.634;  -57.650; -247.000; -125.000
438.757; -118.575; -693.000; -619.000
438.880;  -34.325;  -34.000;  -57.000
439.003;  -82.825; -417.000; -437.000
439.126;  -33.175; -287.000; -167.000
439.248;  -36.325;  -98.000; -139.000
439.371;  -24.800;    9.000;  -53.000
439.494;   21.575;  510.000;  439.000
439.617;  -30.800;   65.000;  -88.000
439.740; -161.950; -968.000; -816.000
439.863; -122.400; -755.000; -595.000
439.986; -105.775; -476.000; -431.000
440.108;  -14.275; -161.000; -112.000
440.231; -146.275; -950.000; -836.000
440.354;  -42.500;  -64.000; -150.000
440.477; -101.850; -566.000; -542.000
440.599;  -64.050; -200.000; -225.000
440.722; -108.300; -709.000; -586.000
440.845;   72.325;  751.000;  928.000
440.968;  -81.150; -415.000; -311.000
441.090;  -55.300; -199.000;  -33.000
441.213; -141.375;-1021.000; -825.000
441.336;  -39.925; -159.000;   -5.000
441.458;  -85.275; -549.000; -396.000
441.581; -104.675; -628.000; -629.000
441.703;  -58.775; -152.000;   13.000
441.826;  -88.575; -557.000; -400.000
441.948;  -45.550;   56.000;   51.000
442.071;   25.450;  555.000;  424.000
442.193; -108.200; -531.000; -485.000
442.316;   17.850;  152.000;   97.000
442.438;   89.950; -233.000;  -10.000
442.561;   99.600;  272.000;  262.000
442.683;   86.375; -809.000; -522.000
442.806;  231.750;   -8.000;   74.000
442.928; -113.025; -859.000; -604.000
443.051;  -55.500; -577.000; -373.000
443.173;  -87.025; -341.000; -339.000
443.295;  -60.450; -263.000; -371.000
443.418;  -69.100; -321.000;  -29.000
443.540;  -33.700; -106.000;   -4.000
443.662; -115.450; -563.000; -465.000
443.785;   -4.125;  335.000;  199.000
443.907;  -95.150; -362.000; -208.000
444.029; -110.500; -767.000; -494.000
444.152; -121.575; -644.000; -554.000
444.274;  -24.325;  -18.000;  -24.000
444.396; -102.450; -461.000; -221.000
444.518; -116.375; -691.000; -454.000
444.640;  -95.575; -268.000; -111.000
444.763;   -1.800;  388.000;  249.000
444.885; -111.375; -432.000; -392.000
445.007;  -22.925;   35.000;   86.000
445.129; -118.600; -610.000; -515.000
445.251;  -99.225; -372.000; -439.000
445.373; -123.325; -537.000; -386.000
445.495;    1.275;  242.000;  350.000
445.617;   42.925;  853.000;  753.000
445.739;  -55.650; -215.000;  -97.000
445.861;  -55.375; -245.000; -112.000
445.984;  -51.250; -267.000; -101.000
446.105;  -26.500; -418.000; -251.000
446.227;   98.350; -176.000;  -19.000
446.349;  -65.700; -358.000; -249.000
446.471; -116.100; -615.000; -448.000
446.593;  -74.700; -316.000;   19.000
446.715;  -35.625;  -67.000;   41.000
446.837;   60.900;  697.000;  832.000
446.959;  -83.550; -457.000; -478.000
447.081; -123.850; -628.000; -518.000
447.203;   68.125;  862.000;  834.000
447.325;  -67.800; -270.000;   42.000
447.446;    2.725;  286.000;  530.000
447.568; -142.950; -921.000; -803.000
447.690;  -67.725; -236.000; -245.000
447.812; -138.600; -798.000; -519.000
447.933;  -13.325;  155.000;  127.000
448.055;  -54.100; -306.000; -261.000
448.177;   42.100;   31.000;   79.000
448.299;  -82.450; -935.000; -727.000
448.420;   -7.100;  -25.000;  159.000
448.542;  -35.150;   -3.000;   33.000
448.664;   -8.300;  109.000;  322.000
448.785;  -33.450;  265.000;   83.000
448.907;  -97.800; -614.000; -353.000
449.028;  -85.500; -771.000; -471.000
449.150;   60.025;  492.000;  589.000
449.272; -152.400;-1044.000; -913.000
449.393;   53.550;  612.000;  694.000
449.515; -116.800; -634.000; -581.000
449.636;  -43.025; -264.000; -155.000
449.758;   65.375;  763.000;  622.000
449.879;  -53.500; -498.000; -396.000
450.001;  -52.650; -149.000;  -49.000
450.122;  -14.350;  -95.000;  162.000
450.244;   20.475;   37.000;  364.000
450.365;  -41.150; -495.000; -301.000
450.486;    6.175;   80.000;  268.000
450.608;   88.350;  393.000;  326.000
450.729;  140.025;  578.000;  645.000
450.850;  150.525; -574.000; -466.000
450.972; 1253.925; -552.000; -389.000
451.093; 8136.375;  190.000;  588.000
451.214; 4354.250; -516.000; -337.000
451.336;  765.525;  773.000;  579.000
451.457;  146.650;  264.000;  393.000
451.578;   17.925; -118.000;  -74.000
451.699;  -89.800; -546.000; -540.000
451.821;  -19.050; -284.000;  -50.000
451.942;   25.350;  278.000;  285.000
452.063;   76.025;  228.000;  419.000
452.184;  862.975;  -54.000;  -49.000
452.305; 1847.550;  103.000;  170.000
452.427;  400.275; -549.000; -301.000
452.548;   52.525;   23.000;   79.000
452.669;  -37.575; -257.000;  -89.000
452.790;  -39.050;    3.000;  -18.000
452.911;   -6.525;  195.000;  259.000
453.032;  -44.825; -289.000;  -60.000
453.153;  -45.125;  -29.000;   81.000
453.274;   73.600;  737.000;  868.000
453.395;  -51.025;  -51.000;  175.000
453.516;  106.825; 1317.000; 1388.000
453.637;  -77.175; -205.000; -150.000
453.758;  -24.275;   15.000;   69.000
453.879;  -99.875; -462.000; -250.000
454.000;   80.075; 1086.000;  948.000
454.121; -100.525; -554.000; -326.000
454.242;  -89.200; -599.000; -383.000
454.362;  -31.725;  -99.000;  114.000
454.483;   41.525; -309.000; -229.000
454.604;  114.875;  512.000;  580.000
454.725;  -94.850; -627.000; -555.000
454.846; -109.275; -474.000; -406.000
454.967;   -6.375;  230.000;  539.000
455.087;  -11.100;  179.000;  153.000
455.208;   25.875;  554.000;  856.000
455.329;  -22.675;  -22.000;   82.000
455.450;   76.400;  473.000;  633.000
455.570;  -46.050; -234.000; -211.000
455.691;  -23.475;  201.000;  407.000
455.812;  -76.675; -270.000;  -92.000
455.932;  -37.000;  107.000;  -97.000
456.053;  -58.200;   36.000;   24.000
456.173;  -72.575; -433.000; -355.000
456.294; -106.775; -476.000; -303.000
456.415;  -33.075;  -73.000;   70.000
456.535;  -23.800;  297.000;  273.000
456.656;  -33.625;  132.000;  240.000
456.776;  -51.050;    3.000;  298.000
456.897;    8.850;  308.000;  513.000
457.017;  -50.700; -153.000;   -3.000
457.138;  -96.325; -402.000; -249.000
457.258;  -22.125;  263.000;  224.000
457.379;    1.450;  509.000;  521.000
457.499;   -3.650;  443.000;  432.000
457.620; -101.925; -407.000; -231.000
457.740;  -88.000; -132.000;  -11.000
457.860;  -37.675;   87.000;   44.000
457.981;   -6.400;  132.000;  124.000
458.101;  -50.225;  -89.000;   40.000
458.221;  -11.575;  336.000;  402.000
458.342;  -35.525;   -4.000;  -37.000
458.462;   65.325;  617.000;  352.000
458.582;   50.175; -302.000; -294.000
458.703;   65.325;  303.000;  154.000
458.823;   46.475;   22.000;  163.000
458.943;   78.575;  341.000;  467.000
459.063;   59.700; 1124.000;  192.000
459.183;   12.575;  328.000;  313.000
459.304;   41.575;  315.000;  517.000
459.424;  -23.325; -246.000;  -89.000
459.544;  479.425;  388.000;  764.000
459.664; 1378.675;  499.000;  506.000
459.784;  563.700; 1004.000; 1175.000
459.904;  103.825;  867.000;  744.000
460.024;   63.975;  867.000;  684.000
460.144;    1.025;  449.000;  554.000
460.264;    1.925;  515.000;  327.000
460.385;  -73.200; -145.000; -119.000
460.505;   60.450;  905.000;  858.000
460.625;  -82.425;  -17.000;  -68.000
460.745;   -6.650;  396.000;  541.000
460.864;  -33.050;  153.000;  469.000
460.984;   77.750;  499.000;  573.000
461.104;  174.200; 1656.000; 1775.000
461.224;   26.175;  657.000;  650.000
461.344;  -19.800;  431.000;  360.000
461.464;  -18.325;  258.000;  513.000
461.584;  -29.600;  283.000;  466.000
461.704;  -57.100;   58.000;  108.000
461.824;  -48.250;  238.000;  259.000
461.943;  -24.975;  191.000;  130.000
462.063;  -73.025;    2.000;  324.000
462.183;   30.875;  639.000;  717.000
462.303;   95.600; 1678.000; 1230.000
462.422;   42.700;  781.000;  840.000
462.542;  -12.450;  271.000;  391.000
462.662;   50.575;  353.000;  380.000
462.782;  362.775;  833.000;  572.000
462.901;  793.825;  545.000;  717.000
463.021;  417.075; 1702.000; 1638.000
463.141;   28.500;  337.000;  770.000
463.260;    2.250;  614.000;  474.000
463.380;   32.525;  902.000;  884.000
463.499;  -30.450;  342.000;  332.000
463.619;  -24.200;  581.000;  559.000
463.738;  109.250; 1644.000;  903.000
463.858;   28.450;  657.000;  811.000
463.978;  -18.950;  542.000;  396.000
464.097;   53.550;  921.000; 1114.000
464.217;  163.625; 1196.000; 1143.000
464.336;  159.125; 1068.000; 1130.000
464.455;  -26.375;  328.000;  659.000
464.575;   33.800;  597.000;  602.000
464.694;  135.275; 1204.000; 1179.000
464.814;  163.650; 1190.000; 1138.000
464.933;  106.575; 1095.000; 1027.000
465.052;  113.150; 1412.000; 1054.000
465.172;   92.325;  922.000;  799.000
465.291;  135.550; 1376.000; 1320.000
465.410;   16.225;  462.000;  735.000
465.530;   83.950; 1355.000; 1310.000
465.649;   77.400; 1209.000; 1273.000
465.768;  157.400; 1673.000; 1508.000
465.888;   89.075;  941.000; 1174.000
466.007;  117.725; 1335.000; 1440.000
466.126;   14.250;  721.000;  641.000
466.245;   67.225; 1176.000; 1187.000
466.364;   29.625;  950.000; 1060.000
466.484;   60.575; 1024.000; 1213.000
466.603;   48.200; 1101.000; 1222.000
466.722;  123.675; 1490.000; 1769.000
466.841;   86.525; 1151.000; 1401.000
466.960;   60.850; 1069.000;  972.000
467.079;  137.875; 1971.000; 1786.000
467.198;   73.000; 1238.000; 1181.000
467.317;  101.600; 1768.000; 1162.000
467.436;   83.100; 1709.000; 1261.000
467.555;  138.525; 1796.000; 1746.000
467.674;   71.150; 1227.000; 1329.000
467.793;   52.525; 1376.000; 1374.000
467.912;  102.850; 1658.000; 1539.000
468.031;  144.675; 2038.000; 1930.000
468.150;  143.000; 1842.000; 1837.000
468.269;  188.950; 2313.000; 2090.000
468.388;  212.100; 2168.000; 2339.000
468.507;  257.125; 2884.000; 2903.000
468.626;  246.700; 2555.000; 2541.000
468.744;  167.350; 2018.000; 2174.000
468.863;  225.075; 2312.000; 2523.000
468.982;  104.700; 1503.000; 1555.000
469.101;  237.300; 2788.000; 2692.000
469.220;  166.125; 2333.000; 2176.000
469.338;  253.125; 2935.000; 3051.000
469.457;  203.550; 2719.000; 2545.000
469.576;  360.725; 3953.000; 3784.000
469.695;  248.850; 2877.000; 3066.000
469.813;  417.050; 4148.000; 4192.000
469.932;  414.300; 4255.000; 4485.000
470.051;  445.800; 4075.000; 4161.000
470.169; 1043.025; 4470.000; 4338.000
470.288; 2078.325; 4700.000; 4809.000
470.406; 1246.225; 5059.000; 5194.000
470.525;  689.200; 6101.000; 5787.000
470.644;  644.275; 6847.000; 6794.000
470.762;  793.700; 8397.000; 7873.000
470.881;  916.900; 8651.000; 8464.000
470.999; 1103.800; 9685.000; 9151.000
471.118; 1114.525;11174.000;10711.000

