
Integration time [ms]: 100.000
Averaging Nr. [scans]: 40
Smoothing Nr. [pixels]: 0
Data measured with spectrometer [name]: 2101012U2
Wave   ;Sample   ;Dark     ;Reference
[nm]   ;[counts] ;[counts] ;[counts] 

197.733;   52.200;  516.000;  404.000
197.879;  -79.625; -610.000; -634.000
198.025;  -39.725; -475.000; -420.000
198.171;  -64.225; -602.000; -612.000
198.317;  -19.250; -401.000; -316.000
198.463;  -45.800; -655.000; -404.000
198.609;   16.450;  181.000; -137.000
198.755;  -69.475; -644.000; -410.000
198.901;  -61.025; -505.000; -424.000
199.047;  -64.875; -615.000; -488.000
199.193;  -30.400; -230.000; -468.000
199.339;  -43.550; -222.000; -369.000
199.485;   31.650;  330.000;  271.000
199.631;   20.875;  227.000;  310.000
199.777;  -42.500; -466.000; -398.000
199.923;  -56.725; -610.000; -424.000
200.069;   -6.275; -141.000;  -58.000
200.215;   39.175;  128.000;  453.000
200.361;   52.375;  243.000;  477.000
200.507;  -50.025; -600.000; -373.000
200.653;  -23.450; -371.000; -194.000
200.798;  -39.225; -215.000; -125.000
200.944;    9.350; -146.000;  -41.000
201.090;   22.825;   61.000;  222.000
201.236;    9.050; -116.000; -158.000
201.382;  119.375;  874.000;  903.000
201.528;    3.500;  -58.000;  -48.000
201.674;  -45.575; -386.000; -293.000
201.819;  -56.750; -540.000; -439.000
201.965;  -65.525; -699.000; -447.000
202.111;  -28.800; -273.000; -226.000
202.257;  -39.125; -250.000; -238.000
202.402;   19.700;   13.000;  -36.000
202.548;  -30.825; -169.000; -116.000
202.694;   84.650;  410.000; -183.000
202.840;  -72.975; -603.000; -531.000
202.985;  -55.025; -681.000; -639.000
203.131;  -94.825; -832.000; -666.000
203.277;  -24.375; -199.000; -262.000
203.423;  -49.625; -434.000; -520.000
203.568;  -38.825; -462.000; -237.000
203.714;  -54.650; -535.000; -542.000
203.860;  -67.150; -682.000; -641.000
204.005;    7.350;  112.000;  167.000
204.151;   65.600;  561.000;  556.000
204.296;  -35.025; -354.000; -221.000
204.442;  -73.250; -600.000; -547.000
204.588;  -70.075; -592.000; -579.000
204.733;   29.950;  178.000;  168.000
204.879; -120.825;-1018.000; -822.000
205.025;   12.150;  -99.000;  126.000
205.170;   -6.075;  -17.000;   94.000
205.316;   94.100;  438.000;  661.000
205.461;  -72.175; -698.000; -554.000
205.607;   77.100;  609.000;  665.000
205.752;  -69.675; -626.000; -551.000
205.898;  -48.150; -501.000; -391.000
206.043;  -51.575; -578.000; -506.000
206.189;  -45.625; -243.000; -285.000
206.334;   80.525;  554.000;  606.000
206.480;   78.125;  409.000;  239.000
206.625;  -72.300; -529.000; -552.000
206.771;  -45.925; -451.000; -373.000
206.916;  -32.975; -210.000; -537.000
207.062;  -56.850; -545.000; -591.000
207.207;  -53.825; -546.000; -443.000
207.353;   60.025;  185.000;  460.000
207.498;    8.975;  196.000;   85.000
207.643;  -42.925; -501.000; -370.000
207.789; -113.925;-1069.000; -910.000
207.934;  -88.550; -665.000; -713.000
208.080;  -18.025; -154.000;   66.000
208.225;    1.950;  -22.000;  -57.000
208.370;  -75.525; -727.000; -619.000
208.516;  -72.350; -741.000; -487.000
208.661;  -30.775; -127.000;  -69.000
208.806;  -13.400; -165.000; -171.000
208.952; -112.475;-1044.000; -731.000
209.097;   62.900;  378.000;  349.000
209.242;  -33.625; -307.000; -382.000
209.387;   86.175;  392.000;  350.000
209.533;  -49.725; -321.000; -350.000
209.678;   72.625;  472.000;  543.000
209.823;  -50.775; -408.000; -310.000
209.969;  -92.375; -860.000; -757.000
210.114;  -91.900; -907.000; -719.000
210.259;  -91.825; -939.000; -889.000
210.404;  -19.700; -171.000;  103.000
210.549;   22.175;  108.000;    3.000
210.695;  -20.475;   -3.000;  -95.000
210.840;   27.225;   94.000;   67.000
210.985;  -61.550; -484.000; -303.000
211.130;   56.950;  268.000;  406.000
211.275;   17.450;  207.000;  199.000
211.420;  -32.100; -300.000; -289.000
211.566;  -56.275; -536.000; -489.000
211.711;   32.600;  218.000;  157.000
211.856;  -71.675; -545.000; -519.000
212.001;   -0.700;  151.000;   44.000
212.146;   23.775;  153.000;   49.000
212.291;  -11.600; -210.000; -186.000
212.436;  -30.475; -280.000;   -6.000
212.581;  -86.775; -685.000; -653.000
212.726;  -68.275; -487.000; -538.000
212.871;  -44.025; -552.000; -217.000
213.016; -128.400;-1172.000;-1029.000
213.161;   61.475;  406.000;  291.000
213.306;  -65.375; -435.000; -577.000
213.451;  -82.825; -778.000; -689.000
213.596;  -47.975; -455.000; -347.000
213.741;  -58.150; -448.000; -538.000
213.886;  -74.200; -498.000; -517.000
214.031;  -11.900; -294.000; -124.000
214.176;  -36.825; -408.000; -341.000
214.321;  -13.100; -296.000; -157.000
214.466;  -25.225; -163.000;  -43.000
214.611;    2.975;  -61.000;  -10.000
214.756; -114.225; -948.000; -858.000
214.901;  -21.525; -388.000; -226.000
215.046; -105.975; -797.000; -825.000
215.191;    9.150;  128.000;   35.000
215.336;  -29.875; -157.000;  -19.000
215.480;  -61.800; -684.000; -505.000
215.625;  -13.775; -175.000;  -19.000
215.770;  -79.275; -757.000; -662.000
215.915;   -1.975;   -5.000;  -97.000
216.060;   -5.125; -113.000;  -21.000
216.205; -111.575; -731.000; -779.000
216.349;  -74.275; -470.000; -533.000
216.494; -124.850; -939.000; -867.000
216.639; -104.850; -823.000; -888.000
216.784;  -86.500; -577.000; -525.000
216.929;   42.850;  392.000;  281.000
217.073;  -20.975; -244.000;  -31.000
217.218;    5.700;   78.000;  -47.000
217.363;  -79.675; -656.000; -618.000
217.507;  -66.725; -623.000; -588.000
217.652; -118.725; -845.000; -874.000
217.797;  -89.625; -708.000; -659.000
217.942;  -98.175; -856.000; -720.000
218.086;   75.725;  608.000;  539.000
218.231;  -10.350; -174.000;  -26.000
218.376;  -20.300; -337.000; -229.000
218.520;   15.950;  -41.000;   96.000
218.665;  -34.600; -338.000; -204.000
218.810;  -34.125; -275.000; -233.000
218.954;    2.425;  201.000;   35.000
219.099;  -98.425; -713.000; -963.000
219.243;  -74.925; -589.000; -554.000
219.388;  -33.550; -264.000; -136.000
219.532;   -9.625; -116.000; -116.000
219.677;  -76.025; -564.000; -521.000
219.822;    4.550;   33.000;   89.000
219.966;    2.925;   17.000;  -99.000
220.111;  -35.025; -328.000;  -40.000
220.255;  -82.625; -797.000; -750.000
220.400;  -15.425; -180.000; -146.000
220.544;  -60.525; -516.000; -450.000
220.689;  -61.725; -422.000; -451.000
220.833;  -22.325; -123.000;  -58.000
220.978;  -40.725; -393.000; -563.000
221.122;   16.250;  319.000;  307.000
221.267; -105.475; -906.000; -837.000
221.411;  -66.925; -478.000; -394.000
221.555;   -8.650; -104.000;  -23.000
221.700;  -37.775; -329.000; -222.000
221.844;   35.425;  255.000;  272.000
221.989;  -43.025; -328.000; -311.000
222.133;  -32.700; -289.000; -307.000
222.277;  -10.725;    5.000;   78.000
222.422;   14.625;  227.000;  113.000
222.566;  -31.975; -381.000; -214.000
222.711;  -59.375; -414.000; -479.000
222.855;  -77.300; -643.000; -586.000
222.999;  -67.675; -642.000; -717.000
223.144;  -40.050; -195.000; -194.000
223.288;   56.125;  423.000;  251.000
223.432;   36.125;  184.000;  230.000
223.576;   12.075;  152.000;  -21.000
223.721;   35.000;  364.000;  273.000
223.865;  -58.375; -472.000; -475.000
224.009;  236.450; 1673.000; 1631.000
224.153;  -80.925; -660.000; -671.000
224.298;  -64.275; -531.000; -489.000
224.442;  -20.825;  -74.000;  -33.000
224.586;   -9.350; -169.000; -106.000
224.730;  -80.775; -858.000; -670.000
224.875; -105.200; -739.000; -688.000
225.019;   17.475;  102.000;  188.000
225.163;   54.875;  208.000;  341.000
225.307;   12.150;   97.000;  -91.000
225.451;   36.250;  360.000;  481.000
225.595;   29.675;  264.000;  176.000
225.739;  -19.725; -170.000;  -94.000
225.884;   -6.625;   86.000;    5.000
226.028;  -94.725; -760.000; -626.000
226.172;  -37.675; -260.000; -273.000
226.316;  -89.375; -941.000; -902.000
226.460;  -59.450; -645.000; -493.000
226.604;  -56.850; -406.000; -400.000
226.748;  -84.800; -836.000; -733.000
226.892;  -24.225; -227.000; -181.000
227.036;  -51.325; -537.000; -447.000
227.180;  -47.975; -551.000; -375.000
227.324;  -58.350; -561.000; -580.000
227.468; -113.750; -819.000; -717.000
227.612;   10.300;  242.000;  -28.000
227.756;  -90.825; -845.000; -698.000
227.900;   46.525;  342.000;  441.000
228.044;  -56.175; -509.000; -290.000
228.188;   58.250;  448.000;  568.000
228.332;  -93.250; -546.000; -472.000
228.476;  -31.875; -223.000; -149.000
228.620;  -26.275; -210.000; -150.000
228.764;   60.275;  431.000;  349.000
228.908;  -21.575; -155.000;   30.000
229.052;  -66.300; -615.000; -528.000
229.195;   -9.700; -172.000;   13.000
229.339;  -19.325; -235.000; -305.000
229.483;  -16.200;    5.000; -162.000
229.627;   -2.150; -156.000;  139.000
229.771;  -41.225; -218.000; -294.000
229.915;    8.800;  230.000;   79.000
230.059;  -83.325; -648.000; -663.000
230.202;  -45.450; -370.000; -317.000
230.346;  -10.575; -107.000;  107.000
230.490;  -61.800; -489.000; -521.000
230.634;  -90.625; -736.000; -553.000
230.777;   67.800;  478.000;  509.000
230.921;  -47.775; -450.000; -359.000
231.065;  -52.300; -246.000; -286.000
231.209;   25.925;  261.000;  265.000
231.352;   16.300;   54.000;   40.000
231.496;   10.975;  568.000;  188.000
231.640;  -84.025; -693.000; -621.000
231.783;   55.125;  546.000;  525.000
231.927;  -37.650; -294.000; -365.000
232.071; -116.150; -962.000; -736.000
232.214; -104.700; -980.000; -764.000
232.358;  -95.125; -683.000; -599.000
232.502;   -3.125;  -19.000;    7.000
232.645; -131.750;-1090.000; -927.000
232.789;   -7.975; -257.000; -218.000
232.933;  -50.350; -407.000; -224.000
233.076; -117.325;-1038.000; -897.000
233.220;  -99.275; -752.000; -777.000
233.363;  -74.700; -669.000; -477.000
233.507;   41.275;  371.000;  129.000
233.650;  -95.850; -764.000; -834.000
233.794;   29.625;  438.000;  461.000
233.938;  -68.150; -530.000; -362.000
234.081;  -29.175;  -93.000;   31.000
234.225;  -68.800; -631.000; -539.000
234.368; -104.625; -773.000; -723.000
234.512;  -39.850; -385.000; -299.000
234.655;  -81.625; -582.000; -555.000
234.798;  -60.675; -493.000; -466.000
234.942; -118.675; -884.000;-1002.000
235.085;  -67.000; -651.000; -443.000
235.229;  -62.075; -405.000; -410.000
235.372;  -43.800; -247.000; -191.000
235.516;  -56.575; -397.000; -321.000
235.659;   18.950;   92.000;  121.000
235.802;   -9.150;  -38.000;  -22.000
235.946;   34.775;  335.000;  215.000
236.089;   25.975;  126.000;  250.000
236.233;   33.850;  275.000;  298.000
236.376;  -50.300; -235.000; -378.000
236.519;  -36.225; -297.000; -319.000
236.663;  -25.750; -215.000; -117.000
236.806; -131.450;-1029.000; -999.000
236.949;   67.875;  543.000;  431.000
237.092;   48.500;  412.000;  391.000
237.236;  -83.575; -589.000; -502.000
237.379;   54.450;  352.000;  428.000
237.522; -105.775; -879.000; -768.000
237.666;  -23.100; -271.000;   18.000
237.809; -106.225; -851.000; -823.000
237.952;   32.175;  469.000;  271.000
238.095;  -59.425; -447.000; -442.000
238.238;   70.800;  688.000;  700.000
238.382;   -8.300;  166.000;  103.000
238.525;  -65.050; -598.000; -511.000
238.668; -132.475;-1060.000; -985.000
238.811;  -85.200; -638.000; -643.000
238.954;  -66.950; -483.000; -334.000
239.097;   81.375;  617.000;  664.000
239.241;   36.075;  394.000;  326.000
239.384;  -23.625; -254.000; -214.000
239.527;  -68.925; -424.000; -224.000
239.670; -130.325; -994.000;-1091.000
239.813;  -99.000; -696.000; -658.000
239.956;   81.525;  579.000;  473.000
240.099; -107.150; -778.000; -725.000
240.242;   56.325;  428.000;  432.000
240.385;   38.675;  466.000;  450.000
240.528;  -75.650; -706.000; -473.000
240.671;   -2.025;  189.000;  134.000
240.814;  -38.100; -441.000; -158.000
240.957;  -92.125; -767.000; -578.000
241.100;  -89.175; -779.000; -755.000
241.243; -131.025;-1234.000; -893.000
241.386;  -67.300; -508.000; -379.000
241.529;  -95.475; -735.000; -547.000
241.672;  -61.750; -566.000; -495.000
241.815; -111.175; -832.000; -808.000
241.958;  -22.225; -125.000; -182.000
242.101;  -80.350; -545.000; -390.000
242.244;  -37.925; -270.000; -325.000
242.387;  -43.275; -304.000; -246.000
242.530;   51.300;  470.000;  134.000
242.673;  -42.300; -381.000; -309.000
242.815; -111.275; -925.000; -899.000
242.958;  -72.525; -482.000; -381.000
243.101;    3.425;  132.000;  187.000
243.244;  -78.925; -564.000; -521.000
243.387;  -52.550; -313.000; -316.000
243.530;  -92.850; -657.000; -674.000
243.672;    0.625;   43.000;  -92.000
243.815;  -55.100; -355.000; -283.000
243.958;  -14.350;   98.000;  -26.000
244.101;   -3.775;   59.000;  -16.000
244.243;  -10.025;  -47.000;  101.000
244.386; -102.225; -761.000; -630.000
244.529;  -29.050; -132.000; -139.000
244.672; -139.600;-1154.000; -951.000
244.814;  -85.350; -621.000; -794.000
244.957;  -67.875; -380.000; -304.000
245.100;  -65.675; -489.000; -489.000
245.242;  -61.600; -387.000; -374.000
245.385;   -6.275;  -59.000;  -39.000
245.528; -116.400; -871.000; -705.000
245.670;   95.975;  612.000;  634.000
245.813;  -84.525; -599.000; -547.000
245.956;  -27.325; -324.000; -275.000
246.098;  -76.575; -508.000; -650.000
246.241;    4.250;  194.000;   48.000
246.383;  -28.100; -119.000;  -73.000
246.526;  -75.850; -454.000; -525.000
246.669; -120.175; -889.000; -780.000
246.811;    3.375;  172.000;   -1.000
246.954;  -73.900; -512.000; -426.000
247.096;  -10.125;  -84.000;   -6.000
247.239;  -77.700; -482.000; -445.000
247.381;  -68.700; -647.000; -488.000
247.524;   92.925;  645.000;  679.000
247.666;   -4.450;   58.000;   11.000
247.809; -115.125; -887.000; -691.000
247.951;   -5.250;  -75.000;  138.000
248.094;   25.175;  432.000;  308.000
248.236; -157.050;-1262.000;-1238.000
248.378;  -19.850; -356.000;  -81.000
248.521;  -46.075; -334.000; -337.000
248.663;  -38.975; -236.000; -267.000
248.806;  -19.650; -300.000; -266.000
248.948; -103.450; -886.000; -763.000
249.090;  -51.750; -428.000; -398.000
249.233;  -60.800; -344.000; -381.000
249.375;  -64.850; -474.000; -451.000
249.518;  -34.025;  -83.000; -133.000
249.660;  -16.600; -103.000;    3.000
249.802; -166.525;-1303.000;-1189.000
249.945;  -74.050; -612.000; -540.000
250.087; -105.250; -834.000; -768.000
250.229;  -61.575; -362.000; -480.000
250.371;  -66.225; -494.000; -439.000
250.514;  -44.325; -310.000; -244.000
250.656;  -41.650;   69.000;  102.000
250.798; -109.125; -849.000; -800.000
250.940;  -65.825; -322.000; -322.000
251.083;  -23.300; -335.000; -111.000
251.225;   47.175;  338.000;  310.000
251.367;  -36.000; -274.000; -373.000
251.509;  -38.450; -265.000; -210.000
251.651;  -88.875; -731.000; -671.000
251.794;   45.625;  538.000;  632.000
251.936; -102.275; -821.000; -747.000
252.078;  -75.175; -540.000; -461.000
252.220;  -62.500; -645.000; -477.000
252.362;   56.050;  344.000;  462.000
252.504;  -81.175; -677.000; -584.000
252.646; -104.325; -875.000; -722.000
252.788;  -19.125;   14.000; -128.000
252.931;  -51.325; -257.000; -253.000
253.073;  -64.200; -376.000; -317.000
253.215;   -8.150;  141.000;  122.000
253.357;  -15.075;   82.000; -153.000
253.499;  -38.775; -374.000; -234.000
253.641;  -86.150; -749.000; -594.000
253.783;  -91.875; -609.000; -527.000
253.925;  -85.975; -586.000; -591.000
254.067; -103.350; -744.000; -667.000
254.209;  -42.075; -391.000; -259.000
254.351; -134.850; -865.000; -883.000
254.493;  -62.250; -441.000; -417.000
254.635; -125.850; -936.000; -818.000
254.777; -107.175; -752.000; -687.000
254.918;  -58.425; -512.000; -430.000
255.060;  -63.550; -551.000; -395.000
255.202;  -54.350; -473.000; -261.000
255.344;  -68.850; -658.000; -455.000
255.486;  -73.525; -471.000; -406.000
255.628;  -93.225; -780.000; -781.000
255.770;  -82.925; -676.000; -536.000
255.912;  -65.550; -559.000; -468.000
256.053;  -90.200; -730.000; -508.000
256.195;  141.950; 1008.000;  903.000
256.337;  -98.625; -861.000; -595.000
256.479;   46.525;  532.000;  416.000
256.621;  -49.875; -394.000; -212.000
256.762;  -79.775; -789.000; -742.000
256.904;   38.650;  485.000;  487.000
257.046;  -36.525; -381.000; -271.000
257.188;  -53.300; -351.000; -264.000
257.329;  -69.825; -525.000; -464.000
257.471; -125.575; -939.000; -807.000
257.613;  -63.425; -584.000; -498.000
257.755; -135.975;-1073.000; -982.000
257.896;   32.500;  286.000;  392.000
258.038;  -62.425; -403.000; -352.000
258.180;  -35.125; -354.000; -279.000
258.321;  -94.125; -581.000; -457.000
258.463;    2.250;  -71.000;  133.000
258.605;  -80.675; -562.000; -570.000
258.746;  -96.150; -886.000; -772.000
258.888; -156.225;-1026.000;-1020.000
259.029;   13.200;  121.000;   -8.000
259.171;  -88.775; -614.000; -550.000
259.313;   -6.150;  -49.000;  -47.000
259.454;  -76.625; -536.000; -414.000
259.596;  -51.000; -483.000; -390.000
259.737;  -75.325; -590.000; -474.000
259.879;   17.325;  217.000;  311.000
260.020;   68.625;  901.000;  636.000
260.162;  -31.975; -146.000; -253.000
260.303; -106.925; -768.000; -687.000
260.445;  -84.050; -609.000; -613.000
260.586;   21.550;  392.000;  157.000
260.728;  -43.550; -360.000; -248.000
260.869;  -53.450; -350.000; -343.000
261.011;   65.350;  706.000;  537.000
261.152;  -60.550; -479.000; -319.000
261.293;  -75.925; -576.000; -595.000
261.435;  -24.025; -219.000; -184.000
261.576;  -53.000; -455.000; -325.000
261.718;   34.650;  420.000;  470.000
261.859; -117.250; -940.000; -949.000
262.000; -125.925; -951.000;-1016.000
262.142;  -23.600;  -52.000;  -60.000
262.283; -109.125; -808.000; -691.000
262.424;  -94.100; -666.000; -625.000
262.566; -162.925;-1161.000; -983.000
262.707; -116.700; -840.000; -830.000
262.848; -121.925; -769.000; -726.000
262.990;  -40.775; -362.000; -345.000
263.131;   75.725;  650.000;  681.000
263.272;  -23.625;  -61.000;  -41.000
263.413;  -90.750; -589.000; -561.000
263.555;  -58.000; -669.000; -143.000
263.696;  -88.225; -550.000; -641.000
263.837;  -73.700; -449.000; -551.000
263.978;   -8.950;   -5.000;  -77.000
264.119;  -51.625; -283.000; -264.000
264.261; -114.100; -847.000; -630.000
264.402;    1.200;   33.000;   40.000
264.543;  -81.825; -509.000; -524.000
264.684;   -5.225;   61.000;  -50.000
264.825;  -92.225; -816.000; -538.000
264.966;   -6.300;  -84.000;  -67.000
265.107; -101.775; -646.000; -670.000
265.248; -109.875; -825.000; -812.000
265.390;  -11.225;  152.000;   -9.000
265.531;  -23.450; -238.000; -107.000
265.672;  -72.425; -557.000; -630.000
265.813;   57.000;  563.000;  439.000
265.954; -119.675; -959.000; -940.000
266.095;  -19.075; -372.000; -322.000
266.236; -101.775; -686.000; -548.000
266.377;  -48.125; -243.000; -297.000
266.518;  -65.625; -619.000; -547.000
266.659;   16.400;  170.000;  268.000
266.800;    9.700;   83.000;   85.000
266.941;  -87.975; -487.000; -478.000
267.082;   12.000;  354.000;   99.000
267.223;  -66.675; -344.000; -273.000
267.364; -106.800; -892.000; -686.000
267.504;  -23.325;    3.000;  135.000
267.645;   -9.150;  160.000;   67.000
267.786;  -32.450; -147.000;  -86.000
267.927;  -61.125; -473.000; -379.000
268.068;  -37.050; -186.000;  -61.000
268.209;  -47.750; -175.000; -413.000
268.350;  -69.525; -388.000; -532.000
268.490;  -91.925; -648.000; -521.000
268.631;   28.500;  127.000;  225.000
268.772; -104.950; -874.000; -647.000
268.913;  -58.700; -328.000; -476.000
269.054;  -16.625; -117.000;   12.000
269.194;  -54.125; -418.000; -402.000
269.335; -139.275;-1137.000;-1074.000
269.476;  -25.675;   33.000;  -35.000
269.617;  -50.450; -347.000; -392.000
269.757;  -90.650; -713.000; -646.000
269.898; -104.925; -856.000; -613.000
270.039;  -64.925; -415.000; -405.000
270.180; -126.300; -952.000; -816.000
270.320;  -23.050; -190.000; -250.000
270.461;  -48.625; -277.000; -249.000
270.602;   -9.450; -186.000; -156.000
270.742; -128.025; -868.000; -943.000
270.883;  -51.675; -442.000; -390.000
271.023;  -60.650; -358.000; -357.000
271.164;  -68.925; -607.000; -528.000
271.305;  -95.950; -666.000; -654.000
271.445;  -77.125; -722.000; -683.000
271.586;  -80.525; -462.000; -283.000
271.726;  -53.925; -397.000; -322.000
271.867;  -74.175; -594.000; -534.000
272.008;   24.850; -473.000; -285.000
272.148;   54.375;  462.000;  468.000
272.289;  -16.950; -113.000; -181.000
272.429;   -0.975;   19.000;  185.000
272.570;  -99.525; -633.000; -737.000
272.710;  -96.425; -825.000; -775.000
272.851;  -33.400;  113.000; -130.000
272.991; -141.150;-1173.000;-1077.000
273.131;  -72.750; -419.000; -459.000
273.272; -101.850; -683.000; -723.000
273.412;    0.050; -143.000;  -31.000
273.553;  -73.850; -488.000; -507.000
273.693;   99.575;  913.000;  858.000
273.834; -124.375; -894.000; -692.000
273.974;  -89.775; -664.000; -615.000
274.114;  -87.800; -772.000; -560.000
274.255;   43.625;  414.000;  373.000
274.395;  -28.025; -180.000; -125.000
274.535;   23.700;  199.000;  350.000
274.676;   10.100;  225.000;   94.000
274.816;   -0.200;  110.000;   34.000
274.956;  -88.750; -624.000; -690.000
275.097;  -97.350;-1014.000; -922.000
275.237; -107.800; -913.000; -803.000
275.377;  -97.000; -778.000; -689.000
275.517; -153.225; -878.000; -937.000
275.658;  -72.925; -590.000; -555.000
275.798;  -84.425; -606.000; -413.000
275.938;    0.850;  215.000;  323.000
276.078;  -96.575; -626.000; -395.000
276.218;  -16.600;   99.000;  104.000
276.359; -131.300;-1026.000;-1024.000
276.499;  -69.875; -605.000; -446.000
276.639;  -38.650; -305.000; -151.000
276.779;  -62.400; -475.000; -357.000
276.919; -105.425; -783.000; -624.000
277.059;  -28.000; -261.000; -212.000
277.199;  -50.125; -357.000; -259.000
277.340;   32.325;  287.000;  175.000
277.480; -109.200; -840.000; -693.000
277.620;   25.775;  192.000;   16.000
277.760; -187.625;-1533.000;-1294.000
277.900;  -12.900;  113.000;   33.000
278.040;   -6.550;  137.000;  159.000
278.180;   18.125;  270.000;  170.000
278.320;  -17.800;   21.000;   56.000
278.460;  -72.575; -443.000; -469.000
278.600;  -77.775; -708.000; -598.000
278.740;   40.050;  448.000;  224.000
278.880; -104.425; -768.000; -791.000
279.020;  -30.750; -194.000; -144.000
279.160;  -87.600; -672.000; -595.000
279.300; -102.200; -926.000; -873.000
279.440;  -98.600; -709.000; -622.000
279.579;  -85.025;-1014.000; -929.000
279.719;  -74.650; -410.000; -394.000
279.859;   15.725;   -4.000;   41.000
279.999;   -6.650; -208.000;  101.000
280.139;  -54.725; -435.000; -387.000
280.279;  -95.325; -708.000; -745.000
280.419;  -25.875; -229.000; -147.000
280.559;  -56.650; -259.000; -180.000
280.698;  -89.025; -790.000; -639.000
280.838;  -94.950; -778.000; -800.000
280.978;  -97.875; -846.000; -790.000
281.118; -105.625; -811.000; -704.000
281.257;   -3.575;   24.000;    6.000
281.397; -142.550;-1094.000; -960.000
281.537;  -88.500; -599.000; -712.000
281.677;  -28.500; -150.000; -101.000
281.816;  -89.675; -700.000; -630.000
281.956;  -34.300; -193.000; -257.000
282.096;  -61.450; -539.000; -396.000
282.235; -101.150; -672.000; -638.000
282.375;  -14.750; -243.000;  -98.000
282.515; -106.050; -715.000; -707.000
282.654;   14.750;   29.000;  106.000
282.794;   30.250;  388.000;  244.000
282.934;  -64.100; -530.000; -491.000
283.073; -114.375;-1030.000; -857.000
283.213;  -50.200; -460.000; -467.000
283.353;  -67.700; -408.000; -349.000
283.492;  -30.800; -264.000; -296.000
283.632;  -42.025; -254.000; -168.000
283.771;  -93.875; -859.000; -730.000
283.911;  -65.625; -369.000; -260.000
284.050;  -94.550; -794.000; -748.000
284.190; -164.300;-1229.000;-1096.000
284.329; -136.350;-1055.000; -964.000
284.469;  -93.275; -516.000; -591.000
284.608;  -71.400; -559.000; -598.000
284.748;  -75.625; -614.000; -570.000
284.887;  -14.750;  -87.000;  -20.000
285.027; -127.050; -844.000; -892.000
285.166;  -39.375; -192.000; -249.000
285.306;  -24.925; -116.000;  -33.000
285.445;  -48.775; -229.000; -343.000
285.584;  -78.350; -630.000; -494.000
285.724;  -52.175; -282.000; -322.000
285.863; -107.550; -857.000; -507.000
286.002;  -57.275; -366.000; -276.000
286.142; -110.425; -715.000; -622.000
286.281;  -70.825; -525.000; -493.000
286.420;  -79.350; -554.000; -417.000
286.560;   86.850;  653.000;  623.000
286.699; -135.125; -958.000; -912.000
286.838;  -83.450; -590.000; -591.000
286.978;  -93.175; -533.000; -537.000
287.117; -129.700;-1085.000; -950.000
287.256;  -37.575; -228.000; -211.000
287.395;  -59.450; -197.000; -378.000
287.535;  -51.425; -370.000; -298.000
287.674;  -71.525; -509.000; -484.000
287.813;   38.025;  661.000;  533.000
287.952; -126.650;-1010.000; -871.000
288.091; -147.750;-1049.000; -915.000
288.231;    6.175;   13.000;   15.000
288.370; -172.725;-1217.000;-1200.000
288.509;  -96.150; -728.000; -645.000
288.648;  -96.575; -770.000; -548.000
288.787;  -46.275; -243.000;  -87.000
288.926;  -79.725; -454.000; -475.000
289.065;   92.600;  859.000;  672.000
289.204;  -69.950; -377.000; -217.000
289.344;  -89.400; -791.000; -690.000
289.483;    9.125;  416.000;  304.000
289.622;  -42.650; -291.000; -149.000
289.761;  -22.500; -309.000; -166.000
289.900; -102.275; -785.000; -626.000
290.039;  -24.375;  -12.000;  -95.000
290.178;  -39.050; -274.000; -180.000
290.317;  -90.325; -618.000; -479.000
290.456;  -63.600; -463.000; -451.000
290.595; -127.975; -961.000; -833.000
290.734; -128.225; -904.000; -891.000
290.873;  -78.375; -456.000; -420.000
291.011; -112.100; -833.000; -843.000
291.150; -107.525; -770.000; -682.000
291.289;  -38.325; -343.000; -110.000
291.428; -106.025; -599.000; -480.000
291.567;  -67.125; -370.000; -442.000
291.706;  -16.600;  109.000;  154.000
291.845;  -81.375; -597.000; -505.000
291.984; -156.575;-1234.000;-1061.000
292.122;   49.950;  602.000;  582.000
292.261;   22.875;  620.000;  463.000
292.400;  -15.100; -144.000;  211.000
292.539; -131.125; -959.000; -813.000
292.678;  -42.325; -325.000; -300.000
292.816; -168.100;-1136.000; -965.000
292.955; -107.725; -844.000; -684.000
293.094;  -39.275; -173.000; -337.000
293.233;  -63.925; -556.000; -400.000
293.371;  -43.650; -225.000;  -84.000
293.510; -114.100; -866.000; -780.000
293.649; -126.775; -959.000; -924.000
293.787; -126.375;-1083.000;-1012.000
293.926;  -16.525; -113.000;  -32.000
294.065;  -53.150; -379.000; -290.000
294.203;   29.350;  298.000;  406.000
294.342;   16.125;   74.000;  156.000
294.481; 5776.225;51180.000; -836.000
294.619;  -31.775; -425.000; -582.000
294.758; -142.125;-1230.000;-1137.000
294.896;    5.275; -125.000;    5.000
295.035; -144.650;-1040.000;-1006.000
295.174; -130.325;-1082.000; -954.000
295.312;  -45.750; -323.000; -203.000
295.451;  -42.300; -307.000; -428.000
295.589;  -74.475; -389.000; -518.000
295.728;    6.275; -292.000; -165.000
295.866;    2.500;  -36.000;  -51.000
296.005;  -67.675; -584.000; -341.000
296.143;  -67.400; -558.000; -596.000
296.282;  -95.400; -957.000; -881.000
296.420;  -90.925; -657.000; -557.000
296.559;  -83.050; -892.000; -633.000
296.697;  -53.700; -847.000; -665.000
296.835;  -94.350;-1141.000;-1002.000
296.974;   27.025;  -23.000;   39.000
297.112;  -28.150; -443.000; -504.000
297.251;  -87.925; -815.000; -755.000
297.389;   -2.475; -576.000; -438.000
297.527;    0.975; -145.000;  -83.000
297.666;  -60.600; -486.000; -438.000
297.804;  -62.750; -404.000; -264.000
297.942;   -9.475; -136.000; -161.000
298.081;   -9.875; -183.000;   63.000
298.219;    1.775;  -17.000;  -19.000
298.357;  -20.575; -144.000;  -71.000
298.495;  -85.575; -810.000; -812.000
298.634;   10.650;  245.000;  219.000
298.772;  -30.350; -220.000; -338.000
298.910;  -50.050; -309.000; -182.000
299.048;  -26.875; -130.000; -153.000
299.187;  -40.775; -350.000; -250.000
299.325;    2.625;   52.000;  122.000
299.463;  -54.000; -389.000; -299.000
299.601;  -31.125; -327.000; -271.000
299.739; -133.250; -908.000; -883.000
299.877;  -89.050; -791.000; -703.000
300.016; -117.875;-1095.000; -935.000
300.154;   20.225;  -19.000; -161.000
300.292;  -49.475; -428.000; -348.000
300.430;  -38.475; -408.000; -291.000
300.568; -118.875; -940.000; -874.000
300.706;  -60.850; -366.000; -469.000
300.844; -138.575;-1108.000; -979.000
300.982;   57.175;  246.000;  282.000
301.120; -122.275; -965.000; -866.000
301.258;  -92.800; -812.000; -705.000
301.396;    4.550;  104.000;  -41.000
301.534;  -30.475; -218.000; -293.000
301.672;  -73.675; -664.000; -521.000
301.810;  -63.750; -613.000; -545.000
301.948;   18.775;   53.000;  149.000
302.086;  160.150; -250.000;  -32.000
302.224;  151.075; -610.000; -585.000
302.362;  -77.600; -558.000; -622.000
302.500;  -98.825; -923.000; -893.000
302.638;   14.325;  128.000;  245.000
302.776;  -57.025; -352.000; -408.000
302.913;   30.875;  447.000;  236.000
303.051;  -37.650;  -86.000;  -23.000
303.189;   17.550;   90.000;  118.000
303.327;  -52.375; -341.000; -256.000
303.465;  -84.525; -832.000; -588.000
303.603; -100.950; -805.000; -604.000
303.740;   33.450;  417.000;  241.000
303.878;  -85.550; -800.000; -759.000
304.016; -107.475; -915.000; -790.000
304.154; -147.075;-1123.000;-1152.000
304.291;  -58.900; -505.000; -554.000
304.429;   -2.575;  102.000;   74.000
304.567; -141.875; -908.000; -893.000
304.705;  -68.825; -408.000; -515.000
304.842;  -36.125; -616.000; -540.000
304.980;   -1.500;  215.000;   35.000
305.118;  -38.650; -367.000; -365.000
305.255; -123.975; -945.000; -927.000
305.393;   28.700;  178.000;  239.000
305.531; -139.525;-1173.000; -956.000
305.668;  -90.775; -663.000; -582.000
305.806;  -12.725; -358.000; -439.000
305.943;  -34.225; -629.000; -637.000
306.081;  -14.025; -378.000; -267.000
306.219; -103.500; -863.000; -748.000
306.356;   12.000;  158.000;   27.000
306.494;  125.650;  981.000;  761.000
306.631;    8.500;  -11.000;  -55.000
306.769;   13.600; -613.000; -485.000
306.906;  -16.175; -284.000; -258.000
307.044;  -45.750; -473.000; -488.000
307.181;  -48.625; -410.000; -332.000
307.319;    7.425;  112.000;   87.000
307.456; -171.250;-1191.000;-1153.000
307.594; -106.525; -980.000; -727.000
307.731;  -38.125; -371.000; -164.000
307.868;    1.275;  -15.000;   20.000
308.006; -119.775; -961.000; -847.000
308.143;  -54.950; -618.000; -330.000
308.281;   27.200;  -37.000; -254.000
308.418;  -60.525; -748.000; -640.000
308.555;  -67.175; -400.000; -250.000
308.693;  -71.575; -577.000; -573.000
308.830;  -97.825; -712.000; -657.000
308.967;   -9.625; -215.000;  -95.000
309.105;  -32.400; -507.000; -396.000
309.242;   -1.300; -468.000; -367.000
309.379;   25.975; -577.000; -655.000
309.517;  -91.850; -936.000; -948.000
309.654;  -79.500; -910.000; -734.000
309.791;  -61.325; -662.000; -580.000
309.928; -104.975; -977.000; -914.000
310.065;  131.275;  819.000;  697.000
310.203;  -61.425; -825.000; -850.000
310.340;  -26.975; -465.000; -321.000
310.477;  -69.500; -412.000; -516.000
310.614;  -62.725; -383.000; -473.000
310.751;  -64.400; -427.000; -518.000
310.889;  -11.650;    1.000;   11.000
311.026; -122.300;-1161.000; -939.000
311.163;  -53.500; -386.000; -380.000
311.300;  -56.475; -512.000; -479.000
311.437;  -62.975; -658.000; -619.000
311.574; -137.875;-1226.000; -985.000
311.711;  -55.600; -595.000; -433.000
311.848;  -17.400; -380.000; -388.000
311.985;    6.925;  270.000;   93.000
312.122; -104.025; -932.000; -762.000
312.259;  -97.000; -941.000; -994.000
312.396;  -50.800; -508.000; -551.000
312.533;  -67.575; -812.000; -790.000
312.670; -123.800;-1070.000; -898.000
312.807;  -25.475; -352.000; -367.000
312.944;  -50.475; -513.000; -611.000
313.081;  -10.150; -150.000; -415.000
313.218;  -77.700;-1111.000; -867.000
313.355;   -5.625; -531.000; -449.000
313.492;  -13.925; -455.000; -292.000
313.629;  115.875;  815.000;  735.000
313.766; -129.475;-1176.000;-1008.000
313.902;    0.225; -186.000;   21.000
314.039;  -44.175; -372.000; -289.000
314.176;   27.825;  286.000;  192.000
314.313;  -79.875; -569.000; -473.000
314.450;  -62.500; -788.000; -684.000
314.587;  -49.925; -468.000; -480.000
314.723;    6.000;  -78.000;  130.000
314.860;   37.775;  318.000;  332.000
314.997;   39.775;  223.000;  142.000
315.134;  -40.875; -385.000; -368.000
315.270;  -27.275; -480.000; -496.000
315.407; -122.975;-1094.000; -967.000
315.544;  -43.575; -657.000; -538.000
315.681;  -56.800; -681.000; -565.000
315.817;   45.000; -133.000; -176.000
315.954;   26.500; -613.000; -392.000
316.091; -110.175;-1045.000;-1023.000
316.227;  -24.125;  -71.000; -179.000
316.364;    8.025;   23.000;    6.000
316.500;  -42.025; -113.000; -300.000
316.637;  -39.250; -181.000; -302.000
316.774;  -78.750; -625.000; -358.000
316.910;  -79.475; -598.000; -629.000
317.047;  -66.400; -487.000; -351.000
317.183;  -56.525; -435.000; -566.000
317.320;   34.150; -367.000; -321.000
317.456;  -25.250; -733.000; -805.000
317.593;  -84.600; -598.000; -641.000
317.729;  -12.650;  168.000;  -67.000
317.866; -185.075;-1434.000;-1285.000
318.002;  -95.875; -708.000; -948.000
318.139; -125.575; -883.000; -867.000
318.275; -119.675;-1003.000; -738.000
318.412;  -72.250; -517.000; -336.000
318.548;  -82.925; -751.000; -720.000
318.685; -105.775; -985.000; -888.000
318.821;  -83.900; -762.000; -735.000
318.957;  -18.475;   34.000;  -23.000
319.094;   19.300;  297.000;  154.000
319.230;  -92.175; -756.000; -742.000
319.367;  -10.950; -471.000; -520.000
319.503;  -36.000; -538.000; -436.000
319.639; -103.550; -877.000; -793.000
319.775; -101.425; -750.000; -685.000
319.912;  -74.075; -424.000; -519.000
320.048; -110.900;-1184.000;-1184.000
320.184;   89.900;   59.000;   70.000
320.321;  -53.025; -497.000; -467.000
320.457;   57.825;  475.000;  662.000
320.593;  -68.975; -375.000; -382.000
320.729;  -98.825; -732.000; -734.000
320.866;  -76.675; -577.000; -635.000
321.002;  -89.500; -759.000; -809.000
321.138;  -30.475; -135.000; -211.000
321.274;   -3.525; -148.000; -115.000
321.410;  -53.675; -585.000; -353.000
321.546; -101.575;-1011.000; -911.000
321.683;   18.450;  400.000;  185.000
321.819;  -34.525;  -48.000; -117.000
321.955; -118.050; -743.000; -722.000
322.091;  -88.800; -585.000; -540.000
322.227;  -43.125; -382.000; -202.000
322.363;  -42.750; -320.000; -215.000
322.499;  -61.350; -343.000; -331.000
322.635;   84.700;  636.000;  443.000
322.771;  -27.025; -139.000;   12.000
322.907;   37.150;  129.000;  327.000
323.043;  -46.550; -115.000; -206.000
323.179;  -59.300; -394.000; -363.000
323.315;  -60.300; -401.000; -371.000
323.451;    7.750; -328.000; -236.000
323.587;   29.525;  -60.000;  -77.000
323.723;  -55.925; -682.000; -601.000
323.859;  -43.200; -258.000;  -76.000
323.995;  -41.800; -467.000; -409.000
324.131; -140.800; -967.000; -892.000
324.267;  -54.975; -254.000; -276.000
324.402; -135.875; -960.000; -983.000
324.538;  -40.675; -279.000; -104.000
324.674;  -10.475;  164.000;   77.000
324.810;   40.125;  226.000;  308.000
324.946;  -59.925; -810.000; -658.000
325.082;  -69.075; -568.000; -475.000
325.217;  -20.400;  -62.000;   16.000
325.353; -101.975; -764.000; -659.000
325.489;  -80.350; -540.000; -506.000
325.625;  -70.150; -579.000; -525.000
325.760;   79.875;  517.000;  376.000
325.896;   31.675; -515.000; -702.000
326.032;  -45.250; -403.000; -352.000
326.168;  -63.550; -462.000; -369.000
326.303;  -67.750; -352.000; -461.000
326.439;  -15.225; -336.000; -276.000
326.575;  -15.925; -190.000;  -29.000
326.710;  -17.000; -156.000;  -30.000
326.846;  -14.000;  146.000;  103.000
326.982;  -91.550; -530.000; -548.000
327.117;  -78.775; -481.000; -442.000
327.253;  -75.250; -745.000; -742.000
327.388; -138.375;-1137.000;-1153.000
327.524;  -80.350; -811.000; -578.000
327.659;  -38.550;  -58.000;  -22.000
327.795;   -9.925;   69.000;   45.000
327.931;  -73.950; -723.000; -499.000
328.066;  -32.075; -417.000; -276.000
328.202;  -36.475;   12.000; -129.000
328.337;   90.475;  957.000;  713.000
328.473;   23.975;  -12.000;  -74.000
328.608;  -21.525; -256.000; -267.000
328.743; -111.500; -799.000; -664.000
328.879;   10.850;  214.000;  114.000
329.014;  -30.400; -102.000; -122.000
329.150;  -76.050; -358.000; -483.000
329.285;  -76.025; -465.000; -466.000
329.421;  -45.000; -548.000; -246.000
329.556;  -26.375;  -36.000;   85.000
329.691;  -85.775; -633.000; -615.000
329.827;  -69.875; -626.000; -480.000
329.962;  -35.950;  131.000; -301.000
330.097;  -75.225; -673.000; -585.000
330.233;  -48.675; -410.000; -223.000
330.368; -118.425; -839.000; -628.000
330.503;  -22.000;    3.000;   98.000
330.638;  -29.150;  -93.000; -125.000
330.774;  -81.225; -609.000; -530.000
330.909;  -56.950; -434.000; -244.000
331.044; -103.100; -714.000; -708.000
331.179; -163.350;-1217.000;-1109.000
331.315;  -10.200;   77.000;   20.000
331.450;    4.250;  157.000;  285.000
331.585;  -98.625; -805.000; -706.000
331.720;  -87.475; -510.000; -460.000
331.855;   -9.300;  -35.000; -102.000
331.990;  421.575;   62.000;  138.000
332.126;  218.525; -110.000;   71.000
332.261;   12.075; -379.000; -265.000
332.396;   20.775; -135.000; -242.000
332.531;  -58.475;-1074.000;-1031.000
332.666;   95.125; -519.000; -363.000
332.801; -111.525; -726.000; -807.000
332.936;  -30.900; -192.000; -122.000
333.071; -162.500; -870.000; -817.000
333.206;    7.025;  307.000;  379.000
333.341;   18.075;  344.000;  418.000
333.476;  -95.000; -627.000; -623.000
333.611;  -44.025; -251.000; -173.000
333.746;  -52.575; -381.000; -464.000
333.881; -124.150; -973.000; -935.000
334.016; -123.975; -936.000; -917.000
334.151; -130.925; -746.000; -702.000
334.286;    4.625;  152.000;  186.000
334.421;  -28.300; -125.000; -178.000
334.556;  -80.550; -611.000; -567.000
334.690;  -83.775; -631.000; -577.000
334.825;   49.825;  381.000;   83.000
334.960;  -72.800; -285.000; -413.000
335.095;   -1.475;  135.000;  -91.000
335.230;  -93.325; -722.000; -738.000
335.365; -131.825;-1084.000; -990.000
335.499; -142.800;-1108.000;-1037.000
335.634;    4.875;    9.000;  534.000
335.769; -107.400; -755.000; -720.000
335.904;  -67.050; -603.000; -561.000
336.038;  -37.575; -735.000; -657.000
336.173; -126.425;-1206.000;-1194.000
336.308;   -2.125; -116.000; -189.000
336.443;   48.725; -544.000; -634.000
336.577;  -63.450; -936.000; -787.000
336.712;   48.675;   -4.000;  -12.000
336.847;  -44.950; -724.000; -607.000
336.981;   31.525; -272.000; -208.000
337.116;  247.650;  615.000;  501.000
337.250;   77.700; -434.000; -421.000
337.385;  489.025; -297.000; -208.000
337.520;  232.650; -632.000; -603.000
337.654;  -31.550; -215.000; -126.000
337.789; -141.500; -989.000; -933.000
337.923;  -51.750; -104.000; -205.000
338.058;  -97.225; -673.000; -738.000
338.192;  -50.500; -611.000; -488.000
338.327;  -18.900;  -18.000; -155.000
338.461;  -84.975; -299.000; -469.000
338.596; -104.975; -780.000; -638.000
338.730;  -90.325; -767.000; -803.000
338.865;  177.375;  -46.000; -140.000
338.999;   22.050; -846.000; -702.000
339.134;   14.400; -634.000; -536.000
339.268;   26.025; -741.000; -603.000
339.403;  580.925; -740.000; -775.000
339.537;  289.075; -894.000; -820.000
339.671;  -88.225; -829.000; -813.000
339.806;  -30.425; -556.000; -512.000
339.940;   38.600; -261.000; -235.000
340.074; -115.575; -685.000; -510.000
340.209;  -61.325; -351.000; -230.000
340.343;  -99.150; -517.000; -573.000
340.477;  131.025;  998.000; 1036.000
340.612;    5.000;-1033.000; -900.000
340.746;  248.950; -199.000; -243.000
340.880;  -90.250; -924.000; -785.000
341.014;  -15.900;  -45.000; -154.000
341.149; -110.850; -756.000; -718.000
341.283; -111.475; -839.000; -754.000
341.417; -147.100;-1124.000; -938.000
341.551;  -55.400; -768.000; -708.000
341.685;  -64.825; -633.000; -611.000
341.820;  -47.825; -562.000; -493.000
341.954;  -55.575; -218.000; -349.000
342.088; -145.500;-1102.000;-1019.000
342.222;   28.350;  565.000;  618.000
342.356;  -86.800; -395.000; -335.000
342.490; -122.475; -880.000; -841.000
342.624;  -49.075; -339.000; -242.000
342.758;  -52.150; -364.000; -312.000
342.892;  -88.200; -710.000; -585.000
343.026;  -38.950;  -58.000; -116.000
343.160;  -54.975; -426.000; -376.000
343.294;  -89.500; -474.000; -337.000
343.428;  -64.725; -488.000; -448.000
343.562;  -41.425; -172.000;  -23.000
343.696;  -56.575; -385.000; -314.000
343.830;  -49.625; -362.000; -356.000
343.964;  -30.875; -231.000; -168.000
344.098;  235.250;  199.000;   70.000
344.232;  183.200; -266.000; -127.000
344.366;   67.300; -567.000; -453.000
344.500;  -58.675; -665.000; -744.000
344.634;  -45.050; -324.000; -164.000
344.768;  -65.750; -531.000; -341.000
344.902;    6.475;  278.000;  256.000
345.035;  -75.950; -556.000; -496.000
345.169; -132.475; -933.000; -656.000
345.303;  -54.600; -308.000; -482.000
345.437;  -93.925; -826.000; -717.000
345.571;  -60.300; -675.000; -594.000
345.704;  -69.350; -309.000; -532.000
345.838;  -42.200; -331.000; -284.000
345.972;  -59.275; -543.000; -495.000
346.106;  260.150; -179.000; -190.000
346.239;  490.950; -312.000; -243.000
346.373;   -1.750; -343.000; -302.000
346.507; -136.350; -950.000; -962.000
346.640;   17.950;  -30.000;   13.000
346.774;  -98.150; -650.000; -797.000
346.908;  -25.925; -138.000;  -11.000
347.041;  -89.125; -646.000; -593.000
347.175;  -13.600;  259.000;   27.000
347.309; -100.325; -698.000; -628.000
347.442; -118.850; -883.000; -732.000
347.576;  114.850;  670.000;  668.000
347.709;   29.025; -123.000;  -52.000
347.843; -122.850; -933.000; -825.000
347.976;   12.275;  235.000;  294.000
348.110; -176.175;-1268.000;-1186.000
348.243; -101.900; -679.000; -772.000
348.377;    0.125;  -26.000;   60.000
348.510;   47.600;  403.000;  540.000
348.644;  -32.600;  -37.000; -159.000
348.777;  -16.250;  180.000;  191.000
348.911;  -55.325; -142.000; -112.000
349.044;   66.675;  471.000;  448.000
349.178;  -46.150;-1069.000;-1006.000
349.311;   96.950;  141.000;  255.000
349.444;   40.200; -927.000; -813.000
349.578;  -24.725; -347.000; -200.000
349.711; -134.050; -959.000; -862.000
349.845;  -67.350; -661.000; -591.000
349.978; -151.925;-1224.000;-1137.000
350.111; -101.025; -546.000; -612.000
350.244; -100.200; -596.000; -700.000
350.378;  -48.650; -392.000; -393.000
350.511;  -78.500; -393.000; -426.000
350.644; -107.525; -808.000; -806.000
350.778;    8.550;  168.000;  104.000
350.911;  -14.050;  134.000;  140.000
351.044;  -90.400; -685.000; -615.000
351.177;  -37.375; -321.000; -281.000
351.310;  -23.550;    3.000; -131.000
351.444; -119.100; -888.000; -788.000
351.577;   37.900;  140.000;   90.000
351.710;   82.000;  593.000;  417.000
351.843;  -47.625; -165.000;  -77.000
351.976;   -8.500;  149.000;  -79.000
352.109; -100.750; -621.000; -612.000
352.242;  -57.500; -464.000; -419.000
352.376;  -90.725; -580.000; -636.000
352.509;  -12.600; -437.000; -356.000
352.642; -111.200; -654.000; -604.000
352.775;   -5.675; -141.000;  -98.000
352.908; -125.650; -933.000; -904.000
353.041; -105.000; -814.000; -824.000
353.174;  -59.350; -551.000; -424.000
353.307; -108.550; -753.000; -764.000
353.440;   40.275;  541.000;  453.000
353.573;  -97.850; -957.000;-1008.000
353.706;  -71.050; -384.000; -558.000
353.839;  -47.325; -264.000; -220.000
353.971;  -98.825; -657.000; -512.000
354.104; -113.750; -896.000; -835.000
354.237;  -90.250; -627.000; -662.000
354.370; -103.125; -846.000; -879.000
354.503; -178.275;-1231.000;-1308.000
354.636;  -27.975; -529.000; -348.000
354.769; -116.775; -937.000; -860.000
354.902;  -40.475; -230.000; -139.000
355.034;  -18.850; -164.000; -220.000
355.167;  -16.800; -262.000; -162.000
355.300;  -64.925;-1061.000; -880.000
355.433; 1455.675;  -71.000;  -14.000
355.565; 2303.450; -402.000; -384.000
355.698;  624.225; -356.000; -296.000
355.831;    1.950; -882.000; -801.000
355.964;   18.725; -285.000; -170.000
356.096;  -88.225; -856.000; -843.000
356.229;   -9.225; -523.000; -530.000
356.362;  553.025; -373.000; -266.000
356.494;  946.675; -229.000; -162.000
356.627;  320.900;  269.000;  377.000
356.760;  883.575;  120.000;   53.000
356.892; 1532.275; -286.000; -601.000
357.025;  325.025;  403.000;  389.000
357.157;  208.225; -167.000; -179.000
357.290; 1222.925; -856.000; -713.000
357.423;  381.175; -667.000; -556.000
357.555;   76.650; -217.000; -228.000
357.688;   96.700; -483.000; -364.000
357.820;  103.925; -870.000; -877.000
357.953; 1121.325; -563.000; -589.000
358.085;  144.600; -632.000; -612.000
358.218;   67.700;-1131.000; -932.000
358.350;   21.400;  -58.000;  312.000
358.483; -164.900;-1300.000;-1187.000
358.615; -134.675;-1182.000;-1078.000
358.747; -144.925;-1187.000;-1058.000
358.880;  -61.000; -810.000; -744.000
359.012;  -29.650; -376.000; -202.000
359.145;  -56.000; -480.000; -511.000
359.277;  -82.650; -962.000; -913.000
359.409;  972.375;  536.000;  231.000
359.542;  179.375; -738.000; -688.000
359.674;   25.975;   46.000;   13.000
359.806;  -82.150; -565.000; -438.000
359.939;  -40.250; -617.000; -516.000
360.071;   43.250; -583.000; -579.000
360.203;  -39.425; -411.000; -364.000
360.335;   31.100;  164.000;  -16.000
360.468;   73.400; -249.000; -307.000
360.600; 1134.075; -547.000; -454.000
360.732; 4322.825; -546.000; -423.000
360.864;  682.075;-1216.000;-1044.000
360.996;   60.175; -516.000; -554.000
361.129;  -50.825; -389.000; -598.000
361.261;  -13.200;  110.000; -113.000
361.393;  -52.050; -252.000; -214.000
361.525;   -3.300;   94.000;  244.000
361.657; -114.625; -821.000; -703.000
361.789;  -27.725; -139.000; -155.000
361.921;  -53.175; -642.000; -593.000
362.053;   77.600;  524.000;  541.000
362.185;    4.550;  288.000;   72.000
362.318; -120.450; -709.000; -705.000
362.450;   26.175;  294.000;  444.000
362.582;  -94.350; -913.000; -870.000
362.714;  -61.375; -353.000; -332.000
362.846;  -80.000; -606.000; -490.000
362.978; -140.075; -941.000; -811.000
363.109;  -26.200; -161.000; -260.000
363.241;  131.900; -739.000; -749.000
363.373;  639.475; -649.000; -564.000
363.505; 1093.850; -186.000;  -91.000
363.637;  237.950; -787.000; -601.000
363.769; -136.325;-1067.000;-1080.000
363.901;  -77.675; -596.000; -654.000
364.033; -153.650;-1103.000;-1062.000
364.165;  -41.500; -283.000; -283.000
364.296;  104.675; -316.000; -177.000
364.428;  206.100;-1344.000;-1220.000
364.560;  -55.725; -679.000; -661.000
364.692;  -83.450; -738.000; -835.000
364.824;  -14.225; -588.000; -456.000
364.955;  510.900; -402.000; -564.000
365.087; 1792.025;-1097.000; -852.000
365.219;  120.750; -686.000; -816.000
365.351;  -82.175; -526.000; -572.000
365.482;   20.125;  300.000;  240.000
365.614;  -73.225; -402.000; -314.000
365.746; -104.850; -729.000; -752.000
365.877;  -91.125; -706.000; -672.000
366.009;  443.450;  -35.000;  -62.000
366.141;  -14.800;-1249.000;-1134.000
366.272; -101.025; -803.000; -719.000
366.404; -100.250;-1005.000; -874.000
366.535;  -12.725; -139.000;  -12.000
366.667;  -99.100; -644.000; -649.000
366.799;   27.050;  353.000;  203.000
366.930; -125.300; -862.000; -996.000
367.062;  191.750; -639.000; -613.000
367.193;  349.500; -872.000; -842.000
367.325;  -37.575; -580.000; -684.000
367.456;   -1.225; -246.000;   31.000
367.588;  254.200; -371.000; -318.000
367.719;   43.575;  -44.000;  -45.000
367.851;  -38.900; -222.000; -241.000
367.982; -112.025; -875.000; -732.000
368.113;  -34.450; -475.000; -358.000
368.245; -141.375; -960.000; -841.000
368.376;  -47.325; -254.000; -302.000
368.508;  -43.875; -188.000; -263.000
368.639; -148.600;-1166.000;-1034.000
368.770;  -89.550; -670.000; -589.000
368.902; -109.950; -836.000; -926.000
369.033; -120.250; -906.000; -855.000
369.164;  -24.275; -720.000; -653.000
369.296;  -85.900; -452.000; -601.000
369.427;  -36.300; -209.000; -144.000
369.558;  -93.925; -593.000; -377.000
369.689;  -73.475; -721.000; -569.000
369.821; -143.725; -951.000; -845.000
369.952;  -32.625;   42.000; -108.000
370.083;  -50.750; -229.000; -108.000
370.214; -104.500; -735.000; -650.000
370.345;  -15.175;   65.000;   81.000
370.477; -109.325; -810.000; -790.000
370.608;    7.850; -328.000; -264.000
370.739; -142.800;-1233.000;-1292.000
370.870; -113.775;-1102.000; -923.000
371.001;  -30.750; -378.000; -467.000
371.132; -118.025; -754.000; -735.000
371.263;  -36.675;  -42.000; -148.000
371.394; -144.675; -841.000; -748.000
371.525;   14.200;  345.000;  225.000
371.657; -115.475; -808.000; -670.000
371.788;   16.900;  103.000;  199.000
371.919;   -4.350; -384.000; -304.000
372.050;  986.500;  -91.000; -156.000
372.181;  280.350; -188.000; -294.000
372.311;   61.775;   42.000; -127.000
372.442;  -56.600; -457.000; -451.000
372.573;  -53.050; -444.000; -340.000
372.704; -152.525;-1008.000; -980.000
372.835;  -38.875; -228.000; -289.000
372.966;  -81.725; -646.000; -554.000
373.097;  -95.600; -575.000; -711.000
373.228;  -94.800; -717.000; -542.000
373.359;  -56.500; -824.000; -536.000
373.490;  103.400; -881.000; -727.000
373.620;  151.900;-1001.000; -803.000
373.751;  379.200; -332.000; -396.000
373.882;  151.325; -663.000; -733.000
374.013;  -26.125; -449.000; -262.000
374.143;  -86.125; -581.000; -659.000
374.274; -120.325; -987.000; -908.000
374.405;   50.250; -388.000; -276.000
374.536;   61.050; -526.000; -387.000
374.666;  184.900; -759.000; -807.000
374.797;  -42.050; -817.000; -868.000
374.928;  118.700; -710.000; -560.000
375.058;  129.750; -535.000; -500.000
375.189;   16.000;  -59.000;  -93.000
375.320; -120.350; -928.000;-1034.000
375.450;  -70.775; -625.000; -616.000
375.581;  -55.050; -526.000; -436.000
375.712;  -46.750; -574.000; -250.000
375.842;  -25.325; -438.000; -415.000
375.973;  -34.550; -554.000; -513.000
376.103; -107.225; -665.000; -648.000
376.234;  -91.800; -531.000; -552.000
376.364; -127.700; -944.000; -867.000
376.495;  133.125;  925.000;  529.000
376.625;  -61.900; -472.000; -485.000
376.756;  -61.750; -709.000; -678.000
376.886; -142.925;-1178.000;-1026.000
377.017;  159.000;-1048.000;-1061.000
377.147;  685.050; -786.000; -782.000
377.278;   88.950;  174.000;  228.000
377.408; -132.125; -801.000; -815.000
377.538; -113.550; -707.000; -693.000
377.669;  -83.300; -537.000; -613.000
377.799; -116.575; -645.000; -635.000
377.929; -100.050; -610.000; -428.000
378.060; -115.425; -781.000; -847.000
378.190;  -31.750; -726.000; -531.000
378.320;  -43.850; -401.000; -406.000
378.451;  -21.650; -131.000;  -22.000
378.581;  -19.425;  -67.000; -110.000
378.711;   86.750; 1035.000;  866.000
378.841;  -77.575; -533.000; -675.000
378.972; -113.725; -871.000; -751.000
379.102;  -70.550; -652.000; -579.000
379.232;  -63.450; -126.000;  -73.000
379.362; -123.825;-1001.000; -885.000
379.492;  -59.250; -373.000; -424.000
379.623;   23.975;    0.000;  111.000
379.753; -130.200;-1107.000; -974.000
379.883;   62.025;   59.000;  156.000
380.013; -104.600;-1081.000;-1017.000
380.143; -127.900;-1097.000;-1056.000
380.273; -110.925; -985.000; -861.000
380.403;    1.625; -344.000; -257.000
380.533;  -66.700; -651.000; -664.000
380.663;   31.525;  173.000;  128.000
380.793; -147.100;-1027.000;-1074.000
380.923;  -41.900; -103.000;  -34.000
381.053;  -93.425; -613.000; -623.000
381.183;  -43.175; -106.000; -248.000
381.313;  -73.525; -656.000; -470.000
381.443;  -60.850; -692.000; -473.000
381.573;  -41.800; -402.000; -409.000
381.703;  -99.750;-1249.000;-1095.000
381.833; -185.400;-1454.000;-1336.000
381.963;   15.975; -134.000;  -87.000
382.093;  289.375; -925.000; -909.000
382.223;   59.875; -713.000; -602.000
382.353;  -88.200; -801.000; -608.000
382.482;  -43.800;-1091.000; -964.000
382.612;  122.075; -872.000; -644.000
382.742;   46.550; -695.000; -622.000
382.872;  -42.025; -565.000; -551.000
383.002;   14.375;  347.000; -132.000
383.131;  -24.200; -226.000; -160.000
383.261;  -31.050; -706.000; -768.000
383.391;  337.450; -552.000; -377.000
383.521; 5214.125;  451.000;  263.000
383.650; 1596.475; -947.000; -904.000
383.780;   34.025; -783.000; -656.000
383.910;   92.450;  880.000;  802.000
384.039;  -94.250; -794.000; -656.000
384.169; -104.725;-1205.000;-1017.000
384.299;  -86.300; -650.000; -662.000
384.428; -119.975; -764.000; -680.000
384.558;  -66.550; -308.000; -275.000
384.687;  -80.750; -414.000; -334.000
384.817;  -11.650;   75.000;   -2.000
384.947;  -37.775; -234.000; -141.000
385.076;  157.950;  982.000;  912.000
385.206;   49.175;  369.000;  480.000
385.335;  -71.250; -549.000; -417.000
385.465;  -92.650; -655.000; -663.000
385.594;   -1.425;  -53.000;  -44.000
385.724;    6.675; -868.000; -838.000
385.853;  -17.125; -296.000; -270.000
385.982;  234.900; -743.000; -787.000
386.112;  474.100;-1052.000; -871.000
386.241;  -13.125; -307.000; -312.000
386.371;  -29.900; -174.000;  -87.000
386.500;  -63.775; -825.000; -789.000
386.629;   -2.150; -874.000; -817.000
386.759;   87.575;  -43.000;   68.000
386.888;  -12.050; -170.000; -250.000
387.017;  -96.000; -648.000; -620.000
387.147; -101.025; -771.000; -798.000
387.276;  -58.325; -410.000; -397.000
387.405;  -53.350; -398.000; -342.000
387.535;  -74.150; -452.000; -361.000
387.664;  -65.250; -692.000; -620.000
387.793;  -36.725; -198.000; -113.000
387.922;  107.725;  255.000;  200.000
388.052;  -50.025; -576.000; -423.000
388.181;  -58.700; -342.000; -472.000
388.310; -109.650; -889.000; -710.000
388.439; -109.425; -749.000; -742.000
388.568;   33.025;  365.000;  244.000
388.697;  170.900; -756.000; -653.000
388.826;  -21.325; -768.000; -666.000
388.956;  -33.150; -285.000; -307.000
389.085;  -52.550; -347.000; -287.000
389.214; -105.875; -842.000; -872.000
389.343;  -68.625; -645.000; -413.000
389.472;  570.550;  126.000;  149.000
389.601;  643.725;   91.000;    0.000
389.730;  -20.100; -568.000; -687.000
389.859;   28.000;  226.000;   46.000
389.988;   28.425; -423.000; -408.000
390.117;   25.325; -168.000; -146.000
390.246;  -54.225; -331.000; -320.000
390.375;  -62.375; -673.000; -626.000
390.504;  -88.300; -703.000; -621.000
390.633; -110.775; -672.000; -726.000
390.761;  -92.850; -732.000; -645.000
390.890;  -33.875;   -4.000; -130.000
391.019;  -66.200; -421.000; -441.000
391.148; -121.675; -826.000; -855.000
391.277;  -90.975; -576.000; -493.000
391.406; -111.875; -821.000; -805.000
391.534;    9.275;  574.000; -301.000
391.663;  -84.950; -583.000; -645.000
391.792; -113.450; -673.000; -701.000
391.921;   -4.200;   -3.000;   15.000
392.050;    3.175; -287.000; -228.000
392.178; -145.725;-1206.000;-1061.000
392.307;  -37.075; -758.000; -712.000
392.436;  -58.150; -427.000; -641.000
392.564;   -0.350;  166.000;   -6.000
392.693; -110.900; -860.000; -682.000
392.822;   -8.125; -529.000; -534.000
392.950;  -65.075; -880.000; -714.000
393.079;   16.100; -188.000; -328.000
393.208;  -59.350; -488.000; -511.000
393.336;  -16.600; -170.000; -145.000
393.465;  -58.500; -317.000; -199.000
393.593;    4.300;   62.000;   79.000
393.722; -141.825;-1121.000; -916.000
393.850;  -24.850; -188.000;  -61.000
393.979; -125.825; -926.000; -805.000
394.107;  -61.075; -517.000; -537.000
394.236;  -52.675; -570.000; -507.000
394.364;   79.425;  383.000;  206.000
394.493;   29.975; -911.000; -767.000
394.621;   -4.900; -955.000; -916.000
394.750; 1170.275; -873.000; -923.000
394.878; 4515.800; -247.000; -149.000
395.007; 6740.875; -721.000; -807.000
395.135;  620.550; -790.000; -721.000
395.263;  -35.925;-1038.000;-1040.000
395.392;   13.400;  -25.000; -107.000
395.520; -138.475; -818.000; -679.000
395.648; -129.850; -865.000; -915.000
395.777;  -73.975; -366.000; -405.000
395.905;  -78.925; -449.000; -564.000
396.033;  -20.225;  217.000;  172.000
396.162;   55.650; -399.000; -453.000
396.290;   50.150;  -17.000;   -2.000
396.418;  -48.775; -555.000; -514.000
396.546; -100.975; -571.000; -466.000
396.674; -129.475; -850.000; -878.000
396.803;  -35.475;  -72.000;  -23.000
396.931;  -32.625; -179.000; -199.000
397.059; -139.075;-1026.000; -989.000
397.187; -139.875;-1026.000; -975.000
397.315; -124.300; -884.000; -649.000
397.443; -102.850; -592.000; -443.000
397.572;  -99.650; -578.000; -424.000
397.700;  -84.850; -607.000; -614.000
397.828;  -47.725;  120.000;  -90.000
397.956;  -36.650; -508.000; -478.000
398.084;  -30.725; -767.000; -626.000
398.212;   -8.150;  137.000;  124.000
398.340;  -21.675;  -56.000;  159.000
398.468;  -59.850; -390.000; -169.000
398.596; -147.975; -993.000; -953.000
398.724; -118.075; -762.000; -767.000
398.852; -156.425;-1024.000; -976.000
398.980;  -87.300; -560.000; -560.000
399.108; -102.075; -982.000; -735.000
399.236;  -16.575;   13.000;    8.000
399.363;   -9.675;  222.000;  196.000
399.491;  -68.600; -404.000; -398.000
399.619; -118.350; -829.000; -800.000
399.747; -114.575; -859.000; -771.000
399.875;   39.500;  220.000;  234.000
400.003;  -62.775; -359.000; -284.000
400.130; -100.225; -421.000; -341.000
400.258;  -35.650;  -83.000;   38.000
400.386;  -69.725; -352.000; -168.000
400.514;  -94.075; -526.000; -587.000
400.641; -140.325; -928.000; -802.000
400.769; -157.875; -979.000; -888.000
400.897; -128.175; -838.000; -793.000
401.025;  -42.200; -166.000; -152.000
401.152;  -13.975;  220.000;   38.000
401.280;  -88.750; -430.000; -429.000
401.408; -117.975; -712.000; -576.000
401.535; -113.825; -735.000; -758.000
401.663; -200.025;-1134.000;-1054.000
401.790;  -99.250; -514.000; -525.000
401.918;   19.400;  436.000;  405.000
402.046;  -25.875;  134.000;  122.000
402.173;  -39.375;  -18.000;    7.000
402.301;  -80.900; -519.000; -397.000
402.428;   22.525;  528.000;  383.000
402.556; -150.925;-1188.000; -913.000
402.683;  -38.350;  -20.000;   -1.000
402.811;  -28.100;  -37.000; -206.000
402.938;  -27.950;   20.000;   27.000
403.066;  -17.925; -574.000; -558.000
403.193;   85.500;  299.000;  239.000
403.321;   41.875; -396.000; -574.000
403.448;   92.425;   83.000;   27.000
403.575;   45.175;  -90.000;  -46.000
403.703;  -89.100; -732.000; -557.000
403.830;  -39.800; -531.000; -496.000
403.957; -121.100;-1117.000;-1023.000
404.085;   28.400;  -61.000; -172.000
404.212;  110.575;  -50.000;   63.000
404.339;  457.225; -566.000; -306.000
404.467; 9164.825; -612.000; -524.000
404.594; 5691.050; -287.000; -227.000
404.721;  987.725; -869.000; -764.000
404.848;  112.575; -113.000; -202.000
404.976;  -96.975; -856.000; -783.000
405.103;    8.825;  -14.000;  -82.000
405.230;    5.400;  190.000;  226.000
405.357;   65.525;  117.000;   44.000
405.484;  439.600;  -49.000;    5.000
405.612;  120.000; -548.000; -563.000
405.739;  -55.475; -488.000; -243.000
405.866;   84.700;  669.000;  385.000
405.993;  -48.900; -398.000; -102.000
406.120; -136.400; -801.000; -887.000
406.247;  -75.100; -323.000; -342.000
406.374;   85.850;  540.000;  629.000
406.501;  -79.175; -632.000; -702.000
406.628;  -75.000; -621.000; -589.000
406.755; -129.075; -803.000; -620.000
406.882;  -61.275; -228.000; -277.000
407.009; -114.825; -719.000; -628.000
407.136;  -45.750; -480.000; -401.000
407.263;  -55.875; -939.000; -829.000
407.390;  -90.200; -692.000; -614.000
407.517; -174.900;-1139.000;-1187.000
407.644;  -60.475; -332.000; -256.000
407.771;  -74.525; -249.000; -287.000
407.898;  -20.125;  168.000;  328.000
408.025;  -73.875; -421.000; -313.000
408.151;   -7.275;   82.000;  153.000
408.278;  -64.425; -267.000; -216.000
408.405; -131.825; -931.000; -899.000
408.532;  -99.200; -549.000; -542.000
408.659; -126.075; -677.000; -648.000
408.785; -193.850;-1298.000;-1170.000
408.912;  -63.500; -412.000; -296.000
409.039; -108.550; -610.000; -686.000
409.166; -100.875; -591.000; -555.000
409.292; -105.775; -571.000; -534.000
409.419; -121.175; -665.000; -649.000
409.546;  -85.675; -431.000; -192.000
409.672;  -89.725; -713.000; -545.000
409.799;  -32.025;  -36.000;   34.000
409.926;  -66.300; -180.000; -179.000
410.052; -182.100;-1127.000;-1091.000
410.179;  -82.050; -368.000; -392.000
410.305;  -85.300; -375.000; -493.000
410.432;  -30.075; -220.000; -333.000
410.558;  -94.625; -305.000; -380.000
410.685; -106.950; -688.000; -431.000
410.812; -100.550; -409.000; -588.000
410.938; -136.325; -964.000; -808.000
411.065; -115.600; -671.000; -645.000
411.191;  -45.325; -189.000; -174.000
411.317; -134.325; -823.000; -742.000
411.444;  -69.675; -317.000; -246.000
411.570;  -74.425; -339.000; -294.000
411.697; -117.725; -758.000; -752.000
411.823; -164.975; -989.000; -999.000
411.949;  -46.700;  -56.000;   17.000
412.076; -118.775; -539.000; -519.000
412.202; -126.400; -758.000; -757.000
412.329; -146.500; -798.000; -752.000
412.455; -116.325; -821.000; -657.000
412.581;  -35.800;  -15.000;  172.000
412.707;  -81.850; -540.000; -457.000
412.834;  -16.625;  156.000;  219.000
412.960; -113.550; -785.000; -784.000
413.086; -104.950; -743.000; -701.000
413.212;  104.950;  604.000;  578.000
413.339;  -94.675; -685.000; -701.000
413.465;  -45.125; -364.000; -310.000
413.591;  -99.175; -757.000; -474.000
413.717;  -66.225; -358.000; -366.000
413.843; -143.300; -839.000; -861.000
413.969;  -73.600;  -47.000; -292.000
414.096;  -91.750; -679.000; -679.000
414.222;   -4.300;  -33.000;   85.000
414.348;  -73.550; -652.000; -385.000
414.474;   -3.225;   38.000;  -52.000
414.600;  -26.550; -126.000; -144.000
414.726;   -3.450;  -96.000;  -55.000
414.852;  -46.550; -365.000; -342.000
414.978;   45.950;  104.000;  -18.000
415.104;   66.550;   38.000;   80.000
415.230;   52.975; -329.000; -330.000
415.356;   61.250; -409.000; -514.000
415.482;  232.275;   13.000;  -35.000
415.608;  413.250; -247.000; -323.000
415.734; 1350.825;   67.000;   38.000
415.860;27734.200; -875.000; -767.000
415.986;23422.950; -685.000; -607.000
416.111; 2201.675; -798.000; -652.000
416.237;  474.250; -424.000; -571.000
416.363; 1688.775; -765.000; -733.000
416.489; 6916.175; -324.000; -251.000
416.615;  978.025; -707.000; -742.000
416.741;   69.550; -677.000; -784.000
416.866;  -66.575; -673.000; -736.000
416.992;  -94.325; -801.000; -818.000
417.118;  -20.650;  -41.000;  -80.000
417.244;  -62.300; -798.000; -531.000
417.369;  -66.650; -801.000; -612.000
417.495;  -15.275; -325.000; -254.000
417.621;  -83.725;-1015.000; -803.000
417.746;    7.325; -579.000; -572.000
417.872;   76.600; -254.000; -144.000
417.998;  132.300; -515.000; -530.000
418.123; 1568.650;-1073.000; -845.000
418.249; 8714.350; -512.000; -601.000
418.374; 1551.475; -916.000; -824.000
418.500;  252.850; -383.000; -482.000
418.626;  191.575;   70.000;  -59.000
418.751;  183.275; -549.000; -448.000
418.877;  325.050; -637.000; -643.000
419.002; 2590.175; -688.000; -560.000
419.128;19876.625; -930.000; -721.000
419.253; 5816.775; -967.000; -837.000
419.379;  796.925; -391.000; -338.000
419.504;  617.950;  325.000;  415.000
419.629;  848.750; -393.000; -212.000
419.755; 5381.525; -317.000; -254.000
419.880;35642.750;  -98.000;   67.000
420.006;17911.450; -280.000; -221.000
420.131;44462.675; -662.000; -775.000
420.256; 7428.250; -315.000; -316.000
420.382; 1015.225; -665.000; -687.000
420.507;  184.250; -649.000; -778.000
420.632;   43.075; -337.000; -339.000
420.758;   41.250; -251.000; -425.000
420.883;  -87.825; -876.000; -672.000
421.008; -106.525; -775.000; -619.000
421.133;  -79.975; -509.000; -467.000
421.259;  -50.725; -325.000; -259.000
421.384; -117.175; -834.000; -693.000
421.509; -115.375;-1052.000; -862.000
421.634;   79.800; -936.000; -820.000
421.759;   58.475; -359.000; -327.000
421.885;  -94.800; -717.000; -656.000
422.010;  -89.700; -673.000; -542.000
422.135; -148.450; -695.000; -727.000
422.260;   16.050;  340.000;  280.000
422.385;  -32.425;   12.000;  -98.000
422.510;   -1.825;  151.000;  -26.000
422.635;  -16.150;  -87.000;  -43.000
422.760;  -25.825; -766.000; -791.000
422.885;   27.800;  -57.000;  -80.000
423.010;  -39.625; -112.000; -169.000
423.135;  -90.225; -481.000; -561.000
423.260;  -50.700; -150.000; -245.000
423.385;   23.025;  476.000;  222.000
423.510;    6.800;   71.000;  -22.000
423.635;   -3.325;  133.000;   45.000
423.760;   54.075;  383.000;  328.000
423.885;   30.175;  336.000;  391.000
424.010;   -7.375;  -68.000;  -13.000
424.135;  -30.450;    5.000;  -33.000
424.259;  -78.225; -654.000; -457.000
424.384;  -55.125; -279.000; -272.000
424.509;  -20.075; -260.000; -186.000
424.634;  -87.775; -761.000; -623.000
424.759;  -34.525; -688.000; -544.000
424.883;    1.225; -506.000; -527.000
425.008;  208.275; -502.000; -410.000
425.133; 2929.725; -679.000; -653.000
425.258; 1638.350; -517.000; -381.000
425.382;  443.050; -867.000; -774.000
425.507;  917.175; -487.000; -543.000
425.632;  366.225; -802.000; -663.000
425.756;  713.400; -256.000; -146.000
425.881;10167.200; -831.000; -857.000
426.006;32193.225; -604.000; -355.000
426.130; 5408.900; -696.000; -508.000
426.255;  730.300; -611.000; -491.000
426.379;  309.475; -189.000; -577.000
426.504;  515.775;  660.000;  544.000
426.629; 5681.375; -519.000; -466.000
426.753; 4604.575;   64.000;  -46.000
426.878;  559.275; -252.000; -288.000
427.002;  320.325; -651.000; -668.000
427.127; 2084.500;  -35.000; -158.000
427.251;17611.800;  372.000;  401.000
427.375; 5873.450; -191.000; -173.000
427.500; 1185.375; -616.000; -610.000
427.624;  354.800; -234.000; -400.000
427.749;   80.025; -216.000; -225.000
427.873;  -28.600; -499.000; -412.000
427.997;  -32.600; -222.000; -230.000
428.122;   52.775;  795.000;  703.000
428.246;   37.675;  433.000;  434.000
428.371; -131.025; -869.000; -773.000
428.495; -107.025; -624.000; -646.000
428.619;  -48.675; -186.000; -117.000
428.743;   -1.075;   65.000;  132.000
428.868;  -81.950; -732.000; -643.000
428.992;  365.975; -219.000; -326.000
429.116;  137.900; -329.000; -357.000
429.240;  101.050;  419.000;  426.000
429.365;  -38.225; -454.000; -574.000
429.489;  -56.175; -638.000; -647.000
429.613;   30.900; -236.000; -177.000
429.737;   95.775; -563.000; -432.000
429.861;  389.275; -247.000; -133.000
429.985; 7991.800; -425.000; -305.000
430.109;10415.575; -770.000; -908.000
430.234; 1313.450;   76.000;  -50.000
430.358;  174.750; -250.000; -160.000
430.482;  -22.800; -672.000; -564.000
430.606;  -56.125; -655.000; -375.000
430.730;  -64.675; -437.000; -388.000
430.854;  -86.050; -909.000; -835.000
430.978;  -91.200; -795.000; -764.000
431.102;  -78.275; -499.000; -422.000
431.226; -107.325; -874.000; -815.000
431.350;   34.850;  345.000;  422.000
431.474;  -87.525; -661.000; -373.000
431.597; -154.975;-1060.000; -848.000
431.721;  -65.525; -276.000; -267.000
431.845; -116.725; -704.000; -472.000
431.969;  -72.225; -304.000; -349.000
432.093;  -84.950; -395.000; -317.000
432.217;   -0.600;   32.000;   82.000
432.341;  -86.850; -523.000; -518.000
432.464;   -7.375;   96.000;   40.000
432.588;  -22.900; -401.000; -329.000
432.712;   17.925;  -52.000;  -52.000
432.836;   64.850;  213.000;  263.000
432.959;   29.650; -372.000; -311.000
433.083;  177.750;   11.000;    2.000
433.207;  571.550;  285.000;  930.000
433.330; 7735.625; -391.000; -200.000
433.454;10935.800; -654.000; -638.000
433.578; 6014.950;  583.000;  278.000
433.701; 1328.800; -623.000; -675.000
433.825;  162.150; -292.000; -299.000
433.949;   39.800;   28.000;  -72.000
434.072;  -17.850; -410.000; -323.000
434.196;    2.125; -309.000; -117.000
434.319; 3406.200;25482.000;25124.000
434.443;  859.700; -656.000; -603.000
434.566; 4213.500;  281.000;   62.000
434.690;  960.425; -637.000; -383.000
434.813;  172.775; -251.000; -173.000
434.937;  -28.800; -569.000; -696.000
435.060;  -69.775; -423.000; -332.000
435.184;  -23.050; -492.000; -217.000
435.307;   -7.550;  159.000;  102.000
435.431;  -26.700;  -40.000;   24.000
435.554;  -93.375; -399.000; -240.000
435.677;  -65.625; -350.000; -258.000
435.801;  -54.225;  -25.000;   49.000
435.924;  -47.125;    1.000;  -67.000
436.048; -153.175;-1019.000; -732.000
436.171;  -61.825; -240.000;  -66.000
436.294;   -7.850; -248.000; -229.000
436.417;  243.700; -963.000; -849.000
436.541;  -15.000; -814.000; -840.000
436.664;  -36.175; -242.000; -316.000
436.787;  -26.500;   13.000;  113.000
436.910; -114.800; -792.000; -422.000
437.034;   -5.100;  142.000;  143.000
437.157;    4.325;  -11.000;    0.000
437.280;  -69.475; -392.000; -292.000
437.403; -136.500; -982.000; -869.000
437.526;  -34.725; -903.000; -865.000
437.649;  310.075; -505.000; -332.000
437.772;  -44.200; -692.000; -540.000
437.896;   56.400;  700.000;  544.000
438.019;  -98.200; -758.000; -503.000
438.142;  -97.500; -596.000; -506.000
438.265; -118.775; -639.000; -670.000
438.388;   -6.750; -520.000; -410.000
438.511;  -75.175; -597.000; -394.000
438.634;  -74.175; -247.000; -125.000
438.757; -142.450; -693.000; -619.000
438.880;  -43.175;  -34.000;  -57.000
439.003;  -98.025; -417.000; -437.000
439.126;  -74.050; -287.000; -167.000
439.248;  -55.125;  -98.000; -139.000
439.371;  -49.600;    9.000;  -53.000
439.494;   15.350;  510.000;  439.000
439.617;  -52.025;   65.000;  -88.000
439.740; -168.725; -968.000; -816.000
439.863; -138.900; -755.000; -595.000
439.986; -123.475; -476.000; -431.000
440.108;  -40.225; -161.000; -112.000
440.231; -164.850; -950.000; -836.000
440.354;  -58.375;  -64.000; -150.000
440.477; -101.800; -566.000; -542.000
440.599;  -84.400; -200.000; -225.000
440.722; -136.225; -709.000; -586.000
440.845;   48.225;  751.000;  928.000
440.968; -120.125; -415.000; -311.000
441.090;  -54.875; -199.000;  -33.000
441.213; -170.125;-1021.000; -825.000
441.336;  -54.325; -159.000;   -5.000
441.458;  -98.700; -549.000; -396.000
441.581; -112.375; -628.000; -629.000
441.703;  -79.200; -152.000;   13.000
441.826; -107.225; -557.000; -400.000
441.948;  -54.450;   56.000;   51.000
442.071;   15.400;  555.000;  424.000
442.193; -124.750; -531.000; -485.000
442.316;   -3.025;  152.000;   97.000
442.438;   70.425; -233.000;  -10.000
442.561;   59.775;  272.000;  262.000
442.683;    9.350; -809.000; -522.000
442.806;  176.775;   -8.000;   74.000
442.928; -104.600; -859.000; -604.000
443.051;  -69.325; -577.000; -373.000
443.173;  -95.525; -341.000; -339.000
443.295;  -86.025; -263.000; -371.000
443.418;  -90.200; -321.000;  -29.000
443.540;  -39.900; -106.000;   -4.000
443.662; -142.725; -563.000; -465.000
443.785;  -24.575;  335.000;  199.000
443.907; -101.400; -362.000; -208.000
444.029; -125.475; -767.000; -494.000
444.152; -138.225; -644.000; -554.000
444.274;  -45.125;  -18.000;  -24.000
444.396; -109.575; -461.000; -221.000
444.518; -119.950; -691.000; -454.000
444.640;  -94.075; -268.000; -111.000
444.763;  -13.975;  388.000;  249.000
444.885; -115.375; -432.000; -392.000
445.007;  -34.400;   35.000;   86.000
445.129; -124.275; -610.000; -515.000
445.251; -101.650; -372.000; -439.000
445.373; -135.575; -537.000; -386.000
445.495;   -8.075;  242.000;  350.000
445.617;   37.775;  853.000;  753.000
445.739;  -77.500; -215.000;  -97.000
445.861;  -69.350; -245.000; -112.000
445.984;  -71.300; -267.000; -101.000
446.105;  -39.825; -418.000; -251.000
446.227;   59.100; -176.000;  -19.000
446.349;  -84.450; -358.000; -249.000
446.471; -115.700; -615.000; -448.000
446.593;  -83.450; -316.000;   19.000
446.715;  -43.075;  -67.000;   41.000
446.837;   53.150;  697.000;  832.000
446.959; -102.200; -457.000; -478.000
447.081; -134.500; -628.000; -518.000
447.203;   43.350;  862.000;  834.000
447.325;  -85.000; -270.000;   42.000
447.446;   -5.325;  286.000;  530.000
447.568; -150.975; -921.000; -803.000
447.690;  -88.400; -236.000; -245.000
447.812; -144.100; -798.000; -519.000
447.933;  -29.400;  155.000;  127.000
448.055;  -78.375; -306.000; -261.000
448.177;   13.775;   31.000;   79.000
448.299; -106.075; -935.000; -727.000
448.420;  -12.150;  -25.000;  159.000
448.542;  -55.125;   -3.000;   33.000
448.664;  -28.000;  109.000;  322.000
448.785;  -47.925;  265.000;   83.000
448.907; -100.375; -614.000; -353.000
449.028;  -98.550; -771.000; -471.000
449.150;   42.700;  492.000;  589.000
449.272; -170.700;-1044.000; -913.000
449.393;   27.450;  612.000;  694.000
449.515; -144.900; -634.000; -581.000
449.636;  -68.225; -264.000; -155.000
449.758;   47.075;  763.000;  622.000
449.879;  -83.125; -498.000; -396.000
450.001;  -68.600; -149.000;  -49.000
450.122;  -27.700;  -95.000;  162.000
450.244;  -20.975;   37.000;  364.000
450.365;  -57.875; -495.000; -301.000
450.486;  -15.675;   80.000;  268.000
450.608;   45.650;  393.000;  326.000
450.729;  115.275;  578.000;  645.000
450.850;  104.200; -574.000; -466.000
450.972; 1253.375; -552.000; -389.000
451.093; 8127.100;  190.000;  588.000
451.214; 4313.550; -516.000; -337.000
451.336;  745.750;  773.000;  579.000
451.457;  132.325;  264.000;  393.000
451.578;  -21.875; -118.000;  -74.000
451.699;  -98.350; -546.000; -540.000
451.821;  -53.900; -284.000;  -50.000
451.942;   16.075;  278.000;  285.000
452.063;   55.575;  228.000;  419.000
452.184;  837.500;  -54.000;  -49.000
452.305; 1783.900;  103.000;  170.000
452.427;  362.975; -549.000; -301.000
452.548;   22.350;   23.000;   79.000
452.669;  -67.075; -257.000;  -89.000
452.790;  -61.400;    3.000;  -18.000
452.911;  -23.300;  195.000;  259.000
453.032;  -76.300; -289.000;  -60.000
453.153;  -51.425;  -29.000;   81.000
453.274;   57.650;  737.000;  868.000
453.395;  -62.300;  -51.000;  175.000
453.516;   95.900; 1317.000; 1388.000
453.637;  -85.075; -205.000; -150.000
453.758;  -72.550;   15.000;   69.000
453.879; -115.700; -462.000; -250.000
454.000;   82.150; 1086.000;  948.000
454.121; -127.775; -554.000; -326.000
454.242; -113.850; -599.000; -383.000
454.362;  -66.100;  -99.000;  114.000
454.483;  -25.500; -309.000; -229.000
454.604;   63.150;  512.000;  580.000
454.725; -114.200; -627.000; -555.000
454.846; -119.200; -474.000; -406.000
454.967;  -33.700;  230.000;  539.000
455.087;  -43.900;  179.000;  153.000
455.208;   23.625;  554.000;  856.000
455.329;  -60.525;  -22.000;   82.000
455.450;   56.250;  473.000;  633.000
455.570;  -54.150; -234.000; -211.000
455.691;  -38.100;  201.000;  407.000
455.812; -107.075; -270.000;  -92.000
455.932;  -56.825;  107.000;  -97.000
456.053;  -78.750;   36.000;   24.000
456.173; -107.750; -433.000; -355.000
456.294; -110.975; -476.000; -303.000
456.415;  -63.425;  -73.000;   70.000
456.535;  -30.600;  297.000;  273.000
456.656;  -32.300;  132.000;  240.000
456.776;  -58.025;    3.000;  298.000
456.897;  -15.775;  308.000;  513.000
457.017;  -60.600; -153.000;   -3.000
457.138; -106.950; -402.000; -249.000
457.258;  -45.650;  263.000;  224.000
457.379;    2.375;  509.000;  521.000
457.499;  -29.400;  443.000;  432.000
457.620; -106.775; -407.000; -231.000
457.740;  -83.350; -132.000;  -11.000
457.860;  -49.050;   87.000;   44.000
457.981;  -38.475;  132.000;  124.000
458.101;  -75.575;  -89.000;   40.000
458.221;  -18.425;  336.000;  402.000
458.342;  -51.650;   -4.000;  -37.000
458.462;   57.275;  617.000;  352.000
458.582;   27.100; -302.000; -294.000
458.703;   73.900;  303.000;  154.000
458.823;   22.650;   22.000;  163.000
458.943;   51.300;  341.000;  467.000
459.063;   23.650; 1124.000;  192.000
459.183;  -15.300;  328.000;  313.000
459.304;   19.350;  315.000;  517.000
459.424;  -43.500; -246.000;  -89.000
459.544;  461.150;  388.000;  764.000
459.664; 1342.150;  499.000;  506.000
459.784;  556.150; 1004.000; 1175.000
459.904;   81.175;  867.000;  744.000
460.024;   46.800;  867.000;  684.000
460.144;    2.950;  449.000;  554.000
460.264;  -10.350;  515.000;  327.000
460.385;  -88.825; -145.000; -119.000
460.505;   34.425;  905.000;  858.000
460.625;  -89.450;  -17.000;  -68.000
460.745;  -22.300;  396.000;  541.000
460.864;  -42.625;  153.000;  469.000
460.984;   49.000;  499.000;  573.000
461.104;  144.250; 1656.000; 1775.000
461.224;   15.600;  657.000;  650.000
461.344;  -49.250;  431.000;  360.000
461.464;  -28.550;  258.000;  513.000
461.584;  -36.950;  283.000;  466.000
461.704;  -70.175;   58.000;  108.000
461.824;  -55.450;  238.000;  259.000
461.943;  -33.375;  191.000;  130.000
462.063;  -78.650;    2.000;  324.000
462.183;   38.675;  639.000;  717.000
462.303;   70.950; 1678.000; 1230.000
462.422;   30.575;  781.000;  840.000
462.542;  -19.525;  271.000;  391.000
462.662;   44.425;  353.000;  380.000
462.782;  341.050;  833.000;  572.000
462.901;  764.950;  545.000;  717.000
463.021;  395.325; 1702.000; 1638.000
463.141;    9.300;  337.000;  770.000
463.260;  -23.800;  614.000;  474.000
463.380;   24.750;  902.000;  884.000
463.499;  -36.300;  342.000;  332.000
463.619;  -31.825;  581.000;  559.000
463.738;   85.900; 1644.000;  903.000
463.858;   13.400;  657.000;  811.000
463.978;  -32.250;  542.000;  396.000
464.097;   48.275;  921.000; 1114.000
464.217;  159.650; 1196.000; 1143.000
464.336;  175.700; 1068.000; 1130.000
464.455;  -21.400;  328.000;  659.000
464.575;    9.750;  597.000;  602.000
464.694;  124.425; 1204.000; 1179.000
464.814;  158.600; 1190.000; 1138.000
464.933;   87.275; 1095.000; 1027.000
465.052;   82.700; 1412.000; 1054.000
465.172;   71.200;  922.000;  799.000
465.291;  125.150; 1376.000; 1320.000
465.410;   -2.425;  462.000;  735.000
465.530;   73.150; 1355.000; 1310.000
465.649;   69.350; 1209.000; 1273.000
465.768;  127.125; 1673.000; 1508.000
465.888;   67.150;  941.000; 1174.000
466.007;  100.450; 1335.000; 1440.000
466.126;   -8.100;  721.000;  641.000
466.245;   60.450; 1176.000; 1187.000
466.364;    7.650;  950.000; 1060.000
466.484;   53.975; 1024.000; 1213.000
466.603;   40.225; 1101.000; 1222.000
466.722;  103.650; 1490.000; 1769.000
466.841;   71.050; 1151.000; 1401.000
466.960;   30.425; 1069.000;  972.000
467.079;  147.525; 1971.000; 1786.000
467.198;   65.825; 1238.000; 1181.000
467.317;   82.975; 1768.000; 1162.000
467.436;   83.325; 1709.000; 1261.000
467.555;  128.025; 1796.000; 1746.000
467.674;   71.600; 1227.000; 1329.000
467.793;   45.450; 1376.000; 1374.000
467.912;   92.250; 1658.000; 1539.000
468.031;  127.425; 2038.000; 1930.000
468.150;  119.525; 1842.000; 1837.000
468.269;  174.150; 2313.000; 2090.000
468.388;  206.225; 2168.000; 2339.000
468.507;  240.500; 2884.000; 2903.000
468.626;  228.775; 2555.000; 2541.000
468.744;  140.525; 2018.000; 2174.000
468.863;  189.075; 2312.000; 2523.000
468.982;   81.700; 1503.000; 1555.000
469.101;  211.850; 2788.000; 2692.000
469.220;  151.725; 2333.000; 2176.000
469.338;  249.825; 2935.000; 3051.000
469.457;  178.425; 2719.000; 2545.000
469.576;  326.375; 3953.000; 3784.000
469.695;  253.425; 2877.000; 3066.000
469.813;  405.300; 4148.000; 4192.000
469.932;  402.100; 4255.000; 4485.000
470.051;  454.725; 4075.000; 4161.000
470.169; 1024.700; 4470.000; 4338.000
470.288; 2065.050; 4700.000; 4809.000
470.406; 1222.275; 5059.000; 5194.000
470.525;  679.800; 6101.000; 5787.000
470.644;  650.425; 6847.000; 6794.000
470.762;  778.750; 8397.000; 7873.000
470.881;  929.850; 8651.000; 8464.000
470.999; 1084.325; 9685.000; 9151.000
471.118; 1124.575;11174.000;10711.000

