
Integration time [ms]: 100.000
Averaging Nr. [scans]: 40
Smoothing Nr. [pixels]: 0
Data measured with spectrometer [name]: 2101012U2
Wave   ;Sample   ;Dark     ;Reference
[nm]   ;[counts] ;[counts] ;[counts] 

197.733;   49.575;  516.000;  404.000
197.879;  -83.750; -610.000; -634.000
198.025;  -60.700; -475.000; -420.000
198.171;  -65.875; -602.000; -612.000
198.317;  -38.325; -401.000; -316.000
198.463;  -64.050; -655.000; -404.000
198.609;   18.700;  181.000; -137.000
198.755;  -80.200; -644.000; -410.000
198.901;  -69.925; -505.000; -424.000
199.047;  -71.125; -615.000; -488.000
199.193;  -48.425; -230.000; -468.000
199.339;  -58.875; -222.000; -369.000
199.485;   16.300;  330.000;  271.000
199.631;   11.325;  227.000;  310.000
199.777;  -61.950; -466.000; -398.000
199.923;  -70.575; -610.000; -424.000
200.069;  -10.700; -141.000;  -58.000
200.215;   36.250;  128.000;  453.000
200.361;   28.600;  243.000;  477.000
200.507;  -55.125; -600.000; -373.000
200.653;  -24.300; -371.000; -194.000
200.798;  -36.025; -215.000; -125.000
200.944;  -15.075; -146.000;  -41.000
201.090;   26.300;   61.000;  222.000
201.236;  -18.425; -116.000; -158.000
201.382;  117.875;  874.000;  903.000
201.528;   10.625;  -58.000;  -48.000
201.674;  -44.875; -386.000; -293.000
201.819;  -65.525; -540.000; -439.000
201.965;  -81.200; -699.000; -447.000
202.111;  -31.425; -273.000; -226.000
202.257;  -43.500; -250.000; -238.000
202.402;   -1.775;   13.000;  -36.000
202.548;  -34.875; -169.000; -116.000
202.694;   66.075;  410.000; -183.000
202.840;  -70.175; -603.000; -531.000
202.985;  -65.675; -681.000; -639.000
203.131; -100.450; -832.000; -666.000
203.277;  -32.875; -199.000; -262.000
203.423;  -56.375; -434.000; -520.000
203.568;  -45.725; -462.000; -237.000
203.714;  -64.500; -535.000; -542.000
203.860;  -79.800; -682.000; -641.000
204.005;   11.450;  112.000;  167.000
204.151;   61.750;  561.000;  556.000
204.296;  -39.675; -354.000; -221.000
204.442;  -70.150; -600.000; -547.000
204.588;  -75.525; -592.000; -579.000
204.733;   16.025;  178.000;  168.000
204.879; -127.675;-1018.000; -822.000
205.025;    0.450;  -99.000;  126.000
205.170;   -8.050;  -17.000;   94.000
205.316;   74.500;  438.000;  661.000
205.461;  -78.600; -698.000; -554.000
205.607;   88.825;  609.000;  665.000
205.752;  -81.375; -626.000; -551.000
205.898;  -57.075; -501.000; -391.000
206.043;  -61.625; -578.000; -506.000
206.189;  -43.350; -243.000; -285.000
206.334;   74.800;  554.000;  606.000
206.480;   64.150;  409.000;  239.000
206.625;  -86.125; -529.000; -552.000
206.771;  -53.775; -451.000; -373.000
206.916;  -32.450; -210.000; -537.000
207.062;  -73.025; -545.000; -591.000
207.207;  -65.200; -546.000; -443.000
207.353;   51.800;  185.000;  460.000
207.498;    3.400;  196.000;   85.000
207.643;  -59.900; -501.000; -370.000
207.789; -130.950;-1069.000; -910.000
207.934;  -94.900; -665.000; -713.000
208.080;  -40.450; -154.000;   66.000
208.225;    4.175;  -22.000;  -57.000
208.370;  -83.450; -727.000; -619.000
208.516;  -83.925; -741.000; -487.000
208.661;  -45.825; -127.000;  -69.000
208.806;  -23.425; -165.000; -171.000
208.952; -120.150;-1044.000; -731.000
209.097;   56.175;  378.000;  349.000
209.242;  -47.275; -307.000; -382.000
209.387;   55.075;  392.000;  350.000
209.533;  -63.400; -321.000; -350.000
209.678;   49.725;  472.000;  543.000
209.823;  -47.300; -408.000; -310.000
209.969;  -97.825; -860.000; -757.000
210.114; -104.525; -907.000; -719.000
210.259; -116.450; -939.000; -889.000
210.404;  -20.000; -171.000;  103.000
210.549;   11.100;  108.000;    3.000
210.695;  -17.750;   -3.000;  -95.000
210.840;   20.950;   94.000;   67.000
210.985;  -71.975; -484.000; -303.000
211.130;   66.500;  268.000;  406.000
211.275;   12.825;  207.000;  199.000
211.420;  -52.975; -300.000; -289.000
211.566;  -64.375; -536.000; -489.000
211.711;   14.625;  218.000;  157.000
211.856;  -61.475; -545.000; -519.000
212.001;   10.525;  151.000;   44.000
212.146;   15.200;  153.000;   49.000
212.291;  -31.600; -210.000; -186.000
212.436;  -26.775; -280.000;   -6.000
212.581;  -96.675; -685.000; -653.000
212.726;  -86.100; -487.000; -538.000
212.871;  -57.850; -552.000; -217.000
213.016; -152.850;-1172.000;-1029.000
213.161;   48.475;  406.000;  291.000
213.306;  -77.175; -435.000; -577.000
213.451;  -87.150; -778.000; -689.000
213.596;  -46.700; -455.000; -347.000
213.741;  -51.875; -448.000; -538.000
213.886;  -86.675; -498.000; -517.000
214.031;  -21.350; -294.000; -124.000
214.176;  -53.550; -408.000; -341.000
214.321;  -27.600; -296.000; -157.000
214.466;  -20.800; -163.000;  -43.000
214.611;   -3.000;  -61.000;  -10.000
214.756; -116.400; -948.000; -858.000
214.901;  -29.700; -388.000; -226.000
215.046; -125.325; -797.000; -825.000
215.191;   16.900;  128.000;   35.000
215.336;  -27.600; -157.000;  -19.000
215.480;  -75.725; -684.000; -505.000
215.625;  -27.875; -175.000;  -19.000
215.770;  -93.325; -757.000; -662.000
215.915;   -6.525;   -5.000;  -97.000
216.060;  -14.475; -113.000;  -21.000
216.205; -101.300; -731.000; -779.000
216.349;  -70.725; -470.000; -533.000
216.494; -119.350; -939.000; -867.000
216.639; -129.650; -823.000; -888.000
216.784;  -91.450; -577.000; -525.000
216.929;   46.800;  392.000;  281.000
217.073;  -19.750; -244.000;  -31.000
217.218;    4.500;   78.000;  -47.000
217.363;  -97.500; -656.000; -618.000
217.507;  -89.625; -623.000; -588.000
217.652; -121.875; -845.000; -874.000
217.797;  -96.250; -708.000; -659.000
217.942; -106.725; -856.000; -720.000
218.086;   55.650;  608.000;  539.000
218.231;  -30.200; -174.000;  -26.000
218.376;  -43.700; -337.000; -229.000
218.520;   -6.725;  -41.000;   96.000
218.665;  -54.100; -338.000; -204.000
218.810;  -36.050; -275.000; -233.000
218.954;    6.525;  201.000;   35.000
219.099; -123.675; -713.000; -963.000
219.243;  -69.450; -589.000; -554.000
219.388;  -39.050; -264.000; -136.000
219.532;  -13.500; -116.000; -116.000
219.677;  -77.050; -564.000; -521.000
219.822;    8.600;   33.000;   89.000
219.966;    1.500;   17.000;  -99.000
220.111;  -39.200; -328.000;  -40.000
220.255;  -94.175; -797.000; -750.000
220.400;  -21.400; -180.000; -146.000
220.544;  -72.225; -516.000; -450.000
220.689;  -54.525; -422.000; -451.000
220.833;  -34.100; -123.000;  -58.000
220.978;  -59.650; -393.000; -563.000
221.122;   22.175;  319.000;  307.000
221.267; -110.625; -906.000; -837.000
221.411;  -64.675; -478.000; -394.000
221.555;  -25.025; -104.000;  -23.000
221.700;  -58.200; -329.000; -222.000
221.844;   25.300;  255.000;  272.000
221.989;  -47.275; -328.000; -311.000
222.133;  -57.450; -289.000; -307.000
222.277;  -14.550;    5.000;   78.000
222.422;    9.700;  227.000;  113.000
222.566;  -35.700; -381.000; -214.000
222.711;  -54.275; -414.000; -479.000
222.855;  -75.225; -643.000; -586.000
222.999;  -75.400; -642.000; -717.000
223.144;  -31.675; -195.000; -194.000
223.288;   45.050;  423.000;  251.000
223.432;   23.550;  184.000;  230.000
223.576;    9.450;  152.000;  -21.000
223.721;   42.700;  364.000;  273.000
223.865;  -70.200; -472.000; -475.000
224.009;  219.475; 1673.000; 1631.000
224.153;  -79.425; -660.000; -671.000
224.298;  -69.825; -531.000; -489.000
224.442;  -13.225;  -74.000;  -33.000
224.586;  -16.600; -169.000; -106.000
224.730; -105.850; -858.000; -670.000
224.875;  -95.450; -739.000; -688.000
225.019;    4.275;  102.000;  188.000
225.163;   45.875;  208.000;  341.000
225.307;   12.750;   97.000;  -91.000
225.451;   44.275;  360.000;  481.000
225.595;   29.475;  264.000;  176.000
225.739;  -21.325; -170.000;  -94.000
225.884;   -2.275;   86.000;    5.000
226.028; -100.250; -760.000; -626.000
226.172;  -35.900; -260.000; -273.000
226.316; -109.875; -941.000; -902.000
226.460;  -86.025; -645.000; -493.000
226.604;  -53.125; -406.000; -400.000
226.748; -103.075; -836.000; -733.000
226.892;  -22.475; -227.000; -181.000
227.036;  -57.750; -537.000; -447.000
227.180;  -47.850; -551.000; -375.000
227.324;  -69.825; -561.000; -580.000
227.468; -113.750; -819.000; -717.000
227.612;  -13.750;  242.000;  -28.000
227.756; -107.250; -845.000; -698.000
227.900;   51.275;  342.000;  441.000
228.044;  -50.200; -509.000; -290.000
228.188;   50.575;  448.000;  568.000
228.332;  -82.900; -546.000; -472.000
228.476;  -40.950; -223.000; -149.000
228.620;  -42.175; -210.000; -150.000
228.764;   56.800;  431.000;  349.000
228.908;  -24.500; -155.000;   30.000
229.052;  -66.000; -615.000; -528.000
229.195;  -17.450; -172.000;   13.000
229.339;  -36.375; -235.000; -305.000
229.483;  -30.275;    5.000; -162.000
229.627;  -14.525; -156.000;  139.000
229.771;  -46.600; -218.000; -294.000
229.915;   -3.000;  230.000;   79.000
230.059;  -97.225; -648.000; -663.000
230.202;  -46.775; -370.000; -317.000
230.346;  -18.550; -107.000;  107.000
230.490;  -60.200; -489.000; -521.000
230.634; -103.675; -736.000; -553.000
230.777;   55.600;  478.000;  509.000
230.921;  -57.450; -450.000; -359.000
231.065;  -44.425; -246.000; -286.000
231.209;   25.925;  261.000;  265.000
231.352;   11.675;   54.000;   40.000
231.496;    8.850;  568.000;  188.000
231.640;  -96.650; -693.000; -621.000
231.783;   47.525;  546.000;  525.000
231.927;  -49.450; -294.000; -365.000
232.071; -115.675; -962.000; -736.000
232.214; -119.225; -980.000; -764.000
232.358; -105.475; -683.000; -599.000
232.502;    6.175;  -19.000;    7.000
232.645; -142.600;-1090.000; -927.000
232.789;  -31.225; -257.000; -218.000
232.933;  -41.350; -407.000; -224.000
233.076; -132.725;-1038.000; -897.000
233.220; -107.425; -752.000; -777.000
233.363;  -84.625; -669.000; -477.000
233.507;   36.475;  371.000;  129.000
233.650;  -99.475; -764.000; -834.000
233.794;   38.075;  438.000;  461.000
233.938;  -61.800; -530.000; -362.000
234.081;  -35.025;  -93.000;   31.000
234.225;  -71.050; -631.000; -539.000
234.368; -104.900; -773.000; -723.000
234.512;  -31.775; -385.000; -299.000
234.655;  -80.150; -582.000; -555.000
234.798;  -73.025; -493.000; -466.000
234.942; -129.775; -884.000;-1002.000
235.085;  -87.100; -651.000; -443.000
235.229;  -76.050; -405.000; -410.000
235.372;  -66.500; -247.000; -191.000
235.516;  -59.750; -397.000; -321.000
235.659;   17.350;   92.000;  121.000
235.802;  -14.500;  -38.000;  -22.000
235.946;   21.550;  335.000;  215.000
236.089;   22.900;  126.000;  250.000
236.233;   46.075;  275.000;  298.000
236.376;  -62.425; -235.000; -378.000
236.519;  -58.775; -297.000; -319.000
236.663;  -27.075; -215.000; -117.000
236.806; -137.150;-1029.000; -999.000
236.949;   54.925;  543.000;  431.000
237.092;   46.925;  412.000;  391.000
237.236;  -83.575; -589.000; -502.000
237.379;   48.825;  352.000;  428.000
237.522; -116.975; -879.000; -768.000
237.666;  -20.400; -271.000;   18.000
237.809; -118.025; -851.000; -823.000
237.952;   30.325;  469.000;  271.000
238.095;  -68.625; -447.000; -442.000
238.238;   71.350;  688.000;  700.000
238.382;  -11.950;  166.000;  103.000
238.525;  -70.975; -598.000; -511.000
238.668; -154.675;-1060.000; -985.000
238.811;  -79.500; -638.000; -643.000
238.954;  -66.375; -483.000; -334.000
239.097;   73.750;  617.000;  664.000
239.241;   23.925;  394.000;  326.000
239.384;  -39.675; -254.000; -214.000
239.527;  -54.000; -424.000; -224.000
239.670; -144.075; -994.000;-1091.000
239.813; -109.625; -696.000; -658.000
239.956;   52.225;  579.000;  473.000
240.099; -108.575; -778.000; -725.000
240.242;   54.050;  428.000;  432.000
240.385;   30.350;  466.000;  450.000
240.528;  -76.000; -706.000; -473.000
240.671;    7.125;  189.000;  134.000
240.814;  -58.975; -441.000; -158.000
240.957;  -96.725; -767.000; -578.000
241.100; -100.400; -779.000; -755.000
241.243; -133.550;-1234.000; -893.000
241.386;  -71.225; -508.000; -379.000
241.529;  -92.400; -735.000; -547.000
241.672;  -78.050; -566.000; -495.000
241.815; -119.400; -832.000; -808.000
241.958;  -32.750; -125.000; -182.000
242.101;  -71.575; -545.000; -390.000
242.244;  -50.125; -270.000; -325.000
242.387;  -41.750; -304.000; -246.000
242.530;   54.200;  470.000;  134.000
242.673;  -65.325; -381.000; -309.000
242.815; -116.500; -925.000; -899.000
242.958;  -75.625; -482.000; -381.000
243.101;   10.425;  132.000;  187.000
243.244;  -81.875; -564.000; -521.000
243.387;  -53.575; -313.000; -316.000
243.530; -105.600; -657.000; -674.000
243.672;  -12.125;   43.000;  -92.000
243.815;  -57.200; -355.000; -283.000
243.958;   -9.925;   98.000;  -26.000
244.101;    0.200;   59.000;  -16.000
244.243;  -17.125;  -47.000;  101.000
244.386; -110.100; -761.000; -630.000
244.529;  -24.900; -132.000; -139.000
244.672; -170.625;-1154.000; -951.000
244.814;  -92.650; -621.000; -794.000
244.957;  -42.950; -380.000; -304.000
245.100;  -71.800; -489.000; -489.000
245.242;  -59.200; -387.000; -374.000
245.385;  -20.325;  -59.000;  -39.000
245.528; -108.325; -871.000; -705.000
245.670;   72.225;  612.000;  634.000
245.813;  -95.625; -599.000; -547.000
245.956;  -47.100; -324.000; -275.000
246.098;  -75.900; -508.000; -650.000
246.241;   -6.100;  194.000;   48.000
246.383;  -32.050; -119.000;  -73.000
246.526;  -76.700; -454.000; -525.000
246.669; -123.200; -889.000; -780.000
246.811;    1.850;  172.000;   -1.000
246.954;  -72.000; -512.000; -426.000
247.096;  -35.225;  -84.000;   -6.000
247.239;  -70.050; -482.000; -445.000
247.381;  -69.325; -647.000; -488.000
247.524;   56.250;  645.000;  679.000
247.666;  -17.050;   58.000;   11.000
247.809; -106.275; -887.000; -691.000
247.951;   -3.850;  -75.000;  138.000
248.094;   16.025;  432.000;  308.000
248.236; -159.775;-1262.000;-1238.000
248.378;  -25.875; -356.000;  -81.000
248.521;  -35.625; -334.000; -337.000
248.663;  -46.800; -236.000; -267.000
248.806;  -32.925; -300.000; -266.000
248.948; -113.125; -886.000; -763.000
249.090;  -71.725; -428.000; -398.000
249.233;  -67.100; -344.000; -381.000
249.375;  -66.825; -474.000; -451.000
249.518;  -25.725;  -83.000; -133.000
249.660;  -16.750; -103.000;    3.000
249.802; -169.325;-1303.000;-1189.000
249.945;  -76.400; -612.000; -540.000
250.087; -115.225; -834.000; -768.000
250.229;  -53.275; -362.000; -480.000
250.371;  -83.875; -494.000; -439.000
250.514;  -52.025; -310.000; -244.000
250.656;  -68.000;   69.000;  102.000
250.798; -123.050; -849.000; -800.000
250.940;  -73.375; -322.000; -322.000
251.083;  -33.700; -335.000; -111.000
251.225;   34.250;  338.000;  310.000
251.367;  -37.650; -274.000; -373.000
251.509;  -40.100; -265.000; -210.000
251.651; -105.650; -731.000; -671.000
251.794;   42.250;  538.000;  632.000
251.936; -105.050; -821.000; -747.000
252.078;  -85.375; -540.000; -461.000
252.220;  -74.125; -645.000; -477.000
252.362;   47.300;  344.000;  462.000
252.504;  -98.200; -677.000; -584.000
252.646; -111.925; -875.000; -722.000
252.788;   -5.400;   14.000; -128.000
252.931;  -64.125; -257.000; -253.000
253.073;  -58.575; -376.000; -317.000
253.215;  -24.750;  141.000;  122.000
253.357;  -24.350;   82.000; -153.000
253.499;  -55.900; -374.000; -234.000
253.641; -100.750; -749.000; -594.000
253.783;  -96.550; -609.000; -527.000
253.925;  -95.075; -586.000; -591.000
254.067; -107.875; -744.000; -667.000
254.209;  -47.050; -391.000; -259.000
254.351; -142.325; -865.000; -883.000
254.493;  -69.425; -441.000; -417.000
254.635; -136.225; -936.000; -818.000
254.777;  -86.200; -752.000; -687.000
254.918;  -66.225; -512.000; -430.000
255.060;  -68.000; -551.000; -395.000
255.202;  -84.600; -473.000; -261.000
255.344;  -83.575; -658.000; -455.000
255.486;  -76.825; -471.000; -406.000
255.628; -108.625; -780.000; -781.000
255.770;  -90.225; -676.000; -536.000
255.912;  -81.950; -559.000; -468.000
256.053; -103.600; -730.000; -508.000
256.195;  133.050; 1008.000;  903.000
256.337; -107.425; -861.000; -595.000
256.479;   56.325;  532.000;  416.000
256.621;  -44.850; -394.000; -212.000
256.762;  -92.350; -789.000; -742.000
256.904;   36.325;  485.000;  487.000
257.046;  -50.575; -381.000; -271.000
257.188;  -56.200; -351.000; -264.000
257.329;  -67.100; -525.000; -464.000
257.471; -123.975; -939.000; -807.000
257.613;  -75.100; -584.000; -498.000
257.755; -145.750;-1073.000; -982.000
257.896;   24.425;  286.000;  392.000
258.038;  -71.425; -403.000; -352.000
258.180;  -55.325; -354.000; -279.000
258.321;  -99.475; -581.000; -457.000
258.463;   -4.500;  -71.000;  133.000
258.605; -100.150; -562.000; -570.000
258.746; -111.425; -886.000; -772.000
258.888; -158.875;-1026.000;-1020.000
259.029;    5.425;  121.000;   -8.000
259.171;  -89.650; -614.000; -550.000
259.313;  -15.775;  -49.000;  -47.000
259.454;  -73.900; -536.000; -414.000
259.596;  -66.375; -483.000; -390.000
259.737;  -86.825; -590.000; -474.000
259.879;   32.275;  217.000;  311.000
260.020;   66.925;  901.000;  636.000
260.162;  -30.425; -146.000; -253.000
260.303; -121.675; -768.000; -687.000
260.445;  -84.425; -609.000; -613.000
260.586;   18.075;  392.000;  157.000
260.728;  -49.800; -360.000; -248.000
260.869;  -79.075; -350.000; -343.000
261.011;   55.050;  706.000;  537.000
261.152;  -66.850; -479.000; -319.000
261.293;  -85.425; -576.000; -595.000
261.435;  -23.625; -219.000; -184.000
261.576;  -64.175; -455.000; -325.000
261.718;   42.550;  420.000;  470.000
261.859; -118.150; -940.000; -949.000
262.000; -142.050; -951.000;-1016.000
262.142;  -22.975;  -52.000;  -60.000
262.283; -123.050; -808.000; -691.000
262.424;  -97.100; -666.000; -625.000
262.566; -154.500;-1161.000; -983.000
262.707; -106.525; -840.000; -830.000
262.848; -120.875; -769.000; -726.000
262.990;  -68.375; -362.000; -345.000
263.131;   60.025;  650.000;  681.000
263.272;  -13.750;  -61.000;  -41.000
263.413;  -87.625; -589.000; -561.000
263.555;  -74.450; -669.000; -143.000
263.696;  -90.525; -550.000; -641.000
263.837;  -56.875; -449.000; -551.000
263.978;  -16.775;   -5.000;  -77.000
264.119;  -50.375; -283.000; -264.000
264.261; -113.775; -847.000; -630.000
264.402;   -8.650;   33.000;   40.000
264.543;  -92.200; -509.000; -524.000
264.684;  -15.075;   61.000;  -50.000
264.825;  -72.850; -816.000; -538.000
264.966;  -12.475;  -84.000;  -67.000
265.107; -103.750; -646.000; -670.000
265.248; -128.975; -825.000; -812.000
265.390;  -17.975;  152.000;   -9.000
265.531;  -33.250; -238.000; -107.000
265.672;  -87.900; -557.000; -630.000
265.813;   64.325;  563.000;  439.000
265.954; -146.650; -959.000; -940.000
266.095;  -14.925; -372.000; -322.000
266.236; -109.825; -686.000; -548.000
266.377;  -48.725; -243.000; -297.000
266.518;  -83.325; -619.000; -547.000
266.659;   10.725;  170.000;  268.000
266.800;   -5.700;   83.000;   85.000
266.941;  -77.250; -487.000; -478.000
267.082;   -7.650;  354.000;   99.000
267.223;  -60.600; -344.000; -273.000
267.364; -124.475; -892.000; -686.000
267.504;  -35.925;    3.000;  135.000
267.645;   -4.800;  160.000;   67.000
267.786;  -38.100; -147.000;  -86.000
267.927;  -78.725; -473.000; -379.000
268.068;  -33.025; -186.000;  -61.000
268.209;  -35.500; -175.000; -413.000
268.350;  -70.175; -388.000; -532.000
268.490;  -85.225; -648.000; -521.000
268.631;   13.300;  127.000;  225.000
268.772; -112.650; -874.000; -647.000
268.913;  -58.650; -328.000; -476.000
269.054;  -18.075; -117.000;   12.000
269.194;  -58.525; -418.000; -402.000
269.335; -168.925;-1137.000;-1074.000
269.476;  -31.075;   33.000;  -35.000
269.617;  -48.525; -347.000; -392.000
269.757; -103.050; -713.000; -646.000
269.898; -104.500; -856.000; -613.000
270.039;  -63.975; -415.000; -405.000
270.180; -137.350; -952.000; -816.000
270.320;  -39.700; -190.000; -250.000
270.461;  -43.900; -277.000; -249.000
270.602;  -28.525; -186.000; -156.000
270.742; -135.725; -868.000; -943.000
270.883;  -77.625; -442.000; -390.000
271.023;  -60.125; -358.000; -357.000
271.164;  -78.475; -607.000; -528.000
271.305; -101.825; -666.000; -654.000
271.445; -105.500; -722.000; -683.000
271.586;  -79.925; -462.000; -283.000
271.726;  -50.100; -397.000; -322.000
271.867;  -78.400; -594.000; -534.000
272.008;   55.975; -473.000; -285.000
272.148;   64.350;  462.000;  468.000
272.289;  -23.975; -113.000; -181.000
272.429;  -17.150;   19.000;  185.000
272.570; -102.000; -633.000; -737.000
272.710; -117.125; -825.000; -775.000
272.851;  -21.525;  113.000; -130.000
272.991; -152.000;-1173.000;-1077.000
273.131;  -79.900; -419.000; -459.000
273.272; -100.125; -683.000; -723.000
273.412;  -22.550; -143.000;  -31.000
273.553;  -76.200; -488.000; -507.000
273.693;  107.675;  913.000;  858.000
273.834; -114.300; -894.000; -692.000
273.974;  -94.675; -664.000; -615.000
274.114; -120.925; -772.000; -560.000
274.255;   42.350;  414.000;  373.000
274.395;  -29.575; -180.000; -125.000
274.535;   14.825;  199.000;  350.000
274.676;    6.425;  225.000;   94.000
274.816;  -11.975;  110.000;   34.000
274.956; -102.925; -624.000; -690.000
275.097; -110.550;-1014.000; -922.000
275.237; -126.225; -913.000; -803.000
275.377; -104.575; -778.000; -689.000
275.517; -149.600; -878.000; -937.000
275.658;  -81.500; -590.000; -555.000
275.798;  -87.625; -606.000; -413.000
275.938;    1.725;  215.000;  323.000
276.078; -111.775; -626.000; -395.000
276.218;  -15.575;   99.000;  104.000
276.359; -141.625;-1026.000;-1024.000
276.499;  -92.150; -605.000; -446.000
276.639;  -42.975; -305.000; -151.000
276.779;  -58.100; -475.000; -357.000
276.919; -113.925; -783.000; -624.000
277.059;  -34.525; -261.000; -212.000
277.199;  -60.125; -357.000; -259.000
277.340;   32.400;  287.000;  175.000
277.480; -115.175; -840.000; -693.000
277.620;   16.200;  192.000;   16.000
277.760; -208.650;-1533.000;-1294.000
277.900;  -10.950;  113.000;   33.000
278.040;   -4.625;  137.000;  159.000
278.180;   16.475;  270.000;  170.000
278.320;  -13.425;   21.000;   56.000
278.460;  -79.000; -443.000; -469.000
278.600; -101.675; -708.000; -598.000
278.740;   33.875;  448.000;  224.000
278.880; -116.975; -768.000; -791.000
279.020;  -26.525; -194.000; -144.000
279.160;  -94.600; -672.000; -595.000
279.300; -118.650; -926.000; -873.000
279.440;  -92.275; -709.000; -622.000
279.579;  -94.325;-1014.000; -929.000
279.719;  -74.675; -410.000; -394.000
279.859;   32.725;   -4.000;   41.000
279.999;   -9.000; -208.000;  101.000
280.139;  -50.950; -435.000; -387.000
280.279; -108.150; -708.000; -745.000
280.419;  -29.575; -229.000; -147.000
280.559;  -39.375; -259.000; -180.000
280.698;  -98.125; -790.000; -639.000
280.838; -119.525; -778.000; -800.000
280.978; -113.675; -846.000; -790.000
281.118; -110.000; -811.000; -704.000
281.257;   -0.775;   24.000;    6.000
281.397; -140.650;-1094.000; -960.000
281.537; -112.125; -599.000; -712.000
281.677;  -37.575; -150.000; -101.000
281.816;  -85.600; -700.000; -630.000
281.956;  -35.250; -193.000; -257.000
282.096;  -68.700; -539.000; -396.000
282.235; -108.650; -672.000; -638.000
282.375;  -51.375; -243.000;  -98.000
282.515; -113.675; -715.000; -707.000
282.654;   -9.725;   29.000;  106.000
282.794;   18.650;  388.000;  244.000
282.934;  -63.850; -530.000; -491.000
283.073; -137.400;-1030.000; -857.000
283.213;  -67.875; -460.000; -467.000
283.353;  -55.350; -408.000; -349.000
283.492;  -45.175; -264.000; -296.000
283.632;  -44.300; -254.000; -168.000
283.771; -114.375; -859.000; -730.000
283.911;  -61.875; -369.000; -260.000
284.050; -116.100; -794.000; -748.000
284.190; -155.100;-1229.000;-1096.000
284.329; -144.200;-1055.000; -964.000
284.469;  -88.850; -516.000; -591.000
284.608;  -81.925; -559.000; -598.000
284.748;  -86.725; -614.000; -570.000
284.887;  -20.950;  -87.000;  -20.000
285.027; -120.700; -844.000; -892.000
285.166;  -39.025; -192.000; -249.000
285.306;  -13.025; -116.000;  -33.000
285.445;  -50.725; -229.000; -343.000
285.584; -106.250; -630.000; -494.000
285.724;  -56.675; -282.000; -322.000
285.863;  -98.800; -857.000; -507.000
286.002;  -62.175; -366.000; -276.000
286.142; -112.550; -715.000; -622.000
286.281;  -84.025; -525.000; -493.000
286.420;  -80.975; -554.000; -417.000
286.560;   84.725;  653.000;  623.000
286.699; -137.500; -958.000; -912.000
286.838;  -93.475; -590.000; -591.000
286.978; -103.175; -533.000; -537.000
287.117; -139.700;-1085.000; -950.000
287.256;  -49.900; -228.000; -211.000
287.395;  -70.425; -197.000; -378.000
287.535;  -64.625; -370.000; -298.000
287.674;  -88.125; -509.000; -484.000
287.813;   47.700;  661.000;  533.000
287.952; -137.850;-1010.000; -871.000
288.091; -148.250;-1049.000; -915.000
288.231;  -21.750;   13.000;   15.000
288.370; -174.800;-1217.000;-1200.000
288.509;  -96.825; -728.000; -645.000
288.648;  -98.350; -770.000; -548.000
288.787;  -46.150; -243.000;  -87.000
288.926;  -63.700; -454.000; -475.000
289.065;   97.275;  859.000;  672.000
289.204;  -62.250; -377.000; -217.000
289.344; -104.675; -791.000; -690.000
289.483;    1.475;  416.000;  304.000
289.622;  -39.625; -291.000; -149.000
289.761;  -21.000; -309.000; -166.000
289.900; -115.150; -785.000; -626.000
290.039;  -29.375;  -12.000;  -95.000
290.178;  -55.000; -274.000; -180.000
290.317; -101.650; -618.000; -479.000
290.456;  -64.300; -463.000; -451.000
290.595; -129.700; -961.000; -833.000
290.734; -138.625; -904.000; -891.000
290.873;  -64.000; -456.000; -420.000
291.011; -121.425; -833.000; -843.000
291.150; -108.900; -770.000; -682.000
291.289;  -50.550; -343.000; -110.000
291.428;  -89.875; -599.000; -480.000
291.567;  -54.975; -370.000; -442.000
291.706;  -11.925;  109.000;  154.000
291.845;  -98.600; -597.000; -505.000
291.984; -169.800;-1234.000;-1061.000
292.122;   64.075;  602.000;  582.000
292.261;   46.225;  620.000;  463.000
292.400;   -5.925; -144.000;  211.000
292.539; -129.575; -959.000; -813.000
292.678;  -52.025; -325.000; -300.000
292.816; -160.650;-1136.000; -965.000
292.955; -109.125; -844.000; -684.000
293.094;  -43.175; -173.000; -337.000
293.233;  -67.500; -556.000; -400.000
293.371;  -39.275; -225.000;  -84.000
293.510; -114.525; -866.000; -780.000
293.649; -144.925; -959.000; -924.000
293.787; -118.675;-1083.000;-1012.000
293.926;  -22.725; -113.000;  -32.000
294.065;  -57.625; -379.000; -290.000
294.203;   21.200;  298.000;  406.000
294.342;    4.000;   74.000;  156.000
294.481; 6083.775;51180.000; -836.000
294.619;  -36.675; -425.000; -582.000
294.758; -165.200;-1230.000;-1137.000
294.896;    3.325; -125.000;    5.000
295.035; -145.700;-1040.000;-1006.000
295.174; -142.600;-1082.000; -954.000
295.312;  -48.250; -323.000; -203.000
295.451;  -42.575; -307.000; -428.000
295.589;  -75.925; -389.000; -518.000
295.728;   -2.600; -292.000; -165.000
295.866;  -17.200;  -36.000;  -51.000
296.005;  -80.050; -584.000; -341.000
296.143;  -79.825; -558.000; -596.000
296.282; -125.000; -957.000; -881.000
296.420;  -85.825; -657.000; -557.000
296.559; -107.700; -892.000; -633.000
296.697;  -71.550; -847.000; -665.000
296.835; -105.050;-1141.000;-1002.000
296.974;   26.325;  -23.000;   39.000
297.112;  -55.000; -443.000; -504.000
297.251; -107.000; -815.000; -755.000
297.389;  -36.925; -576.000; -438.000
297.527;   -3.925; -145.000;  -83.000
297.666;  -81.275; -486.000; -438.000
297.804;  -63.075; -404.000; -264.000
297.942;  -13.150; -136.000; -161.000
298.081;  -23.100; -183.000;   63.000
298.219;    2.800;  -17.000;  -19.000
298.357;  -22.000; -144.000;  -71.000
298.495;  -65.275; -810.000; -812.000
298.634;   14.400;  245.000;  219.000
298.772;  -39.550; -220.000; -338.000
298.910;  -62.500; -309.000; -182.000
299.048;  -32.875; -130.000; -153.000
299.187;  -36.500; -350.000; -250.000
299.325;  -20.900;   52.000;  122.000
299.463;  -41.550; -389.000; -299.000
299.601;  -21.275; -327.000; -271.000
299.739; -118.875; -908.000; -883.000
299.877; -107.175; -791.000; -703.000
300.016; -111.900;-1095.000; -935.000
300.154;   27.000;  -19.000; -161.000
300.292;  -40.325; -428.000; -348.000
300.430;  -36.800; -408.000; -291.000
300.568; -123.950; -940.000; -874.000
300.706;  -63.725; -366.000; -469.000
300.844; -130.775;-1108.000; -979.000
300.982;   53.375;  246.000;  282.000
301.120; -142.250; -965.000; -866.000
301.258;  -97.025; -812.000; -705.000
301.396;  -12.975;  104.000;  -41.000
301.534;  -32.725; -218.000; -293.000
301.672;  -92.375; -664.000; -521.000
301.810;  -86.450; -613.000; -545.000
301.948;    8.000;   53.000;  149.000
302.086;  185.275; -250.000;  -32.000
302.224;  210.225; -610.000; -585.000
302.362;  -69.800; -558.000; -622.000
302.500; -105.500; -923.000; -893.000
302.638;   12.225;  128.000;  245.000
302.776;  -43.150; -352.000; -408.000
302.913;   29.375;  447.000;  236.000
303.051;  -35.750;  -86.000;  -23.000
303.189;    0.225;   90.000;  118.000
303.327;  -45.925; -341.000; -256.000
303.465;  -96.700; -832.000; -588.000
303.603; -111.375; -805.000; -604.000
303.740;   48.050;  417.000;  241.000
303.878;  -80.950; -800.000; -759.000
304.016; -112.925; -915.000; -790.000
304.154; -156.750;-1123.000;-1152.000
304.291;  -81.300; -505.000; -554.000
304.429;  -17.125;  102.000;   74.000
304.567; -144.675; -908.000; -893.000
304.705;  -69.625; -408.000; -515.000
304.842;  -43.775; -616.000; -540.000
304.980;   14.150;  215.000;   35.000
305.118;  -24.700; -367.000; -365.000
305.255; -135.900; -945.000; -927.000
305.393;   14.700;  178.000;  239.000
305.531; -139.700;-1173.000; -956.000
305.668; -101.600; -663.000; -582.000
305.806;   16.175; -358.000; -439.000
305.943;  -28.125; -629.000; -637.000
306.081;  -34.350; -378.000; -267.000
306.219; -107.875; -863.000; -748.000
306.356;    1.025;  158.000;   27.000
306.494;   97.000;  981.000;  761.000
306.631;   -7.725;  -11.000;  -55.000
306.769;  -33.625; -613.000; -485.000
306.906;  -48.675; -284.000; -258.000
307.044;  -69.850; -473.000; -488.000
307.181;  -65.025; -410.000; -332.000
307.319;  -12.150;  112.000;   87.000
307.456; -175.975;-1191.000;-1153.000
307.594; -118.425; -980.000; -727.000
307.731;  -35.600; -371.000; -164.000
307.868;  -10.900;  -15.000;   20.000
308.006; -140.250; -961.000; -847.000
308.143;  -94.125; -618.000; -330.000
308.281;   12.000;  -37.000; -254.000
308.418;  -67.500; -748.000; -640.000
308.555;  -95.525; -400.000; -250.000
308.693;  -79.150; -577.000; -573.000
308.830; -103.800; -712.000; -657.000
308.967;  -18.125; -215.000;  -95.000
309.105;  -43.825; -507.000; -396.000
309.242;  -16.800; -468.000; -367.000
309.379;   22.475; -577.000; -655.000
309.517; -120.700; -936.000; -948.000
309.654; -121.675; -910.000; -734.000
309.791;  -84.250; -662.000; -580.000
309.928; -126.500; -977.000; -914.000
310.065;  123.175;  819.000;  697.000
310.203;  -88.775; -825.000; -850.000
310.340;  -52.425; -465.000; -321.000
310.477;  -92.550; -412.000; -516.000
310.614;  -71.050; -383.000; -473.000
310.751;  -84.325; -427.000; -518.000
310.889;  -36.375;    1.000;   11.000
311.026; -160.500;-1161.000; -939.000
311.163;  -58.025; -386.000; -380.000
311.300;  -85.775; -512.000; -479.000
311.437;  -83.450; -658.000; -619.000
311.574; -157.775;-1226.000; -985.000
311.711;  -65.650; -595.000; -433.000
311.848;  -49.525; -380.000; -388.000
311.985;  -11.600;  270.000;   93.000
312.122; -115.800; -932.000; -762.000
312.259; -116.900; -941.000; -994.000
312.396;  -84.575; -508.000; -551.000
312.533;  -95.925; -812.000; -790.000
312.670; -149.000;-1070.000; -898.000
312.807;  -43.575; -352.000; -367.000
312.944;  -80.775; -513.000; -611.000
313.081;  -41.500; -150.000; -415.000
313.218;  -99.400;-1111.000; -867.000
313.355;  -34.325; -531.000; -449.000
313.492;  -23.500; -455.000; -292.000
313.629;  110.575;  815.000;  735.000
313.766; -152.475;-1176.000;-1008.000
313.902;  -11.175; -186.000;   21.000
314.039;  -62.075; -372.000; -289.000
314.176;    5.600;  286.000;  192.000
314.313;  -84.125; -569.000; -473.000
314.450;  -97.150; -788.000; -684.000
314.587;  -61.875; -468.000; -480.000
314.723;   -6.575;  -78.000;  130.000
314.860;   34.050;  318.000;  332.000
314.997;    9.675;  223.000;  142.000
315.134;  -39.325; -385.000; -368.000
315.270;  -32.175; -480.000; -496.000
315.407; -136.250;-1094.000; -967.000
315.544;  -51.425; -657.000; -538.000
315.681;  -66.525; -681.000; -565.000
315.817;   18.900; -133.000; -176.000
315.954;   18.825; -613.000; -392.000
316.091; -128.700;-1045.000;-1023.000
316.227;  -37.200;  -71.000; -179.000
316.364;  -11.250;   23.000;    6.000
316.500;  -57.175; -113.000; -300.000
316.637;  -53.175; -181.000; -302.000
316.774; -107.125; -625.000; -358.000
316.910; -106.225; -598.000; -629.000
317.047;  -86.925; -487.000; -351.000
317.183;  -56.425; -435.000; -566.000
317.320;   18.775; -367.000; -321.000
317.456;  -30.475; -733.000; -805.000
317.593; -102.000; -598.000; -641.000
317.729;  -16.400;  168.000;  -67.000
317.866; -210.975;-1434.000;-1285.000
318.002; -100.200; -708.000; -948.000
318.139; -113.825; -883.000; -867.000
318.275; -113.775;-1003.000; -738.000
318.412;  -74.900; -517.000; -336.000
318.548;  -80.000; -751.000; -720.000
318.685; -108.975; -985.000; -888.000
318.821;  -97.900; -762.000; -735.000
318.957;  -19.775;   34.000;  -23.000
319.094;   22.875;  297.000;  154.000
319.230; -113.275; -756.000; -742.000
319.367;  -11.375; -471.000; -520.000
319.503;  -28.600; -538.000; -436.000
319.639; -109.425; -877.000; -793.000
319.775;  -98.850; -750.000; -685.000
319.912;  -76.750; -424.000; -519.000
320.048; -116.225;-1184.000;-1184.000
320.184;   72.300;   59.000;   70.000
320.321;  -64.175; -497.000; -467.000
320.457;   75.150;  475.000;  662.000
320.593;  -79.750; -375.000; -382.000
320.729; -120.425; -732.000; -734.000
320.866;  -79.675; -577.000; -635.000
321.002; -112.200; -759.000; -809.000
321.138;  -50.500; -135.000; -211.000
321.274;    4.900; -148.000; -115.000
321.410;  -71.325; -585.000; -353.000
321.546; -116.175;-1011.000; -911.000
321.683;   21.625;  400.000;  185.000
321.819;  -29.500;  -48.000; -117.000
321.955; -126.850; -743.000; -722.000
322.091;  -90.350; -585.000; -540.000
322.227;  -45.450; -382.000; -202.000
322.363;  -61.700; -320.000; -215.000
322.499;  -62.200; -343.000; -331.000
322.635;   79.000;  636.000;  443.000
322.771;  -10.950; -139.000;   12.000
322.907;   36.650;  129.000;  327.000
323.043;  -54.025; -115.000; -206.000
323.179;  -72.350; -394.000; -363.000
323.315;  -53.150; -401.000; -371.000
323.451;   -3.275; -328.000; -236.000
323.587;   41.325;  -60.000;  -77.000
323.723;  -69.050; -682.000; -601.000
323.859;  -40.050; -258.000;  -76.000
323.995;  -67.900; -467.000; -409.000
324.131; -138.400; -967.000; -892.000
324.267;  -61.825; -254.000; -276.000
324.402; -143.950; -960.000; -983.000
324.538;  -49.475; -279.000; -104.000
324.674;   -8.250;  164.000;   77.000
324.810;   32.175;  226.000;  308.000
324.946;  -57.950; -810.000; -658.000
325.082;  -88.125; -568.000; -475.000
325.217;  -32.025;  -62.000;   16.000
325.353; -118.400; -764.000; -659.000
325.489; -106.175; -540.000; -506.000
325.625;  -78.800; -579.000; -525.000
325.760;   74.575;  517.000;  376.000
325.896;    6.300; -515.000; -702.000
326.032;  -73.950; -403.000; -352.000
326.168;  -71.100; -462.000; -369.000
326.303;  -69.825; -352.000; -461.000
326.439;  -24.250; -336.000; -276.000
326.575;  -12.600; -190.000;  -29.000
326.710;  -25.650; -156.000;  -30.000
326.846;  -17.600;  146.000;  103.000
326.982;  -98.325; -530.000; -548.000
327.117;  -82.325; -481.000; -442.000
327.253;  -91.775; -745.000; -742.000
327.388; -173.925;-1137.000;-1153.000
327.524; -101.125; -811.000; -578.000
327.659;  -37.850;  -58.000;  -22.000
327.795;  -45.975;   69.000;   45.000
327.931;  -77.400; -723.000; -499.000
328.066;  -34.825; -417.000; -276.000
328.202;  -30.425;   12.000; -129.000
328.337;   92.550;  957.000;  713.000
328.473;    1.475;  -12.000;  -74.000
328.608;  -31.175; -256.000; -267.000
328.743; -119.850; -799.000; -664.000
328.879;   -5.775;  214.000;  114.000
329.014;  -41.275; -102.000; -122.000
329.150;  -89.175; -358.000; -483.000
329.285;  -85.950; -465.000; -466.000
329.421;  -61.300; -548.000; -246.000
329.556;  -20.875;  -36.000;   85.000
329.691; -109.175; -633.000; -615.000
329.827;  -96.575; -626.000; -480.000
329.962;  -49.125;  131.000; -301.000
330.097;  -97.850; -673.000; -585.000
330.233;  -64.375; -410.000; -223.000
330.368; -129.925; -839.000; -628.000
330.503;  -40.000;    3.000;   98.000
330.638;  -37.000;  -93.000; -125.000
330.774;  -85.900; -609.000; -530.000
330.909;  -55.650; -434.000; -244.000
331.044; -105.625; -714.000; -708.000
331.179; -174.875;-1217.000;-1109.000
331.315;  -14.300;   77.000;   20.000
331.450;   -2.525;  157.000;  285.000
331.585; -103.700; -805.000; -706.000
331.720;  -85.125; -510.000; -460.000
331.855;   -6.350;  -35.000; -102.000
331.990;  393.175;   62.000;  138.000
332.126;  208.225; -110.000;   71.000
332.261;   -7.850; -379.000; -265.000
332.396;   10.275; -135.000; -242.000
332.531;  -69.875;-1074.000;-1031.000
332.666;   85.075; -519.000; -363.000
332.801; -102.550; -726.000; -807.000
332.936;  -37.850; -192.000; -122.000
333.071; -138.750; -870.000; -817.000
333.206;   -5.750;  307.000;  379.000
333.341;   38.775;  344.000;  418.000
333.476;  -98.800; -627.000; -623.000
333.611;  -48.350; -251.000; -173.000
333.746;  -61.125; -381.000; -464.000
333.881; -132.275; -973.000; -935.000
334.016; -131.425; -936.000; -917.000
334.151; -118.150; -746.000; -702.000
334.286;    3.400;  152.000;  186.000
334.421;  -26.825; -125.000; -178.000
334.556;  -90.225; -611.000; -567.000
334.690;  -88.000; -631.000; -577.000
334.825;   37.475;  381.000;   83.000
334.960;  -74.750; -285.000; -413.000
335.095;    2.100;  135.000;  -91.000
335.230; -106.825; -722.000; -738.000
335.365; -139.850;-1084.000; -990.000
335.499; -144.525;-1108.000;-1037.000
335.634;    5.775;    9.000;  534.000
335.769; -104.550; -755.000; -720.000
335.904;  -61.275; -603.000; -561.000
336.038;  -48.350; -735.000; -657.000
336.173; -118.250;-1206.000;-1194.000
336.308;   10.150; -116.000; -189.000
336.443;   35.950; -544.000; -634.000
336.577;  -61.625; -936.000; -787.000
336.712;   61.000;   -4.000;  -12.000
336.847;  -31.150; -724.000; -607.000
336.981;   52.775; -272.000; -208.000
337.116;  290.100;  615.000;  501.000
337.250;  115.775; -434.000; -421.000
337.385;  458.675; -297.000; -208.000
337.520;  213.125; -632.000; -603.000
337.654;  -37.775; -215.000; -126.000
337.789; -133.450; -989.000; -933.000
337.923;  -46.450; -104.000; -205.000
338.058; -124.000; -673.000; -738.000
338.192;  -66.375; -611.000; -488.000
338.327;  -26.450;  -18.000; -155.000
338.461;  -73.300; -299.000; -469.000
338.596; -102.900; -780.000; -638.000
338.730;  -98.825; -767.000; -803.000
338.865;  151.800;  -46.000; -140.000
338.999;    1.200; -846.000; -702.000
339.134;   -7.050; -634.000; -536.000
339.268;   33.350; -741.000; -603.000
339.403;  548.450; -740.000; -775.000
339.537;  264.300; -894.000; -820.000
339.671;  -92.900; -829.000; -813.000
339.806;  -32.725; -556.000; -512.000
339.940;   25.350; -261.000; -235.000
340.074;  -96.925; -685.000; -510.000
340.209;  -62.025; -351.000; -230.000
340.343;  -98.675; -517.000; -573.000
340.477;  109.625;  998.000; 1036.000
340.612;   -0.975;-1033.000; -900.000
340.746;  233.225; -199.000; -243.000
340.880; -106.000; -924.000; -785.000
341.014;  -19.975;  -45.000; -154.000
341.149; -133.150; -756.000; -718.000
341.283; -120.000; -839.000; -754.000
341.417; -139.175;-1124.000; -938.000
341.551;  -40.625; -768.000; -708.000
341.685;  -72.750; -633.000; -611.000
341.820;  -69.300; -562.000; -493.000
341.954;  -63.775; -218.000; -349.000
342.088; -162.675;-1102.000;-1019.000
342.222;   42.875;  565.000;  618.000
342.356;  -88.700; -395.000; -335.000
342.490; -138.175; -880.000; -841.000
342.624;  -65.250; -339.000; -242.000
342.758;  -66.150; -364.000; -312.000
342.892;  -99.200; -710.000; -585.000
343.026;  -42.050;  -58.000; -116.000
343.160;  -78.200; -426.000; -376.000
343.294;  -89.800; -474.000; -337.000
343.428;  -82.300; -488.000; -448.000
343.562;  -42.825; -172.000;  -23.000
343.696;  -56.750; -385.000; -314.000
343.830;  -63.700; -362.000; -356.000
343.964;  -38.250; -231.000; -168.000
344.098;  284.150;  199.000;   70.000
344.232;  245.150; -266.000; -127.000
344.366;   64.425; -567.000; -453.000
344.500;  -56.325; -665.000; -744.000
344.634;  -52.075; -324.000; -164.000
344.768;  -77.775; -531.000; -341.000
344.902;    1.975;  278.000;  256.000
345.035;  -75.425; -556.000; -496.000
345.169; -148.450; -933.000; -656.000
345.303;  -61.375; -308.000; -482.000
345.437; -109.625; -826.000; -717.000
345.571;  -77.475; -675.000; -594.000
345.704;  -76.075; -309.000; -532.000
345.838;  -41.075; -331.000; -284.000
345.972;  -81.575; -543.000; -495.000
346.106;  243.950; -179.000; -190.000
346.239;  477.375; -312.000; -243.000
346.373;   -6.400; -343.000; -302.000
346.507; -148.150; -950.000; -962.000
346.640;   19.450;  -30.000;   13.000
346.774; -108.575; -650.000; -797.000
346.908;  -38.275; -138.000;  -11.000
347.041; -110.675; -646.000; -593.000
347.175;  -18.450;  259.000;   27.000
347.309; -112.050; -698.000; -628.000
347.442; -135.625; -883.000; -732.000
347.576;  115.250;  670.000;  668.000
347.709;   31.400; -123.000;  -52.000
347.843; -137.575; -933.000; -825.000
347.976;    7.050;  235.000;  294.000
348.110; -188.050;-1268.000;-1186.000
348.243; -113.050; -679.000; -772.000
348.377;   -4.925;  -26.000;   60.000
348.510;   27.225;  403.000;  540.000
348.644;  -55.075;  -37.000; -159.000
348.777;  -22.650;  180.000;  191.000
348.911;  -59.575; -142.000; -112.000
349.044;   73.525;  471.000;  448.000
349.178;  -45.925;-1069.000;-1006.000
349.311;   98.875;  141.000;  255.000
349.444;   40.875; -927.000; -813.000
349.578;  -44.325; -347.000; -200.000
349.711; -135.750; -959.000; -862.000
349.845;  -77.825; -661.000; -591.000
349.978; -169.600;-1224.000;-1137.000
350.111;  -88.125; -546.000; -612.000
350.244; -123.850; -596.000; -700.000
350.378;  -66.550; -392.000; -393.000
350.511;  -71.125; -393.000; -426.000
350.644; -106.350; -808.000; -806.000
350.778;   10.825;  168.000;  104.000
350.911;  -19.850;  134.000;  140.000
351.044; -108.375; -685.000; -615.000
351.177;  -62.225; -321.000; -281.000
351.310;  -30.300;    3.000; -131.000
351.444; -133.825; -888.000; -788.000
351.577;   27.650;  140.000;   90.000
351.710;   62.925;  593.000;  417.000
351.843;  -50.025; -165.000;  -77.000
351.976;   -2.600;  149.000;  -79.000
352.109; -107.550; -621.000; -612.000
352.242;  -69.650; -464.000; -419.000
352.376;  -92.075; -580.000; -636.000
352.509;    9.200; -437.000; -356.000
352.642;  -99.300; -654.000; -604.000
352.775;    2.200; -141.000;  -98.000
352.908; -138.100; -933.000; -904.000
353.041; -123.075; -814.000; -824.000
353.174;  -75.350; -551.000; -424.000
353.307; -100.850; -753.000; -764.000
353.440;   58.125;  541.000;  453.000
353.573; -108.900; -957.000;-1008.000
353.706;  -55.300; -384.000; -558.000
353.839;  -43.775; -264.000; -220.000
353.971;  -99.750; -657.000; -512.000
354.104; -117.200; -896.000; -835.000
354.237;  -94.175; -627.000; -662.000
354.370; -111.050; -846.000; -879.000
354.503; -196.400;-1231.000;-1308.000
354.636;  -29.575; -529.000; -348.000
354.769; -142.675; -937.000; -860.000
354.902;  -34.750; -230.000; -139.000
355.034;  -22.700; -164.000; -220.000
355.167;  -35.525; -262.000; -162.000
355.300;  -70.450;-1061.000; -880.000
355.433; 1409.500;  -71.000;  -14.000
355.565; 2220.325; -402.000; -384.000
355.698;  573.775; -356.000; -296.000
355.831;  -30.925; -882.000; -801.000
355.964;   -7.525; -285.000; -170.000
356.096;  -97.075; -856.000; -843.000
356.229;  -12.700; -523.000; -530.000
356.362;  526.925; -373.000; -266.000
356.494;  898.000; -229.000; -162.000
356.627;  318.825;  269.000;  377.000
356.760;  888.000;  120.000;   53.000
356.892; 1473.775; -286.000; -601.000
357.025;  336.150;  403.000;  389.000
357.157;  234.725; -167.000; -179.000
357.290; 1220.800; -856.000; -713.000
357.423;  367.775; -667.000; -556.000
357.555;   85.350; -217.000; -228.000
357.688;  132.550; -483.000; -364.000
357.820;  158.750; -870.000; -877.000
357.953; 1502.600; -563.000; -589.000
358.085;  214.450; -632.000; -612.000
358.218;   98.725;-1131.000; -932.000
358.350;   29.400;  -58.000;  312.000
358.483; -175.275;-1300.000;-1187.000
358.615; -146.125;-1182.000;-1078.000
358.747; -159.700;-1187.000;-1058.000
358.880;  -70.100; -810.000; -744.000
359.012;  -42.375; -376.000; -202.000
359.145;  -80.475; -480.000; -511.000
359.277;  -73.825; -962.000; -913.000
359.409; 1271.475;  536.000;  231.000
359.542;  260.800; -738.000; -688.000
359.674;   12.125;   46.000;   13.000
359.806;  -74.600; -565.000; -438.000
359.939;  -52.975; -617.000; -516.000
360.071;   45.800; -583.000; -579.000
360.203;  -28.475; -411.000; -364.000
360.335;   16.850;  164.000;  -16.000
360.468;   66.525; -249.000; -307.000
360.600; 1337.675; -547.000; -454.000
360.732; 4250.175; -546.000; -423.000
360.864;  629.425;-1216.000;-1044.000
360.996;   59.500; -516.000; -554.000
361.129;  -48.900; -389.000; -598.000
361.261;   -6.100;  110.000; -113.000
361.393;  -71.650; -252.000; -214.000
361.525;   -8.500;   94.000;  244.000
361.657; -119.275; -821.000; -703.000
361.789;  -45.025; -139.000; -155.000
361.921;  -56.625; -642.000; -593.000
362.053;   79.775;  524.000;  541.000
362.185;  -16.700;  288.000;   72.000
362.318; -119.950; -709.000; -705.000
362.450;   21.550;  294.000;  444.000
362.582;  -81.650; -913.000; -870.000
362.714;  -62.400; -353.000; -332.000
362.846; -101.625; -606.000; -490.000
362.978; -147.200; -941.000; -811.000
363.109;  -39.425; -161.000; -260.000
363.241;  142.700; -739.000; -749.000
363.373;  616.025; -649.000; -564.000
363.505; 1029.675; -186.000;  -91.000
363.637;  236.175; -787.000; -601.000
363.769; -142.375;-1067.000;-1080.000
363.901;  -99.525; -596.000; -654.000
364.033; -160.900;-1103.000;-1062.000
364.165;  -49.525; -283.000; -283.000
364.296;   90.425; -316.000; -177.000
364.428;  178.800;-1344.000;-1220.000
364.560;  -73.700; -679.000; -661.000
364.692;  -77.075; -738.000; -835.000
364.824;   -5.900; -588.000; -456.000
364.955;  497.250; -402.000; -564.000
365.087; 1700.350;-1097.000; -852.000
365.219;   96.225; -686.000; -816.000
365.351;  -71.250; -526.000; -572.000
365.482;    2.200;  300.000;  240.000
365.614;  -67.625; -402.000; -314.000
365.746; -121.025; -729.000; -752.000
365.877; -101.275; -706.000; -672.000
366.009;  397.325;  -35.000;  -62.000
366.141;  -50.800;-1249.000;-1134.000
366.272; -126.075; -803.000; -719.000
366.404; -119.475;-1005.000; -874.000
366.535;  -12.425; -139.000;  -12.000
366.667; -116.725; -644.000; -649.000
366.799;   15.100;  353.000;  203.000
366.930; -141.500; -862.000; -996.000
367.062;  164.050; -639.000; -613.000
367.193;  339.875; -872.000; -842.000
367.325;  -60.800; -580.000; -684.000
367.456;   -4.850; -246.000;   31.000
367.588;  267.550; -371.000; -318.000
367.719;   42.075;  -44.000;  -45.000
367.851;  -44.600; -222.000; -241.000
367.982; -116.850; -875.000; -732.000
368.113;  -28.125; -475.000; -358.000
368.245; -153.225; -960.000; -841.000
368.376;  -57.050; -254.000; -302.000
368.508;  -66.475; -188.000; -263.000
368.639; -163.375;-1166.000;-1034.000
368.770; -106.550; -670.000; -589.000
368.902; -118.550; -836.000; -926.000
369.033; -130.300; -906.000; -855.000
369.164;  -59.350; -720.000; -653.000
369.296; -121.425; -452.000; -601.000
369.427;  -46.825; -209.000; -144.000
369.558;  -97.325; -593.000; -377.000
369.689; -120.325; -721.000; -569.000
369.821; -133.850; -951.000; -845.000
369.952;  -33.675;   42.000; -108.000
370.083;  -52.450; -229.000; -108.000
370.214; -110.500; -735.000; -650.000
370.345;  -29.875;   65.000;   81.000
370.477; -134.825; -810.000; -790.000
370.608;   18.900; -328.000; -264.000
370.739; -145.850;-1233.000;-1292.000
370.870; -122.875;-1102.000; -923.000
371.001;  -33.950; -378.000; -467.000
371.132; -104.450; -754.000; -735.000
371.263;  -46.750;  -42.000; -148.000
371.394; -159.425; -841.000; -748.000
371.525;   -0.200;  345.000;  225.000
371.657; -118.225; -808.000; -670.000
371.788;    2.275;  103.000;  199.000
371.919;   20.400; -384.000; -304.000
372.050; 1257.700;  -91.000; -156.000
372.181;  364.800; -188.000; -294.000
372.311;   88.175;   42.000; -127.000
372.442;  -63.050; -457.000; -451.000
372.573;  -66.650; -444.000; -340.000
372.704; -153.550;-1008.000; -980.000
372.835;  -31.350; -228.000; -289.000
372.966;  -90.000; -646.000; -554.000
373.097; -106.650; -575.000; -711.000
373.228; -108.025; -717.000; -542.000
373.359;  -45.125; -824.000; -536.000
373.490;  152.475; -881.000; -727.000
373.620;  232.325;-1001.000; -803.000
373.751;  498.175; -332.000; -396.000
373.882;  188.750; -663.000; -733.000
374.013;  -33.775; -449.000; -262.000
374.143;  -86.225; -581.000; -659.000
374.274; -147.350; -987.000; -908.000
374.405;   51.300; -388.000; -276.000
374.536;   95.850; -526.000; -387.000
374.666;  251.200; -759.000; -807.000
374.797;  -27.175; -817.000; -868.000
374.928;  156.025; -710.000; -560.000
375.058;  174.750; -535.000; -500.000
375.189;   -1.175;  -59.000;  -93.000
375.320; -126.575; -928.000;-1034.000
375.450;  -70.650; -625.000; -616.000
375.581;  -55.000; -526.000; -436.000
375.712;  -71.100; -574.000; -250.000
375.842;    3.775; -438.000; -415.000
375.973;  -35.150; -554.000; -513.000
376.103; -111.600; -665.000; -648.000
376.234; -103.575; -531.000; -552.000
376.364; -125.150; -944.000; -867.000
376.495;  127.800;  925.000;  529.000
376.625;  -73.825; -472.000; -485.000
376.756;  -76.825; -709.000; -678.000
376.886; -147.875;-1178.000;-1026.000
377.017;  130.150;-1048.000;-1061.000
377.147;  655.725; -786.000; -782.000
377.278;   81.075;  174.000;  228.000
377.408; -119.600; -801.000; -815.000
377.538; -110.700; -707.000; -693.000
377.669;  -93.150; -537.000; -613.000
377.799; -118.425; -645.000; -635.000
377.929;  -93.675; -610.000; -428.000
378.060; -140.250; -781.000; -847.000
378.190;  -51.175; -726.000; -531.000
378.320;  -49.500; -401.000; -406.000
378.451;  -28.350; -131.000;  -22.000
378.581;  -32.325;  -67.000; -110.000
378.711;   97.100; 1035.000;  866.000
378.841;  -94.050; -533.000; -675.000
378.972; -137.225; -871.000; -751.000
379.102;  -81.150; -652.000; -579.000
379.232;  -48.875; -126.000;  -73.000
379.362; -143.100;-1001.000; -885.000
379.492;  -56.675; -373.000; -424.000
379.623;   28.475;    0.000;  111.000
379.753; -138.950;-1107.000; -974.000
379.883;   58.275;   59.000;  156.000
380.013; -113.675;-1081.000;-1017.000
380.143; -147.250;-1097.000;-1056.000
380.273; -125.925; -985.000; -861.000
380.403;   -2.675; -344.000; -257.000
380.533;  -51.950; -651.000; -664.000
380.663;   22.025;  173.000;  128.000
380.793; -157.400;-1027.000;-1074.000
380.923;  -61.350; -103.000;  -34.000
381.053; -111.725; -613.000; -623.000
381.183;  -53.275; -106.000; -248.000
381.313;  -77.125; -656.000; -470.000
381.443;  -78.850; -692.000; -473.000
381.573;  -45.775; -402.000; -409.000
381.703; -114.050;-1249.000;-1095.000
381.833; -195.325;-1454.000;-1336.000
381.963;    2.050; -134.000;  -87.000
382.093;  391.300; -925.000; -909.000
382.223;   73.275; -713.000; -602.000
382.353;  -97.950; -801.000; -608.000
382.482;   -4.250;-1091.000; -964.000
382.612;  155.975; -872.000; -644.000
382.742;   63.550; -695.000; -622.000
382.872;  -27.825; -565.000; -551.000
383.002;    0.250;  347.000; -132.000
383.131;  -37.475; -226.000; -160.000
383.261;  -52.850; -706.000; -768.000
383.391;  305.625; -552.000; -377.000
383.521; 5085.500;  451.000;  263.000
383.650; 1498.150; -947.000; -904.000
383.780;   28.550; -783.000; -656.000
383.910;   81.925;  880.000;  802.000
384.039;  -91.075; -794.000; -656.000
384.169; -103.050;-1205.000;-1017.000
384.299; -113.875; -650.000; -662.000
384.428; -127.875; -764.000; -680.000
384.558;  -61.275; -308.000; -275.000
384.687;  -81.350; -414.000; -334.000
384.817;  -31.775;   75.000;   -2.000
384.947;  -61.175; -234.000; -141.000
385.076;  138.650;  982.000;  912.000
385.206;   45.975;  369.000;  480.000
385.335;  -77.900; -549.000; -417.000
385.465; -132.475; -655.000; -663.000
385.594;   -1.650;  -53.000;  -44.000
385.724;   11.000; -868.000; -838.000
385.853;  -22.175; -296.000; -270.000
385.982;  335.200; -743.000; -787.000
386.112;  637.525;-1052.000; -871.000
386.241;   -9.150; -307.000; -312.000
386.371;  -37.725; -174.000;  -87.000
386.500;  -84.125; -825.000; -789.000
386.629;  -16.425; -874.000; -817.000
386.759;   51.800;  -43.000;   68.000
386.888;  -39.825; -170.000; -250.000
387.017; -102.825; -648.000; -620.000
387.147; -120.050; -771.000; -798.000
387.276;  -73.025; -410.000; -397.000
387.405;  -55.075; -398.000; -342.000
387.535;  -86.650; -452.000; -361.000
387.664;  -79.400; -692.000; -620.000
387.793;  -34.125; -198.000; -113.000
387.922;  139.350;  255.000;  200.000
388.052;  -76.925; -576.000; -423.000
388.181;  -74.975; -342.000; -472.000
388.310; -118.150; -889.000; -710.000
388.439; -131.275; -749.000; -742.000
388.568;   32.375;  365.000;  244.000
388.697;  251.050; -756.000; -653.000
388.826;  -11.625; -768.000; -666.000
388.956;  -49.075; -285.000; -307.000
389.085;  -70.800; -347.000; -287.000
389.214; -123.125; -842.000; -872.000
389.343;  -81.175; -645.000; -413.000
389.472;  553.525;  126.000;  149.000
389.601;  613.100;   91.000;    0.000
389.730;  -49.600; -568.000; -687.000
389.859;   21.175;  226.000;   46.000
389.988;   13.600; -423.000; -408.000
390.117;   15.775; -168.000; -146.000
390.246;  -61.900; -331.000; -320.000
390.375;  -72.375; -673.000; -626.000
390.504; -114.175; -703.000; -621.000
390.633; -133.225; -672.000; -726.000
390.761; -114.250; -732.000; -645.000
390.890;  -34.100;   -4.000; -130.000
391.019;  -79.200; -421.000; -441.000
391.148; -144.875; -826.000; -855.000
391.277; -100.200; -576.000; -493.000
391.406; -136.125; -821.000; -805.000
391.534;  -10.300;  574.000; -301.000
391.663; -110.375; -583.000; -645.000
391.792; -117.150; -673.000; -701.000
391.921;  -28.325;   -3.000;   15.000
392.050;  -22.150; -287.000; -228.000
392.178; -140.075;-1206.000;-1061.000
392.307;  -43.475; -758.000; -712.000
392.436;  -74.100; -427.000; -641.000
392.564;   -5.775;  166.000;   -6.000
392.693; -132.575; -860.000; -682.000
392.822;  -16.650; -529.000; -534.000
392.950;  -66.350; -880.000; -714.000
393.079;   40.225; -188.000; -328.000
393.208;  -63.450; -488.000; -511.000
393.336;  -39.900; -170.000; -145.000
393.465;  -59.900; -317.000; -199.000
393.593;  -28.025;   62.000;   79.000
393.722; -166.150;-1121.000; -916.000
393.850;  -34.875; -188.000;  -61.000
393.979; -151.150; -926.000; -805.000
394.107;  -72.700; -517.000; -537.000
394.236;  -52.850; -570.000; -507.000
394.364;   83.725;  383.000;  206.000
394.493;   46.250; -911.000; -767.000
394.621;  -26.075; -955.000; -916.000
394.750; 1114.800; -873.000; -923.000
394.878; 4395.225; -247.000; -149.000
395.007; 6327.750; -721.000; -807.000
395.135;  528.800; -790.000; -721.000
395.263;  -77.875;-1038.000;-1040.000
395.392;  -16.500;  -25.000; -107.000
395.520; -128.325; -818.000; -679.000
395.648; -148.350; -865.000; -915.000
395.777;  -87.000; -366.000; -405.000
395.905;  -91.950; -449.000; -564.000
396.033;  -26.775;  217.000;  172.000
396.162;  112.050; -399.000; -453.000
396.290;  104.950;  -17.000;   -2.000
396.418;  -71.225; -555.000; -514.000
396.546; -109.775; -571.000; -466.000
396.674; -132.925; -850.000; -878.000
396.803;  -36.500;  -72.000;  -23.000
396.931;  -40.500; -179.000; -199.000
397.059; -137.300;-1026.000; -989.000
397.187; -148.825;-1026.000; -975.000
397.315; -147.725; -884.000; -649.000
397.443; -114.275; -592.000; -443.000
397.572; -129.950; -578.000; -424.000
397.700; -108.225; -607.000; -614.000
397.828;  -47.750;  120.000;  -90.000
397.956;  -40.400; -508.000; -478.000
398.084;  -34.925; -767.000; -626.000
398.212;  -14.700;  137.000;  124.000
398.340;  -32.900;  -56.000;  159.000
398.468;  -65.275; -390.000; -169.000
398.596; -159.375; -993.000; -953.000
398.724; -136.375; -762.000; -767.000
398.852; -164.250;-1024.000; -976.000
398.980;  -94.900; -560.000; -560.000
399.108; -110.275; -982.000; -735.000
399.236;  -22.900;   13.000;    8.000
399.363;  -18.950;  222.000;  196.000
399.491;  -84.225; -404.000; -398.000
399.619; -119.750; -829.000; -800.000
399.747; -126.475; -859.000; -771.000
399.875;   19.200;  220.000;  234.000
400.003;  -59.875; -359.000; -284.000
400.130; -105.250; -421.000; -341.000
400.258;  -40.725;  -83.000;   38.000
400.386;  -82.400; -352.000; -168.000
400.514; -102.400; -526.000; -587.000
400.641; -165.700; -928.000; -802.000
400.769; -161.550; -979.000; -888.000
400.897; -131.025; -838.000; -793.000
401.025;  -49.800; -166.000; -152.000
401.152;  -17.825;  220.000;   38.000
401.280;  -86.400; -430.000; -429.000
401.408; -129.650; -712.000; -576.000
401.535; -132.875; -735.000; -758.000
401.663; -204.900;-1134.000;-1054.000
401.790; -103.825; -514.000; -525.000
401.918;    6.725;  436.000;  405.000
402.046;  -37.200;  134.000;  122.000
402.173;  -45.475;  -18.000;    7.000
402.301;  -97.350; -519.000; -397.000
402.428;   16.325;  528.000;  383.000
402.556; -172.425;-1188.000; -913.000
402.683;  -44.450;  -20.000;   -1.000
402.811;  -55.275;  -37.000; -206.000
402.938;  -29.350;   20.000;   27.000
403.066;  -24.325; -574.000; -558.000
403.193;   84.900;  299.000;  239.000
403.321;   45.250; -396.000; -574.000
403.448;   90.550;   83.000;   27.000
403.575;   28.700;  -90.000;  -46.000
403.703; -114.700; -732.000; -557.000
403.830;  -63.050; -531.000; -496.000
403.957; -132.550;-1117.000;-1023.000
404.085;    4.875;  -61.000; -172.000
404.212;   97.975;  -50.000;   63.000
404.339;  413.250; -566.000; -306.000
404.467; 8860.575; -612.000; -524.000
404.594; 5289.625; -287.000; -227.000
404.721;  882.025; -869.000; -764.000
404.848;   92.900; -113.000; -202.000
404.976; -116.275; -856.000; -783.000
405.103;  -21.525;  -14.000;  -82.000
405.230;   -7.850;  190.000;  226.000
405.357;   28.550;  117.000;   44.000
405.484;  402.325;  -49.000;    5.000
405.612;   98.350; -548.000; -563.000
405.739;  -70.000; -488.000; -243.000
405.866;   60.375;  669.000;  385.000
405.993;  -69.250; -398.000; -102.000
406.120; -148.800; -801.000; -887.000
406.247;  -92.750; -323.000; -342.000
406.374;   98.250;  540.000;  629.000
406.501; -111.975; -632.000; -702.000
406.628; -111.700; -621.000; -589.000
406.755; -132.375; -803.000; -620.000
406.882;  -68.475; -228.000; -277.000
407.009; -131.050; -719.000; -628.000
407.136;  -65.350; -480.000; -401.000
407.263;  -64.775; -939.000; -829.000
407.390; -113.900; -692.000; -614.000
407.517; -193.200;-1139.000;-1187.000
407.644;  -85.975; -332.000; -256.000
407.771;  -98.025; -249.000; -287.000
407.898;  -14.650;  168.000;  328.000
408.025;  -98.925; -421.000; -313.000
408.151;  -25.575;   82.000;  153.000
408.278;  -71.625; -267.000; -216.000
408.405; -137.800; -931.000; -899.000
408.532; -111.775; -549.000; -542.000
408.659; -132.300; -677.000; -648.000
408.785; -200.675;-1298.000;-1170.000
408.912;  -82.250; -412.000; -296.000
409.039; -122.800; -610.000; -686.000
409.166; -121.950; -591.000; -555.000
409.292; -121.700; -571.000; -534.000
409.419; -129.000; -665.000; -649.000
409.546;  -98.400; -431.000; -192.000
409.672; -122.600; -713.000; -545.000
409.799;  -43.275;  -36.000;   34.000
409.926;  -68.975; -180.000; -179.000
410.052; -195.225;-1127.000;-1091.000
410.179;  -87.150; -368.000; -392.000
410.305; -101.375; -375.000; -493.000
410.432;  -37.600; -220.000; -333.000
410.558;  -98.450; -305.000; -380.000
410.685; -115.600; -688.000; -431.000
410.812; -116.225; -409.000; -588.000
410.938; -156.500; -964.000; -808.000
411.065; -124.600; -671.000; -645.000
411.191;  -39.575; -189.000; -174.000
411.317; -137.975; -823.000; -742.000
411.444;  -81.125; -317.000; -246.000
411.570;  -89.050; -339.000; -294.000
411.697; -147.625; -758.000; -752.000
411.823; -182.025; -989.000; -999.000
411.949;  -61.125;  -56.000;   17.000
412.076; -134.975; -539.000; -519.000
412.202; -141.800; -758.000; -757.000
412.329; -148.925; -798.000; -752.000
412.455; -134.800; -821.000; -657.000
412.581;  -41.400;  -15.000;  172.000
412.707;  -97.775; -540.000; -457.000
412.834;  -15.600;  156.000;  219.000
412.960; -127.475; -785.000; -784.000
413.086; -113.675; -743.000; -701.000
413.212;   81.425;  604.000;  578.000
413.339; -100.175; -685.000; -701.000
413.465;  -79.375; -364.000; -310.000
413.591; -118.250; -757.000; -474.000
413.717;  -72.350; -358.000; -366.000
413.843; -156.175; -839.000; -861.000
413.969;  -71.450;  -47.000; -292.000
414.096; -105.650; -679.000; -679.000
414.222;  -22.475;  -33.000;   85.000
414.348;  -81.250; -652.000; -385.000
414.474;   -8.300;   38.000;  -52.000
414.600;  -29.425; -126.000; -144.000
414.726;  -12.775;  -96.000;  -55.000
414.852;  -53.875; -365.000; -342.000
414.978;   17.975;  104.000;  -18.000
415.104;   44.825;   38.000;   80.000
415.230;   26.675; -329.000; -330.000
415.356;   55.625; -409.000; -514.000
415.482;  220.250;   13.000;  -35.000
415.608;  377.175; -247.000; -323.000
415.734; 1287.125;   67.000;   38.000
415.860;27032.525; -875.000; -767.000
415.986;21840.575; -685.000; -607.000
416.111; 2024.725; -798.000; -652.000
416.237;  438.900; -424.000; -571.000
416.363; 1656.950; -765.000; -733.000
416.489; 6616.725; -324.000; -251.000
416.615;  873.425; -707.000; -742.000
416.741;   33.300; -677.000; -784.000
416.866;  -71.125; -673.000; -736.000
416.992; -110.500; -801.000; -818.000
417.118;  -33.625;  -41.000;  -80.000
417.244;  -96.000; -798.000; -531.000
417.369;  -91.975; -801.000; -612.000
417.495;  -19.975; -325.000; -254.000
417.621; -103.050;-1015.000; -803.000
417.746;    5.100; -579.000; -572.000
417.872;   52.325; -254.000; -144.000
417.998;  110.550; -515.000; -530.000
418.123; 1513.725;-1073.000; -845.000
418.249; 8401.075; -512.000; -601.000
418.374; 1380.225; -916.000; -824.000
418.500;  186.150; -383.000; -482.000
418.626;  162.300;   70.000;  -59.000
418.751;  139.350; -549.000; -448.000
418.877;  280.425; -637.000; -643.000
419.002; 2552.225; -688.000; -560.000
419.128;19196.450; -930.000; -721.000
419.253; 5315.450; -967.000; -837.000
419.379;  714.450; -391.000; -338.000
419.504;  570.000;  325.000;  415.000
419.629;  801.625; -393.000; -212.000
419.755; 5356.675; -317.000; -254.000
419.880;34382.900;  -98.000;   67.000
420.006;17169.525; -280.000; -221.000
420.131;42622.050; -662.000; -775.000
420.256; 6736.100; -315.000; -316.000
420.382;  920.225; -665.000; -687.000
420.507;  134.075; -649.000; -778.000
420.632;   26.325; -337.000; -339.000
420.758;   24.050; -251.000; -425.000
420.883; -112.650; -876.000; -672.000
421.008; -119.550; -775.000; -619.000
421.133;  -95.150; -509.000; -467.000
421.259;  -56.775; -325.000; -259.000
421.384; -145.750; -834.000; -693.000
421.509; -139.675;-1052.000; -862.000
421.634;  148.900; -936.000; -820.000
421.759;   52.475; -359.000; -327.000
421.885;  -95.825; -717.000; -656.000
422.010; -112.325; -673.000; -542.000
422.135; -146.200; -695.000; -727.000
422.260;   -2.150;  340.000;  280.000
422.385;  -68.100;   12.000;  -98.000
422.510;  -20.675;  151.000;  -26.000
422.635;  -26.875;  -87.000;  -43.000
422.760;  -24.950; -766.000; -791.000
422.885;    7.700;  -57.000;  -80.000
423.010;  -48.150; -112.000; -169.000
423.135; -102.625; -481.000; -561.000
423.260;  -43.425; -150.000; -245.000
423.385;    8.750;  476.000;  222.000
423.510;   -1.525;   71.000;  -22.000
423.635;   -5.600;  133.000;   45.000
423.760;   41.975;  383.000;  328.000
423.885;   12.525;  336.000;  391.000
424.010;   -8.275;  -68.000;  -13.000
424.135;  -31.825;    5.000;  -33.000
424.259;  -91.525; -654.000; -457.000
424.384;  -73.300; -279.000; -272.000
424.509;  -31.625; -260.000; -186.000
424.634;  -99.425; -761.000; -623.000
424.759;  -56.975; -688.000; -544.000
424.883;  -20.700; -506.000; -527.000
425.008;  189.475; -502.000; -410.000
425.133; 2838.300; -679.000; -653.000
425.258; 1494.925; -517.000; -381.000
425.382;  485.600; -867.000; -774.000
425.507; 1127.000; -487.000; -543.000
425.632;  368.100; -802.000; -663.000
425.756;  671.525; -256.000; -146.000
425.881;10118.200; -831.000; -857.000
426.006;30787.575; -604.000; -355.000
426.130; 4951.125; -696.000; -508.000
426.255;  664.200; -611.000; -491.000
426.379;  265.100; -189.000; -577.000
426.504;  504.975;  660.000;  544.000
426.629; 5583.075; -519.000; -466.000
426.753; 4249.075;   64.000;  -46.000
426.878;  512.775; -252.000; -288.000
427.002;  280.250; -651.000; -668.000
427.127; 2035.650;  -35.000; -158.000
427.251;17059.200;  372.000;  401.000
427.375; 5394.025; -191.000; -173.000
427.500; 1259.975; -616.000; -610.000
427.624;  382.050; -234.000; -400.000
427.749;   60.050; -216.000; -225.000
427.873;  -39.000; -499.000; -412.000
427.997;  -60.875; -222.000; -230.000
428.122;   56.500;  795.000;  703.000
428.246;   23.300;  433.000;  434.000
428.371; -156.100; -869.000; -773.000
428.495; -109.225; -624.000; -646.000
428.619;  -62.325; -186.000; -117.000
428.743;    0.075;   65.000;  132.000
428.868;  -81.975; -732.000; -643.000
428.992;  472.250; -219.000; -326.000
429.116;  156.400; -329.000; -357.000
429.240;   88.400;  419.000;  426.000
429.365;  -48.550; -454.000; -574.000
429.489;  -56.275; -638.000; -647.000
429.613;   18.825; -236.000; -177.000
429.737;   81.925; -563.000; -432.000
429.861;  351.150; -247.000; -133.000
429.985; 7813.075; -425.000; -305.000
430.109; 9783.200; -770.000; -908.000
430.234; 1158.575;   76.000;  -50.000
430.358;  117.475; -250.000; -160.000
430.482;  -70.625; -672.000; -564.000
430.606;  -70.150; -655.000; -375.000
430.730;  -68.025; -437.000; -388.000
430.854;  -96.125; -909.000; -835.000
430.978; -112.800; -795.000; -764.000
431.102;  -81.700; -499.000; -422.000
431.226; -141.175; -874.000; -815.000
431.350;  -13.350;  345.000;  422.000
431.474; -104.175; -661.000; -373.000
431.597; -166.675;-1060.000; -848.000
431.721;  -87.625; -276.000; -267.000
431.845; -138.500; -704.000; -472.000
431.969;  -98.775; -304.000; -349.000
432.093;  -87.925; -395.000; -317.000
432.217;  -32.525;   32.000;   82.000
432.341; -102.250; -523.000; -518.000
432.464;  -26.575;   96.000;   40.000
432.588;  -55.050; -401.000; -329.000
432.712;   -1.450;  -52.000;  -52.000
432.836;   62.400;  213.000;  263.000
432.959;   12.275; -372.000; -311.000
433.083;  156.425;   11.000;    2.000
433.207;  553.275;  285.000;  930.000
433.330; 7599.700; -391.000; -200.000
433.454;10279.750; -654.000; -638.000
433.578; 5676.725;  583.000;  278.000
433.701; 1190.900; -623.000; -675.000
433.825;  136.000; -292.000; -299.000
433.949;   17.850;   28.000;  -72.000
434.072;  -24.725; -410.000; -323.000
434.196;  -20.525; -309.000; -117.000
434.319; 3556.375;25482.000;25124.000
434.443;  855.225; -656.000; -603.000
434.566; 4023.500;  281.000;   62.000
434.690;  850.600; -637.000; -383.000
434.813;  117.875; -251.000; -173.000
434.937;  -62.875; -569.000; -696.000
435.060;  -87.200; -423.000; -332.000
435.184;  -19.700; -492.000; -217.000
435.307;  -12.300;  159.000;  102.000
435.431;  -45.050;  -40.000;   24.000
435.554; -101.350; -399.000; -240.000
435.677;  -94.125; -350.000; -258.000
435.801;  -51.300;  -25.000;   49.000
435.924;  -61.575;    1.000;  -67.000
436.048; -160.200;-1019.000; -732.000
436.171;  -83.075; -240.000;  -66.000
436.294;  -16.575; -248.000; -229.000
436.417;  208.300; -963.000; -849.000
436.541;  -35.775; -814.000; -840.000
436.664;  -58.125; -242.000; -316.000
436.787;  -37.400;   13.000;  113.000
436.910; -130.425; -792.000; -422.000
437.034;  -33.500;  142.000;  143.000
437.157;   -4.000;  -11.000;    0.000
437.280;  -89.350; -392.000; -292.000
437.403; -153.275; -982.000; -869.000
437.526;  -15.225; -903.000; -865.000
437.649;  414.475; -505.000; -332.000
437.772;  -38.875; -692.000; -540.000
437.896;   39.775;  700.000;  544.000
438.019; -114.800; -758.000; -503.000
438.142; -116.200; -596.000; -506.000
438.265; -134.875; -639.000; -670.000
438.388;    5.125; -520.000; -410.000
438.511;  -84.025; -597.000; -394.000
438.634;  -86.075; -247.000; -125.000
438.757; -142.750; -693.000; -619.000
438.880;  -50.375;  -34.000;  -57.000
439.003; -106.725; -417.000; -437.000
439.126;  -82.100; -287.000; -167.000
439.248;  -76.975;  -98.000; -139.000
439.371;  -54.300;    9.000;  -53.000
439.494;    5.225;  510.000;  439.000
439.617;  -63.550;   65.000;  -88.000
439.740; -172.800; -968.000; -816.000
439.863; -135.000; -755.000; -595.000
439.986; -122.700; -476.000; -431.000
440.108;  -74.275; -161.000; -112.000
440.231; -170.550; -950.000; -836.000
440.354;  -70.775;  -64.000; -150.000
440.477; -106.675; -566.000; -542.000
440.599; -119.850; -200.000; -225.000
440.722; -134.600; -709.000; -586.000
440.845;   44.475;  751.000;  928.000
440.968; -109.475; -415.000; -311.000
441.090;  -83.575; -199.000;  -33.000
441.213; -178.950;-1021.000; -825.000
441.336;  -73.350; -159.000;   -5.000
441.458;  -97.700; -549.000; -396.000
441.581; -150.500; -628.000; -629.000
441.703;  -86.975; -152.000;   13.000
441.826; -121.950; -557.000; -400.000
441.948;  -68.475;   56.000;   51.000
442.071;    8.325;  555.000;  424.000
442.193; -130.550; -531.000; -485.000
442.316;   -5.675;  152.000;   97.000
442.438;   69.075; -233.000;  -10.000
442.561;   51.975;  272.000;  262.000
442.683;   39.575; -809.000; -522.000
442.806;  237.575;   -8.000;   74.000
442.928; -120.925; -859.000; -604.000
443.051;  -94.375; -577.000; -373.000
443.173; -101.525; -341.000; -339.000
443.295;  -93.900; -263.000; -371.000
443.418;  -85.750; -321.000;  -29.000
443.540;  -58.350; -106.000;   -4.000
443.662; -135.500; -563.000; -465.000
443.785;  -30.325;  335.000;  199.000
443.907; -110.550; -362.000; -208.000
444.029; -142.175; -767.000; -494.000
444.152; -164.350; -644.000; -554.000
444.274;  -57.850;  -18.000;  -24.000
444.396; -117.500; -461.000; -221.000
444.518; -135.750; -691.000; -454.000
444.640; -113.750; -268.000; -111.000
444.763;  -36.950;  388.000;  249.000
444.885; -124.625; -432.000; -392.000
445.007;  -47.350;   35.000;   86.000
445.129; -122.375; -610.000; -515.000
445.251; -132.025; -372.000; -439.000
445.373; -143.475; -537.000; -386.000
445.495;  -23.450;  242.000;  350.000
445.617;   36.725;  853.000;  753.000
445.739;  -89.550; -215.000;  -97.000
445.861;  -79.225; -245.000; -112.000
445.984;  -64.425; -267.000; -101.000
446.105;  -32.450; -418.000; -251.000
446.227;   98.825; -176.000;  -19.000
446.349; -102.175; -358.000; -249.000
446.471; -119.075; -615.000; -448.000
446.593; -106.475; -316.000;   19.000
446.715;  -65.775;  -67.000;   41.000
446.837;   41.200;  697.000;  832.000
446.959; -107.750; -457.000; -478.000
447.081; -139.650; -628.000; -518.000
447.203;   37.850;  862.000;  834.000
447.325;  -92.325; -270.000;   42.000
447.446;  -20.500;  286.000;  530.000
447.568; -181.150; -921.000; -803.000
447.690; -105.750; -236.000; -245.000
447.812; -160.250; -798.000; -519.000
447.933;  -43.450;  155.000;  127.000
448.055;  -71.600; -306.000; -261.000
448.177;    7.075;   31.000;   79.000
448.299; -109.175; -935.000; -727.000
448.420;  -17.475;  -25.000;  159.000
448.542;  -67.050;   -3.000;   33.000
448.664;  -33.400;  109.000;  322.000
448.785;  -71.125;  265.000;   83.000
448.907; -113.100; -614.000; -353.000
449.028; -126.175; -771.000; -471.000
449.150;   31.175;  492.000;  589.000
449.272; -186.825;-1044.000; -913.000
449.393;   20.600;  612.000;  694.000
449.515; -157.250; -634.000; -581.000
449.636;  -79.775; -264.000; -155.000
449.758;   28.350;  763.000;  622.000
449.879; -108.250; -498.000; -396.000
450.001;  -90.500; -149.000;  -49.000
450.122;  -52.400;  -95.000;  162.000
450.244;  -33.325;   37.000;  364.000
450.365;  -70.525; -495.000; -301.000
450.486;  -19.775;   80.000;  268.000
450.608;   30.650;  393.000;  326.000
450.729;  101.725;  578.000;  645.000
450.850;   78.075; -574.000; -466.000
450.972; 1217.250; -552.000; -389.000
451.093; 7913.025;  190.000;  588.000
451.214; 3997.850; -516.000; -337.000
451.336;  663.075;  773.000;  579.000
451.457;  100.125;  264.000;  393.000
451.578;  -29.350; -118.000;  -74.000
451.699; -119.350; -546.000; -540.000
451.821;  -62.050; -284.000;  -50.000
451.942;   -2.900;  278.000;  285.000
452.063;   36.025;  228.000;  419.000
452.184;  788.250;  -54.000;  -49.000
452.305; 1677.950;  103.000;  170.000
452.427;  314.175; -549.000; -301.000
452.548;  -16.450;   23.000;   79.000
452.669;  -81.100; -257.000;  -89.000
452.790;  -79.050;    3.000;  -18.000
452.911;  -33.600;  195.000;  259.000
453.032;  -87.875; -289.000;  -60.000
453.153;  -67.950;  -29.000;   81.000
453.274;   37.975;  737.000;  868.000
453.395;  -78.725;  -51.000;  175.000
453.516;   81.900; 1317.000; 1388.000
453.637;  -97.975; -205.000; -150.000
453.758;  -74.050;   15.000;   69.000
453.879; -123.050; -462.000; -250.000
454.000;   47.575; 1086.000;  948.000
454.121; -141.975; -554.000; -326.000
454.242; -124.350; -599.000; -383.000
454.362;  -57.950;  -99.000;  114.000
454.483;  -33.975; -309.000; -229.000
454.604;   49.575;  512.000;  580.000
454.725; -151.425; -627.000; -555.000
454.846; -124.625; -474.000; -406.000
454.967;  -35.650;  230.000;  539.000
455.087;  -52.875;  179.000;  153.000
455.208;    8.200;  554.000;  856.000
455.329;  -61.725;  -22.000;   82.000
455.450;   46.425;  473.000;  633.000
455.570;  -65.325; -234.000; -211.000
455.691;  -49.675;  201.000;  407.000
455.812; -109.125; -270.000;  -92.000
455.932;  -67.975;  107.000;  -97.000
456.053;  -94.025;   36.000;   24.000
456.173; -113.650; -433.000; -355.000
456.294; -136.125; -476.000; -303.000
456.415;  -86.225;  -73.000;   70.000
456.535;  -45.775;  297.000;  273.000
456.656;  -56.350;  132.000;  240.000
456.776;  -83.350;    3.000;  298.000
456.897;   -8.250;  308.000;  513.000
457.017;  -85.400; -153.000;   -3.000
457.138; -117.400; -402.000; -249.000
457.258;  -50.300;  263.000;  224.000
457.379;  -29.525;  509.000;  521.000
457.499;  -26.375;  443.000;  432.000
457.620; -126.225; -407.000; -231.000
457.740; -106.875; -132.000;  -11.000
457.860;  -72.325;   87.000;   44.000
457.981;  -53.150;  132.000;  124.000
458.101;  -75.650;  -89.000;   40.000
458.221;  -23.850;  336.000;  402.000
458.342;  -75.000;   -4.000;  -37.000
458.462;   48.475;  617.000;  352.000
458.582;   11.750; -302.000; -294.000
458.703;   61.775;  303.000;  154.000
458.823;    8.925;   22.000;  163.000
458.943;   34.875;  341.000;  467.000
459.063;   -2.000; 1124.000;  192.000
459.183;  -32.050;  328.000;  313.000
459.304;   -6.125;  315.000;  517.000
459.424;  -48.250; -246.000;  -89.000
459.544;  452.475;  388.000;  764.000
459.664; 1267.975;  499.000;  506.000
459.784;  488.150; 1004.000; 1175.000
459.904;   77.425;  867.000;  744.000
460.024;   50.625;  867.000;  684.000
460.144;  -36.250;  449.000;  554.000
460.264;  -38.725;  515.000;  327.000
460.385; -103.075; -145.000; -119.000
460.505;   27.900;  905.000;  858.000
460.625;  -94.250;  -17.000;  -68.000
460.745;  -24.325;  396.000;  541.000
460.864;  -49.200;  153.000;  469.000
460.984;   26.250;  499.000;  573.000
461.104;  141.100; 1656.000; 1775.000
461.224;    5.500;  657.000;  650.000
461.344;  -38.900;  431.000;  360.000
461.464;  -43.800;  258.000;  513.000
461.584;  -34.550;  283.000;  466.000
461.704;  -82.025;   58.000;  108.000
461.824;  -74.850;  238.000;  259.000
461.943;  -50.500;  191.000;  130.000
462.063;  -94.025;    2.000;  324.000
462.183;   28.125;  639.000;  717.000
462.303;   83.275; 1678.000; 1230.000
462.422;   10.350;  781.000;  840.000
462.542;  -38.625;  271.000;  391.000
462.662;   44.950;  353.000;  380.000
462.782;  312.475;  833.000;  572.000
462.901;  726.600;  545.000;  717.000
463.021;  382.425; 1702.000; 1638.000
463.141;   -1.350;  337.000;  770.000
463.260;  -26.150;  614.000;  474.000
463.380;    2.250;  902.000;  884.000
463.499;  -42.975;  342.000;  332.000
463.619;  -43.300;  581.000;  559.000
463.738;   95.700; 1644.000;  903.000
463.858;   -7.950;  657.000;  811.000
463.978;  -44.075;  542.000;  396.000
464.097;   41.400;  921.000; 1114.000
464.217;  152.175; 1196.000; 1143.000
464.336;  147.275; 1068.000; 1130.000
464.455;  -26.275;  328.000;  659.000
464.575;   13.250;  597.000;  602.000
464.694;  120.325; 1204.000; 1179.000
464.814;  162.025; 1190.000; 1138.000
464.933;   75.450; 1095.000; 1027.000
465.052;   76.575; 1412.000; 1054.000
465.172;   73.675;  922.000;  799.000
465.291;  102.475; 1376.000; 1320.000
465.410;   -2.350;  462.000;  735.000
465.530;   61.175; 1355.000; 1310.000
465.649;   51.800; 1209.000; 1273.000
465.768;  118.575; 1673.000; 1508.000
465.888;   43.375;  941.000; 1174.000
466.007;   71.675; 1335.000; 1440.000
466.126;  -11.700;  721.000;  641.000
466.245;   33.600; 1176.000; 1187.000
466.364;    4.375;  950.000; 1060.000
466.484;   28.625; 1024.000; 1213.000
466.603;   23.300; 1101.000; 1222.000
466.722;   72.150; 1490.000; 1769.000
466.841;   49.300; 1151.000; 1401.000
466.960;   28.050; 1069.000;  972.000
467.079;  123.050; 1971.000; 1786.000
467.198;   41.575; 1238.000; 1181.000
467.317;   70.525; 1768.000; 1162.000
467.436;   61.550; 1709.000; 1261.000
467.555;  124.925; 1796.000; 1746.000
467.674;   56.500; 1227.000; 1329.000
467.793;   38.975; 1376.000; 1374.000
467.912;   75.725; 1658.000; 1539.000
468.031;  124.600; 2038.000; 1930.000
468.150;  117.850; 1842.000; 1837.000
468.269;  181.950; 2313.000; 2090.000
468.388;  175.775; 2168.000; 2339.000
468.507;  234.075; 2884.000; 2903.000
468.626;  239.975; 2555.000; 2541.000
468.744;  130.300; 2018.000; 2174.000
468.863;  179.725; 2312.000; 2523.000
468.982;   86.325; 1503.000; 1555.000
469.101;  216.325; 2788.000; 2692.000
469.220;  146.825; 2333.000; 2176.000
469.338;  232.675; 2935.000; 3051.000
469.457;  197.150; 2719.000; 2545.000
469.576;  318.300; 3953.000; 3784.000
469.695;  247.175; 2877.000; 3066.000
469.813;  386.875; 4148.000; 4192.000
469.932;  403.950; 4255.000; 4485.000
470.051;  443.050; 4075.000; 4161.000
470.169; 1029.625; 4470.000; 4338.000
470.288; 1981.675; 4700.000; 4809.000
470.406; 1112.900; 5059.000; 5194.000
470.525;  645.400; 6101.000; 5787.000
470.644;  639.025; 6847.000; 6794.000
470.762;  796.025; 8397.000; 7873.000
470.881;  915.800; 8651.000; 8464.000
470.999; 1072.775; 9685.000; 9151.000
471.118; 1107.500;11174.000;10711.000

