
Integration time [ms]: 200.000
Averaging Nr. [scans]: 10
Smoothing Nr. [pixels]: 0
Data measured with spectrometer [name]: 2101012U2
Wave   ;Sample   ;Dark     ;Reference
[nm]   ;[counts] ;[counts] ;[counts] 

197.733;  116.700;  516.000;  404.000
197.879; -161.600; -610.000; -634.000
198.025; -116.700; -475.000; -420.000
198.171; -152.600; -602.000; -612.000
198.317;  -53.400; -401.000; -316.000
198.463; -125.300; -655.000; -404.000
198.609;   60.100;  181.000; -137.000
198.755; -159.200; -644.000; -410.000
198.901; -139.200; -505.000; -424.000
199.047; -139.600; -615.000; -488.000
199.193;  -58.300; -230.000; -468.000
199.339; -101.300; -222.000; -369.000
199.485;   97.000;  330.000;  271.000
199.631;   36.900;  227.000;  310.000
199.777;  -96.000; -466.000; -398.000
199.923; -153.300; -610.000; -424.000
200.069;   -5.800; -141.000;  -58.000
200.215;  115.600;  128.000;  453.000
200.361;   59.600;  243.000;  477.000
200.507; -140.000; -600.000; -373.000
200.653;  -23.100; -371.000; -194.000
200.798;  -77.600; -215.000; -125.000
200.944;   -8.800; -146.000;  -41.000
201.090;   60.200;   61.000;  222.000
201.236;   20.800; -116.000; -158.000
201.382;  304.400;  874.000;  903.000
201.528;   -0.900;  -58.000;  -48.000
201.674;  -86.500; -386.000; -293.000
201.819; -132.600; -540.000; -439.000
201.965; -187.300; -699.000; -447.000
202.111;  -10.200; -273.000; -226.000
202.257;  -66.000; -250.000; -238.000
202.402;   11.200;   13.000;  -36.000
202.548;  -62.000; -169.000; -116.000
202.694;  182.100;  410.000; -183.000
202.840; -150.900; -603.000; -531.000
202.985; -184.000; -681.000; -639.000
203.131; -191.000; -832.000; -666.000
203.277;  -47.800; -199.000; -262.000
203.423;  -88.900; -434.000; -520.000
203.568;  -73.600; -462.000; -237.000
203.714; -115.900; -535.000; -542.000
203.860; -154.400; -682.000; -641.000
204.005;   53.500;  112.000;  167.000
204.151;  194.500;  561.000;  556.000
204.296;  -83.200; -354.000; -221.000
204.442; -147.300; -600.000; -547.000
204.588; -145.100; -592.000; -579.000
204.733;   13.200;  178.000;  168.000
204.879; -273.200;-1018.000; -822.000
205.025;   20.700;  -99.000;  126.000
205.170;   13.900;  -17.000;   94.000
205.316;  156.600;  438.000;  661.000
205.461; -190.100; -698.000; -554.000
205.607;  208.800;  609.000;  665.000
205.752; -146.300; -626.000; -551.000
205.898;  -72.000; -501.000; -391.000
206.043; -117.200; -578.000; -506.000
206.189;  -59.300; -243.000; -285.000
206.334;  190.800;  554.000;  606.000
206.480;  179.600;  409.000;  239.000
206.625; -154.000; -529.000; -552.000
206.771;  -89.100; -451.000; -373.000
206.916;  -39.200; -210.000; -537.000
207.062; -154.600; -545.000; -591.000
207.207;  -98.200; -546.000; -443.000
207.353;  125.700;  185.000;  460.000
207.498;   24.700;  196.000;   85.000
207.643; -124.500; -501.000; -370.000
207.789; -279.500;-1069.000; -910.000
207.934; -189.500; -665.000; -713.000
208.080;  -54.800; -154.000;   66.000
208.225;   -6.900;  -22.000;  -57.000
208.370; -165.400; -727.000; -619.000
208.516; -187.500; -741.000; -487.000
208.661;  -39.500; -127.000;  -69.000
208.806;  -31.600; -165.000; -171.000
208.952; -267.400;-1044.000; -731.000
209.097;  167.200;  378.000;  349.000
209.242; -102.700; -307.000; -382.000
209.387;  123.100;  392.000;  350.000
209.533;  -99.500; -321.000; -350.000
209.678;  155.100;  472.000;  543.000
209.823;  -87.800; -408.000; -310.000
209.969; -202.200; -860.000; -757.000
210.114; -202.900; -907.000; -719.000
210.259; -248.500; -939.000; -889.000
210.404;   -4.000; -171.000;  103.000
210.549;   35.000;  108.000;    3.000
210.695;   -6.800;   -3.000;  -95.000
210.840;   94.600;   94.000;   67.000
210.985; -138.900; -484.000; -303.000
211.130;  176.500;  268.000;  406.000
211.275;   40.600;  207.000;  199.000
211.420; -107.100; -300.000; -289.000
211.566; -131.000; -536.000; -489.000
211.711;   43.400;  218.000;  157.000
211.856; -126.300; -545.000; -519.000
212.001;   23.900;  151.000;   44.000
212.146;    1.400;  153.000;   49.000
212.291;  -49.400; -210.000; -186.000
212.436;  -40.000; -280.000;   -6.000
212.581; -188.200; -685.000; -653.000
212.726; -140.800; -487.000; -538.000
212.871; -112.500; -552.000; -217.000
213.016; -311.400;-1172.000;-1029.000
213.161;  137.800;  406.000;  291.000
213.306; -138.900; -435.000; -577.000
213.451; -191.600; -778.000; -689.000
213.596;  -92.500; -455.000; -347.000
213.741;  -94.200; -448.000; -538.000
213.886; -150.400; -498.000; -517.000
214.031;  -27.700; -294.000; -124.000
214.176;  -98.000; -408.000; -341.000
214.321;  -46.800; -296.000; -157.000
214.466;  -66.100; -163.000;  -43.000
214.611;  -22.300;  -61.000;  -10.000
214.756; -224.000; -948.000; -858.000
214.901;  -39.100; -388.000; -226.000
215.046; -245.700; -797.000; -825.000
215.191;   47.000;  128.000;   35.000
215.336;   12.500; -157.000;  -19.000
215.480; -156.600; -684.000; -505.000
215.625;  -15.400; -175.000;  -19.000
215.770; -159.500; -757.000; -662.000
215.915;    6.100;   -5.000;  -97.000
216.060;    7.200; -113.000;  -21.000
216.205; -194.300; -731.000; -779.000
216.349; -145.100; -470.000; -533.000
216.494; -289.300; -939.000; -867.000
216.639; -216.500; -823.000; -888.000
216.784; -188.800; -577.000; -525.000
216.929;  112.800;  392.000;  281.000
217.073;   -7.700; -244.000;  -31.000
217.218;   16.500;   78.000;  -47.000
217.363; -162.100; -656.000; -618.000
217.507; -149.300; -623.000; -588.000
217.652; -256.300; -845.000; -874.000
217.797; -190.600; -708.000; -659.000
217.942; -231.900; -856.000; -720.000
218.086;  144.300;  608.000;  539.000
218.231;  -25.500; -174.000;  -26.000
218.376;  -73.700; -337.000; -229.000
218.520;   27.100;  -41.000;   96.000
218.665;  -59.400; -338.000; -204.000
218.810;  -94.500; -275.000; -233.000
218.954;   33.700;  201.000;   35.000
219.099; -229.600; -713.000; -963.000
219.243; -153.100; -589.000; -554.000
219.388;  -26.100; -264.000; -136.000
219.532;   25.100; -116.000; -116.000
219.677; -174.000; -564.000; -521.000
219.822;   -3.100;   33.000;   89.000
219.966;   52.200;   17.000;  -99.000
220.111;  -57.000; -328.000;  -40.000
220.255; -179.900; -797.000; -750.000
220.400;  -50.200; -180.000; -146.000
220.544; -140.800; -516.000; -450.000
220.689;  -92.700; -422.000; -451.000
220.833;  -27.900; -123.000;  -58.000
220.978;  -82.600; -393.000; -563.000
221.122;   48.700;  319.000;  307.000
221.267; -228.700; -906.000; -837.000
221.411; -134.400; -478.000; -394.000
221.555;  -10.100; -104.000;  -23.000
221.700;  -79.500; -329.000; -222.000
221.844;   90.600;  255.000;  272.000
221.989;  -77.900; -328.000; -311.000
222.133;  -83.700; -289.000; -307.000
222.277;   16.100;    5.000;   78.000
222.422;   51.300;  227.000;  113.000
222.566;  -63.300; -381.000; -214.000
222.711; -120.000; -414.000; -479.000
222.855; -155.000; -643.000; -586.000
222.999; -170.300; -642.000; -717.000
223.144;  -31.400; -195.000; -194.000
223.288;  139.500;  423.000;  251.000
223.432;   28.500;  184.000;  230.000
223.576;   62.700;  152.000;  -21.000
223.721;  112.700;  364.000;  273.000
223.865; -117.700; -472.000; -475.000
224.009;  524.200; 1673.000; 1631.000
224.153; -169.700; -660.000; -671.000
224.298; -128.300; -531.000; -489.000
224.442;    8.700;  -74.000;  -33.000
224.586;  -52.500; -169.000; -106.000
224.730; -175.100; -858.000; -670.000
224.875; -239.300; -739.000; -688.000
225.019;   36.900;  102.000;  188.000
225.163;  147.500;  208.000;  341.000
225.307;   59.300;   97.000;  -91.000
225.451;  112.000;  360.000;  481.000
225.595;   94.700;  264.000;  176.000
225.739;   -4.500; -170.000;  -94.000
225.884;   42.600;   86.000;    5.000
226.028; -189.400; -760.000; -626.000
226.172;  -62.900; -260.000; -273.000
226.316; -248.900; -941.000; -902.000
226.460; -149.000; -645.000; -493.000
226.604; -107.100; -406.000; -400.000
226.748; -221.000; -836.000; -733.000
226.892;  -54.500; -227.000; -181.000
227.036;  -91.300; -537.000; -447.000
227.180;  -91.200; -551.000; -375.000
227.324; -127.100; -561.000; -580.000
227.468; -243.100; -819.000; -717.000
227.612;   12.400;  242.000;  -28.000
227.756; -173.700; -845.000; -698.000
227.900;  136.300;  342.000;  441.000
228.044; -101.500; -509.000; -290.000
228.188;  149.700;  448.000;  568.000
228.332; -166.900; -546.000; -472.000
228.476;  -58.100; -223.000; -149.000
228.620;  -48.600; -210.000; -150.000
228.764;  131.900;  431.000;  349.000
228.908;  -34.700; -155.000;   30.000
229.052; -118.700; -615.000; -528.000
229.195;   11.200; -172.000;   13.000
229.339;  -55.500; -235.000; -305.000
229.483;  -32.400;    5.000; -162.000
229.627;   -1.300; -156.000;  139.000
229.771;  -99.700; -218.000; -294.000
229.915;   40.200;  230.000;   79.000
230.059; -173.000; -648.000; -663.000
230.202;  -53.700; -370.000; -317.000
230.346;  -25.100; -107.000;  107.000
230.490; -143.300; -489.000; -521.000
230.634; -194.500; -736.000; -553.000
230.777;  208.900;  478.000;  509.000
230.921;  -79.300; -450.000; -359.000
231.065;  -76.100; -246.000; -286.000
231.209;   52.800;  261.000;  265.000
231.352;   72.900;   54.000;   40.000
231.496;   65.500;  568.000;  188.000
231.640; -168.700; -693.000; -621.000
231.783;  144.800;  546.000;  525.000
231.927;  -85.300; -294.000; -365.000
232.071; -250.700; -962.000; -736.000
232.214; -235.800; -980.000; -764.000
232.358; -208.600; -683.000; -599.000
232.502;   43.900;  -19.000;    7.000
232.645; -277.800;-1090.000; -927.000
232.789;  -25.600; -257.000; -218.000
232.933;  -68.300; -407.000; -224.000
233.076; -254.900;-1038.000; -897.000
233.220; -220.200; -752.000; -777.000
233.363; -119.500; -669.000; -477.000
233.507;  127.200;  371.000;  129.000
233.650; -169.600; -764.000; -834.000
233.794;  118.700;  438.000;  461.000
233.938; -123.500; -530.000; -362.000
234.081;   -3.700;  -93.000;   31.000
234.225; -132.500; -631.000; -539.000
234.368; -220.000; -773.000; -723.000
234.512;  -54.100; -385.000; -299.000
234.655; -182.900; -582.000; -555.000
234.798; -123.200; -493.000; -466.000
234.942; -228.800; -884.000;-1002.000
235.085; -142.900; -651.000; -443.000
235.229; -164.900; -405.000; -410.000
235.372;  -83.100; -247.000; -191.000
235.516;  -95.800; -397.000; -321.000
235.659;   42.500;   92.000;  121.000
235.802;   11.700;  -38.000;  -22.000
235.946;   70.900;  335.000;  215.000
236.089;   56.300;  126.000;  250.000
236.233;  128.800;  275.000;  298.000
236.376;  -84.100; -235.000; -378.000
236.519;  -89.700; -297.000; -319.000
236.663;  -22.200; -215.000; -117.000
236.806; -269.500;-1029.000; -999.000
236.949;  122.900;  543.000;  431.000
237.092;  149.400;  412.000;  391.000
237.236; -197.600; -589.000; -502.000
237.379;  157.300;  352.000;  428.000
237.522; -205.200; -879.000; -768.000
237.666;    3.100; -271.000;   18.000
237.809; -240.500; -851.000; -823.000
237.952;   67.100;  469.000;  271.000
238.095; -157.400; -447.000; -442.000
238.238;  210.300;  688.000;  700.000
238.382;   34.800;  166.000;  103.000
238.525; -133.000; -598.000; -511.000
238.668; -266.800;-1060.000; -985.000
238.811; -126.500; -638.000; -643.000
238.954;  -99.300; -483.000; -334.000
239.097;  201.400;  617.000;  664.000
239.241;   80.100;  394.000;  326.000
239.384;  -61.000; -254.000; -214.000
239.527; -134.100; -424.000; -224.000
239.670; -303.500; -994.000;-1091.000
239.813; -203.700; -696.000; -658.000
239.956;  192.900;  579.000;  473.000
240.099; -226.700; -778.000; -725.000
240.242;  110.700;  428.000;  432.000
240.385;   97.800;  466.000;  450.000
240.528; -154.900; -706.000; -473.000
240.671;   60.300;  189.000;  134.000
240.814;  -65.200; -441.000; -158.000
240.957; -221.700; -767.000; -578.000
241.100; -158.000; -779.000; -755.000
241.243; -277.000;-1234.000; -893.000
241.386; -126.700; -508.000; -379.000
241.529; -168.400; -735.000; -547.000
241.672; -115.900; -566.000; -495.000
241.815; -261.600; -832.000; -808.000
241.958;  -43.800; -125.000; -182.000
242.101; -146.000; -545.000; -390.000
242.244;  -77.500; -270.000; -325.000
242.387;  -60.300; -304.000; -246.000
242.530;  114.600;  470.000;  134.000
242.673;  -42.400; -381.000; -309.000
242.815; -232.100; -925.000; -899.000
242.958; -127.200; -482.000; -381.000
243.101;   25.500;  132.000;  187.000
243.244; -151.300; -564.000; -521.000
243.387;  -75.100; -313.000; -316.000
243.530; -197.000; -657.000; -674.000
243.672;   40.100;   43.000;  -92.000
243.815;  -93.300; -355.000; -283.000
243.958;   37.300;   98.000;  -26.000
244.101;   -5.100;   59.000;  -16.000
244.243;    7.400;  -47.000;  101.000
244.386; -237.700; -761.000; -630.000
244.529;  -32.700; -132.000; -139.000
244.672; -294.300;-1154.000; -951.000
244.814; -202.800; -621.000; -794.000
244.957;  -88.600; -380.000; -304.000
245.100; -156.100; -489.000; -489.000
245.242; -123.000; -387.000; -374.000
245.385;   -5.000;  -59.000;  -39.000
245.528; -223.400; -871.000; -705.000
245.670;  212.500;  612.000;  634.000
245.813; -178.400; -599.000; -547.000
245.956;  -51.100; -324.000; -275.000
246.098; -134.100; -508.000; -650.000
246.241;   48.200;  194.000;   48.000
246.383;   39.500; -119.000;  -73.000
246.526; -167.200; -454.000; -525.000
246.669; -244.000; -889.000; -780.000
246.811;   67.500;  172.000;   -1.000
246.954; -145.300; -512.000; -426.000
247.096;   -8.200;  -84.000;   -6.000
247.239; -146.300; -482.000; -445.000
247.381; -148.200; -647.000; -488.000
247.524;  222.900;  645.000;  679.000
247.666;   -5.900;   58.000;   11.000
247.809; -230.000; -887.000; -691.000
247.951;   -8.000;  -75.000;  138.000
248.094;   86.200;  432.000;  308.000
248.236; -322.700;-1262.000;-1238.000
248.378;  -14.100; -356.000;  -81.000
248.521;  -27.100; -334.000; -337.000
248.663;  -88.600; -236.000; -267.000
248.806;  -26.200; -300.000; -266.000
248.948; -200.300; -886.000; -763.000
249.090; -107.000; -428.000; -398.000
249.233;  -87.500; -344.000; -381.000
249.375; -132.500; -474.000; -451.000
249.518;    8.500;  -83.000; -133.000
249.660;   -7.400; -103.000;    3.000
249.802; -348.100;-1303.000;-1189.000
249.945; -148.100; -612.000; -540.000
250.087; -194.200; -834.000; -768.000
250.229;  -81.500; -362.000; -480.000
250.371; -147.900; -494.000; -439.000
250.514;  -98.800; -310.000; -244.000
250.656;  -15.600;   69.000;  102.000
250.798; -212.300; -849.000; -800.000
250.940; -115.100; -322.000; -322.000
251.083;  -12.800; -335.000; -111.000
251.225;  149.600;  338.000;  310.000
251.367;  -59.400; -274.000; -373.000
251.509;  -53.000; -265.000; -210.000
251.651; -174.800; -731.000; -671.000
251.794;  161.400;  538.000;  632.000
251.936; -211.000; -821.000; -747.000
252.078; -145.500; -540.000; -461.000
252.220; -167.500; -645.000; -477.000
252.362;  190.400;  344.000;  462.000
252.504; -133.300; -677.000; -584.000
252.646; -243.000; -875.000; -722.000
252.788;   -6.800;   14.000; -128.000
252.931;  -72.100; -257.000; -253.000
253.073;  -76.700; -376.000; -317.000
253.215;    0.900;  141.000;  122.000
253.357;   15.500;   82.000; -153.000
253.499;  -64.100; -374.000; -234.000
253.641; -171.900; -749.000; -594.000
253.783; -165.400; -609.000; -527.000
253.925; -174.900; -586.000; -591.000
254.067; -208.400; -744.000; -667.000
254.209;  -37.100; -391.000; -259.000
254.351; -262.600; -865.000; -883.000
254.493; -125.800; -441.000; -417.000
254.635; -206.300; -936.000; -818.000
254.777; -165.100; -752.000; -687.000
254.918; -140.700; -512.000; -430.000
255.060; -117.100; -551.000; -395.000
255.202;  -83.800; -473.000; -261.000
255.344; -157.600; -658.000; -455.000
255.486; -140.300; -471.000; -406.000
255.628; -209.500; -780.000; -781.000
255.770; -182.000; -676.000; -536.000
255.912; -123.700; -559.000; -468.000
256.053; -163.300; -730.000; -508.000
256.195;  339.200; 1008.000;  903.000
256.337; -193.000; -861.000; -595.000
256.479;  137.100;  532.000;  416.000
256.621;  -78.100; -394.000; -212.000
256.762; -185.300; -789.000; -742.000
256.904;  138.200;  485.000;  487.000
257.046;  -82.100; -381.000; -271.000
257.188;  -83.000; -351.000; -264.000
257.329; -134.800; -525.000; -464.000
257.471; -217.600; -939.000; -807.000
257.613; -104.100; -584.000; -498.000
257.755; -316.300;-1073.000; -982.000
257.896;   91.000;  286.000;  392.000
258.038;  -95.400; -403.000; -352.000
258.180;  -76.500; -354.000; -279.000
258.321; -195.400; -581.000; -457.000
258.463;   -8.200;  -71.000;  133.000
258.605; -140.700; -562.000; -570.000
258.746; -195.800; -886.000; -772.000
258.888; -291.900;-1026.000;-1020.000
259.029;   39.900;  121.000;   -8.000
259.171; -154.900; -614.000; -550.000
259.313;  -20.500;  -49.000;  -47.000
259.454; -133.800; -536.000; -414.000
259.596;  -85.500; -483.000; -390.000
259.737; -126.400; -590.000; -474.000
259.879;  101.800;  217.000;  311.000
260.020;  221.600;  901.000;  636.000
260.162;  -23.100; -146.000; -253.000
260.303; -226.600; -768.000; -687.000
260.445; -136.900; -609.000; -613.000
260.586;   85.200;  392.000;  157.000
260.728;  -66.400; -360.000; -248.000
260.869; -127.000; -350.000; -343.000
261.011;  183.500;  706.000;  537.000
261.152;  -87.200; -479.000; -319.000
261.293; -144.500; -576.000; -595.000
261.435;  -55.700; -219.000; -184.000
261.576;  -91.900; -455.000; -325.000
261.718;  144.100;  420.000;  470.000
261.859; -257.100; -940.000; -949.000
262.000; -246.200; -951.000;-1016.000
262.142;  -18.700;  -52.000;  -60.000
262.283; -236.400; -808.000; -691.000
262.424; -179.500; -666.000; -625.000
262.566; -305.600;-1161.000; -983.000
262.707; -205.100; -840.000; -830.000
262.848; -247.400; -769.000; -726.000
262.990;  -89.500; -362.000; -345.000
263.131;  235.000;  650.000;  681.000
263.272;  -27.000;  -61.000;  -41.000
263.413; -191.300; -589.000; -561.000
263.555; -124.800; -669.000; -143.000
263.696; -137.800; -550.000; -641.000
263.837; -106.500; -449.000; -551.000
263.978;   23.200;   -5.000;  -77.000
264.119;  -84.800; -283.000; -264.000
264.261; -221.900; -847.000; -630.000
264.402;   21.000;   33.000;   40.000
264.543; -141.100; -509.000; -524.000
264.684;  -10.000;   61.000;  -50.000
264.825; -113.700; -816.000; -538.000
264.966;   20.900;  -84.000;  -67.000
265.107; -227.600; -646.000; -670.000
265.248; -251.300; -825.000; -812.000
265.390;   -6.400;  152.000;   -9.000
265.531;  -46.000; -238.000; -107.000
265.672; -183.800; -557.000; -630.000
265.813;  136.000;  563.000;  439.000
265.954; -279.800; -959.000; -940.000
266.095;   -5.600; -372.000; -322.000
266.236; -153.600; -686.000; -548.000
266.377;  -72.900; -243.000; -297.000
266.518; -163.100; -619.000; -547.000
266.659;   66.500;  170.000;  268.000
266.800;   34.900;   83.000;   85.000
266.941; -151.500; -487.000; -478.000
267.082;   70.300;  354.000;   99.000
267.223;  -72.300; -344.000; -273.000
267.364; -237.500; -892.000; -686.000
267.504;  -18.300;    3.000;  135.000
267.645;   24.600;  160.000;   67.000
267.786;  -33.200; -147.000;  -86.000
267.927; -141.200; -473.000; -379.000
268.068;  -21.300; -186.000;  -61.000
268.209;  -87.100; -175.000; -413.000
268.350;  -69.500; -388.000; -532.000
268.490; -162.000; -648.000; -521.000
268.631;   83.100;  127.000;  225.000
268.772; -213.800; -874.000; -647.000
268.913;  -93.700; -328.000; -476.000
269.054;    3.700; -117.000;   12.000
269.194;  -83.300; -418.000; -402.000
269.335; -305.700;-1137.000;-1074.000
269.476;  -18.600;   33.000;  -35.000
269.617;  -81.800; -347.000; -392.000
269.757; -175.000; -713.000; -646.000
269.898; -185.700; -856.000; -613.000
270.039; -113.500; -415.000; -405.000
270.180; -270.500; -952.000; -816.000
270.320;  -40.100; -190.000; -250.000
270.461;  -77.100; -277.000; -249.000
270.602;  -13.500; -186.000; -156.000
270.742; -233.200; -868.000; -943.000
270.883;  -94.800; -442.000; -390.000
271.023; -105.400; -358.000; -357.000
271.164; -120.800; -607.000; -528.000
271.305; -191.200; -666.000; -654.000
271.445; -186.800; -722.000; -683.000
271.586; -125.400; -462.000; -283.000
271.726;  -95.300; -397.000; -322.000
271.867; -119.200; -594.000; -534.000
272.008;  272.200; -473.000; -285.000
272.148;  246.500;  462.000;  468.000
272.289;   42.400; -113.000; -181.000
272.429;   29.900;   19.000;  185.000
272.570; -168.400; -633.000; -737.000
272.710; -183.600; -825.000; -775.000
272.851;  -23.200;  113.000; -130.000
272.991; -319.800;-1173.000;-1077.000
273.131; -113.600; -419.000; -459.000
273.272; -181.000; -683.000; -723.000
273.412;   16.100; -143.000;  -31.000
273.553; -103.100; -488.000; -507.000
273.693;  293.500;  913.000;  858.000
273.834; -214.000; -894.000; -692.000
273.974; -152.400; -664.000; -615.000
274.114; -195.400; -772.000; -560.000
274.255;  156.700;  414.000;  373.000
274.395;   35.700; -180.000; -125.000
274.535;  116.100;  199.000;  350.000
274.676;   62.900;  225.000;   94.000
274.816;   20.000;  110.000;   34.000
274.956; -152.300; -624.000; -690.000
275.097; -128.100;-1014.000; -922.000
275.237; -193.700; -913.000; -803.000
275.377; -192.100; -778.000; -689.000
275.517; -281.800; -878.000; -937.000
275.658; -120.600; -590.000; -555.000
275.798; -108.100; -606.000; -413.000
275.938;   73.000;  215.000;  323.000
276.078; -143.500; -626.000; -395.000
276.218;   20.500;   99.000;  104.000
276.359; -266.700;-1026.000;-1024.000
276.499; -101.600; -605.000; -446.000
276.639;  -21.600; -305.000; -151.000
276.779;  -72.200; -475.000; -357.000
276.919; -180.600; -783.000; -624.000
277.059;   -4.400; -261.000; -212.000
277.199;  -75.200; -357.000; -259.000
277.340;  107.000;  287.000;  175.000
277.480; -197.600; -840.000; -693.000
277.620;   90.800;  192.000;   16.000
277.760; -385.500;-1533.000;-1294.000
277.900;   30.800;  113.000;   33.000
278.040;   51.500;  137.000;  159.000
278.180;  107.100;  270.000;  170.000
278.320;   33.200;   21.000;   56.000
278.460; -134.900; -443.000; -469.000
278.600; -137.200; -708.000; -598.000
278.740;  116.400;  448.000;  224.000
278.880; -125.100; -768.000; -791.000
279.020;   34.500; -194.000; -144.000
279.160; -170.200; -672.000; -595.000
279.300; -217.300; -926.000; -873.000
279.440; -170.200; -709.000; -622.000
279.579;  -97.800;-1014.000; -929.000
279.719;  -99.000; -410.000; -394.000
279.859;  121.600;   -4.000;   41.000
279.999;   44.500; -208.000;  101.000
280.139;  -33.300; -435.000; -387.000
280.279; -127.900; -708.000; -745.000
280.419;    3.300; -229.000; -147.000
280.559;  -50.300; -259.000; -180.000
280.698; -173.700; -790.000; -639.000
280.838; -181.000; -778.000; -800.000
280.978; -199.300; -846.000; -790.000
281.118; -193.200; -811.000; -704.000
281.257;   51.700;   24.000;    6.000
281.397; -219.500;-1094.000; -960.000
281.537; -169.500; -599.000; -712.000
281.677;  -18.000; -150.000; -101.000
281.816; -160.100; -700.000; -630.000
281.956;  -50.900; -193.000; -257.000
282.096; -117.800; -539.000; -396.000
282.235; -181.100; -672.000; -638.000
282.375;  -23.700; -243.000;  -98.000
282.515; -198.000; -715.000; -707.000
282.654;   63.100;   29.000;  106.000
282.794;   90.200;  388.000;  244.000
282.934;  -95.700; -530.000; -491.000
283.073; -262.200;-1030.000; -857.000
283.213;  -81.400; -460.000; -467.000
283.353;  -75.800; -408.000; -349.000
283.492;  -17.500; -264.000; -296.000
283.632;  -74.300; -254.000; -168.000
283.771; -155.900; -859.000; -730.000
283.911;  -68.600; -369.000; -260.000
284.050; -204.700; -794.000; -748.000
284.190; -316.000;-1229.000;-1096.000
284.329; -294.800;-1055.000; -964.000
284.469; -132.300; -516.000; -591.000
284.608;  -94.200; -559.000; -598.000
284.748; -137.400; -614.000; -570.000
284.887;    0.500;  -87.000;  -20.000
285.027; -238.700; -844.000; -892.000
285.166;  -12.700; -192.000; -249.000
285.306;    5.700; -116.000;  -33.000
285.445;  -58.100; -229.000; -343.000
285.584; -165.100; -630.000; -494.000
285.724;  -40.700; -282.000; -322.000
285.863; -219.600; -857.000; -507.000
286.002;  -85.000; -366.000; -276.000
286.142; -220.000; -715.000; -622.000
286.281; -107.700; -525.000; -493.000
286.420; -136.200; -554.000; -417.000
286.560;  224.600;  653.000;  623.000
286.699; -269.400; -958.000; -912.000
286.838; -146.400; -590.000; -591.000
286.978; -152.000; -533.000; -537.000
287.117; -234.500;-1085.000; -950.000
287.256;  -26.400; -228.000; -211.000
287.395;  -69.300; -197.000; -378.000
287.535;  -83.900; -370.000; -298.000
287.674; -157.100; -509.000; -484.000
287.813;  152.300;  661.000;  533.000
287.952; -236.500;-1010.000; -871.000
288.091; -286.400;-1049.000; -915.000
288.231;   61.200;   13.000;   15.000
288.370; -367.300;-1217.000;-1200.000
288.509; -185.500; -728.000; -645.000
288.648; -164.900; -770.000; -548.000
288.787;  -35.900; -243.000;  -87.000
288.926; -110.800; -454.000; -475.000
289.065;  260.600;  859.000;  672.000
289.204;  -86.800; -377.000; -217.000
289.344; -159.000; -791.000; -690.000
289.483;   96.100;  416.000;  304.000
289.622;  -15.900; -291.000; -149.000
289.761;    8.400; -309.000; -166.000
289.900; -197.300; -785.000; -626.000
290.039;    9.900;  -12.000;  -95.000
290.178;  -42.600; -274.000; -180.000
290.317; -141.300; -618.000; -479.000
290.456;  -95.000; -463.000; -451.000
290.595; -277.500; -961.000; -833.000
290.734; -271.600; -904.000; -891.000
290.873; -132.900; -456.000; -420.000
291.011; -201.900; -833.000; -843.000
291.150; -193.800; -770.000; -682.000
291.289;  -19.000; -343.000; -110.000
291.428; -187.300; -599.000; -480.000
291.567;  -56.800; -370.000; -442.000
291.706;   44.200;  109.000;  154.000
291.845; -156.700; -597.000; -505.000
291.984; -345.800;-1234.000;-1061.000
292.122;  145.800;  602.000;  582.000
292.261;  136.600;  620.000;  463.000
292.400;   42.300; -144.000;  211.000
292.539; -241.600; -959.000; -813.000
292.678;  -39.800; -325.000; -300.000
292.816; -295.300;-1136.000; -965.000
292.955; -166.700; -844.000; -684.000
293.094;  -21.500; -173.000; -337.000
293.233;  -82.900; -556.000; -400.000
293.371;  -57.700; -225.000;  -84.000
293.510; -200.400; -866.000; -780.000
293.649; -236.600; -959.000; -924.000
293.787; -134.600;-1083.000;-1012.000
293.926;   -5.000; -113.000;  -32.000
294.065;  -47.100; -379.000; -290.000
294.203;  154.300;  298.000;  406.000
294.342;   67.800;   74.000;  156.000
294.481;14491.700;51180.000; -836.000
294.619;  -19.300; -425.000; -582.000
294.758; -295.900;-1230.000;-1137.000
294.896;  148.100; -125.000;    5.000
295.035; -247.700;-1040.000;-1006.000
295.174; -250.300;-1082.000; -954.000
295.312;  -62.800; -323.000; -203.000
295.451;  -16.600; -307.000; -428.000
295.589; -100.100; -389.000; -518.000
295.728;   77.500; -292.000; -165.000
295.866;   58.500;  -36.000;  -51.000
296.005; -140.000; -584.000; -341.000
296.143; -127.800; -558.000; -596.000
296.282; -192.100; -957.000; -881.000
296.420; -153.500; -657.000; -557.000
296.559; -153.600; -892.000; -633.000
296.697;   11.400; -847.000; -665.000
296.835;   89.600;-1141.000;-1002.000
296.974;  122.100;  -23.000;   39.000
297.112;   28.600; -443.000; -504.000
297.251; -123.000; -815.000; -755.000
297.389;  155.500; -576.000; -438.000
297.527;  130.500; -145.000;  -83.000
297.666;  -77.100; -486.000; -438.000
297.804;  -75.200; -404.000; -264.000
297.942;   10.700; -136.000; -161.000
298.081;   23.300; -183.000;   63.000
298.219;  138.500;  -17.000;  -19.000
298.357;   89.600; -144.000;  -71.000
298.495;   18.400; -810.000; -812.000
298.634;  162.100;  245.000;  219.000
298.772;  121.200; -220.000; -338.000
298.910;  -60.400; -309.000; -182.000
299.048;   -2.600; -130.000; -153.000
299.187;  -46.000; -350.000; -250.000
299.325;   52.100;   52.000;  122.000
299.463;   91.000; -389.000; -299.000
299.601;  202.100; -327.000; -271.000
299.739; -215.600; -908.000; -883.000
299.877; -144.400; -791.000; -703.000
300.016; -122.600;-1095.000; -935.000
300.154;  257.100;  -19.000; -161.000
300.292;   87.700; -428.000; -348.000
300.430;   83.300; -408.000; -291.000
300.568; -193.800; -940.000; -874.000
300.706;  -91.800; -366.000; -469.000
300.844; -181.600;-1108.000; -979.000
300.982;  238.300;  246.000;  282.000
301.120; -205.900; -965.000; -866.000
301.258; -114.400; -812.000; -705.000
301.396;   91.600;  104.000;  -41.000
301.534;  122.400; -218.000; -293.000
301.672;   -0.100; -664.000; -521.000
301.810;   44.300; -613.000; -545.000
301.948;  228.300;   53.000;  149.000
302.086;  991.600; -250.000;  -32.000
302.224; 1575.900; -610.000; -585.000
302.362;   37.000; -558.000; -622.000
302.500;  -57.700; -923.000; -893.000
302.638;  166.600;  128.000;  245.000
302.776;    9.200; -352.000; -408.000
302.913;  110.100;  447.000;  236.000
303.051;   28.000;  -86.000;  -23.000
303.189;  133.600;   90.000;  118.000
303.327;  -58.800; -341.000; -256.000
303.465; -131.600; -832.000; -588.000
303.603; -188.800; -805.000; -604.000
303.740;  207.400;  417.000;  241.000
303.878;   39.600; -800.000; -759.000
304.016; -156.000; -915.000; -790.000
304.154; -269.600;-1123.000;-1152.000
304.291;  -59.100; -505.000; -554.000
304.429;   61.000;  102.000;   74.000
304.567; -262.600; -908.000; -893.000
304.705;  -98.200; -408.000; -515.000
304.842;  132.000; -616.000; -540.000
304.980;  168.000;  215.000;   35.000
305.118;   49.000; -367.000; -365.000
305.255; -178.700; -945.000; -927.000
305.393;  138.400;  178.000;  239.000
305.531; -233.600;-1173.000; -956.000
305.668; -139.200; -663.000; -582.000
305.806;  161.900; -358.000; -439.000
305.943;  195.500; -629.000; -637.000
306.081;  104.100; -378.000; -267.000
306.219; -189.900; -863.000; -748.000
306.356;   42.600;  158.000;   27.000
306.494;  303.300;  981.000;  761.000
306.631;   72.100;  -11.000;  -55.000
306.769;   31.300; -613.000; -485.000
306.906;   28.300; -284.000; -258.000
307.044;  -92.700; -473.000; -488.000
307.181; -101.100; -410.000; -332.000
307.319;  149.800;  112.000;   87.000
307.456; -347.700;-1191.000;-1153.000
307.594; -172.500; -980.000; -727.000
307.731;   -8.000; -371.000; -164.000
307.868;    0.100;  -15.000;   20.000
308.006; -270.900; -961.000; -847.000
308.143;  -95.100; -618.000; -330.000
308.281;  473.400;  -37.000; -254.000
308.418;   58.500; -748.000; -640.000
308.555;  -87.100; -400.000; -250.000
308.693; -104.800; -577.000; -573.000
308.830; -178.800; -712.000; -657.000
308.967;   -5.200; -215.000;  -95.000
309.105;  -34.600; -507.000; -396.000
309.242;  127.500; -468.000; -367.000
309.379;  858.800; -577.000; -655.000
309.517;  -87.900; -936.000; -948.000
309.654; -183.500; -910.000; -734.000
309.791; -107.400; -662.000; -580.000
309.928; -224.700; -977.000; -914.000
310.065;  379.700;  819.000;  697.000
310.203;  -24.700; -825.000; -850.000
310.340;   15.000; -465.000; -321.000
310.477; -121.900; -412.000; -516.000
310.614;  -83.100; -383.000; -473.000
310.751;  -87.500; -427.000; -518.000
310.889;   13.700;    1.000;   11.000
311.026; -301.100;-1161.000; -939.000
311.163;  -58.200; -386.000; -380.000
311.300; -119.600; -512.000; -479.000
311.437; -136.500; -658.000; -619.000
311.574; -286.300;-1226.000; -985.000
311.711;  -91.100; -595.000; -433.000
311.848;  -23.400; -380.000; -388.000
311.985;   55.800;  270.000;   93.000
312.122; -206.100; -932.000; -762.000
312.259; -240.400; -941.000; -994.000
312.396; -111.100; -508.000; -551.000
312.533; -155.400; -812.000; -790.000
312.670; -251.500;-1070.000; -898.000
312.807;  -24.900; -352.000; -367.000
312.944; -142.500; -513.000; -611.000
313.081;  -30.900; -150.000; -415.000
313.218; -194.400;-1111.000; -867.000
313.355;   22.400; -531.000; -449.000
313.492;   50.300; -455.000; -292.000
313.629;  323.900;  815.000;  735.000
313.766; -277.800;-1176.000;-1008.000
313.902;   20.500; -186.000;   21.000
314.039;  -74.900; -372.000; -289.000
314.176;   86.800;  286.000;  192.000
314.313; -103.400; -569.000; -473.000
314.450; -141.900; -788.000; -684.000
314.587;  -90.600; -468.000; -480.000
314.723;   16.400;  -78.000;  130.000
314.860;   92.000;  318.000;  332.000
314.997;   65.600;  223.000;  142.000
315.134;  -70.900; -385.000; -368.000
315.270;  -55.100; -480.000; -496.000
315.407; -224.000;-1094.000; -967.000
315.544;  -85.000; -657.000; -538.000
315.681; -127.600; -681.000; -565.000
315.817;   67.900; -133.000; -176.000
315.954;   31.000; -613.000; -392.000
316.091; -260.700;-1045.000;-1023.000
316.227;  -16.600;  -71.000; -179.000
316.364;   62.000;   23.000;    6.000
316.500;  -41.500; -113.000; -300.000
316.637;  -52.600; -181.000; -302.000
316.774; -137.100; -625.000; -358.000
316.910; -160.900; -598.000; -629.000
317.047;  -98.500; -487.000; -351.000
317.183; -122.300; -435.000; -566.000
317.320;  -13.000; -367.000; -321.000
317.456; -115.300; -733.000; -805.000
317.593; -148.300; -598.000; -641.000
317.729;   50.500;  168.000;  -67.000
317.866; -393.400;-1434.000;-1285.000
318.002; -164.700; -708.000; -948.000
318.139; -154.000; -883.000; -867.000
318.275; -223.200;-1003.000; -738.000
318.412; -102.100; -517.000; -336.000
318.548;  -64.200; -751.000; -720.000
318.685; -176.400; -985.000; -888.000
318.821; -160.400; -762.000; -735.000
318.957;   18.900;   34.000;  -23.000
319.094;  136.000;  297.000;  154.000
319.230; -109.200; -756.000; -742.000
319.367;  200.700; -471.000; -520.000
319.503;  133.100; -538.000; -436.000
319.639; -161.900; -877.000; -793.000
319.775; -122.200; -750.000; -685.000
319.912;  -65.900; -424.000; -519.000
320.048; -182.800;-1184.000;-1184.000
320.184;  159.500;   59.000;   70.000
320.321;  -73.400; -497.000; -467.000
320.457;  163.500;  475.000;  662.000
320.593; -113.500; -375.000; -382.000
320.729; -189.400; -732.000; -734.000
320.866; -127.400; -577.000; -635.000
321.002; -151.100; -759.000; -809.000
321.138;    8.800; -135.000; -211.000
321.274;  140.500; -148.000; -115.000
321.410;  -55.900; -585.000; -353.000
321.546;  -76.700;-1011.000; -911.000
321.683;  152.900;  400.000;  185.000
321.819;   65.200;  -48.000; -117.000
321.955; -199.000; -743.000; -722.000
322.091;  -83.500; -585.000; -540.000
322.227;    2.700; -382.000; -202.000
322.363;  -24.100; -320.000; -215.000
322.499;  -65.600; -343.000; -331.000
322.635;  343.400;  636.000;  443.000
322.771;   74.600; -139.000;   12.000
322.907;  206.500;  129.000;  327.000
323.043;    6.200; -115.000; -206.000
323.179;  -48.400; -394.000; -363.000
323.315;   46.600; -401.000; -371.000
323.451;  202.200; -328.000; -236.000
323.587;  173.500;  -60.000;  -77.000
323.723;   52.700; -682.000; -601.000
323.859;   -6.200; -258.000;  -76.000
323.995;  -73.900; -467.000; -409.000
324.131; -209.700; -967.000; -892.000
324.267;  -57.800; -254.000; -276.000
324.402; -225.900; -960.000; -983.000
324.538;   15.400; -279.000; -104.000
324.674;   74.100;  164.000;   77.000
324.810;  283.200;  226.000;  308.000
324.946;   68.400; -810.000; -658.000
325.082; -123.300; -568.000; -475.000
325.217;   17.000;  -62.000;   16.000
325.353; -186.000; -764.000; -659.000
325.489; -161.800; -540.000; -506.000
325.625; -117.800; -579.000; -525.000
325.760;  148.400;  517.000;  376.000
325.896;  -53.400; -515.000; -702.000
326.032;  -98.300; -403.000; -352.000
326.168;  -92.300; -462.000; -369.000
326.303;  -72.800; -352.000; -461.000
326.439;   -7.900; -336.000; -276.000
326.575;   20.200; -190.000;  -29.000
326.710;   16.400; -156.000;  -30.000
326.846;   35.900;  146.000;  103.000
326.982; -138.900; -530.000; -548.000
327.117; -104.700; -481.000; -442.000
327.253; -165.900; -745.000; -742.000
327.388; -315.900;-1137.000;-1153.000
327.524;  -83.600; -811.000; -578.000
327.659;   -8.400;  -58.000;  -22.000
327.795;   45.400;   69.000;   45.000
327.931; -123.300; -723.000; -499.000
328.066;   -9.100; -417.000; -276.000
328.202;   -2.500;   12.000; -129.000
328.337;  270.100;  957.000;  713.000
328.473;   40.400;  -12.000;  -74.000
328.608;  -40.300; -256.000; -267.000
328.743; -144.700; -799.000; -664.000
328.879;   83.500;  214.000;  114.000
329.014; -104.200; -102.000; -122.000
329.150; -145.400; -358.000; -483.000
329.285;  -94.500; -465.000; -466.000
329.421; -102.900; -548.000; -246.000
329.556;  -38.200;  -36.000;   85.000
329.691; -172.100; -633.000; -615.000
329.827; -119.100; -626.000; -480.000
329.962;  -67.600;  131.000; -301.000
330.097; -162.800; -673.000; -585.000
330.233;  -65.100; -410.000; -223.000
330.368; -220.900; -839.000; -628.000
330.503;   39.000;    3.000;   98.000
330.638;   44.600;  -93.000; -125.000
330.774;  -95.200; -609.000; -530.000
330.909;  -18.800; -434.000; -244.000
331.044; -162.600; -714.000; -708.000
331.179; -337.800;-1217.000;-1109.000
331.315;   60.500;   77.000;   20.000
331.450;   70.400;  157.000;  285.000
331.585; -166.300; -805.000; -706.000
331.720; -126.700; -510.000; -460.000
331.855;    4.200;  -35.000; -102.000
331.990;  455.600;   62.000;  138.000
332.126;  283.200; -110.000;   71.000
332.261;   -1.100; -379.000; -265.000
332.396;    3.600; -135.000; -242.000
332.531; -158.500;-1074.000;-1031.000
332.666;   78.100; -519.000; -363.000
332.801; -183.700; -726.000; -807.000
332.936;  -12.500; -192.000; -122.000
333.071; -224.600; -870.000; -817.000
333.206;   70.500;  307.000;  379.000
333.341;  120.400;  344.000;  418.000
333.476; -138.500; -627.000; -623.000
333.611;   -4.800; -251.000; -173.000
333.746;  -54.600; -381.000; -464.000
333.881; -208.300; -973.000; -935.000
334.016; -229.900; -936.000; -917.000
334.151; -225.300; -746.000; -702.000
334.286;   91.800;  152.000;  186.000
334.421;  -22.300; -125.000; -178.000
334.556; -118.000; -611.000; -567.000
334.690; -144.700; -631.000; -577.000
334.825;  143.900;  381.000;   83.000
334.960; -104.400; -285.000; -413.000
335.095;   67.800;  135.000;  -91.000
335.230; -154.000; -722.000; -738.000
335.365; -237.500;-1084.000; -990.000
335.499; -226.000;-1108.000;-1037.000
335.634;   76.100;    9.000;  534.000
335.769; -165.400; -755.000; -720.000
335.904; -108.700; -603.000; -561.000
336.038; -103.800; -735.000; -657.000
336.173; -236.700;-1206.000;-1194.000
336.308;   41.800; -116.000; -189.000
336.443;   42.000; -544.000; -634.000
336.577; -134.600; -936.000; -787.000
336.712;  164.300;   -4.000;  -12.000
336.847;  -51.300; -724.000; -607.000
336.981;  125.000; -272.000; -208.000
337.116;  538.000;  615.000;  501.000
337.250;  263.600; -434.000; -421.000
337.385;  470.100; -297.000; -208.000
337.520;  161.600; -632.000; -603.000
337.654;  -24.600; -215.000; -126.000
337.789; -232.900; -989.000; -933.000
337.923;  -36.700; -104.000; -205.000
338.058; -175.400; -673.000; -738.000
338.192;  -56.400; -611.000; -488.000
338.327;   26.800;  -18.000; -155.000
338.461;  -90.100; -299.000; -469.000
338.596; -149.000; -780.000; -638.000
338.730; -164.400; -767.000; -803.000
338.865;  180.400;  -46.000; -140.000
338.999;  -60.000; -846.000; -702.000
339.134;  -34.200; -634.000; -536.000
339.268;   19.200; -741.000; -603.000
339.403;  620.300; -740.000; -775.000
339.537;  216.600; -894.000; -820.000
339.671; -215.400; -829.000; -813.000
339.806; -100.600; -556.000; -512.000
339.940;   96.100; -261.000; -235.000
340.074; -148.600; -685.000; -510.000
340.209;  -55.800; -351.000; -230.000
340.343; -139.400; -517.000; -573.000
340.477;  352.300;  998.000; 1036.000
340.612; -116.700;-1033.000; -900.000
340.746;  259.500; -199.000; -243.000
340.880; -152.800; -924.000; -785.000
341.014;   -3.300;  -45.000; -154.000
341.149; -204.400; -756.000; -718.000
341.283; -215.400; -839.000; -754.000
341.417; -196.000;-1124.000; -938.000
341.551;  189.500; -768.000; -708.000
341.685;  -83.300; -633.000; -611.000
341.820;  -95.800; -562.000; -493.000
341.954;  -55.500; -218.000; -349.000
342.088; -280.900;-1102.000;-1019.000
342.222;  147.900;  565.000;  618.000
342.356; -105.800; -395.000; -335.000
342.490; -172.500; -880.000; -841.000
342.624;  -42.700; -339.000; -242.000
342.758;   -2.200; -364.000; -312.000
342.892;  -93.600; -710.000; -585.000
343.026;  -54.700;  -58.000; -116.000
343.160;  -89.500; -426.000; -376.000
343.294; -132.200; -474.000; -337.000
343.428;  -21.000; -488.000; -448.000
343.562;   49.200; -172.000;  -23.000
343.696;   -3.800; -385.000; -314.000
343.830;  -28.000; -362.000; -356.000
343.964;   60.500; -231.000; -168.000
344.098; 1528.200;  199.000;   70.000
344.232; 1352.500; -266.000; -127.000
344.366;  150.800; -567.000; -453.000
344.500;  124.400; -665.000; -744.000
344.634;   70.400; -324.000; -164.000
344.768;   -0.500; -531.000; -341.000
344.902;   84.300;  278.000;  256.000
345.035; -128.500; -556.000; -496.000
345.169; -251.600; -933.000; -656.000
345.303;  -30.400; -308.000; -482.000
345.437; -131.500; -826.000; -717.000
345.571; -125.700; -675.000; -594.000
345.704;  -64.900; -309.000; -532.000
345.838;  -13.600; -331.000; -284.000
345.972;  -73.900; -543.000; -495.000
346.106;  328.400; -179.000; -190.000
346.239;  752.100; -312.000; -243.000
346.373;   14.000; -343.000; -302.000
346.507; -244.600; -950.000; -962.000
346.640;  312.900;  -30.000;   13.000
346.774;  -77.500; -650.000; -797.000
346.908;   20.400; -138.000;  -11.000
347.041; -129.700; -646.000; -593.000
347.175;   30.600;  259.000;   27.000
347.309; -119.800; -698.000; -628.000
347.442; -176.100; -883.000; -732.000
347.576;  569.800;  670.000;  668.000
347.709;  374.600; -123.000;  -52.000
347.843; -199.800; -933.000; -825.000
347.976;  145.800;  235.000;  294.000
348.110; -324.400;-1268.000;-1186.000
348.243; -177.000; -679.000; -772.000
348.377;   43.500;  -26.000;   60.000
348.510;  140.800;  403.000;  540.000
348.644;  -36.400;  -37.000; -159.000
348.777;   40.200;  180.000;  191.000
348.911;  -56.300; -142.000; -112.000
349.044;  337.600;  471.000;  448.000
349.178;  276.000;-1069.000;-1006.000
349.311;  219.400;  141.000;  255.000
349.444;   12.300; -927.000; -813.000
349.578;   25.900; -347.000; -200.000
349.711; -221.000; -959.000; -862.000
349.845;    4.900; -661.000; -591.000
349.978; -292.500;-1224.000;-1137.000
350.111; -159.000; -546.000; -612.000
350.244; -139.300; -596.000; -700.000
350.378;   38.500; -392.000; -393.000
350.511;  -79.900; -393.000; -426.000
350.644; -172.700; -808.000; -806.000
350.778;   51.200;  168.000;  104.000
350.911;   64.100;  134.000;  140.000
351.044; -180.500; -685.000; -615.000
351.177;  -26.700; -321.000; -281.000
351.310;    7.800;    3.000; -131.000
351.444; -144.700; -888.000; -788.000
351.577;  235.100;  140.000;   90.000
351.710;  255.800;  593.000;  417.000
351.843;   13.200; -165.000;  -77.000
351.976;   21.500;  149.000;  -79.000
352.109; -174.100; -621.000; -612.000
352.242;  -38.200; -464.000; -419.000
352.376; -117.400; -580.000; -636.000
352.509;  307.800; -437.000; -356.000
352.642;  -36.900; -654.000; -604.000
352.775;  109.300; -141.000;  -98.000
352.908; -206.900; -933.000; -904.000
353.041; -174.700; -814.000; -824.000
353.174; -104.500; -551.000; -424.000
353.307; -160.300; -753.000; -764.000
353.440;  201.800;  541.000;  453.000
353.573; -188.500; -957.000;-1008.000
353.706;  -93.600; -384.000; -558.000
353.839;    5.700; -264.000; -220.000
353.971; -166.900; -657.000; -512.000
354.104; -151.400; -896.000; -835.000
354.237;  -46.400; -627.000; -662.000
354.370; -153.100; -846.000; -879.000
354.503; -332.900;-1231.000;-1308.000
354.636;  -24.700; -529.000; -348.000
354.769; -228.200; -937.000; -860.000
354.902;   -7.900; -230.000; -139.000
355.034;   -0.800; -164.000; -220.000
355.167;   33.500; -262.000; -162.000
355.300; -166.400;-1061.000; -880.000
355.433; 1757.200;  -71.000;  -14.000
355.565; 2689.400; -402.000; -384.000
355.698;  683.200; -356.000; -296.000
355.831;  -13.400; -882.000; -801.000
355.964;  146.700; -285.000; -170.000
356.096; -129.300; -856.000; -843.000
356.229;   50.500; -523.000; -530.000
356.362;  577.000; -373.000; -266.000
356.494; 1066.500; -229.000; -162.000
356.627;  890.400;  269.000;  377.000
356.760; 1203.800;  120.000;   53.000
356.892; 1702.100; -286.000; -601.000
357.025; 1162.900;  403.000;  389.000
357.157; 1014.800; -167.000; -179.000
357.290; 1214.100; -856.000; -713.000
357.423;  369.200; -667.000; -556.000
357.555;  178.800; -217.000; -228.000
357.688;  243.600; -483.000; -364.000
357.820;  745.700; -870.000; -877.000
357.953; 6207.400; -563.000; -589.000
358.085; 1320.600; -632.000; -612.000
358.218; 1900.600;-1131.000; -932.000
358.350;  378.300;  -58.000;  312.000
358.483; -243.800;-1300.000;-1187.000
358.615;  -46.100;-1182.000;-1078.000
358.747; -115.700;-1187.000;-1058.000
358.880;   35.200; -810.000; -744.000
359.012;   21.800; -376.000; -202.000
359.145;  -36.400; -480.000; -511.000
359.277;   84.600; -962.000; -913.000
359.409; 5228.100;  536.000;  231.000
359.542; 1283.000; -738.000; -688.000
359.674;  134.500;   46.000;   13.000
359.806;  -78.700; -565.000; -438.000
359.939;  -48.000; -617.000; -516.000
360.071;  -23.300; -583.000; -579.000
360.203;   19.300; -411.000; -364.000
360.335;  134.400;  164.000;  -16.000
360.468;  394.900; -249.000; -307.000
360.600; 4118.000; -547.000; -454.000
360.732; 5033.800; -546.000; -423.000
360.864;  608.500;-1216.000;-1044.000
360.996;  461.700; -516.000; -554.000
361.129;   99.800; -389.000; -598.000
361.261;   70.600;  110.000; -113.000
361.393;  -16.300; -252.000; -214.000
361.525;   97.000;   94.000;  244.000
361.657; -102.300; -821.000; -703.000
361.789;   40.100; -139.000; -155.000
361.921;  423.800; -642.000; -593.000
362.053;  512.600;  524.000;  541.000
362.185;  148.500;  288.000;   72.000
362.318; -133.400; -709.000; -705.000
362.450;  260.700;  294.000;  444.000
362.582;  171.000; -913.000; -870.000
362.714;  -28.900; -353.000; -332.000
362.846; -111.700; -606.000; -490.000
362.978; -245.500; -941.000; -811.000
363.109;  116.500; -161.000; -260.000
363.241;  763.300; -739.000; -749.000
363.373;  745.300; -649.000; -564.000
363.505; 1201.000; -186.000;  -91.000
363.637;  267.300; -787.000; -601.000
363.769; -247.100;-1067.000;-1080.000
363.901;  -80.600; -596.000; -654.000
364.033; -218.300;-1103.000;-1062.000
364.165;   26.200; -283.000; -283.000
364.296;  191.700; -316.000; -177.000
364.428;   84.300;-1344.000;-1220.000
364.560; -107.800; -679.000; -661.000
364.692;  -74.900; -738.000; -835.000
364.824;  466.100; -588.000; -456.000
364.955;  815.400; -402.000; -564.000
365.087; 1653.500;-1097.000; -852.000
365.219;   44.300; -686.000; -816.000
365.351;  -81.000; -526.000; -572.000
365.482;  171.400;  300.000;  240.000
365.614;  -31.600; -402.000; -314.000
365.746; -123.700; -729.000; -752.000
365.877; -185.800; -706.000; -672.000
366.009;  503.100;  -35.000;  -62.000
366.141; -172.500;-1249.000;-1134.000
366.272; -188.300; -803.000; -719.000
366.404; -210.200;-1005.000; -874.000
366.535;   46.700; -139.000;  -12.000
366.667; -170.700; -644.000; -649.000
366.799;  124.700;  353.000;  203.000
366.930; -252.700; -862.000; -996.000
367.062;  285.000; -639.000; -613.000
367.193;  289.400; -872.000; -842.000
367.325; -102.900; -580.000; -684.000
367.456;  113.100; -246.000;   31.000
367.588;  324.100; -371.000; -318.000
367.719;   90.100;  -44.000;  -45.000
367.851;   -0.700; -222.000; -241.000
367.982; -106.700; -875.000; -732.000
368.113;  211.500; -475.000; -358.000
368.245; -229.700; -960.000; -841.000
368.376;  -43.800; -254.000; -302.000
368.508;  -37.600; -188.000; -263.000
368.639; -245.400;-1166.000;-1034.000
368.770;  -30.100; -670.000; -589.000
368.902; -106.400; -836.000; -926.000
369.033; -183.900; -906.000; -855.000
369.164;  -65.800; -720.000; -653.000
369.296; -155.800; -452.000; -601.000
369.427;   38.100; -209.000; -144.000
369.558;  -72.300; -593.000; -377.000
369.689; -143.600; -721.000; -569.000
369.821; -230.700; -951.000; -845.000
369.952;   31.000;   42.000; -108.000
370.083;  -51.600; -229.000; -108.000
370.214; -133.700; -735.000; -650.000
370.345;   83.000;   65.000;   81.000
370.477; -147.800; -810.000; -790.000
370.608;  431.300; -328.000; -264.000
370.739;  -97.700;-1233.000;-1292.000
370.870;  -59.300;-1102.000; -923.000
371.001;  196.500; -378.000; -467.000
371.132; -103.700; -754.000; -735.000
371.263;   43.200;  -42.000; -148.000
371.394; -226.800; -841.000; -748.000
371.525;  103.000;  345.000;  225.000
371.657; -169.600; -808.000; -670.000
371.788;  182.500;  103.000;  199.000
371.919;  338.600; -384.000; -304.000
372.050; 6220.000;  -91.000; -156.000
372.181; 1795.500; -188.000; -294.000
372.311;  702.700;   42.000; -127.000
372.442;   68.400; -457.000; -451.000
372.573;   25.100; -444.000; -340.000
372.704; -224.900;-1008.000; -980.000
372.835;  187.800; -228.000; -289.000
372.966;  -78.300; -646.000; -554.000
373.097;  -91.900; -575.000; -711.000
373.228;  -59.300; -717.000; -542.000
373.359;  234.300; -824.000; -536.000
373.490; 1591.700; -881.000; -727.000
373.620; 1886.000;-1001.000; -803.000
373.751; 3034.200; -332.000; -396.000
373.882; 1277.500; -663.000; -733.000
374.013;  152.300; -449.000; -262.000
374.143;  -72.000; -581.000; -659.000
374.274; -181.000; -987.000; -908.000
374.405;  344.200; -388.000; -276.000
374.536;  797.300; -526.000; -387.000
374.666; 1893.200; -759.000; -807.000
374.797;  376.100; -817.000; -868.000
374.928; 1505.500; -710.000; -560.000
375.058; 1485.700; -535.000; -500.000
375.189;  180.000;  -59.000;  -93.000
375.320; -177.900; -928.000;-1034.000
375.450;  -46.700; -625.000; -616.000
375.581;  -59.900; -526.000; -436.000
375.712;  -19.700; -574.000; -250.000
375.842;  524.300; -438.000; -415.000
375.973;  329.900; -554.000; -513.000
376.103;  -59.200; -665.000; -648.000
376.234; -124.100; -531.000; -552.000
376.364;  -71.700; -944.000; -867.000
376.495;  677.400;  925.000;  529.000
376.625;   51.800; -472.000; -485.000
376.756;  114.300; -709.000; -678.000
376.886; -133.200;-1178.000;-1026.000
377.017;  110.300;-1048.000;-1061.000
377.147;  641.000; -786.000; -782.000
377.278;  151.200;  174.000;  228.000
377.408; -184.200; -801.000; -815.000
377.538; -196.700; -707.000; -693.000
377.669; -106.400; -537.000; -613.000
377.799; -131.900; -645.000; -635.000
377.929;  -89.200; -610.000; -428.000
378.060; -239.000; -781.000; -847.000
378.190;  -83.900; -726.000; -531.000
378.320;  -81.100; -401.000; -406.000
378.451;   23.000; -131.000;  -22.000
378.581;    9.300;  -67.000; -110.000
378.711;  363.900; 1035.000;  866.000
378.841;    1.100; -533.000; -675.000
378.972; -134.600; -871.000; -751.000
379.102;    1.900; -652.000; -579.000
379.232;    4.900; -126.000;  -73.000
379.362; -211.900;-1001.000; -885.000
379.492;   47.200; -373.000; -424.000
379.623;  238.500;    0.000;  111.000
379.753; -203.500;-1107.000; -974.000
379.883;  373.200;   59.000;  156.000
380.013;   21.000;-1081.000;-1017.000
380.143; -180.900;-1097.000;-1056.000
380.273; -176.600; -985.000; -861.000
380.403;    3.800; -344.000; -257.000
380.533;  -14.500; -651.000; -664.000
380.663;  171.800;  173.000;  128.000
380.793; -171.400;-1027.000;-1074.000
380.923;   -4.100; -103.000;  -34.000
381.053; -129.900; -613.000; -623.000
381.183;   -4.800; -106.000; -248.000
381.313;   74.900; -656.000; -470.000
381.443;   85.100; -692.000; -473.000
381.573;  382.500; -402.000; -409.000
381.703;  483.000;-1249.000;-1095.000
381.833; -273.200;-1454.000;-1336.000
381.963;  235.700; -134.000;  -87.000
382.093; 2446.300; -925.000; -909.000
382.223;  671.000; -713.000; -602.000
382.353;  -30.800; -801.000; -608.000
382.482;  630.500;-1091.000; -964.000
382.612; 1292.900; -872.000; -644.000
382.742;  698.500; -695.000; -622.000
382.872;  448.000; -565.000; -551.000
383.002;  159.700;  347.000; -132.000
383.131;   25.100; -226.000; -160.000
383.261;  -90.900; -706.000; -768.000
383.391;  548.300; -552.000; -377.000
383.521; 5841.900;  451.000;  263.000
383.650; 1250.100; -947.000; -904.000
383.780;  -18.300; -783.000; -656.000
383.910;  268.800;  880.000;  802.000
384.039;   67.500; -794.000; -656.000
384.169;  338.300;-1205.000;-1017.000
384.299;  -35.900; -650.000; -662.000
384.428; -100.800; -764.000; -680.000
384.558;  -19.400; -308.000; -275.000
384.687;  -19.200; -414.000; -334.000
384.817;   97.100;   75.000;   -2.000
384.947;   75.600; -234.000; -141.000
385.076;  594.700;  982.000;  912.000
385.206;  214.000;  369.000;  480.000
385.335;  -17.300; -549.000; -417.000
385.465; -146.400; -655.000; -663.000
385.594;  289.200;  -53.000;  -44.000
385.724;  689.200; -868.000; -838.000
385.853;  265.500; -296.000; -270.000
385.982; 2396.300; -743.000; -787.000
386.112; 3545.000;-1052.000; -871.000
386.241;  252.900; -307.000; -312.000
386.371;   82.500; -174.000;  -87.000
386.500;   14.700; -825.000; -789.000
386.629;   58.500; -874.000; -817.000
386.759;  188.400;  -43.000;   68.000
386.888;   36.300; -170.000; -250.000
387.017; -112.900; -648.000; -620.000
387.147; -139.600; -771.000; -798.000
387.276;   25.800; -410.000; -397.000
387.405;   69.800; -398.000; -342.000
387.535;  -40.600; -452.000; -361.000
387.664;  -78.000; -692.000; -620.000
387.793;  146.100; -198.000; -113.000
387.922;  930.800;  255.000;  200.000
388.052;   44.000; -576.000; -423.000
388.181;   33.200; -342.000; -472.000
388.310;  -30.400; -889.000; -710.000
388.439;  -71.900; -749.000; -742.000
388.568;  404.400;  365.000;  244.000
388.697; 1836.000; -756.000; -653.000
388.826;  361.000; -768.000; -666.000
388.956;  126.700; -285.000; -307.000
389.085;  -41.100; -347.000; -287.000
389.214; -167.500; -842.000; -872.000
389.343;  -71.000; -645.000; -413.000
389.472;  786.900;  126.000;  149.000
389.601;  958.000;   91.000;    0.000
389.730;   30.300; -568.000; -687.000
389.859;  174.700;  226.000;   46.000
389.988;  384.500; -423.000; -408.000
390.117;  259.400; -168.000; -146.000
390.246;   23.400; -331.000; -320.000
390.375;  186.700; -673.000; -626.000
390.504;  -78.100; -703.000; -621.000
390.633; -144.600; -672.000; -726.000
390.761;  -66.300; -732.000; -645.000
390.890;   79.700;   -4.000; -130.000
391.019;  -23.000; -421.000; -441.000
391.148; -220.300; -826.000; -855.000
391.277;  -97.400; -576.000; -493.000
391.406; -143.100; -821.000; -805.000
391.534;  119.700;  574.000; -301.000
391.663;  -60.400; -583.000; -645.000
391.792; -100.000; -673.000; -701.000
391.921;  244.600;   -3.000;   15.000
392.050;  344.000; -287.000; -228.000
392.178;  -77.400;-1206.000;-1061.000
392.307;  247.700; -758.000; -712.000
392.436;  112.000; -427.000; -641.000
392.564;   93.200;  166.000;   -6.000
392.693; -110.500; -860.000; -682.000
392.822;  386.400; -529.000; -534.000
392.950;  140.800; -880.000; -714.000
393.079;  615.600; -188.000; -328.000
393.208;   69.100; -488.000; -511.000
393.336;   25.200; -170.000; -145.000
393.465;  -49.900; -317.000; -199.000
393.593;   77.300;   62.000;   79.000
393.722; -277.500;-1121.000; -916.000
393.850;  -18.900; -188.000;  -61.000
393.979; -250.700; -926.000; -805.000
394.107;  -78.200; -517.000; -537.000
394.236;  -15.600; -570.000; -507.000
394.364;  609.300;  383.000;  206.000
394.493;  890.700; -911.000; -767.000
394.621;   35.600; -955.000; -916.000
394.750; 1354.400; -873.000; -923.000
394.878; 5509.100; -247.000; -149.000
395.007; 7037.900; -721.000; -807.000
395.135;  504.200; -790.000; -721.000
395.263; -163.100;-1038.000;-1040.000
395.392;   58.700;  -25.000; -107.000
395.520; -215.900; -818.000; -679.000
395.648; -149.500; -865.000; -915.000
395.777;   24.500; -366.000; -405.000
395.905;  -39.600; -449.000; -564.000
396.033;  100.600;  217.000;  172.000
396.162; 1529.900; -399.000; -453.000
396.290; 1312.800;  -17.000;   -2.000
396.418;  213.300; -555.000; -514.000
396.546; -121.600; -571.000; -466.000
396.674; -181.900; -850.000; -878.000
396.803;   92.500;  -72.000;  -23.000
396.931;  190.600; -179.000; -199.000
397.059;   52.400;-1026.000; -989.000
397.187; -191.500;-1026.000; -975.000
397.315; -218.200; -884.000; -649.000
397.443; -151.500; -592.000; -443.000
397.572; -101.000; -578.000; -424.000
397.700;   -4.500; -607.000; -614.000
397.828;   46.000;  120.000;  -90.000
397.956;  -63.900; -508.000; -478.000
398.084;  -81.900; -767.000; -626.000
398.212;  140.500;  137.000;  124.000
398.340;  108.200;  -56.000;  159.000
398.468;   62.100; -390.000; -169.000
398.596; -230.300; -993.000; -953.000
398.724; -186.200; -762.000; -767.000
398.852; -295.600;-1024.000; -976.000
398.980;  -73.500; -560.000; -560.000
399.108;  -59.100; -982.000; -735.000
399.236;  149.400;   13.000;    8.000
399.363;   78.400;  222.000;  196.000
399.491; -101.800; -404.000; -398.000
399.619; -200.700; -829.000; -800.000
399.747; -170.500; -859.000; -771.000
399.875;  188.400;  220.000;  234.000
400.003;  -49.700; -359.000; -284.000
400.130; -152.500; -421.000; -341.000
400.258;   21.200;  -83.000;   38.000
400.386;  -67.200; -352.000; -168.000
400.514;  -34.600; -526.000; -587.000
400.641; -135.000; -928.000; -802.000
400.769; -235.400; -979.000; -888.000
400.897; -156.300; -838.000; -793.000
401.025;   22.600; -166.000; -152.000
401.152;   85.800;  220.000;   38.000
401.280;  -74.300; -430.000; -429.000
401.408; -182.900; -712.000; -576.000
401.535; -196.300; -735.000; -758.000
401.663; -307.200;-1134.000;-1054.000
401.790;  -97.100; -514.000; -525.000
401.918;  193.200;  436.000;  405.000
402.046;   26.500;  134.000;  122.000
402.173;  -19.000;  -18.000;    7.000
402.301;  -65.800; -519.000; -397.000
402.428;  159.400;  528.000;  383.000
402.556; -221.200;-1188.000; -913.000
402.683;  -18.900;  -20.000;   -1.000
402.811;   22.900;  -37.000; -206.000
402.938;   42.100;   20.000;   27.000
403.066;  370.100; -574.000; -558.000
403.193;  646.800;  299.000;  239.000
403.321;  469.000; -396.000; -574.000
403.448;  592.900;   83.000;   27.000
403.575;  313.500;  -90.000;  -46.000
403.703; -146.200; -732.000; -557.000
403.830;  -99.100; -531.000; -496.000
403.957; -223.100;-1117.000;-1023.000
404.085;   76.700;  -61.000; -172.000
404.212;  214.400;  -50.000;   63.000
404.339;  584.200; -566.000; -306.000
404.467;10836.400; -612.000; -524.000
404.594; 6533.500; -287.000; -227.000
404.721; 1475.400; -869.000; -764.000
404.848;  175.000; -113.000; -202.000
404.976; -154.400; -856.000; -783.000
405.103;   51.700;  -14.000;  -82.000
405.230;   78.200;  190.000;  226.000
405.357;  113.500;  117.000;   44.000
405.484;  533.400;  -49.000;    5.000
405.612;   80.200; -548.000; -563.000
405.739;  -50.200; -488.000; -243.000
405.866;  256.100;  669.000;  385.000
405.993;  -48.200; -398.000; -102.000
406.120; -230.600; -801.000; -887.000
406.247;  -31.700; -323.000; -342.000
406.374;  907.600;  540.000;  629.000
406.501;  154.300; -632.000; -702.000
406.628;  -92.100; -621.000; -589.000
406.755; -151.500; -803.000; -620.000
406.882;    5.000; -228.000; -277.000
407.009; -146.200; -719.000; -628.000
407.136;  127.200; -480.000; -401.000
407.263;  242.600; -939.000; -829.000
407.390;  -81.800; -692.000; -614.000
407.517; -276.500;-1139.000;-1187.000
407.644;  -73.300; -332.000; -256.000
407.771;  -71.600; -249.000; -287.000
407.898;   83.800;  168.000;  328.000
408.025;  -76.900; -421.000; -313.000
408.151;   60.200;   82.000;  153.000
408.278;  -43.800; -267.000; -216.000
408.405; -158.900; -931.000; -899.000
408.532; -106.200; -549.000; -542.000
408.659; -168.400; -677.000; -648.000
408.785; -328.100;-1298.000;-1170.000
408.912;  -75.300; -412.000; -296.000
409.039; -143.700; -610.000; -686.000
409.166; -129.100; -591.000; -555.000
409.292; -135.000; -571.000; -534.000
409.419; -170.900; -665.000; -649.000
409.546; -111.000; -431.000; -192.000
409.672; -161.800; -713.000; -545.000
409.799;  -14.000;  -36.000;   34.000
409.926;  -21.200; -180.000; -179.000
410.052; -298.500;-1127.000;-1091.000
410.179;  -92.100; -368.000; -392.000
410.305; -129.400; -375.000; -493.000
410.432;  -24.200; -220.000; -333.000
410.558; -131.500; -305.000; -380.000
410.685; -129.200; -688.000; -431.000
410.812; -119.300; -409.000; -588.000
410.938; -207.500; -964.000; -808.000
411.065; -134.900; -671.000; -645.000
411.191;   32.900; -189.000; -174.000
411.317; -179.900; -823.000; -742.000
411.444;  -78.500; -317.000; -246.000
411.570;  -74.500; -339.000; -294.000
411.697; -207.600; -758.000; -752.000
411.823; -273.600; -989.000; -999.000
411.949;    7.700;  -56.000;   17.000
412.076; -168.200; -539.000; -519.000
412.202; -186.500; -758.000; -757.000
412.329; -198.600; -798.000; -752.000
412.455; -168.900; -821.000; -657.000
412.581;   11.400;  -15.000;  172.000
412.707;  -88.100; -540.000; -457.000
412.834;  104.800;  156.000;  219.000
412.960; -131.800; -785.000; -784.000
413.086; -150.700; -743.000; -701.000
413.212;  365.800;  604.000;  578.000
413.339; -108.100; -685.000; -701.000
413.465;   31.300; -364.000; -310.000
413.591; -135.200; -757.000; -474.000
413.717;  -82.300; -358.000; -366.000
413.843; -248.000; -839.000; -861.000
413.969;  -78.100;  -47.000; -292.000
414.096; -143.500; -679.000; -679.000
414.222;   20.100;  -33.000;   85.000
414.348;  -20.900; -652.000; -385.000
414.474;  213.200;   38.000;  -52.000
414.600;    5.600; -126.000; -144.000
414.726;   88.700;  -96.000;  -55.000
414.852;  -43.900; -365.000; -342.000
414.978;  136.800;  104.000;  -18.000
415.104;  116.600;   38.000;   80.000
415.230;   81.600; -329.000; -330.000
415.356;   88.600; -409.000; -514.000
415.482;  410.400;   13.000;  -35.000
415.608;  548.600; -247.000; -323.000
415.734; 1860.700;   67.000;   38.000
415.860;37966.700; -875.000; -767.000
415.986;24445.500; -685.000; -607.000
416.111; 2030.000; -798.000; -652.000
416.237;  497.300; -424.000; -571.000
416.363; 2294.300; -765.000; -733.000
416.489; 7436.100; -324.000; -251.000
416.615;  734.200; -707.000; -742.000
416.741;  -16.800; -677.000; -784.000
416.866; -113.100; -673.000; -736.000
416.992; -209.600; -801.000; -818.000
417.118;   42.100;  -41.000;  -80.000
417.244;  -77.000; -798.000; -531.000
417.369; -142.400; -801.000; -612.000
417.495;   31.900; -325.000; -254.000
417.621; -132.200;-1015.000; -803.000
417.746;   60.900; -579.000; -572.000
417.872;  146.800; -254.000; -144.000
417.998;  161.200; -515.000; -530.000
418.123; 2156.900;-1073.000; -845.000
418.249; 9769.100; -512.000; -601.000
418.374; 1172.900; -916.000; -824.000
418.500;  235.200; -383.000; -482.000
418.626;  264.400;   70.000;  -59.000
418.751;  258.800; -549.000; -448.000
418.877;  386.200; -637.000; -643.000
419.002; 3719.500; -688.000; -560.000
419.128;23059.500; -930.000; -721.000
419.253; 4907.200; -967.000; -837.000
419.379;  731.600; -391.000; -338.000
419.504;  788.600;  325.000;  415.000
419.629;  920.700; -393.000; -212.000
419.755; 7204.300; -317.000; -254.000
419.880;38108.000;  -98.000;   67.000
420.006;21340.600; -280.000; -221.000
420.131;51603.900; -662.000; -775.000
420.256; 6591.100; -315.000; -316.000
420.382;  920.100; -665.000; -687.000
420.507;  152.600; -649.000; -778.000
420.632;  269.800; -337.000; -339.000
420.758;  434.700; -251.000; -425.000
420.883; -135.100; -876.000; -672.000
421.008; -159.600; -775.000; -619.000
421.133; -107.000; -509.000; -467.000
421.259;    2.800; -325.000; -259.000
421.384; -164.200; -834.000; -693.000
421.509;  -87.000;-1052.000; -862.000
421.634; 2019.300; -936.000; -820.000
421.759;  823.000; -359.000; -327.000
421.885;  -77.200; -717.000; -656.000
422.010; -117.500; -673.000; -542.000
422.135; -247.400; -695.000; -727.000
422.260;  126.000;  340.000;  280.000
422.385;  -30.200;   12.000;  -98.000
422.510;  101.200;  151.000;  -26.000
422.635;   81.500;  -87.000;  -43.000
422.760;  210.400; -766.000; -791.000
422.885;  162.500;  -57.000;  -80.000
423.010;   -1.000; -112.000; -169.000
423.135; -103.200; -481.000; -561.000
423.260;   36.000; -150.000; -245.000
423.385;  174.400;  476.000;  222.000
423.510;  124.900;   71.000;  -22.000
423.635;  197.600;  133.000;   45.000
423.760;  171.500;  383.000;  328.000
423.885;  173.600;  336.000;  391.000
424.010;   86.200;  -68.000;  -13.000
424.135;   24.700;    5.000;  -33.000
424.259; -126.300; -654.000; -457.000
424.384;  -40.400; -279.000; -272.000
424.509;   20.900; -260.000; -186.000
424.634; -148.300; -761.000; -623.000
424.759;   -4.500; -688.000; -544.000
424.883;   20.300; -506.000; -527.000
425.008;  387.500; -502.000; -410.000
425.133; 3748.600; -679.000; -653.000
425.258; 1577.500; -517.000; -381.000
425.382; 1922.000; -867.000; -774.000
425.507; 4330.500; -487.000; -543.000
425.632;  699.000; -802.000; -663.000
425.756;  868.000; -256.000; -146.000
425.881;13216.900; -831.000; -857.000
426.006;31417.000; -604.000; -355.000
426.130; 4444.900; -696.000; -508.000
426.255;  657.800; -611.000; -491.000
426.379;  369.700; -189.000; -577.000
426.504;  792.200;  660.000;  544.000
426.629; 7728.000; -519.000; -466.000
426.753; 4629.500;   64.000;  -46.000
426.878;  558.300; -252.000; -288.000
427.002;  398.000; -651.000; -668.000
427.127; 3244.900;  -35.000; -158.000
427.251;21120.700;  372.000;  401.000
427.375; 5299.900; -191.000; -173.000
427.500; 3922.200; -616.000; -610.000
427.624; 1203.900; -234.000; -400.000
427.749;  204.900; -216.000; -225.000
427.873;   20.200; -499.000; -412.000
427.997;   -6.700; -222.000; -230.000
428.122;  225.400;  795.000;  703.000
428.246;  242.400;  433.000;  434.000
428.371; -199.400; -869.000; -773.000
428.495; -162.700; -624.000; -646.000
428.619;   29.300; -186.000; -117.000
428.743;   98.700;   65.000;  132.000
428.868;   60.800; -732.000; -643.000
428.992; 2482.400; -219.000; -326.000
429.116;  930.200; -329.000; -357.000
429.240;  534.000;  419.000;  426.000
429.365;   10.700; -454.000; -574.000
429.489;   -8.300; -638.000; -647.000
429.613;   94.200; -236.000; -177.000
429.737;  118.300; -563.000; -432.000
429.861;  581.500; -247.000; -133.000
429.985;10870.300; -425.000; -305.000
430.109;10495.200; -770.000; -908.000
430.234; 1177.000;   76.000;  -50.000
430.358;  135.900; -250.000; -160.000
430.482;  -79.300; -672.000; -564.000
430.606;  -68.100; -655.000; -375.000
430.730;   64.300; -437.000; -388.000
430.854;  229.400; -909.000; -835.000
430.978;  -95.500; -795.000; -764.000
431.102; -117.400; -499.000; -422.000
431.226; -172.000; -874.000; -815.000
431.350;  183.600;  345.000;  422.000
431.474;  -70.800; -661.000; -373.000
431.597; -239.400;-1060.000; -848.000
431.721;  -60.800; -276.000; -267.000
431.845; -178.400; -704.000; -472.000
431.969; -118.100; -304.000; -349.000
432.093;  -89.200; -395.000; -317.000
432.217;   66.000;   32.000;   82.000
432.341; -121.300; -523.000; -518.000
432.464;  113.700;   96.000;   40.000
432.588;  401.900; -401.000; -329.000
432.712;  184.800;  -52.000;  -52.000
432.836;  177.200;  213.000;  263.000
432.959;  -44.000; -372.000; -311.000
433.083;  205.100;   11.000;    2.000
433.207;  786.800;  285.000;  930.000
433.330; 9776.200; -391.000; -200.000
433.454;10932.700; -654.000; -638.000
433.578; 6527.600;  583.000;  278.000
433.701; 1048.500; -623.000; -675.000
433.825;  282.800; -292.000; -299.000
433.949;  344.500;   28.000;  -72.000
434.072;  111.200; -410.000; -323.000
434.196;   59.100; -309.000; -117.000
434.319; 8345.300;25482.000;25124.000
434.443; 1476.500; -656.000; -603.000
434.566; 4827.300;  281.000;   62.000
434.690;  700.200; -637.000; -383.000
434.813;  145.500; -251.000; -173.000
434.937; -116.300; -569.000; -696.000
435.060;    0.900; -423.000; -332.000
435.184;  549.600; -492.000; -217.000
435.307;  310.800;  159.000;  102.000
435.431;   78.800;  -40.000;   24.000
435.554;  -70.000; -399.000; -240.000
435.677; -110.600; -350.000; -258.000
435.801;  -46.200;  -25.000;   49.000
435.924;   20.300;    1.000;  -67.000
436.048; -169.900;-1019.000; -732.000
436.171;  -84.100; -240.000;  -66.000
436.294;   -4.100; -248.000; -229.000
436.417;  199.200; -963.000; -849.000
436.541; -139.400; -814.000; -840.000
436.664;    7.000; -242.000; -316.000
436.787;   56.400;   13.000;  113.000
436.910; -188.200; -792.000; -422.000
437.034;   93.900;  142.000;  143.000
437.157;  183.400;  -11.000;    0.000
437.280;  -42.100; -392.000; -292.000
437.403; -148.200; -982.000; -869.000
437.526; 1128.500; -903.000; -865.000
437.649; 3659.300; -505.000; -332.000
437.772;  478.000; -692.000; -540.000
437.896;  305.800;  700.000;  544.000
438.019; -119.400; -758.000; -503.000
438.142; -115.600; -596.000; -506.000
438.265;   -2.300; -639.000; -670.000
438.388;  939.500; -520.000; -410.000
438.511;  143.300; -597.000; -394.000
438.634;  -39.200; -247.000; -125.000
438.757; -181.600; -693.000; -619.000
438.880;   21.400;  -34.000;  -57.000
439.003;  -75.900; -417.000; -437.000
439.126;  -44.400; -287.000; -167.000
439.248;  -46.800;  -98.000; -139.000
439.371;  -21.200;    9.000;  -53.000
439.494;  155.900;  510.000;  439.000
439.617;  -17.700;   65.000;  -88.000
439.740; -295.600; -968.000; -816.000
439.863; -248.300; -755.000; -595.000
439.986; -166.000; -476.000; -431.000
440.108;  -28.000; -161.000; -112.000
440.231; -268.200; -950.000; -836.000
440.354;    8.100;  -64.000; -150.000
440.477;  120.100; -566.000; -542.000
440.599;   14.800; -200.000; -225.000
440.722; -175.200; -709.000; -586.000
440.845;  234.300;  751.000;  928.000
440.968; -164.600; -415.000; -311.000
441.090;  -19.400; -199.000;  -33.000
441.213; -262.400;-1021.000; -825.000
441.336;  -59.600; -159.000;   -5.000
441.458;  -77.600; -549.000; -396.000
441.581; -123.000; -628.000; -629.000
441.703;  -88.600; -152.000;   13.000
441.826; -150.300; -557.000; -400.000
441.948;  -21.500;   56.000;   51.000
442.071;  120.200;  555.000;  424.000
442.193; -153.600; -531.000; -485.000
442.316;  115.600;  152.000;   97.000
442.438;  138.500; -233.000;  -10.000
442.561;  217.300;  272.000;  262.000
442.683;  958.800; -809.000; -522.000
442.806; 1881.500;   -8.000;   74.000
442.928;  -11.800; -859.000; -604.000
443.051;  -87.600; -577.000; -373.000
443.173; -108.200; -341.000; -339.000
443.295;  -89.900; -263.000; -371.000
443.418;  -80.000; -321.000;  -29.000
443.540;   34.700; -106.000;   -4.000
443.662; -190.100; -563.000; -465.000
443.785;   30.500;  335.000;  199.000
443.907; -137.000; -362.000; -208.000
444.029; -225.900; -767.000; -494.000
444.152; -228.900; -644.000; -554.000
444.274;   -4.500;  -18.000;  -24.000
444.396; -136.900; -461.000; -221.000
444.518; -193.200; -691.000; -454.000
444.640; -131.600; -268.000; -111.000
444.763;   15.900;  388.000;  249.000
444.885; -149.600; -432.000; -392.000
445.007;   -8.400;   35.000;   86.000
445.129; -173.000; -610.000; -515.000
445.251; -131.200; -372.000; -439.000
445.373; -204.300; -537.000; -386.000
445.495;   45.500;  242.000;  350.000
445.617;  172.400;  853.000;  753.000
445.739;  -57.900; -215.000;  -97.000
445.861;  -30.800; -245.000; -112.000
445.984;  -35.200; -267.000; -101.000
446.105;  396.100; -418.000; -251.000
446.227; 1051.600; -176.000;  -19.000
446.349;    4.500; -358.000; -249.000
446.471; -116.400; -615.000; -448.000
446.593;  -85.400; -316.000;   19.000
446.715;   38.500;  -67.000;   41.000
446.837;  187.500;  697.000;  832.000
446.959; -135.800; -457.000; -478.000
447.081; -184.500; -628.000; -518.000
447.203;  200.800;  862.000;  834.000
447.325;  -93.400; -270.000;   42.000
447.446;   86.700;  286.000;  530.000
447.568; -225.700; -921.000; -803.000
447.690; -124.900; -236.000; -245.000
447.812; -233.000; -798.000; -519.000
447.933;   33.900;  155.000;  127.000
448.055;  -52.000; -306.000; -261.000
448.177;  339.400;   31.000;   79.000
448.299;  143.100; -935.000; -727.000
448.420;   93.300;  -25.000;  159.000
448.542;  -18.800;   -3.000;   33.000
448.664;   31.500;  109.000;  322.000
448.785;   34.300;  265.000;   83.000
448.907;  -96.700; -614.000; -353.000
449.028;  -34.600; -771.000; -471.000
449.150;  199.200;  492.000;  589.000
449.272; -271.700;-1044.000; -913.000
449.393;  135.100;  612.000;  694.000
449.515; -219.200; -634.000; -581.000
449.636;  -33.500; -264.000; -155.000
449.758;  239.500;  763.000;  622.000
449.879; -108.000; -498.000; -396.000
450.001;  -96.500; -149.000;  -49.000
450.122;    8.100;  -95.000;  162.000
450.244;   10.200;   37.000;  364.000
450.365; -115.400; -495.000; -301.000
450.486;    7.600;   80.000;  268.000
450.608;  157.700;  393.000;  326.000
450.729;  247.200;  578.000;  645.000
450.850;   69.500; -574.000; -466.000
450.972; 1489.300; -552.000; -389.000
451.093; 9440.000;  190.000;  588.000
451.214; 3457.100; -516.000; -337.000
451.336;  741.500;  773.000;  579.000
451.457;  198.900;  264.000;  393.000
451.578;  -27.200; -118.000;  -74.000
451.699; -188.200; -546.000; -540.000
451.821;  -48.000; -284.000;  -50.000
451.942;   70.300;  278.000;  285.000
452.063;  117.800;  228.000;  419.000
452.184; 1141.500;  -54.000;  -49.000
452.305; 2003.300;  103.000;  170.000
452.427;  245.100; -549.000; -301.000
452.548;   46.100;   23.000;   79.000
452.669;  -24.100; -257.000;  -89.000
452.790;  -40.500;    3.000;  -18.000
452.911;   84.700;  195.000;  259.000
453.032;  -74.800; -289.000;  -60.000
453.153;  -10.000;  -29.000;   81.000
453.274;  195.400;  737.000;  868.000
453.395;  -48.500;  -51.000;  175.000
453.516;  358.000; 1317.000; 1388.000
453.637;  -75.300; -205.000; -150.000
453.758;  -39.900;   15.000;   69.000
453.879; -178.700; -462.000; -250.000
454.000;  288.300; 1086.000;  948.000
454.121; -191.000; -554.000; -326.000
454.242; -174.000; -599.000; -383.000
454.362;  -24.600;  -99.000;  114.000
454.483;  -27.400; -309.000; -229.000
454.604;  177.400;  512.000;  580.000
454.725; -194.500; -627.000; -555.000
454.846; -157.000; -474.000; -406.000
454.967;   39.700;  230.000;  539.000
455.087;   19.800;  179.000;  153.000
455.208;  139.700;  554.000;  856.000
455.329;  -33.300;  -22.000;   82.000
455.450;  161.500;  473.000;  633.000
455.570;  -91.900; -234.000; -211.000
455.691;   -9.400;  201.000;  407.000
455.812; -153.000; -270.000;  -92.000
455.932;  -68.400;  107.000;  -97.000
456.053;  -68.600;   36.000;   24.000
456.173; -170.700; -433.000; -355.000
456.294; -194.400; -476.000; -303.000
456.415;  -22.500;  -73.000;   70.000
456.535;   10.200;  297.000;  273.000
456.656;  -10.300;  132.000;  240.000
456.776;  -61.600;    3.000;  298.000
456.897;   84.000;  308.000;  513.000
457.017;  -75.600; -153.000;   -3.000
457.138; -176.500; -402.000; -249.000
457.258;   45.100;  263.000;  224.000
457.379;   80.600;  509.000;  521.000
457.499;   10.500;  443.000;  432.000
457.620; -199.400; -407.000; -231.000
457.740; -109.800; -132.000;  -11.000
457.860;  -39.000;   87.000;   44.000
457.981;   10.500;  132.000;  124.000
458.101; -101.400;  -89.000;   40.000
458.221;   56.500;  336.000;  402.000
458.342;  -82.600;   -4.000;  -37.000
458.462;  122.800;  617.000;  352.000
458.582;   -7.800; -302.000; -294.000
458.703;   79.700;  303.000;  154.000
458.823;   24.200;   22.000;  163.000
458.943;  102.700;  341.000;  467.000
459.063;   47.800; 1124.000;  192.000
459.183;   11.800;  328.000;  313.000
459.304;   84.400;  315.000;  517.000
459.424;  -87.200; -246.000;  -89.000
459.544;  742.500;  388.000;  764.000
459.664; 1672.000;  499.000;  506.000
459.784;  583.800; 1004.000; 1175.000
459.904;  164.800;  867.000;  744.000
460.024;  184.700;  867.000;  684.000
460.144;  114.100;  449.000;  554.000
460.264;   69.000;  515.000;  327.000
460.385; -112.500; -145.000; -119.000
460.505;  213.600;  905.000;  858.000
460.625; -126.200;  -17.000;  -68.000
460.745;   51.300;  396.000;  541.000
460.864;  -41.200;  153.000;  469.000
460.984;   77.000;  499.000;  573.000
461.104;  400.100; 1656.000; 1775.000
461.224;  129.800;  657.000;  650.000
461.344;   23.000;  431.000;  360.000
461.464;  -14.500;  258.000;  513.000
461.584;   41.200;  283.000;  466.000
461.704;  -53.200;   58.000;  108.000
461.824;  -39.900;  238.000;  259.000
461.943;  -19.800;  191.000;  130.000
462.063;  -75.100;    2.000;  324.000
462.183;  160.000;  639.000;  717.000
462.303;  260.300; 1678.000; 1230.000
462.422;  141.100;  781.000;  840.000
462.542;  -16.800;  271.000;  391.000
462.662;  140.000;  353.000;  380.000
462.782;  551.800;  833.000;  572.000
462.901;  947.900;  545.000;  717.000
463.021;  579.500; 1702.000; 1638.000
463.141;   59.600;  337.000;  770.000
463.260;   47.500;  614.000;  474.000
463.380;  132.500;  902.000;  884.000
463.499;   18.500;  342.000;  332.000
463.619;    6.300;  581.000;  559.000
463.738;  315.500; 1644.000;  903.000
463.858;  103.100;  657.000;  811.000
463.978;   19.100;  542.000;  396.000
464.097;  175.700;  921.000; 1114.000
464.217;  335.300; 1196.000; 1143.000
464.336;  319.700; 1068.000; 1130.000
464.455;   -6.300;  328.000;  659.000
464.575;  129.100;  597.000;  602.000
464.694;  392.000; 1204.000; 1179.000
464.814;  306.800; 1190.000; 1138.000
464.933;  203.400; 1095.000; 1027.000
465.052;  269.300; 1412.000; 1054.000
465.172;  223.300;  922.000;  799.000
465.291;  359.600; 1376.000; 1320.000
465.410;  115.000;  462.000;  735.000
465.530;  240.200; 1355.000; 1310.000
465.649;  236.200; 1209.000; 1273.000
465.768;  376.300; 1673.000; 1508.000
465.888;  170.700;  941.000; 1174.000
466.007;  262.900; 1335.000; 1440.000
466.126;   59.800;  721.000;  641.000
466.245;  151.900; 1176.000; 1187.000
466.364;  150.900;  950.000; 1060.000
466.484;  189.700; 1024.000; 1213.000
466.603;  193.300; 1101.000; 1222.000
466.722;  353.700; 1490.000; 1769.000
466.841;  199.700; 1151.000; 1401.000
466.960;  155.900; 1069.000;  972.000
467.079;  374.500; 1971.000; 1786.000
467.198;  195.900; 1238.000; 1181.000
467.317;  249.400; 1768.000; 1162.000
467.436;  228.000; 1709.000; 1261.000
467.555;  381.800; 1796.000; 1746.000
467.674;  181.400; 1227.000; 1329.000
467.793;  179.000; 1376.000; 1374.000
467.912;  254.700; 1658.000; 1539.000
468.031;  358.000; 2038.000; 1930.000
468.150;  368.600; 1842.000; 1837.000
468.269;  479.300; 2313.000; 2090.000
468.388;  462.200; 2168.000; 2339.000
468.507;  609.800; 2884.000; 2903.000
468.626;  662.200; 2555.000; 2541.000
468.744;  388.600; 2018.000; 2174.000
468.863;  510.700; 2312.000; 2523.000
468.982;  286.900; 1503.000; 1555.000
469.101;  533.800; 2788.000; 2692.000
469.220;  434.900; 2333.000; 2176.000
469.338;  599.300; 2935.000; 3051.000
469.457;  459.900; 2719.000; 2545.000
469.576;  811.300; 3953.000; 3784.000
469.695;  549.700; 2877.000; 3066.000
469.813;  917.100; 4148.000; 4192.000
469.932;  919.000; 4255.000; 4485.000
470.051;  941.600; 4075.000; 4161.000
470.169; 1776.200; 4470.000; 4338.000
470.288; 2898.700; 4700.000; 4809.000
470.406; 1728.900; 5059.000; 5194.000
470.525; 1347.000; 6101.000; 5787.000
470.644; 1455.500; 6847.000; 6794.000
470.762; 1694.700; 8397.000; 7873.000
470.881; 1901.100; 8651.000; 8464.000
470.999; 2164.300; 9685.000; 9151.000
471.118; 2369.700;11174.000;10711.000

