
Integration time [ms]: 100.000
Averaging Nr. [scans]: 40
Smoothing Nr. [pixels]: 0
Data measured with spectrometer [name]: 2101012U2
Wave   ;Sample   ;Dark     ;Reference
[nm]   ;[counts] ;[counts] ;[counts] 

197.733;   50.250;  516.000;  404.000
197.879;  -79.550; -610.000; -634.000
198.025;  -49.625; -475.000; -420.000
198.171;  -70.050; -602.000; -612.000
198.317;  -34.550; -401.000; -316.000
198.463;  -59.175; -655.000; -404.000
198.609;   17.425;  181.000; -137.000
198.755;  -90.625; -644.000; -410.000
198.901;  -57.300; -505.000; -424.000
199.047;  -76.775; -615.000; -488.000
199.193;  -38.475; -230.000; -468.000
199.339;  -32.200; -222.000; -369.000
199.485;   42.000;  330.000;  271.000
199.631;   13.775;  227.000;  310.000
199.777;  -47.650; -466.000; -398.000
199.923;  -63.000; -610.000; -424.000
200.069;    6.750; -141.000;  -58.000
200.215;   60.600;  128.000;  453.000
200.361;   50.250;  243.000;  477.000
200.507;  -51.775; -600.000; -373.000
200.653;  -34.950; -371.000; -194.000
200.798;  -39.575; -215.000; -125.000
200.944;   -4.400; -146.000;  -41.000
201.090;   31.150;   61.000;  222.000
201.236;    5.675; -116.000; -158.000
201.382;  107.700;  874.000;  903.000
201.528;  -11.325;  -58.000;  -48.000
201.674;  -62.900; -386.000; -293.000
201.819;  -56.850; -540.000; -439.000
201.965;  -86.075; -699.000; -447.000
202.111;  -28.850; -273.000; -226.000
202.257;  -34.400; -250.000; -238.000
202.402;    5.125;   13.000;  -36.000
202.548;  -22.400; -169.000; -116.000
202.694;   62.100;  410.000; -183.000
202.840;  -71.500; -603.000; -531.000
202.985;  -71.375; -681.000; -639.000
203.131; -108.200; -832.000; -666.000
203.277;  -27.250; -199.000; -262.000
203.423;  -45.200; -434.000; -520.000
203.568;  -41.475; -462.000; -237.000
203.714;  -61.175; -535.000; -542.000
203.860;  -73.925; -682.000; -641.000
204.005;   18.875;  112.000;  167.000
204.151;   72.200;  561.000;  556.000
204.296;  -45.550; -354.000; -221.000
204.442;  -71.675; -600.000; -547.000
204.588;  -73.600; -592.000; -579.000
204.733;   19.000;  178.000;  168.000
204.879; -126.375;-1018.000; -822.000
205.025;    9.675;  -99.000;  126.000
205.170;   -6.900;  -17.000;   94.000
205.316;   77.625;  438.000;  661.000
205.461;  -88.200; -698.000; -554.000
205.607;   78.075;  609.000;  665.000
205.752;  -76.500; -626.000; -551.000
205.898;  -51.825; -501.000; -391.000
206.043;  -55.275; -578.000; -506.000
206.189;  -42.650; -243.000; -285.000
206.334;   71.000;  554.000;  606.000
206.480;   61.975;  409.000;  239.000
206.625;  -69.675; -529.000; -552.000
206.771;  -52.050; -451.000; -373.000
206.916;  -38.575; -210.000; -537.000
207.062;  -68.300; -545.000; -591.000
207.207;  -56.350; -546.000; -443.000
207.353;   55.750;  185.000;  460.000
207.498;   22.375;  196.000;   85.000
207.643;  -52.125; -501.000; -370.000
207.789; -129.700;-1069.000; -910.000
207.934;  -78.525; -665.000; -713.000
208.080;  -22.750; -154.000;   66.000
208.225;  -15.300;  -22.000;  -57.000
208.370;  -75.150; -727.000; -619.000
208.516;  -76.825; -741.000; -487.000
208.661;  -27.025; -127.000;  -69.000
208.806;  -16.500; -165.000; -171.000
208.952; -121.375;-1044.000; -731.000
209.097;   62.350;  378.000;  349.000
209.242;  -54.800; -307.000; -382.000
209.387;   72.225;  392.000;  350.000
209.533;  -57.225; -321.000; -350.000
209.678;   80.375;  472.000;  543.000
209.823;  -55.375; -408.000; -310.000
209.969; -100.125; -860.000; -757.000
210.114; -104.150; -907.000; -719.000
210.259; -100.550; -939.000; -889.000
210.404;  -15.750; -171.000;  103.000
210.549;   -3.300;  108.000;    3.000
210.695;   -8.325;   -3.000;  -95.000
210.840;   22.600;   94.000;   67.000
210.985;  -73.350; -484.000; -303.000
211.130;   54.725;  268.000;  406.000
211.275;   16.425;  207.000;  199.000
211.420;  -46.775; -300.000; -289.000
211.566;  -71.625; -536.000; -489.000
211.711;   20.600;  218.000;  157.000
211.856;  -67.825; -545.000; -519.000
212.001;    9.525;  151.000;   44.000
212.146;   15.700;  153.000;   49.000
212.291;  -21.600; -210.000; -186.000
212.436;  -22.450; -280.000;   -6.000
212.581;  -90.325; -685.000; -653.000
212.726;  -81.675; -487.000; -538.000
212.871;  -36.300; -552.000; -217.000
213.016; -152.700;-1172.000;-1029.000
213.161;   62.675;  406.000;  291.000
213.306;  -80.175; -435.000; -577.000
213.451;  -88.450; -778.000; -689.000
213.596;  -41.675; -455.000; -347.000
213.741;  -49.375; -448.000; -538.000
213.886;  -74.875; -498.000; -517.000
214.031;  -25.925; -294.000; -124.000
214.176;  -55.550; -408.000; -341.000
214.321;  -13.275; -296.000; -157.000
214.466;  -26.775; -163.000;  -43.000
214.611;  -16.600;  -61.000;  -10.000
214.756; -123.350; -948.000; -858.000
214.901;  -18.050; -388.000; -226.000
215.046; -126.600; -797.000; -825.000
215.191;   25.325;  128.000;   35.000
215.336;  -24.150; -157.000;  -19.000
215.480;  -78.300; -684.000; -505.000
215.625;  -18.975; -175.000;  -19.000
215.770;  -74.100; -757.000; -662.000
215.915;  -18.575;   -5.000;  -97.000
216.060;  -18.825; -113.000;  -21.000
216.205; -101.875; -731.000; -779.000
216.349;  -70.825; -470.000; -533.000
216.494; -127.325; -939.000; -867.000
216.639; -108.625; -823.000; -888.000
216.784;  -78.400; -577.000; -525.000
216.929;   58.375;  392.000;  281.000
217.073;  -13.625; -244.000;  -31.000
217.218;    6.525;   78.000;  -47.000
217.363;  -77.825; -656.000; -618.000
217.507;  -82.075; -623.000; -588.000
217.652; -126.300; -845.000; -874.000
217.797;  -93.925; -708.000; -659.000
217.942; -105.725; -856.000; -720.000
218.086;   63.450;  608.000;  539.000
218.231;  -23.800; -174.000;  -26.000
218.376;  -41.800; -337.000; -229.000
218.520;    4.100;  -41.000;   96.000
218.665;  -24.625; -338.000; -204.000
218.810;  -45.200; -275.000; -233.000
218.954;    7.475;  201.000;   35.000
219.099; -114.675; -713.000; -963.000
219.243;  -74.175; -589.000; -554.000
219.388;  -35.125; -264.000; -136.000
219.532;  -11.075; -116.000; -116.000
219.677;  -83.600; -564.000; -521.000
219.822;    9.825;   33.000;   89.000
219.966;   12.125;   17.000;  -99.000
220.111;  -36.875; -328.000;  -40.000
220.255;  -90.850; -797.000; -750.000
220.400;  -26.850; -180.000; -146.000
220.544;  -72.200; -516.000; -450.000
220.689;  -53.625; -422.000; -451.000
220.833;  -38.525; -123.000;  -58.000
220.978;  -48.625; -393.000; -563.000
221.122;   25.550;  319.000;  307.000
221.267; -114.475; -906.000; -837.000
221.411;  -63.025; -478.000; -394.000
221.555;   -3.550; -104.000;  -23.000
221.700;  -51.950; -329.000; -222.000
221.844;   33.150;  255.000;  272.000
221.989;  -46.500; -328.000; -311.000
222.133;  -37.350; -289.000; -307.000
222.277;   -1.350;    5.000;   78.000
222.422;    2.700;  227.000;  113.000
222.566;  -37.150; -381.000; -214.000
222.711;  -71.375; -414.000; -479.000
222.855;  -81.725; -643.000; -586.000
222.999;  -91.925; -642.000; -717.000
223.144;  -35.400; -195.000; -194.000
223.288;   57.650;  423.000;  251.000
223.432;   17.425;  184.000;  230.000
223.576;    6.550;  152.000;  -21.000
223.721;   40.475;  364.000;  273.000
223.865;  -60.850; -472.000; -475.000
224.009;  205.675; 1673.000; 1631.000
224.153;  -72.450; -660.000; -671.000
224.298;  -73.075; -531.000; -489.000
224.442;  -12.425;  -74.000;  -33.000
224.586;   -2.400; -169.000; -106.000
224.730;  -94.775; -858.000; -670.000
224.875; -101.525; -739.000; -688.000
225.019;    5.750;  102.000;  188.000
225.163;   42.650;  208.000;  341.000
225.307;   25.125;   97.000;  -91.000
225.451;   48.500;  360.000;  481.000
225.595;   21.575;  264.000;  176.000
225.739;  -26.900; -170.000;  -94.000
225.884;   -2.050;   86.000;    5.000
226.028;  -95.575; -760.000; -626.000
226.172;  -34.800; -260.000; -273.000
226.316; -118.425; -941.000; -902.000
226.460;  -60.850; -645.000; -493.000
226.604;  -60.800; -406.000; -400.000
226.748; -106.525; -836.000; -733.000
226.892;  -20.625; -227.000; -181.000
227.036;  -45.350; -537.000; -447.000
227.180;  -60.175; -551.000; -375.000
227.324;  -66.100; -561.000; -580.000
227.468; -104.725; -819.000; -717.000
227.612;   11.875;  242.000;  -28.000
227.756;  -91.950; -845.000; -698.000
227.900;   45.975;  342.000;  441.000
228.044;  -57.300; -509.000; -290.000
228.188;   54.675;  448.000;  568.000
228.332;  -76.375; -546.000; -472.000
228.476;  -34.825; -223.000; -149.000
228.620;  -20.450; -210.000; -150.000
228.764;   68.300;  431.000;  349.000
228.908;  -25.025; -155.000;   30.000
229.052;  -70.025; -615.000; -528.000
229.195;  -21.600; -172.000;   13.000
229.339;  -39.025; -235.000; -305.000
229.483;  -19.375;    5.000; -162.000
229.627;   -4.450; -156.000;  139.000
229.771;  -45.750; -218.000; -294.000
229.915;   12.925;  230.000;   79.000
230.059;  -85.375; -648.000; -663.000
230.202;  -26.775; -370.000; -317.000
230.346;  -13.550; -107.000;  107.000
230.490;  -55.500; -489.000; -521.000
230.634; -103.625; -736.000; -553.000
230.777;   75.875;  478.000;  509.000
230.921;  -55.700; -450.000; -359.000
231.065;  -45.725; -246.000; -286.000
231.209;   33.225;  261.000;  265.000
231.352;   21.450;   54.000;   40.000
231.496;   14.350;  568.000;  188.000
231.640;  -80.400; -693.000; -621.000
231.783;   54.725;  546.000;  525.000
231.927;  -46.750; -294.000; -365.000
232.071; -127.350; -962.000; -736.000
232.214; -104.850; -980.000; -764.000
232.358; -101.100; -683.000; -599.000
232.502;    6.475;  -19.000;    7.000
232.645; -131.450;-1090.000; -927.000
232.789;  -27.375; -257.000; -218.000
232.933;  -50.725; -407.000; -224.000
233.076; -127.675;-1038.000; -897.000
233.220; -103.225; -752.000; -777.000
233.363;  -66.950; -669.000; -477.000
233.507;   51.125;  371.000;  129.000
233.650;  -95.200; -764.000; -834.000
233.794;   29.250;  438.000;  461.000
233.938;  -57.750; -530.000; -362.000
234.081;  -27.100;  -93.000;   31.000
234.225;  -66.525; -631.000; -539.000
234.368; -102.800; -773.000; -723.000
234.512;  -36.825; -385.000; -299.000
234.655;  -91.175; -582.000; -555.000
234.798;  -62.150; -493.000; -466.000
234.942; -124.225; -884.000;-1002.000
235.085;  -65.925; -651.000; -443.000
235.229;  -72.750; -405.000; -410.000
235.372;  -49.750; -247.000; -191.000
235.516;  -64.250; -397.000; -321.000
235.659;   19.700;   92.000;  121.000
235.802;   -3.450;  -38.000;  -22.000
235.946;   35.200;  335.000;  215.000
236.089;   15.350;  126.000;  250.000
236.233;   48.800;  275.000;  298.000
236.376;  -49.500; -235.000; -378.000
236.519;  -37.850; -297.000; -319.000
236.663;  -18.200; -215.000; -117.000
236.806; -127.400;-1029.000; -999.000
236.949;   56.850;  543.000;  431.000
237.092;   64.850;  412.000;  391.000
237.236;  -84.900; -589.000; -502.000
237.379;   71.550;  352.000;  428.000
237.522; -117.350; -879.000; -768.000
237.666;  -24.350; -271.000;   18.000
237.809; -116.550; -851.000; -823.000
237.952;   28.975;  469.000;  271.000
238.095;  -62.750; -447.000; -442.000
238.238;   71.475;  688.000;  700.000
238.382;    3.700;  166.000;  103.000
238.525;  -68.100; -598.000; -511.000
238.668; -134.825;-1060.000; -985.000
238.811;  -75.325; -638.000; -643.000
238.954;  -59.950; -483.000; -334.000
239.097;   80.075;  617.000;  664.000
239.241;   18.500;  394.000;  326.000
239.384;  -42.725; -254.000; -214.000
239.527;  -60.750; -424.000; -224.000
239.670; -136.775; -994.000;-1091.000
239.813; -111.600; -696.000; -658.000
239.956;   65.975;  579.000;  473.000
240.099; -115.700; -778.000; -725.000
240.242;   48.225;  428.000;  432.000
240.385;   38.450;  466.000;  450.000
240.528;  -59.025; -706.000; -473.000
240.671;   10.200;  189.000;  134.000
240.814;  -38.325; -441.000; -158.000
240.957; -102.500; -767.000; -578.000
241.100;  -93.400; -779.000; -755.000
241.243; -138.650;-1234.000; -893.000
241.386;  -63.950; -508.000; -379.000
241.529;  -91.025; -735.000; -547.000
241.672;  -59.775; -566.000; -495.000
241.815; -128.200; -832.000; -808.000
241.958;  -27.150; -125.000; -182.000
242.101;  -88.300; -545.000; -390.000
242.244;  -35.425; -270.000; -325.000
242.387;  -32.925; -304.000; -246.000
242.530;   62.150;  470.000;  134.000
242.673;  -47.325; -381.000; -309.000
242.815; -115.950; -925.000; -899.000
242.958;  -69.275; -482.000; -381.000
243.101;   10.600;  132.000;  187.000
243.244;  -91.875; -564.000; -521.000
243.387;  -54.950; -313.000; -316.000
243.530; -100.475; -657.000; -674.000
243.672;    3.850;   43.000;  -92.000
243.815;  -53.725; -355.000; -283.000
243.958;    8.700;   98.000;  -26.000
244.101;  -12.775;   59.000;  -16.000
244.243;   -9.675;  -47.000;  101.000
244.386; -106.575; -761.000; -630.000
244.529;  -22.175; -132.000; -139.000
244.672; -168.575;-1154.000; -951.000
244.814;  -95.700; -621.000; -794.000
244.957;  -64.400; -380.000; -304.000
245.100;  -82.650; -489.000; -489.000
245.242;  -55.375; -387.000; -374.000
245.385;   -4.150;  -59.000;  -39.000
245.528; -124.325; -871.000; -705.000
245.670;   81.325;  612.000;  634.000
245.813;  -84.750; -599.000; -547.000
245.956;  -21.500; -324.000; -275.000
246.098;  -82.025; -508.000; -650.000
246.241;   -3.050;  194.000;   48.000
246.383;  -28.825; -119.000;  -73.000
246.526;  -70.600; -454.000; -525.000
246.669; -117.225; -889.000; -780.000
246.811;    7.550;  172.000;   -1.000
246.954;  -63.225; -512.000; -426.000
247.096;  -23.000;  -84.000;   -6.000
247.239;  -66.125; -482.000; -445.000
247.381;  -70.275; -647.000; -488.000
247.524;   82.575;  645.000;  679.000
247.666;  -10.975;   58.000;   11.000
247.809; -114.250; -887.000; -691.000
247.951;   -7.000;  -75.000;  138.000
248.094;   31.375;  432.000;  308.000
248.236; -155.300;-1262.000;-1238.000
248.378;   16.375; -356.000;  -81.000
248.521;  -19.825; -334.000; -337.000
248.663;  -39.075; -236.000; -267.000
248.806;  -29.025; -300.000; -266.000
248.948;  -91.100; -886.000; -763.000
249.090;  -55.600; -428.000; -398.000
249.233;  -53.450; -344.000; -381.000
249.375;  -60.325; -474.000; -451.000
249.518;  -32.275;  -83.000; -133.000
249.660;    6.850; -103.000;    3.000
249.802; -169.225;-1303.000;-1189.000
249.945;  -66.250; -612.000; -540.000
250.087; -112.625; -834.000; -768.000
250.229;  -46.400; -362.000; -480.000
250.371;  -73.525; -494.000; -439.000
250.514;  -63.425; -310.000; -244.000
250.656;  -29.575;   69.000;  102.000
250.798; -105.875; -849.000; -800.000
250.940;  -64.725; -322.000; -322.000
251.083;  -31.600; -335.000; -111.000
251.225;   52.400;  338.000;  310.000
251.367;  -39.925; -274.000; -373.000
251.509;  -26.525; -265.000; -210.000
251.651;  -84.075; -731.000; -671.000
251.794;   33.575;  538.000;  632.000
251.936; -117.325; -821.000; -747.000
252.078;  -71.775; -540.000; -461.000
252.220;  -75.350; -645.000; -477.000
252.362;   78.475;  344.000;  462.000
252.504;  -71.050; -677.000; -584.000
252.646; -115.775; -875.000; -722.000
252.788;   -5.775;   14.000; -128.000
252.931;  -26.850; -257.000; -253.000
253.073;  -41.100; -376.000; -317.000
253.215;  -22.475;  141.000;  122.000
253.357;  -22.450;   82.000; -153.000
253.499;  -48.625; -374.000; -234.000
253.641;  -76.275; -749.000; -594.000
253.783;  -88.625; -609.000; -527.000
253.925; -102.375; -586.000; -591.000
254.067;  -96.900; -744.000; -667.000
254.209;  -36.800; -391.000; -259.000
254.351; -138.275; -865.000; -883.000
254.493;  -54.875; -441.000; -417.000
254.635; -140.775; -936.000; -818.000
254.777;  -96.100; -752.000; -687.000
254.918;  -67.000; -512.000; -430.000
255.060;  -54.825; -551.000; -395.000
255.202;  -58.200; -473.000; -261.000
255.344;  -81.500; -658.000; -455.000
255.486;  -68.150; -471.000; -406.000
255.628; -107.150; -780.000; -781.000
255.770; -107.125; -676.000; -536.000
255.912;  -64.975; -559.000; -468.000
256.053;  -99.700; -730.000; -508.000
256.195;  148.350; 1008.000;  903.000
256.337; -104.500; -861.000; -595.000
256.479;   64.875;  532.000;  416.000
256.621;  -48.525; -394.000; -212.000
256.762;  -90.225; -789.000; -742.000
256.904;   46.225;  485.000;  487.000
257.046;  -44.375; -381.000; -271.000
257.188;  -44.075; -351.000; -264.000
257.329;  -75.750; -525.000; -464.000
257.471; -116.250; -939.000; -807.000
257.613;  -70.150; -584.000; -498.000
257.755; -151.925;-1073.000; -982.000
257.896;   34.250;  286.000;  392.000
258.038;  -74.625; -403.000; -352.000
258.180;  -51.675; -354.000; -279.000
258.321;  -82.300; -581.000; -457.000
258.463;   -8.475;  -71.000;  133.000
258.605;  -94.725; -562.000; -570.000
258.746; -102.725; -886.000; -772.000
258.888; -139.325;-1026.000;-1020.000
259.029;    7.750;  121.000;   -8.000
259.171;  -88.900; -614.000; -550.000
259.313;   -2.700;  -49.000;  -47.000
259.454;  -64.825; -536.000; -414.000
259.596;  -46.550; -483.000; -390.000
259.737;  -74.225; -590.000; -474.000
259.879;   30.600;  217.000;  311.000
260.020;   71.150;  901.000;  636.000
260.162;  -30.175; -146.000; -253.000
260.303; -107.100; -768.000; -687.000
260.445;  -81.050; -609.000; -613.000
260.586;    9.175;  392.000;  157.000
260.728;  -34.700; -360.000; -248.000
260.869; -119.425; -350.000; -343.000
261.011;   66.075;  706.000;  537.000
261.152;  -52.125; -479.000; -319.000
261.293;  -85.175; -576.000; -595.000
261.435;  -36.850; -219.000; -184.000
261.576;  -45.825; -455.000; -325.000
261.718;   41.300;  420.000;  470.000
261.859; -132.100; -940.000; -949.000
262.000; -138.400; -951.000;-1016.000
262.142;  -40.600;  -52.000;  -60.000
262.283; -116.825; -808.000; -691.000
262.424; -102.950; -666.000; -625.000
262.566; -160.175;-1161.000; -983.000
262.707; -116.275; -840.000; -830.000
262.848; -138.975; -769.000; -726.000
262.990;  -50.950; -362.000; -345.000
263.131;   77.750;  650.000;  681.000
263.272;   -8.875;  -61.000;  -41.000
263.413;  -85.000; -589.000; -561.000
263.555;  -73.625; -669.000; -143.000
263.696;  -91.800; -550.000; -641.000
263.837;  -48.625; -449.000; -551.000
263.978;  -16.575;   -5.000;  -77.000
264.119;  -53.075; -283.000; -264.000
264.261; -115.525; -847.000; -630.000
264.402;  -13.325;   33.000;   40.000
264.543;  -79.725; -509.000; -524.000
264.684;  -12.075;   61.000;  -50.000
264.825;  -74.425; -816.000; -538.000
264.966;  -12.375;  -84.000;  -67.000
265.107; -109.525; -646.000; -670.000
265.248; -113.175; -825.000; -812.000
265.390;  -14.725;  152.000;   -9.000
265.531;  -30.375; -238.000; -107.000
265.672;  -95.075; -557.000; -630.000
265.813;   58.825;  563.000;  439.000
265.954; -156.825; -959.000; -940.000
266.095;  -17.050; -372.000; -322.000
266.236; -100.975; -686.000; -548.000
266.377;  -37.125; -243.000; -297.000
266.518;  -77.800; -619.000; -547.000
266.659;   23.950;  170.000;  268.000
266.800;   -6.425;   83.000;   85.000
266.941;  -70.900; -487.000; -478.000
267.082;   -2.250;  354.000;   99.000
267.223;  -43.650; -344.000; -273.000
267.364; -111.950; -892.000; -686.000
267.504;  -31.875;    3.000;  135.000
267.645;   -4.150;  160.000;   67.000
267.786;  -36.375; -147.000;  -86.000
267.927;  -72.700; -473.000; -379.000
268.068;  -39.275; -186.000;  -61.000
268.209;  -41.500; -175.000; -413.000
268.350;  -62.075; -388.000; -532.000
268.490;  -90.850; -648.000; -521.000
268.631;   48.675;  127.000;  225.000
268.772; -112.300; -874.000; -647.000
268.913;  -49.825; -328.000; -476.000
269.054;  -31.550; -117.000;   12.000
269.194;  -42.850; -418.000; -402.000
269.335; -157.900;-1137.000;-1074.000
269.476;  -24.175;   33.000;  -35.000
269.617;  -57.550; -347.000; -392.000
269.757;  -88.600; -713.000; -646.000
269.898; -113.750; -856.000; -613.000
270.039;  -67.925; -415.000; -405.000
270.180; -149.500; -952.000; -816.000
270.320;  -36.300; -190.000; -250.000
270.461;  -52.900; -277.000; -249.000
270.602;   -8.900; -186.000; -156.000
270.742; -115.000; -868.000; -943.000
270.883;  -65.800; -442.000; -390.000
271.023;  -67.275; -358.000; -357.000
271.164;  -73.850; -607.000; -528.000
271.305; -106.975; -666.000; -654.000
271.445;  -91.650; -722.000; -683.000
271.586;  -62.425; -462.000; -283.000
271.726;  -35.350; -397.000; -322.000
271.867;  -58.175; -594.000; -534.000
272.008;  158.650; -473.000; -285.000
272.148;  116.825;  462.000;  468.000
272.289;   14.125; -113.000; -181.000
272.429;   10.725;   19.000;  185.000
272.570;  -92.500; -633.000; -737.000
272.710; -105.200; -825.000; -775.000
272.851;  -34.025;  113.000; -130.000
272.991; -172.675;-1173.000;-1077.000
273.131;  -73.100; -419.000; -459.000
273.272; -104.600; -683.000; -723.000
273.412;   14.825; -143.000;  -31.000
273.553;  -52.625; -488.000; -507.000
273.693;  114.725;  913.000;  858.000
273.834;  -85.600; -894.000; -692.000
273.974;  -63.925; -664.000; -615.000
274.114;  -92.575; -772.000; -560.000
274.255;   79.375;  414.000;  373.000
274.395;    2.275; -180.000; -125.000
274.535;   31.350;  199.000;  350.000
274.676;   27.975;  225.000;   94.000
274.816;   -8.950;  110.000;   34.000
274.956;  -86.425; -624.000; -690.000
275.097;  -55.600;-1014.000; -922.000
275.237; -110.975; -913.000; -803.000
275.377; -102.125; -778.000; -689.000
275.517; -142.125; -878.000; -937.000
275.658;  -52.250; -590.000; -555.000
275.798;  -73.575; -606.000; -413.000
275.938;   11.225;  215.000;  323.000
276.078; -110.125; -626.000; -395.000
276.218;    4.625;   99.000;  104.000
276.359; -134.225;-1026.000;-1024.000
276.499;  -66.325; -605.000; -446.000
276.639;  -35.025; -305.000; -151.000
276.779;  -56.200; -475.000; -357.000
276.919;  -94.375; -783.000; -624.000
277.059;  -29.175; -261.000; -212.000
277.199;  -42.450; -357.000; -259.000
277.340;   48.000;  287.000;  175.000
277.480; -117.200; -840.000; -693.000
277.620;   31.450;  192.000;   16.000
277.760; -185.900;-1533.000;-1294.000
277.900;    3.650;  113.000;   33.000
278.040;    0.425;  137.000;  159.000
278.180;   29.500;  270.000;  170.000
278.320;  -18.825;   21.000;   56.000
278.460;  -68.925; -443.000; -469.000
278.600;  -90.725; -708.000; -598.000
278.740;   40.400;  448.000;  224.000
278.880;  -72.450; -768.000; -791.000
279.020;   -9.425; -194.000; -144.000
279.160;  -88.625; -672.000; -595.000
279.300; -115.825; -926.000; -873.000
279.440;  -95.600; -709.000; -622.000
279.579;  -18.575;-1014.000; -929.000
279.719;  -60.900; -410.000; -394.000
279.859;   67.800;   -4.000;   41.000
279.999;   20.250; -208.000;  101.000
280.139;  -28.325; -435.000; -387.000
280.279;  -68.700; -708.000; -745.000
280.419;   -3.800; -229.000; -147.000
280.559;  -39.575; -259.000; -180.000
280.698;  -85.775; -790.000; -639.000
280.838;  -97.900; -778.000; -800.000
280.978;  -93.375; -846.000; -790.000
281.118; -113.625; -811.000; -704.000
281.257;    6.875;   24.000;    6.000
281.397; -124.325;-1094.000; -960.000
281.537;  -90.525; -599.000; -712.000
281.677;  -23.225; -150.000; -101.000
281.816; -100.850; -700.000; -630.000
281.956;  -34.025; -193.000; -257.000
282.096;  -62.675; -539.000; -396.000
282.235; -106.875; -672.000; -638.000
282.375;  -15.600; -243.000;  -98.000
282.515; -100.125; -715.000; -707.000
282.654;   15.825;   29.000;  106.000
282.794;   25.275;  388.000;  244.000
282.934;  -59.325; -530.000; -491.000
283.073; -124.525;-1030.000; -857.000
283.213;  -56.200; -460.000; -467.000
283.353;  -43.150; -408.000; -349.000
283.492;  -26.525; -264.000; -296.000
283.632;  -40.700; -254.000; -168.000
283.771; -112.750; -859.000; -730.000
283.911;  -64.400; -369.000; -260.000
284.050; -103.725; -794.000; -748.000
284.190; -161.050;-1229.000;-1096.000
284.329; -128.150;-1055.000; -964.000
284.469;  -70.000; -516.000; -591.000
284.608;  -54.725; -559.000; -598.000
284.748;  -94.900; -614.000; -570.000
284.887;  -14.250;  -87.000;  -20.000
285.027; -125.650; -844.000; -892.000
285.166;  -18.025; -192.000; -249.000
285.306;   -9.175; -116.000;  -33.000
285.445;  -40.050; -229.000; -343.000
285.584; -100.700; -630.000; -494.000
285.724;  -44.425; -282.000; -322.000
285.863; -119.325; -857.000; -507.000
286.002;  -52.575; -366.000; -276.000
286.142; -113.150; -715.000; -622.000
286.281;  -72.550; -525.000; -493.000
286.420;  -74.175; -554.000; -417.000
286.560;   84.225;  653.000;  623.000
286.699; -128.600; -958.000; -912.000
286.838;  -97.525; -590.000; -591.000
286.978;  -91.625; -533.000; -537.000
287.117; -126.050;-1085.000; -950.000
287.256;  -37.700; -228.000; -211.000
287.395;  -65.075; -197.000; -378.000
287.535;  -61.175; -370.000; -298.000
287.674;  -77.250; -509.000; -484.000
287.813;   47.850;  661.000;  533.000
287.952; -124.825;-1010.000; -871.000
288.091; -149.975;-1049.000; -915.000
288.231;   16.100;   13.000;   15.000
288.370; -171.925;-1217.000;-1200.000
288.509;  -86.025; -728.000; -645.000
288.648;  -92.675; -770.000; -548.000
288.787;  -22.175; -243.000;  -87.000
288.926;  -67.675; -454.000; -475.000
289.065;  117.700;  859.000;  672.000
289.204;  -55.225; -377.000; -217.000
289.344;  -96.700; -791.000; -690.000
289.483;   28.700;  416.000;  304.000
289.622;  -33.350; -291.000; -149.000
289.761;  -34.550; -309.000; -166.000
289.900; -102.675; -785.000; -626.000
290.039;  -29.000;  -12.000;  -95.000
290.178;  -45.625; -274.000; -180.000
290.317;  -95.775; -618.000; -479.000
290.456;  -77.875; -463.000; -451.000
290.595; -125.875; -961.000; -833.000
290.734; -153.125; -904.000; -891.000
290.873;  -74.575; -456.000; -420.000
291.011; -108.625; -833.000; -843.000
291.150; -102.575; -770.000; -682.000
291.289;  -29.975; -343.000; -110.000
291.428;  -97.650; -599.000; -480.000
291.567;  -58.775; -370.000; -442.000
291.706;  -18.275;  109.000;  154.000
291.845;  -96.875; -597.000; -505.000
291.984; -163.800;-1234.000;-1061.000
292.122;   70.200;  602.000;  582.000
292.261;   41.500;  620.000;  463.000
292.400;   -2.250; -144.000;  211.000
292.539; -130.900; -959.000; -813.000
292.678;  -40.900; -325.000; -300.000
292.816; -158.200;-1136.000; -965.000
292.955;  -85.300; -844.000; -684.000
293.094;  -38.500; -173.000; -337.000
293.233;  -53.200; -556.000; -400.000
293.371;  -45.450; -225.000;  -84.000
293.510; -104.600; -866.000; -780.000
293.649; -134.250; -959.000; -924.000
293.787;  -67.425;-1083.000;-1012.000
293.926;    1.350; -113.000;  -32.000
294.065;  -46.225; -379.000; -290.000
294.203;   42.750;  298.000;  406.000
294.342;    7.875;   74.000;  156.000
294.481; 5197.425;51180.000; -836.000
294.619;  -40.175; -425.000; -582.000
294.758; -144.550;-1230.000;-1137.000
294.896;   40.400; -125.000;    5.000
295.035; -128.425;-1040.000;-1006.000
295.174; -130.000;-1082.000; -954.000
295.312;  -39.125; -323.000; -203.000
295.451;  -14.825; -307.000; -428.000
295.589;  -71.000; -389.000; -518.000
295.728;   19.125; -292.000; -165.000
295.866;  -18.900;  -36.000;  -51.000
296.005;  -67.725; -584.000; -341.000
296.143;  -70.800; -558.000; -596.000
296.282; -104.925; -957.000; -881.000
296.420;  -96.700; -657.000; -557.000
296.559;  -94.925; -892.000; -633.000
296.697;   11.300; -847.000; -665.000
296.835;   25.450;-1141.000;-1002.000
296.974;   40.400;  -23.000;   39.000
297.112;  -16.250; -443.000; -504.000
297.251;  -76.775; -815.000; -755.000
297.389;   65.950; -576.000; -438.000
297.527;   21.550; -145.000;  -83.000
297.666;  -55.450; -486.000; -438.000
297.804;  -61.425; -404.000; -264.000
297.942;  -14.800; -136.000; -161.000
298.081;  -20.350; -183.000;   63.000
298.219;   49.625;  -17.000;  -19.000
298.357;   32.275; -144.000;  -71.000
298.495;   10.675; -810.000; -812.000
298.634;   55.100;  245.000;  219.000
298.772;   47.675; -220.000; -338.000
298.910;  -33.325; -309.000; -182.000
299.048;  -26.400; -130.000; -153.000
299.187;  -43.475; -350.000; -250.000
299.325;   24.850;   52.000;  122.000
299.463;   37.875; -389.000; -299.000
299.601;   83.400; -327.000; -271.000
299.739; -116.975; -908.000; -883.000
299.877;  -94.725; -791.000; -703.000
300.016;  -49.375;-1095.000; -935.000
300.154;  137.025;  -19.000; -161.000
300.292;   26.325; -428.000; -348.000
300.430;   16.825; -408.000; -291.000
300.568; -111.400; -940.000; -874.000
300.706;  -42.800; -366.000; -469.000
300.844;  -76.625;-1108.000; -979.000
300.982;  104.125;  246.000;  282.000
301.120; -124.200; -965.000; -866.000
301.258;  -70.675; -812.000; -705.000
301.396;   25.175;  104.000;  -41.000
301.534;   63.400; -218.000; -293.000
301.672;  -32.775; -664.000; -521.000
301.810;    5.375; -613.000; -545.000
301.948;   91.000;   53.000;  149.000
302.086;  578.425; -250.000;  -32.000
302.224;  836.400; -610.000; -585.000
302.362;   22.300; -558.000; -622.000
302.500;  -40.775; -923.000; -893.000
302.638;   99.100;  128.000;  245.000
302.776;    0.275; -352.000; -408.000
302.913;   37.225;  447.000;  236.000
303.051;  -13.225;  -86.000;  -23.000
303.189;   37.175;   90.000;  118.000
303.327;  -33.700; -341.000; -256.000
303.465;  -78.975; -832.000; -588.000
303.603; -101.775; -805.000; -604.000
303.740;   79.850;  417.000;  241.000
303.878;   14.000; -800.000; -759.000
304.016;  -84.900; -915.000; -790.000
304.154; -125.550;-1123.000;-1152.000
304.291;  -49.025; -505.000; -554.000
304.429;    8.050;  102.000;   74.000
304.567; -129.025; -908.000; -893.000
304.705;  -60.100; -408.000; -515.000
304.842;   87.025; -616.000; -540.000
304.980;   43.800;  215.000;   35.000
305.118;   25.525; -367.000; -365.000
305.255;  -78.775; -945.000; -927.000
305.393;   49.375;  178.000;  239.000
305.531; -110.900;-1173.000; -956.000
305.668;  -66.625; -663.000; -582.000
305.806;  100.925; -358.000; -439.000
305.943;   81.175; -629.000; -637.000
306.081;   43.025; -378.000; -267.000
306.219;  -98.875; -863.000; -748.000
306.356;   10.775;  158.000;   27.000
306.494;   88.775;  981.000;  761.000
306.631;  -23.050;  -11.000;  -55.000
306.769;    7.525; -613.000; -485.000
306.906;  -25.075; -284.000; -258.000
307.044;  -76.050; -473.000; -488.000
307.181;  -65.450; -410.000; -332.000
307.319;    8.800;  112.000;   87.000
307.456; -168.700;-1191.000;-1153.000
307.594; -111.400; -980.000; -727.000
307.731;  -10.225; -371.000; -164.000
307.868;   -7.750;  -15.000;   20.000
308.006; -135.375; -961.000; -847.000
308.143;  -77.100; -618.000; -330.000
308.281;  148.750;  -37.000; -254.000
308.418;  -17.000; -748.000; -640.000
308.555;  -69.875; -400.000; -250.000
308.693;  -83.775; -577.000; -573.000
308.830; -111.200; -712.000; -657.000
308.967;  -25.200; -215.000;  -95.000
309.105;  -47.050; -507.000; -396.000
309.242;   34.325; -468.000; -367.000
309.379;  301.300; -577.000; -655.000
309.517;  -71.925; -936.000; -948.000
309.654; -122.725; -910.000; -734.000
309.791;  -76.625; -662.000; -580.000
309.928; -133.800; -977.000; -914.000
310.065;  166.675;  819.000;  697.000
310.203;   -5.075; -825.000; -850.000
310.340;  -16.650; -465.000; -321.000
310.477;  -77.100; -412.000; -516.000
310.614;  -67.025; -383.000; -473.000
310.751;  -84.025; -427.000; -518.000
310.889;  -32.925;    1.000;   11.000
311.026; -146.875;-1161.000; -939.000
311.163;  -59.650; -386.000; -380.000
311.300;  -87.000; -512.000; -479.000
311.437;  -89.850; -658.000; -619.000
311.574; -149.725;-1226.000; -985.000
311.711;  -64.800; -595.000; -433.000
311.848;  -54.650; -380.000; -388.000
311.985;   -5.700;  270.000;   93.000
312.122; -108.925; -932.000; -762.000
312.259; -118.650; -941.000; -994.000
312.396;  -78.100; -508.000; -551.000
312.533; -105.000; -812.000; -790.000
312.670; -128.400;-1070.000; -898.000
312.807;  -39.200; -352.000; -367.000
312.944;  -91.075; -513.000; -611.000
313.081;  -37.925; -150.000; -415.000
313.218; -101.900;-1111.000; -867.000
313.355;   -8.475; -531.000; -449.000
313.492;   -5.475; -455.000; -292.000
313.629;  117.975;  815.000;  735.000
313.766; -166.575;-1176.000;-1008.000
313.902;  -19.500; -186.000;   21.000
314.039;  -78.250; -372.000; -289.000
314.176;   11.600;  286.000;  192.000
314.313;  -89.925; -569.000; -473.000
314.450;  -90.000; -788.000; -684.000
314.587;  -66.375; -468.000; -480.000
314.723;    6.325;  -78.000;  130.000
314.860;   20.150;  318.000;  332.000
314.997;   35.250;  223.000;  142.000
315.134;  -37.475; -385.000; -368.000
315.270;  -41.275; -480.000; -496.000
315.407; -115.700;-1094.000; -967.000
315.544;  -44.600; -657.000; -538.000
315.681;  -74.550; -681.000; -565.000
315.817;   11.575; -133.000; -176.000
315.954;   -3.075; -613.000; -392.000
316.091; -139.100;-1045.000;-1023.000
316.227;  -28.750;  -71.000; -179.000
316.364;   -1.925;   23.000;    6.000
316.500;  -64.050; -113.000; -300.000
316.637;  -44.700; -181.000; -302.000
316.774;  -95.100; -625.000; -358.000
316.910;  -92.700; -598.000; -629.000
317.047;  -86.375; -487.000; -351.000
317.183;  -58.450; -435.000; -566.000
317.320;  -14.725; -367.000; -321.000
317.456;  -60.375; -733.000; -805.000
317.593;  -91.875; -598.000; -641.000
317.729;    2.275;  168.000;  -67.000
317.866; -197.600;-1434.000;-1285.000
318.002;  -93.900; -708.000; -948.000
318.139; -114.550; -883.000; -867.000
318.275; -112.100;-1003.000; -738.000
318.412;  -73.850; -517.000; -336.000
318.548;  -43.300; -751.000; -720.000
318.685; -109.675; -985.000; -888.000
318.821;  -94.550; -762.000; -735.000
318.957;  -19.575;   34.000;  -23.000
319.094;   21.875;  297.000;  154.000
319.230;  -68.775; -756.000; -742.000
319.367;   96.525; -471.000; -520.000
319.503;   30.250; -538.000; -436.000
319.639;  -91.225; -877.000; -793.000
319.775;  -62.525; -750.000; -685.000
319.912;  -65.175; -424.000; -519.000
320.048;  -96.025;-1184.000;-1184.000
320.184;   78.075;   59.000;   70.000
320.321;  -61.675; -497.000; -467.000
320.457;   62.125;  475.000;  662.000
320.593;  -64.725; -375.000; -382.000
320.729; -106.925; -732.000; -734.000
320.866;  -80.675; -577.000; -635.000
321.002;  -89.750; -759.000; -809.000
321.138;  -23.975; -135.000; -211.000
321.274;   55.225; -148.000; -115.000
321.410;  -30.000; -585.000; -353.000
321.546;  -43.975;-1011.000; -911.000
321.683;   49.275;  400.000;  185.000
321.819;    3.775;  -48.000; -117.000
321.955; -115.825; -743.000; -722.000
322.091;  -42.675; -585.000; -540.000
322.227;  -40.225; -382.000; -202.000
322.363;  -22.125; -320.000; -215.000
322.499;  -46.925; -343.000; -331.000
322.635;  134.875;  636.000;  443.000
322.771;   16.250; -139.000;   12.000
322.907;   74.450;  129.000;  327.000
323.043;  -34.350; -115.000; -206.000
323.179;  -41.325; -394.000; -363.000
323.315;   -5.850; -401.000; -371.000
323.451;   72.625; -328.000; -236.000
323.587;   59.650;  -60.000;  -77.000
323.723;   10.475; -682.000; -601.000
323.859;  -21.750; -258.000;  -76.000
323.995;  -41.300; -467.000; -409.000
324.131; -123.350; -967.000; -892.000
324.267;  -43.525; -254.000; -276.000
324.402; -123.550; -960.000; -983.000
324.538;  -24.375; -279.000; -104.000
324.674;   13.300;  164.000;   77.000
324.810;  117.400;  226.000;  308.000
324.946;   -4.850; -810.000; -658.000
325.082;  -72.525; -568.000; -475.000
325.217;  -15.350;  -62.000;   16.000
325.353; -104.125; -764.000; -659.000
325.489; -103.000; -540.000; -506.000
325.625;  -59.675; -579.000; -525.000
325.760;   56.675;  517.000;  376.000
325.896;  -27.000; -515.000; -702.000
326.032;  -55.825; -403.000; -352.000
326.168;  -71.050; -462.000; -369.000
326.303;  -72.500; -352.000; -461.000
326.439;  -16.850; -336.000; -276.000
326.575;   -8.475; -190.000;  -29.000
326.710;  -17.450; -156.000;  -30.000
326.846;  -24.625;  146.000;  103.000
326.982;  -88.725; -530.000; -548.000
327.117;  -78.975; -481.000; -442.000
327.253;  -89.800; -745.000; -742.000
327.388; -145.250;-1137.000;-1153.000
327.524;  -51.550; -811.000; -578.000
327.659;  -22.425;  -58.000;  -22.000
327.795;  -20.425;   69.000;   45.000
327.931;  -84.325; -723.000; -499.000
328.066;  -46.500; -417.000; -276.000
328.202;  -31.400;   12.000; -129.000
328.337;   95.250;  957.000;  713.000
328.473;   22.375;  -12.000;  -74.000
328.608;  -23.700; -256.000; -267.000
328.743;  -90.450; -799.000; -664.000
328.879;    9.525;  214.000;  114.000
329.014;  -35.700; -102.000; -122.000
329.150;  -79.600; -358.000; -483.000
329.285;  -78.400; -465.000; -466.000
329.421;  -50.850; -548.000; -246.000
329.556;  -33.675;  -36.000;   85.000
329.691; -105.925; -633.000; -615.000
329.827;  -89.325; -626.000; -480.000
329.962;  -40.175;  131.000; -301.000
330.097;  -96.575; -673.000; -585.000
330.233;  -48.100; -410.000; -223.000
330.368; -130.125; -839.000; -628.000
330.503;  -18.300;    3.000;   98.000
330.638;   -9.525;  -93.000; -125.000
330.774;  -71.500; -609.000; -530.000
330.909;  -47.975; -434.000; -244.000
331.044;  -95.200; -714.000; -708.000
331.179; -188.675;-1217.000;-1109.000
331.315;   -5.700;   77.000;   20.000
331.450;    5.875;  157.000;  285.000
331.585;  -81.575; -805.000; -706.000
331.720;  -95.050; -510.000; -460.000
331.855;  -11.025;  -35.000; -102.000
331.990;  249.600;   62.000;  138.000
332.126;  138.025; -110.000;   71.000
332.261;  -21.375; -379.000; -265.000
332.396;   -4.675; -135.000; -242.000
332.531;  -95.175;-1074.000;-1031.000
332.666;   49.900; -519.000; -363.000
332.801; -100.625; -726.000; -807.000
332.936;  -23.325; -192.000; -122.000
333.071; -153.650; -870.000; -817.000
333.206;    4.150;  307.000;  379.000
333.341;   12.000;  344.000;  418.000
333.476;  -93.750; -627.000; -623.000
333.611;  -39.475; -251.000; -173.000
333.746;  -59.100; -381.000; -464.000
333.881; -129.575; -973.000; -935.000
334.016; -128.250; -936.000; -917.000
334.151; -128.725; -746.000; -702.000
334.286;   20.250;  152.000;  186.000
334.421;  -21.975; -125.000; -178.000
334.556;  -90.075; -611.000; -567.000
334.690;  -81.000; -631.000; -577.000
334.825;   54.075;  381.000;   83.000
334.960;  -68.025; -285.000; -413.000
335.095;   -4.250;  135.000;  -91.000
335.230;  -89.700; -722.000; -738.000
335.365; -127.600;-1084.000; -990.000
335.499; -138.200;-1108.000;-1037.000
335.634;   20.650;    9.000;  534.000
335.769; -114.850; -755.000; -720.000
335.904;  -71.225; -603.000; -561.000
336.038;  -65.900; -735.000; -657.000
336.173; -112.050;-1206.000;-1194.000
336.308;   -3.075; -116.000; -189.000
336.443;   -6.375; -544.000; -634.000
336.577;  -71.525; -936.000; -787.000
336.712;   48.975;   -4.000;  -12.000
336.847;  -48.425; -724.000; -607.000
336.981;   46.150; -272.000; -208.000
337.116;  250.575;  615.000;  501.000
337.250;  117.650; -434.000; -421.000
337.385;  273.825; -297.000; -208.000
337.520;   90.175; -632.000; -603.000
337.654;  -40.300; -215.000; -126.000
337.789; -124.375; -989.000; -933.000
337.923;  -49.250; -104.000; -205.000
338.058;  -85.175; -673.000; -738.000
338.192;  -44.225; -611.000; -488.000
338.327;  -12.150;  -18.000; -155.000
338.461;  -80.700; -299.000; -469.000
338.596;  -94.675; -780.000; -638.000
338.730; -111.900; -767.000; -803.000
338.865;  106.250;  -46.000; -140.000
338.999;  -46.850; -846.000; -702.000
339.134;  -34.725; -634.000; -536.000
339.268;    9.300; -741.000; -603.000
339.403;  369.500; -740.000; -775.000
339.537;  126.325; -894.000; -820.000
339.671; -106.075; -829.000; -813.000
339.806;  -57.150; -556.000; -512.000
339.940;   10.200; -261.000; -235.000
340.074;  -97.250; -685.000; -510.000
340.209;  -49.950; -351.000; -230.000
340.343;  -85.475; -517.000; -573.000
340.477;  137.225;  998.000; 1036.000
340.612;  -43.600;-1033.000; -900.000
340.746;  146.425; -199.000; -243.000
340.880;  -68.975; -924.000; -785.000
341.014;  -15.450;  -45.000; -154.000
341.149; -123.450; -756.000; -718.000
341.283; -125.825; -839.000; -754.000
341.417; -110.625;-1124.000; -938.000
341.551;  106.525; -768.000; -708.000
341.685;  -57.350; -633.000; -611.000
341.820;  -63.875; -562.000; -493.000
341.954;  -57.525; -218.000; -349.000
342.088; -156.750;-1102.000;-1019.000
342.222;   40.450;  565.000;  618.000
342.356;  -56.175; -395.000; -335.000
342.490; -102.400; -880.000; -841.000
342.624;  -41.550; -339.000; -242.000
342.758;  -13.600; -364.000; -312.000
342.892;  -70.750; -710.000; -585.000
343.026;  -37.975;  -58.000; -116.000
343.160;  -59.625; -426.000; -376.000
343.294;  -91.025; -474.000; -337.000
343.428;  -35.300; -488.000; -448.000
343.562;  -27.400; -172.000;  -23.000
343.696;  -27.275; -385.000; -314.000
343.830;  -32.500; -362.000; -356.000
343.964;    7.475; -231.000; -168.000
344.098;  823.375;  199.000;   70.000
344.232;  688.275; -266.000; -127.000
344.366;   70.525; -567.000; -453.000
344.500;   30.100; -665.000; -744.000
344.634;   23.675; -324.000; -164.000
344.768;  -25.925; -531.000; -341.000
344.902;   22.250;  278.000;  256.000
345.035;  -79.975; -556.000; -496.000
345.169; -135.825; -933.000; -656.000
345.303;  -37.775; -308.000; -482.000
345.437;  -83.000; -826.000; -717.000
345.571;  -81.425; -675.000; -594.000
345.704;  -74.475; -309.000; -532.000
345.838;  -17.575; -331.000; -284.000
345.972;  -49.725; -543.000; -495.000
346.106;  163.600; -179.000; -190.000
346.239;  413.025; -312.000; -243.000
346.373;    2.350; -343.000; -302.000
346.507; -146.075; -950.000; -962.000
346.640;  112.975;  -30.000;   13.000
346.774;  -62.100; -650.000; -797.000
346.908;  -25.500; -138.000;  -11.000
347.041;  -99.550; -646.000; -593.000
347.175;    9.400;  259.000;   27.000
347.309;  -93.350; -698.000; -628.000
347.442; -100.950; -883.000; -732.000
347.576;  236.450;  670.000;  668.000
347.709;  169.075; -123.000;  -52.000
347.843; -102.700; -933.000; -825.000
347.976;   23.325;  235.000;  294.000
348.110; -174.150;-1268.000;-1186.000
348.243;  -96.350; -679.000; -772.000
348.377;    5.325;  -26.000;   60.000
348.510;   50.425;  403.000;  540.000
348.644;  -45.250;  -37.000; -159.000
348.777;   -0.600;  180.000;  191.000
348.911;  -68.100; -142.000; -112.000
349.044;  147.300;  471.000;  448.000
349.178;  141.650;-1069.000;-1006.000
349.311;  101.150;  141.000;  255.000
349.444;    0.175; -927.000; -813.000
349.578;  -22.575; -347.000; -200.000
349.711; -102.750; -959.000; -862.000
349.845;  -10.850; -661.000; -591.000
349.978; -153.325;-1224.000;-1137.000
350.111;  -91.475; -546.000; -612.000
350.244;  -95.950; -596.000; -700.000
350.378;  -10.275; -392.000; -393.000
350.511;  -67.900; -393.000; -426.000
350.644; -110.650; -808.000; -806.000
350.778;    8.650;  168.000;  104.000
350.911;   -5.600;  134.000;  140.000
351.044;  -96.725; -685.000; -615.000
351.177;  -32.975; -321.000; -281.000
351.310;  -37.000;    3.000; -131.000
351.444;  -94.850; -888.000; -788.000
351.577;   90.700;  140.000;   90.000
351.710;   83.000;  593.000;  417.000
351.843;  -44.975; -165.000;  -77.000
351.976;   -7.075;  149.000;  -79.000
352.109;  -94.250; -621.000; -612.000
352.242;  -43.425; -464.000; -419.000
352.376;  -69.625; -580.000; -636.000
352.509;  133.750; -437.000; -356.000
352.642;   -2.350; -654.000; -604.000
352.775;   48.450; -141.000;  -98.000
352.908; -115.950; -933.000; -904.000
353.041;  -97.350; -814.000; -824.000
353.174;  -79.600; -551.000; -424.000
353.307;  -81.825; -753.000; -764.000
353.440;   41.925;  541.000;  453.000
353.573; -111.425; -957.000;-1008.000
353.706;  -51.775; -384.000; -558.000
353.839;  -22.725; -264.000; -220.000
353.971;  -93.975; -657.000; -512.000
354.104;  -91.450; -896.000; -835.000
354.237;  -49.900; -627.000; -662.000
354.370;  -90.800; -846.000; -879.000
354.503; -184.225;-1231.000;-1308.000
354.636;  -56.425; -529.000; -348.000
354.769; -130.975; -937.000; -860.000
354.902;   -9.650; -230.000; -139.000
355.034;  -35.550; -164.000; -220.000
355.167;  -29.925; -262.000; -162.000
355.300;  -91.750;-1061.000; -880.000
355.433; 1022.875;  -71.000;  -14.000
355.565; 1581.075; -402.000; -384.000
355.698;  417.650; -356.000; -296.000
355.831;   -8.750; -882.000; -801.000
355.964;   66.925; -285.000; -170.000
356.096; -106.050; -856.000; -843.000
356.229;   -3.350; -523.000; -530.000
356.362;  333.925; -373.000; -266.000
356.494;  614.700; -229.000; -162.000
356.627;  467.950;  269.000;  377.000
356.760;  684.325;  120.000;   53.000
356.892; 1008.500; -286.000; -601.000
357.025;  594.100;  403.000;  389.000
357.157;  557.225; -167.000; -179.000
357.290;  751.600; -856.000; -713.000
357.423;  203.225; -667.000; -556.000
357.555;   99.000; -217.000; -228.000
357.688;   94.425; -483.000; -364.000
357.820;  420.050; -870.000; -877.000
357.953; 3415.725; -563.000; -589.000
358.085;  728.875; -632.000; -612.000
358.218;  950.900;-1131.000; -932.000
358.350;  181.550;  -58.000;  312.000
358.483; -130.400;-1300.000;-1187.000
358.615;  -25.175;-1182.000;-1078.000
358.747;  -69.475;-1187.000;-1058.000
358.880;    9.975; -810.000; -744.000
359.012;  -11.750; -376.000; -202.000
359.145;  -58.175; -480.000; -511.000
359.277;   48.200; -962.000; -913.000
359.409; 2839.125;  536.000;  231.000
359.542;  751.500; -738.000; -688.000
359.674;   57.775;   46.000;   13.000
359.806;  -67.500; -565.000; -438.000
359.939;  -42.175; -617.000; -516.000
360.071;  -17.300; -583.000; -579.000
360.203;  -21.075; -411.000; -364.000
360.335;   46.275;  164.000;  -16.000
360.468;  164.700; -249.000; -307.000
360.600; 2323.925; -547.000; -454.000
360.732; 3020.100; -546.000; -423.000
360.864;  446.425;-1216.000;-1044.000
360.996;  242.075; -516.000; -554.000
361.129;   41.800; -389.000; -598.000
361.261;    8.200;  110.000; -113.000
361.393;  -40.925; -252.000; -214.000
361.525;    6.300;   94.000;  244.000
361.657;  -61.525; -821.000; -703.000
361.789;    0.100; -139.000; -155.000
361.921;  176.225; -642.000; -593.000
362.053;  211.175;  524.000;  541.000
362.185;   29.175;  288.000;   72.000
362.318;  -89.550; -709.000; -705.000
362.450;  108.925;  294.000;  444.000
362.582;   57.500; -913.000; -870.000
362.714;  -48.975; -353.000; -332.000
362.846;  -85.500; -606.000; -490.000
362.978; -148.025; -941.000; -811.000
363.109;   30.150; -161.000; -260.000
363.241;  389.700; -739.000; -749.000
363.373;  445.525; -649.000; -564.000
363.505;  699.350; -186.000;  -91.000
363.637;  170.800; -787.000; -601.000
363.769; -120.375;-1067.000;-1080.000
363.901;  -75.525; -596.000; -654.000
364.033; -137.350;-1103.000;-1062.000
364.165;  -10.550; -283.000; -283.000
364.296;   69.450; -316.000; -177.000
364.428;   72.975;-1344.000;-1220.000
364.560;  -74.175; -679.000; -661.000
364.692;  -69.900; -738.000; -835.000
364.824;  224.425; -588.000; -456.000
364.955;  437.375; -402.000; -564.000
365.087; 1046.575;-1097.000; -852.000
365.219;   45.600; -686.000; -816.000
365.351;  -64.000; -526.000; -572.000
365.482;   49.550;  300.000;  240.000
365.614;  -49.975; -402.000; -314.000
365.746; -102.350; -729.000; -752.000
365.877; -102.825; -706.000; -672.000
366.009;  271.150;  -35.000;  -62.000
366.141;  -79.300;-1249.000;-1134.000
366.272; -107.825; -803.000; -719.000
366.404; -122.300;-1005.000; -874.000
366.535;  -24.025; -139.000;  -12.000
366.667; -112.250; -644.000; -649.000
366.799;   24.350;  353.000;  203.000
366.930; -119.650; -862.000; -996.000
367.062;  133.050; -639.000; -613.000
367.193;  175.575; -872.000; -842.000
367.325;  -64.650; -580.000; -684.000
367.456;   28.475; -246.000;   31.000
367.588;  148.175; -371.000; -318.000
367.719;   35.450;  -44.000;  -45.000
367.851;  -29.575; -222.000; -241.000
367.982;  -71.825; -875.000; -732.000
368.113;   85.050; -475.000; -358.000
368.245; -126.125; -960.000; -841.000
368.376;  -38.650; -254.000; -302.000
368.508;  -51.675; -188.000; -263.000
368.639; -144.925;-1166.000;-1034.000
368.770;  -29.375; -670.000; -589.000
368.902;  -67.600; -836.000; -926.000
369.033; -113.450; -906.000; -855.000
369.164;  -49.675; -720.000; -653.000
369.296; -118.950; -452.000; -601.000
369.427;  -12.500; -209.000; -144.000
369.558;  -63.525; -593.000; -377.000
369.689;  -81.675; -721.000; -569.000
369.821; -129.175; -951.000; -845.000
369.952;  -26.225;   42.000; -108.000
370.083;  -47.075; -229.000; -108.000
370.214;  -78.875; -735.000; -650.000
370.345;  -13.225;   65.000;   81.000
370.477;  -95.925; -810.000; -790.000
370.608;  186.450; -328.000; -264.000
370.739;  -58.475;-1233.000;-1292.000
370.870;  -52.300;-1102.000; -923.000
371.001;   53.325; -378.000; -467.000
371.132;  -74.600; -754.000; -735.000
371.263;  -31.600;  -42.000; -148.000
371.394; -149.525; -841.000; -748.000
371.525;   10.675;  345.000;  225.000
371.657;  -94.125; -808.000; -670.000
371.788;   58.800;  103.000;  199.000
371.919;  146.575; -384.000; -304.000
372.050; 3293.225;  -91.000; -156.000
372.181; 1001.700; -188.000; -294.000
372.311;  322.375;   42.000; -127.000
372.442;    8.200; -457.000; -451.000
372.573;  -31.950; -444.000; -340.000
372.704; -128.925;-1008.000; -980.000
372.835;   63.125; -228.000; -289.000
372.966;  -70.100; -646.000; -554.000
373.097;  -84.425; -575.000; -711.000
373.228;  -58.700; -717.000; -542.000
373.359;  103.675; -824.000; -536.000
373.490;  811.225; -881.000; -727.000
373.620; 1063.175;-1001.000; -803.000
373.751; 1555.725; -332.000; -396.000
373.882;  725.750; -663.000; -733.000
374.013;   60.125; -449.000; -262.000
374.143;  -63.025; -581.000; -659.000
374.274; -104.450; -987.000; -908.000
374.405;  140.850; -388.000; -276.000
374.536;  362.725; -526.000; -387.000
374.666;  985.750; -759.000; -807.000
374.797;  183.600; -817.000; -868.000
374.928;  753.175; -710.000; -560.000
375.058;  789.950; -535.000; -500.000
375.189;   68.225;  -59.000;  -93.000
375.320; -112.775; -928.000;-1034.000
375.450;  -46.575; -625.000; -616.000
375.581;  -58.100; -526.000; -436.000
375.712;  -37.000; -574.000; -250.000
375.842;  246.700; -438.000; -415.000
375.973;  187.275; -554.000; -513.000
376.103;  -58.775; -665.000; -648.000
376.234;  -75.150; -531.000; -552.000
376.364;  -58.600; -944.000; -867.000
376.495;  279.950;  925.000;  529.000
376.625;  -16.700; -472.000; -485.000
376.756;   33.650; -709.000; -678.000
376.886;  -75.800;-1178.000;-1026.000
377.017;   63.875;-1048.000;-1061.000
377.147;  398.800; -786.000; -782.000
377.278;   60.950;  174.000;  228.000
377.408; -114.600; -801.000; -815.000
377.538; -111.875; -707.000; -693.000
377.669;  -85.600; -537.000; -613.000
377.799; -107.875; -645.000; -635.000
377.929;  -84.400; -610.000; -428.000
378.060; -126.250; -781.000; -847.000
378.190;  -59.950; -726.000; -531.000
378.320;  -51.300; -401.000; -406.000
378.451;  -16.075; -131.000;  -22.000
378.581;   -6.800;  -67.000; -110.000
378.711;  118.775; 1035.000;  866.000
378.841;  -34.900; -533.000; -675.000
378.972;  -92.025; -871.000; -751.000
379.102;  -33.125; -652.000; -579.000
379.232;  -39.875; -126.000;  -73.000
379.362; -122.000;-1001.000; -885.000
379.492;  -11.200; -373.000; -424.000
379.623;   85.325;    0.000;  111.000
379.753; -118.400;-1107.000; -974.000
379.883;  178.750;   59.000;  156.000
380.013;  -23.750;-1081.000;-1017.000
380.143; -113.975;-1097.000;-1056.000
380.273; -117.175; -985.000; -861.000
380.403;   -2.700; -344.000; -257.000
380.533;  -51.200; -651.000; -664.000
380.663;   61.000;  173.000;  128.000
380.793; -123.825;-1027.000;-1074.000
380.923;  -34.425; -103.000;  -34.000
381.053;  -98.975; -613.000; -623.000
381.183;  -37.925; -106.000; -248.000
381.313;    9.525; -656.000; -470.000
381.443;   10.175; -692.000; -473.000
381.573;  163.575; -402.000; -409.000
381.703;  231.350;-1249.000;-1095.000
381.833; -136.475;-1454.000;-1336.000
381.963;  103.675; -134.000;  -87.000
382.093; 1283.625; -925.000; -909.000
382.223;  412.350; -713.000; -602.000
382.353;  -30.875; -801.000; -608.000
382.482;  299.725;-1091.000; -964.000
382.612;  686.400; -872.000; -644.000
382.742;  388.475; -695.000; -622.000
382.872;  215.275; -565.000; -551.000
383.002;   54.450;  347.000; -132.000
383.131;  -32.025; -226.000; -160.000
383.261;  -48.625; -706.000; -768.000
383.391;  288.925; -552.000; -377.000
383.521; 3434.100;  451.000;  263.000
383.650;  865.975; -947.000; -904.000
383.780;  -18.150; -783.000; -656.000
383.910;   99.725;  880.000;  802.000
384.039;    8.625; -794.000; -656.000
384.169;  165.500;-1205.000;-1017.000
384.299;  -43.375; -650.000; -662.000
384.428;  -87.200; -764.000; -680.000
384.558;  -40.800; -308.000; -275.000
384.687;  -56.350; -414.000; -334.000
384.817;   12.825;   75.000;   -2.000
384.947;    0.975; -234.000; -141.000
385.076;  268.300;  982.000;  912.000
385.206;   84.200;  369.000;  480.000
385.335;  -42.425; -549.000; -417.000
385.465;  -94.800; -655.000; -663.000
385.594;  116.975;  -53.000;  -44.000
385.724;  352.750; -868.000; -838.000
385.853;   94.525; -296.000; -270.000
385.982; 1189.200; -743.000; -787.000
386.112; 1982.425;-1052.000; -871.000
386.241;  131.075; -307.000; -312.000
386.371;   12.950; -174.000;  -87.000
386.500;  -20.550; -825.000; -789.000
386.629;   11.150; -874.000; -817.000
386.759;   60.275;  -43.000;   68.000
386.888;  -22.675; -170.000; -250.000
387.017;  -89.500; -648.000; -620.000
387.147; -104.175; -771.000; -798.000
387.276;  -12.725; -410.000; -397.000
387.405;  -11.575; -398.000; -342.000
387.535;  -61.575; -452.000; -361.000
387.664;  -68.550; -692.000; -620.000
387.793;   33.925; -198.000; -113.000
387.922;  448.675;  255.000;  200.000
388.052;   15.725; -576.000; -423.000
388.181;  -17.825; -342.000; -472.000
388.310;  -41.300; -889.000; -710.000
388.439;  -56.150; -749.000; -742.000
388.568;  157.075;  365.000;  244.000
388.697;  916.050; -756.000; -653.000
388.826;  190.825; -768.000; -666.000
388.956;   38.300; -285.000; -307.000
389.085;  -48.150; -347.000; -287.000
389.214; -122.725; -842.000; -872.000
389.343;  -68.525; -645.000; -413.000
389.472;  402.600;  126.000;  149.000
389.601;  518.525;   91.000;    0.000
389.730;    1.250; -568.000; -687.000
389.859;   39.200;  226.000;   46.000
389.988;  151.575; -423.000; -408.000
390.117;  109.150; -168.000; -146.000
390.246;  -24.150; -331.000; -320.000
390.375;   84.400; -673.000; -626.000
390.504;  -61.600; -703.000; -621.000
390.633; -116.650; -672.000; -726.000
390.761;  -76.975; -732.000; -645.000
390.890;    3.875;   -4.000; -130.000
391.019;  -34.725; -421.000; -441.000
391.148; -130.275; -826.000; -855.000
391.277;  -83.800; -576.000; -493.000
391.406;  -96.450; -821.000; -805.000
391.534;   17.325;  574.000; -301.000
391.663;  -72.825; -583.000; -645.000
391.792;  -88.950; -673.000; -701.000
391.921;   60.150;   -3.000;   15.000
392.050;  139.875; -287.000; -228.000
392.178;  -66.225;-1206.000;-1061.000
392.307;  114.325; -758.000; -712.000
392.436;   48.300; -427.000; -641.000
392.564;    6.350;  166.000;   -6.000
392.693;  -97.300; -860.000; -682.000
392.822;  151.725; -529.000; -534.000
392.950;   59.550; -880.000; -714.000
393.079;  277.975; -188.000; -328.000
393.208;   17.125; -488.000; -511.000
393.336;  -15.275; -170.000; -145.000
393.465;  -61.300; -317.000; -199.000
393.593;   -0.500;   62.000;   79.000
393.722; -153.475;-1121.000; -916.000
393.850;  -51.750; -188.000;  -61.000
393.979; -154.300; -926.000; -805.000
394.107;  -81.800; -517.000; -537.000
394.236;  -33.225; -570.000; -507.000
394.364;  194.775;  383.000;  206.000
394.493;  334.025; -911.000; -767.000
394.621;  -18.125; -955.000; -916.000
394.750;  757.675; -873.000; -923.000
394.878; 3070.325; -247.000; -149.000
395.007; 4359.475; -721.000; -807.000
395.135;  338.150; -790.000; -721.000
395.263; -100.775;-1038.000;-1040.000
395.392;    6.400;  -25.000; -107.000
395.520; -139.075; -818.000; -679.000
395.648; -104.900; -865.000; -915.000
395.777;  -43.900; -366.000; -405.000
395.905;  -56.950; -449.000; -564.000
396.033;   11.350;  217.000;  172.000
396.162;  512.800; -399.000; -453.000
396.290;  490.325;  -17.000;   -2.000
396.418;   90.650; -555.000; -514.000
396.546;  -78.600; -571.000; -466.000
396.674; -116.775; -850.000; -878.000
396.803;    0.400;  -72.000;  -23.000
396.931;   69.200; -179.000; -199.000
397.059;    3.275;-1026.000; -989.000
397.187; -112.150;-1026.000; -975.000
397.315; -134.575; -884.000; -649.000
397.443; -105.175; -592.000; -443.000
397.572; -106.050; -578.000; -424.000
397.700;  -37.125; -607.000; -614.000
397.828;    0.050;  120.000;  -90.000
397.956;  -50.600; -508.000; -478.000
398.084;  -67.950; -767.000; -626.000
398.212;   21.250;  137.000;  124.000
398.340;   -5.475;  -56.000;  159.000
398.468;   15.000; -390.000; -169.000
398.596; -137.150; -993.000; -953.000
398.724; -117.850; -762.000; -767.000
398.852; -169.850;-1024.000; -976.000
398.980;  -73.725; -560.000; -560.000
399.108;  -63.875; -982.000; -735.000
399.236;   18.075;   13.000;    8.000
399.363;    8.850;  222.000;  196.000
399.491;  -81.475; -404.000; -398.000
399.619; -132.950; -829.000; -800.000
399.747; -101.375; -859.000; -771.000
399.875;   61.100;  220.000;  234.000
400.003;  -68.675; -359.000; -284.000
400.130; -106.275; -421.000; -341.000
400.258;  -38.025;  -83.000;   38.000
400.386;  -72.950; -352.000; -168.000
400.514;  -66.225; -526.000; -587.000
400.641; -106.025; -928.000; -802.000
400.769; -133.075; -979.000; -888.000
400.897; -123.825; -838.000; -793.000
401.025;  -38.675; -166.000; -152.000
401.152;  -13.225;  220.000;   38.000
401.280;  -94.675; -430.000; -429.000
401.408; -119.750; -712.000; -576.000
401.535; -106.450; -735.000; -758.000
401.663; -194.050;-1134.000;-1054.000
401.790;  -87.700; -514.000; -525.000
401.918;   31.825;  436.000;  405.000
402.046;  -24.900;  134.000;  122.000
402.173;  -51.825;  -18.000;    7.000
402.301;  -72.875; -519.000; -397.000
402.428;   27.425;  528.000;  383.000
402.556; -153.050;-1188.000; -913.000
402.683;  -21.225;  -20.000;   -1.000
402.811;  -21.550;  -37.000; -206.000
402.938;  -29.100;   20.000;   27.000
403.066;  158.550; -574.000; -558.000
403.193;  301.125;  299.000;  239.000
403.321;  226.425; -396.000; -574.000
403.448;  302.450;   83.000;   27.000
403.575;  114.300;  -90.000;  -46.000
403.703; -103.100; -732.000; -557.000
403.830;  -71.575; -531.000; -496.000
403.957; -155.150;-1117.000;-1023.000
404.085;    4.825;  -61.000; -172.000
404.212;   79.925;  -50.000;   63.000
404.339;  260.950; -566.000; -306.000
404.467; 6078.475; -612.000; -524.000
404.594; 4061.075; -287.000; -227.000
404.721;  922.025; -869.000; -764.000
404.848;   81.825; -113.000; -202.000
404.976; -104.675; -856.000; -783.000
405.103;  -10.675;  -14.000;  -82.000
405.230;  -17.175;  190.000;  226.000
405.357;   21.050;  117.000;   44.000
405.484;  271.550;  -49.000;    5.000
405.612;   52.950; -548.000; -563.000
405.739;  -60.100; -488.000; -243.000
405.866;   59.050;  669.000;  385.000
405.993;  -53.925; -398.000; -102.000
406.120; -132.700; -801.000; -887.000
406.247;  -57.800; -323.000; -342.000
406.374;  383.350;  540.000;  629.000
406.501;   79.925; -632.000; -702.000
406.628;  -85.900; -621.000; -589.000
406.755; -103.350; -803.000; -620.000
406.882;  -59.650; -228.000; -277.000
407.009; -115.150; -719.000; -628.000
407.136;   17.875; -480.000; -401.000
407.263;   84.250; -939.000; -829.000
407.390;  -98.325; -692.000; -614.000
407.517; -168.425;-1139.000;-1187.000
407.644;  -74.025; -332.000; -256.000
407.771;  -73.350; -249.000; -287.000
407.898;   -7.025;  168.000;  328.000
408.025;  -80.650; -421.000; -313.000
408.151;  -20.150;   82.000;  153.000
408.278;  -79.125; -267.000; -216.000
408.405; -125.350; -931.000; -899.000
408.532;  -73.500; -549.000; -542.000
408.659; -124.875; -677.000; -648.000
408.785; -202.075;-1298.000;-1170.000
408.912;  -56.075; -412.000; -296.000
409.039; -124.200; -610.000; -686.000
409.166; -103.800; -591.000; -555.000
409.292; -108.375; -571.000; -534.000
409.419; -126.725; -665.000; -649.000
409.546;  -90.250; -431.000; -192.000
409.672; -106.850; -713.000; -545.000
409.799;  -29.300;  -36.000;   34.000
409.926;  -46.150; -180.000; -179.000
410.052; -177.250;-1127.000;-1091.000
410.179;  -52.100; -368.000; -392.000
410.305;  -82.550; -375.000; -493.000
410.432;  -61.150; -220.000; -333.000
410.558; -102.925; -305.000; -380.000
410.685; -112.425; -688.000; -431.000
410.812;  -94.475; -409.000; -588.000
410.938; -146.625; -964.000; -808.000
411.065; -109.050; -671.000; -645.000
411.191;  -16.775; -189.000; -174.000
411.317; -116.100; -823.000; -742.000
411.444;  -73.525; -317.000; -246.000
411.570;  -88.825; -339.000; -294.000
411.697; -124.300; -758.000; -752.000
411.823; -179.575; -989.000; -999.000
411.949;  -43.500;  -56.000;   17.000
412.076; -129.450; -539.000; -519.000
412.202; -131.550; -758.000; -757.000
412.329; -140.600; -798.000; -752.000
412.455; -118.850; -821.000; -657.000
412.581;  -37.275;  -15.000;  172.000
412.707;  -85.375; -540.000; -457.000
412.834;    1.350;  156.000;  219.000
412.960;  -84.725; -785.000; -784.000
413.086; -115.750; -743.000; -701.000
413.212;  141.625;  604.000;  578.000
413.339;  -78.225; -685.000; -701.000
413.465;  -24.950; -364.000; -310.000
413.591;  -98.625; -757.000; -474.000
413.717;  -72.975; -358.000; -366.000
413.843; -143.275; -839.000; -861.000
413.969;  -58.875;  -47.000; -292.000
414.096;  -88.175; -679.000; -679.000
414.222;   -9.550;  -33.000;   85.000
414.348;  -47.650; -652.000; -385.000
414.474;   85.425;   38.000;  -52.000
414.600;  -16.150; -126.000; -144.000
414.726;  -19.550;  -96.000;  -55.000
414.852;  -68.050; -365.000; -342.000
414.978;   47.150;  104.000;  -18.000
415.104;   34.800;   38.000;   80.000
415.230;   16.475; -329.000; -330.000
415.356;   42.275; -409.000; -514.000
415.482;  179.350;   13.000;  -35.000
415.608;  273.000; -247.000; -323.000
415.734;  980.675;   67.000;   38.000
415.860;20572.175; -875.000; -767.000
415.986;16044.600; -685.000; -607.000
416.111; 1400.550; -798.000; -652.000
416.237;  272.625; -424.000; -571.000
416.363; 1142.500; -765.000; -733.000
416.489; 4552.525; -324.000; -251.000
416.615;  540.225; -707.000; -742.000
416.741;  -12.075; -677.000; -784.000
416.866;  -86.150; -673.000; -736.000
416.992; -112.200; -801.000; -818.000
417.118;  -38.175;  -41.000;  -80.000
417.244;  -73.525; -798.000; -531.000
417.369;  -84.500; -801.000; -612.000
417.495;  -13.075; -325.000; -254.000
417.621;  -86.775;-1015.000; -803.000
417.746;    6.025; -579.000; -572.000
417.872;   37.500; -254.000; -144.000
417.998;   58.350; -515.000; -530.000
418.123; 1055.125;-1073.000; -845.000
418.249; 5822.775; -512.000; -601.000
418.374;  894.175; -916.000; -824.000
418.500;  134.375; -383.000; -482.000
418.626;  112.675;   70.000;  -59.000
418.751;  122.625; -549.000; -448.000
418.877;  208.675; -637.000; -643.000
419.002; 1798.575; -688.000; -560.000
419.128;13382.700; -930.000; -721.000
419.253; 3570.950; -967.000; -837.000
419.379;  468.000; -391.000; -338.000
419.504;  417.050;  325.000;  415.000
419.629;  557.625; -393.000; -212.000
419.755; 3645.850; -317.000; -254.000
419.880;22907.950;  -98.000;   67.000
420.006;12226.950; -280.000; -221.000
420.131;31904.950; -662.000; -775.000
420.256; 4925.675; -315.000; -316.000
420.382;  650.150; -665.000; -687.000
420.507;   97.550; -649.000; -778.000
420.632;   96.825; -337.000; -339.000
420.758;  215.700; -251.000; -425.000
420.883;  -96.400; -876.000; -672.000
421.008; -108.850; -775.000; -619.000
421.133;  -85.475; -509.000; -467.000
421.259;  -51.675; -325.000; -259.000
421.384; -124.500; -834.000; -693.000
421.509;  -62.325;-1052.000; -862.000
421.634;  913.750; -936.000; -820.000
421.759;  418.425; -359.000; -327.000
421.885;  -58.325; -717.000; -656.000
422.010;  -90.850; -673.000; -542.000
422.135; -157.025; -695.000; -727.000
422.260;   21.825;  340.000;  280.000
422.385;  -54.925;   12.000;  -98.000
422.510;  -11.925;  151.000;  -26.000
422.635;    9.350;  -87.000;  -43.000
422.760;   85.200; -766.000; -791.000
422.885;   52.900;  -57.000;  -80.000
423.010;  -28.250; -112.000; -169.000
423.135; -110.750; -481.000; -561.000
423.260;  -23.775; -150.000; -245.000
423.385;   43.800;  476.000;  222.000
423.510;   23.025;   71.000;  -22.000
423.635;   50.000;  133.000;   45.000
423.760;   46.650;  383.000;  328.000
423.885;   40.625;  336.000;  391.000
424.010;   -3.050;  -68.000;  -13.000
424.135;  -21.750;    5.000;  -33.000
424.259;  -83.625; -654.000; -457.000
424.384;  -77.925; -279.000; -272.000
424.509;  -29.700; -260.000; -186.000
424.634; -109.650; -761.000; -623.000
424.759;  -28.925; -688.000; -544.000
424.883;  -23.100; -506.000; -527.000
425.008;  158.125; -502.000; -410.000
425.133; 2090.575; -679.000; -653.000
425.258; 1053.475; -517.000; -381.000
425.382;  899.075; -867.000; -774.000
425.507; 2417.900; -487.000; -543.000
425.632;  434.625; -802.000; -663.000
425.756;  481.775; -256.000; -146.000
425.881; 6729.700; -831.000; -857.000
426.006;19843.500; -604.000; -355.000
426.130; 3294.400; -696.000; -508.000
426.255;  413.750; -611.000; -491.000
426.379;  162.625; -189.000; -577.000
426.504;  382.525;  660.000;  544.000
426.629; 4147.400; -519.000; -466.000
426.753; 3092.825;   64.000;  -46.000
426.878;  363.600; -252.000; -288.000
427.002;  153.425; -651.000; -668.000
427.127; 1556.825;  -35.000; -158.000
427.251;12136.175;  372.000;  401.000
427.375; 3745.725; -191.000; -173.000
427.500; 2137.125; -616.000; -610.000
427.624;  763.850; -234.000; -400.000
427.749;   83.650; -216.000; -225.000
427.873;  -40.200; -499.000; -412.000
427.997;  -46.850; -222.000; -230.000
428.122;   74.350;  795.000;  703.000
428.246;   50.500;  433.000;  434.000
428.371; -137.250; -869.000; -773.000
428.495; -108.175; -624.000; -646.000
428.619;  -27.350; -186.000; -117.000
428.743;    5.950;   65.000;  132.000
428.868;    7.025; -732.000; -643.000
428.992; 1215.675; -219.000; -326.000
429.116;  538.425; -329.000; -357.000
429.240;  229.300;  419.000;  426.000
429.365;  -45.950; -454.000; -574.000
429.489;  -50.625; -638.000; -647.000
429.613;   11.075; -236.000; -177.000
429.737;   41.300; -563.000; -432.000
429.861;  266.400; -247.000; -133.000
429.985; 5699.350; -425.000; -305.000
430.109; 6821.500; -770.000; -908.000
430.234;  830.225;   76.000;  -50.000
430.358;   80.325; -250.000; -160.000
430.482;  -66.650; -672.000; -564.000
430.606;  -87.625; -655.000; -375.000
430.730;   -1.175; -437.000; -388.000
430.854;   73.350; -909.000; -835.000
430.978;  -79.125; -795.000; -764.000
431.102; -102.950; -499.000; -422.000
431.226; -135.250; -874.000; -815.000
431.350;   -0.950;  345.000;  422.000
431.474;  -76.275; -661.000; -373.000
431.597; -160.350;-1060.000; -848.000
431.721;  -81.850; -276.000; -267.000
431.845; -138.325; -704.000; -472.000
431.969;  -75.800; -304.000; -349.000
432.093;  -97.825; -395.000; -317.000
432.217;  -10.175;   32.000;   82.000
432.341;  -92.075; -523.000; -518.000
432.464;   -5.375;   96.000;   40.000
432.588;  146.025; -401.000; -329.000
432.712;   86.150;  -52.000;  -52.000
432.836;   53.700;  213.000;  263.000
432.959;   -8.950; -372.000; -311.000
433.083;   87.825;   11.000;    2.000
433.207;  364.575;  285.000;  930.000
433.330; 5218.700; -391.000; -200.000
433.454; 6886.175; -654.000; -638.000
433.578; 3896.750;  583.000;  278.000
433.701;  798.275; -623.000; -675.000
433.825;  133.375; -292.000; -299.000
433.949;  121.575;   28.000;  -72.000
434.072;   20.025; -410.000; -323.000
434.196;  -20.250; -309.000; -117.000
434.319; 3586.800;25482.000;25124.000
434.443;  689.075; -656.000; -603.000
434.566; 2837.300;  281.000;   62.000
434.690;  539.325; -637.000; -383.000
434.813;   56.325; -251.000; -173.000
434.937;  -85.425; -569.000; -696.000
435.060;  -69.625; -423.000; -332.000
435.184;  205.075; -492.000; -217.000
435.307;  117.250;  159.000;  102.000
435.431;  -25.500;  -40.000;   24.000
435.554;  -86.225; -399.000; -240.000
435.677;  -86.200; -350.000; -258.000
435.801;  -53.375;  -25.000;   49.000
435.924;  -36.250;    1.000;  -67.000
436.048; -126.550;-1019.000; -732.000
436.171;  -63.125; -240.000;  -66.000
436.294;  -29.925; -248.000; -229.000
436.417;  109.000; -963.000; -849.000
436.541;  -69.600; -814.000; -840.000
436.664;  -63.100; -242.000; -316.000
436.787;  -37.150;   13.000;  113.000
436.910; -123.250; -792.000; -422.000
437.034;  -10.775;  142.000;  143.000
437.157;   29.175;  -11.000;    0.000
437.280;  -67.950; -392.000; -292.000
437.403; -106.550; -982.000; -869.000
437.526;  407.950; -903.000; -865.000
437.649; 1810.700; -505.000; -332.000
437.772;  279.000; -692.000; -540.000
437.896;   92.425;  700.000;  544.000
438.019; -106.375; -758.000; -503.000
438.142;  -97.400; -596.000; -506.000
438.265;  -43.450; -639.000; -670.000
438.388;  444.675; -520.000; -410.000
438.511;   68.825; -597.000; -394.000
438.634;  -50.450; -247.000; -125.000
438.757; -150.500; -693.000; -619.000
438.880;  -27.525;  -34.000;  -57.000
439.003;  -96.975; -417.000; -437.000
439.126;  -66.275; -287.000; -167.000
439.248;  -75.875;  -98.000; -139.000
439.371;  -44.700;    9.000;  -53.000
439.494;   21.400;  510.000;  439.000
439.617;  -66.075;   65.000;  -88.000
439.740; -177.075; -968.000; -816.000
439.863; -153.550; -755.000; -595.000
439.986; -129.550; -476.000; -431.000
440.108;  -57.500; -161.000; -112.000
440.231; -158.525; -950.000; -836.000
440.354;  -55.675;  -64.000; -150.000
440.477;   -7.450; -566.000; -542.000
440.599;  -16.150; -200.000; -225.000
440.722; -136.175; -709.000; -586.000
440.845;   62.975;  751.000;  928.000
440.968; -116.025; -415.000; -311.000
441.090;  -67.725; -199.000;  -33.000
441.213; -175.175;-1021.000; -825.000
441.336;  -62.775; -159.000;   -5.000
441.458;  -88.875; -549.000; -396.000
441.581;  -86.025; -628.000; -629.000
441.703;  -70.825; -152.000;   13.000
441.826; -111.800; -557.000; -400.000
441.948;  -56.400;   56.000;   51.000
442.071;   33.200;  555.000;  424.000
442.193; -119.925; -531.000; -485.000
442.316;   -0.825;  152.000;   97.000
442.438;   35.775; -233.000;  -10.000
442.561;   65.675;  272.000;  262.000
442.683;  377.425; -809.000; -522.000
442.806;  944.300;   -8.000;   74.000
442.928;   14.025; -859.000; -604.000
443.051;  -70.100; -577.000; -373.000
443.173;  -92.000; -341.000; -339.000
443.295;  -84.150; -263.000; -371.000
443.418;  -82.450; -321.000;  -29.000
443.540;  -28.800; -106.000;   -4.000
443.662; -120.075; -563.000; -465.000
443.785;  -16.125;  335.000;  199.000
443.907; -101.300; -362.000; -208.000
444.029; -132.975; -767.000; -494.000
444.152; -155.350; -644.000; -554.000
444.274;  -43.475;  -18.000;  -24.000
444.396; -119.150; -461.000; -221.000
444.518; -135.500; -691.000; -454.000
444.640; -103.725; -268.000; -111.000
444.763;  -20.500;  388.000;  249.000
444.885; -119.825; -432.000; -392.000
445.007;  -46.200;   35.000;   86.000
445.129; -116.725; -610.000; -515.000
445.251;  -96.275; -372.000; -439.000
445.373; -138.500; -537.000; -386.000
445.495;   -9.150;  242.000;  350.000
445.617;   41.700;  853.000;  753.000
445.739;  -71.700; -215.000;  -97.000
445.861;  -46.550; -245.000; -112.000
445.984;  -51.150; -267.000; -101.000
446.105;  139.100; -418.000; -251.000
446.227;  496.425; -176.000;  -19.000
446.349;   -8.875; -358.000; -249.000
446.471;  -93.250; -615.000; -448.000
446.593;  -68.600; -316.000;   19.000
446.715;  -14.125;  -67.000;   41.000
446.837;   52.075;  697.000;  832.000
446.959; -104.100; -457.000; -478.000
447.081; -136.975; -628.000; -518.000
447.203;   58.125;  862.000;  834.000
447.325;  -95.650; -270.000;   42.000
447.446;  -18.725;  286.000;  530.000
447.568; -167.475; -921.000; -803.000
447.690;  -84.150; -236.000; -245.000
447.812; -149.175; -798.000; -519.000
447.933;  -37.625;  155.000;  127.000
448.055;  -67.750; -306.000; -261.000
448.177;   93.850;   31.000;   79.000
448.299;   47.575; -935.000; -727.000
448.420;   22.175;  -25.000;  159.000
448.542;  -51.200;   -3.000;   33.000
448.664;  -20.575;  109.000;  322.000
448.785;  -42.700;  265.000;   83.000
448.907;  -94.550; -614.000; -353.000
449.028;  -58.075; -771.000; -471.000
449.150;   44.625;  492.000;  589.000
449.272; -176.725;-1044.000; -913.000
449.393;    5.875;  612.000;  694.000
449.515; -138.525; -634.000; -581.000
449.636;  -67.425; -264.000; -155.000
449.758;   67.850;  763.000;  622.000
449.879;  -99.825; -498.000; -396.000
450.001;  -89.400; -149.000;  -49.000
450.122;  -49.225;  -95.000;  162.000
450.244;  -34.900;   37.000;  364.000
450.365;  -84.825; -495.000; -301.000
450.486;  -45.450;   80.000;  268.000
450.608;   18.175;  393.000;  326.000
450.729;   71.700;  578.000;  645.000
450.850;   25.450; -574.000; -466.000
450.972;  773.550; -552.000; -389.000
451.093; 5265.050;  190.000;  588.000
451.214; 2516.200; -516.000; -337.000
451.336;  456.925;  773.000;  579.000
451.457;   56.575;  264.000;  393.000
451.578;  -38.575; -118.000;  -74.000
451.699; -132.350; -546.000; -540.000
451.821;  -58.050; -284.000;  -50.000
451.942;   14.125;  278.000;  285.000
452.063;   19.875;  228.000;  419.000
452.184;  539.900;  -54.000;  -49.000
452.305; 1186.225;  103.000;  170.000
452.427;  159.925; -549.000; -301.000
452.548;  -16.775;   23.000;   79.000
452.669;  -58.275; -257.000;  -89.000
452.790;  -51.000;    3.000;  -18.000
452.911;   -7.925;  195.000;  259.000
453.032;  -75.950; -289.000;  -60.000
453.153;  -53.675;  -29.000;   81.000
453.274;   47.000;  737.000;  868.000
453.395;  -64.075;  -51.000;  175.000
453.516;  113.275; 1317.000; 1388.000
453.637;  -79.325; -205.000; -150.000
453.758;  -54.725;   15.000;   69.000
453.879; -123.000; -462.000; -250.000
454.000;   65.050; 1086.000;  948.000
454.121; -124.425; -554.000; -326.000
454.242; -131.450; -599.000; -383.000
454.362;  -63.175;  -99.000;  114.000
454.483;  -40.100; -309.000; -229.000
454.604;   47.550;  512.000;  580.000
454.725; -127.350; -627.000; -555.000
454.846; -125.200; -474.000; -406.000
454.967;  -33.475;  230.000;  539.000
455.087;  -47.400;  179.000;  153.000
455.208;    5.150;  554.000;  856.000
455.329;  -70.750;  -22.000;   82.000
455.450;   35.500;  473.000;  633.000
455.570;  -70.600; -234.000; -211.000
455.691;  -46.600;  201.000;  407.000
455.812; -107.025; -270.000;  -92.000
455.932;  -71.000;  107.000;  -97.000
456.053;  -89.925;   36.000;   24.000
456.173; -107.325; -433.000; -355.000
456.294; -144.375; -476.000; -303.000
456.415;  -53.225;  -73.000;   70.000
456.535;  -25.225;  297.000;  273.000
456.656;  -50.000;  132.000;  240.000
456.776;  -73.500;    3.000;  298.000
456.897;  -17.275;  308.000;  513.000
457.017;  -82.075; -153.000;   -3.000
457.138; -120.450; -402.000; -249.000
457.258;  -37.650;  263.000;  224.000
457.379;  -14.900;  509.000;  521.000
457.499;  -36.750;  443.000;  432.000
457.620; -123.500; -407.000; -231.000
457.740; -108.800; -132.000;  -11.000
457.860;  -61.775;   87.000;   44.000
457.981;  -53.925;  132.000;  124.000
458.101;  -71.425;  -89.000;   40.000
458.221;  -25.000;  336.000;  402.000
458.342;  -77.725;   -4.000;  -37.000
458.462;   12.375;  617.000;  352.000
458.582;  -35.075; -302.000; -294.000
458.703;   20.275;  303.000;  154.000
458.823;  -15.275;   22.000;  163.000
458.943;   29.325;  341.000;  467.000
459.063;  -17.325; 1124.000;  192.000
459.183;  -44.200;  328.000;  313.000
459.304;   11.850;  315.000;  517.000
459.424;  -58.525; -246.000;  -89.000
459.544;  325.325;  388.000;  764.000
459.664;  879.875;  499.000;  506.000
459.784;  360.875; 1004.000; 1175.000
459.904;   50.525;  867.000;  744.000
460.024;   56.400;  867.000;  684.000
460.144;   -5.300;  449.000;  554.000
460.264;   -9.675;  515.000;  327.000
460.385;  -91.550; -145.000; -119.000
460.505;   33.700;  905.000;  858.000
460.625;  -94.325;  -17.000;  -68.000
460.745;  -35.400;  396.000;  541.000
460.864;  -55.575;  153.000;  469.000
460.984;   -1.225;  499.000;  573.000
461.104;  132.150; 1656.000; 1775.000
461.224;   20.850;  657.000;  650.000
461.344;  -35.800;  431.000;  360.000
461.464;  -44.225;  258.000;  513.000
461.584;  -26.450;  283.000;  466.000
461.704;  -57.225;   58.000;  108.000
461.824;  -67.875;  238.000;  259.000
461.943;  -44.750;  191.000;  130.000
462.063;  -78.000;    2.000;  324.000
462.183;   20.550;  639.000;  717.000
462.303;  103.275; 1678.000; 1230.000
462.422;   25.475;  781.000;  840.000
462.542;  -46.450;  271.000;  391.000
462.662;   21.850;  353.000;  380.000
462.782;  229.525;  833.000;  572.000
462.901;  506.125;  545.000;  717.000
463.021;  289.500; 1702.000; 1638.000
463.141;   -5.325;  337.000;  770.000
463.260;  -13.900;  614.000;  474.000
463.380;   11.575;  902.000;  884.000
463.499;  -34.575;  342.000;  332.000
463.619;  -49.175;  581.000;  559.000
463.738;   94.950; 1644.000;  903.000
463.858;   15.450;  657.000;  811.000
463.978;  -27.775;  542.000;  396.000
464.097;   42.350;  921.000; 1114.000
464.217;  107.400; 1196.000; 1143.000
464.336;  119.450; 1068.000; 1130.000
464.455;  -47.650;  328.000;  659.000
464.575;   33.375;  597.000;  602.000
464.694;  131.675; 1204.000; 1179.000
464.814;  121.400; 1190.000; 1138.000
464.933;   72.975; 1095.000; 1027.000
465.052;   97.050; 1412.000; 1054.000
465.172;   76.450;  922.000;  799.000
465.291;  123.050; 1376.000; 1320.000
465.410;   11.750;  462.000;  735.000
465.530;   69.900; 1355.000; 1310.000
465.649;   55.550; 1209.000; 1273.000
465.768;  124.075; 1673.000; 1508.000
465.888;   24.975;  941.000; 1174.000
466.007;   80.300; 1335.000; 1440.000
466.126;    1.900;  721.000;  641.000
466.245;   41.350; 1176.000; 1187.000
466.364;   25.325;  950.000; 1060.000
466.484;   61.400; 1024.000; 1213.000
466.603;   34.450; 1101.000; 1222.000
466.722;  127.625; 1490.000; 1769.000
466.841;   69.650; 1151.000; 1401.000
466.960;   54.500; 1069.000;  972.000
467.079;  133.400; 1971.000; 1786.000
467.198;   43.350; 1238.000; 1181.000
467.317;   78.125; 1768.000; 1162.000
467.436;   74.675; 1709.000; 1261.000
467.555;  109.700; 1796.000; 1746.000
467.674;   63.100; 1227.000; 1329.000
467.793;   41.800; 1376.000; 1374.000
467.912;   94.350; 1658.000; 1539.000
468.031;  119.800; 2038.000; 1930.000
468.150;  131.225; 1842.000; 1837.000
468.269;  181.900; 2313.000; 2090.000
468.388;  188.450; 2168.000; 2339.000
468.507;  239.875; 2884.000; 2903.000
468.626;  263.975; 2555.000; 2541.000
468.744;  133.525; 2018.000; 2174.000
468.863;  196.650; 2312.000; 2523.000
468.982;   82.075; 1503.000; 1555.000
469.101;  226.825; 2788.000; 2692.000
469.220;  139.500; 2333.000; 2176.000
469.338;  242.325; 2935.000; 3051.000
469.457;  193.600; 2719.000; 2545.000
469.576;  326.175; 3953.000; 3784.000
469.695;  241.275; 2877.000; 3066.000
469.813;  407.675; 4148.000; 4192.000
469.932;  403.425; 4255.000; 4485.000
470.051;  428.450; 4075.000; 4161.000
470.169;  857.150; 4470.000; 4338.000
470.288; 1549.600; 4700.000; 4809.000
470.406;  954.125; 5059.000; 5194.000
470.525;  646.375; 6101.000; 5787.000
470.644;  644.400; 6847.000; 6794.000
470.762;  795.100; 8397.000; 7873.000
470.881;  883.350; 8651.000; 8464.000
470.999; 1044.625; 9685.000; 9151.000
471.118; 1101.250;11174.000;10711.000

