
Integration time [ms]: 200.000
Averaging Nr. [scans]: 10
Smoothing Nr. [pixels]: 0
Data measured with spectrometer [name]: 2101012U2
Wave   ;Sample   ;Dark     ;Reference
[nm]   ;[counts] ;[counts] ;[counts] 

197.733;  132.700;  516.000;  404.000
197.879; -157.000; -610.000; -634.000
198.025;  -87.200; -475.000; -420.000
198.171; -145.000; -602.000; -612.000
198.317;  -56.000; -401.000; -316.000
198.463; -127.000; -655.000; -404.000
198.609;   60.600;  181.000; -137.000
198.755; -168.900; -644.000; -410.000
198.901; -114.800; -505.000; -424.000
199.047; -128.000; -615.000; -488.000
199.193;  -97.400; -230.000; -468.000
199.339; -133.600; -222.000; -369.000
199.485;   62.300;  330.000;  271.000
199.631;   38.800;  227.000;  310.000
199.777; -122.800; -466.000; -398.000
199.923; -139.700; -610.000; -424.000
200.069;   14.800; -141.000;  -58.000
200.215;  105.800;  128.000;  453.000
200.361;   83.900;  243.000;  477.000
200.507; -135.200; -600.000; -373.000
200.653;  -31.100; -371.000; -194.000
200.798;  -74.200; -215.000; -125.000
200.944;   -8.100; -146.000;  -41.000
201.090;   94.600;   61.000;  222.000
201.236;  -11.100; -116.000; -158.000
201.382;  280.200;  874.000;  903.000
201.528;   -5.100;  -58.000;  -48.000
201.674;  -89.900; -386.000; -293.000
201.819; -127.500; -540.000; -439.000
201.965; -152.200; -699.000; -447.000
202.111;  -59.300; -273.000; -226.000
202.257; -104.900; -250.000; -238.000
202.402;   28.800;   13.000;  -36.000
202.548;  -35.700; -169.000; -116.000
202.694;  189.400;  410.000; -183.000
202.840; -146.300; -603.000; -531.000
202.985; -162.900; -681.000; -639.000
203.131; -186.500; -832.000; -666.000
203.277;  -19.500; -199.000; -262.000
203.423; -119.300; -434.000; -520.000
203.568;  -99.300; -462.000; -237.000
203.714;  -78.700; -535.000; -542.000
203.860; -171.600; -682.000; -641.000
204.005;   34.400;  112.000;  167.000
204.151;  145.600;  561.000;  556.000
204.296;  -93.200; -354.000; -221.000
204.442; -139.000; -600.000; -547.000
204.588; -134.600; -592.000; -579.000
204.733;   71.000;  178.000;  168.000
204.879; -279.500;-1018.000; -822.000
205.025;   37.000;  -99.000;  126.000
205.170;   -9.400;  -17.000;   94.000
205.316;  170.100;  438.000;  661.000
205.461; -148.500; -698.000; -554.000
205.607;  204.500;  609.000;  665.000
205.752; -160.300; -626.000; -551.000
205.898; -138.200; -501.000; -391.000
206.043; -111.000; -578.000; -506.000
206.189;  -98.900; -243.000; -285.000
206.334;  157.800;  554.000;  606.000
206.480;  186.100;  409.000;  239.000
206.625; -168.300; -529.000; -552.000
206.771;  -84.700; -451.000; -373.000
206.916;  -66.300; -210.000; -537.000
207.062; -157.800; -545.000; -591.000
207.207; -115.800; -546.000; -443.000
207.353;   97.200;  185.000;  460.000
207.498;   53.500;  196.000;   85.000
207.643; -105.100; -501.000; -370.000
207.789; -259.100;-1069.000; -910.000
207.934; -188.100; -665.000; -713.000
208.080;  -59.000; -154.000;   66.000
208.225;   -9.500;  -22.000;  -57.000
208.370; -138.900; -727.000; -619.000
208.516; -181.500; -741.000; -487.000
208.661;  -52.800; -127.000;  -69.000
208.806;  -38.000; -165.000; -171.000
208.952; -269.100;-1044.000; -731.000
209.097;  142.000;  378.000;  349.000
209.242; -100.800; -307.000; -382.000
209.387;   78.500;  392.000;  350.000
209.533; -110.100; -321.000; -350.000
209.678;  180.800;  472.000;  543.000
209.823;  -67.700; -408.000; -310.000
209.969; -221.600; -860.000; -757.000
210.114; -185.100; -907.000; -719.000
210.259; -245.600; -939.000; -889.000
210.404;  -12.000; -171.000;  103.000
210.549;   36.400;  108.000;    3.000
210.695;  -16.000;   -3.000;  -95.000
210.840;   62.600;   94.000;   67.000
210.985; -104.400; -484.000; -303.000
211.130;  150.300;  268.000;  406.000
211.275;   36.000;  207.000;  199.000
211.420; -113.900; -300.000; -289.000
211.566; -132.700; -536.000; -489.000
211.711;   73.400;  218.000;  157.000
211.856; -119.600; -545.000; -519.000
212.001;   46.000;  151.000;   44.000
212.146;   39.300;  153.000;   49.000
212.291;  -53.300; -210.000; -186.000
212.436;  -58.900; -280.000;   -6.000
212.581; -162.100; -685.000; -653.000
212.726; -140.600; -487.000; -538.000
212.871;  -96.100; -552.000; -217.000
213.016; -332.100;-1172.000;-1029.000
213.161;  132.200;  406.000;  291.000
213.306; -138.800; -435.000; -577.000
213.451; -190.400; -778.000; -689.000
213.596;  -63.500; -455.000; -347.000
213.741; -117.600; -448.000; -538.000
213.886; -140.900; -498.000; -517.000
214.031;  -42.100; -294.000; -124.000
214.176;  -90.500; -408.000; -341.000
214.321;  -22.400; -296.000; -157.000
214.466;  -44.900; -163.000;  -43.000
214.611;    0.200;  -61.000;  -10.000
214.756; -247.500; -948.000; -858.000
214.901;  -43.700; -388.000; -226.000
215.046; -225.000; -797.000; -825.000
215.191;   68.800;  128.000;   35.000
215.336;  -10.200; -157.000;  -19.000
215.480; -164.000; -684.000; -505.000
215.625;  -24.200; -175.000;  -19.000
215.770; -155.300; -757.000; -662.000
215.915;   -1.600;   -5.000;  -97.000
216.060;    3.700; -113.000;  -21.000
216.205; -214.500; -731.000; -779.000
216.349; -122.700; -470.000; -533.000
216.494; -285.600; -939.000; -867.000
216.639; -218.000; -823.000; -888.000
216.784; -178.400; -577.000; -525.000
216.929;  123.700;  392.000;  281.000
217.073;  -10.000; -244.000;  -31.000
217.218;   22.700;   78.000;  -47.000
217.363; -158.600; -656.000; -618.000
217.507; -171.000; -623.000; -588.000
217.652; -245.700; -845.000; -874.000
217.797; -171.200; -708.000; -659.000
217.942; -235.200; -856.000; -720.000
218.086;  171.500;  608.000;  539.000
218.231;  -39.100; -174.000;  -26.000
218.376;  -94.600; -337.000; -229.000
218.520;   14.000;  -41.000;   96.000
218.665;  -72.900; -338.000; -204.000
218.810;  -70.100; -275.000; -233.000
218.954;   33.200;  201.000;   35.000
219.099; -241.900; -713.000; -963.000
219.243; -140.600; -589.000; -554.000
219.388;  -58.100; -264.000; -136.000
219.532;  -29.000; -116.000; -116.000
219.677; -130.600; -564.000; -521.000
219.822;   12.400;   33.000;   89.000
219.966;   27.000;   17.000;  -99.000
220.111;  -63.400; -328.000;  -40.000
220.255; -205.100; -797.000; -750.000
220.400;  -20.800; -180.000; -146.000
220.544; -127.200; -516.000; -450.000
220.689; -105.300; -422.000; -451.000
220.833;  -53.100; -123.000;  -58.000
220.978;  -48.900; -393.000; -563.000
221.122;   85.900;  319.000;  307.000
221.267; -251.100; -906.000; -837.000
221.411; -119.000; -478.000; -394.000
221.555;  -13.700; -104.000;  -23.000
221.700;  -86.000; -329.000; -222.000
221.844;   71.300;  255.000;  272.000
221.989; -109.600; -328.000; -311.000
222.133;  -48.900; -289.000; -307.000
222.277;   -2.900;    5.000;   78.000
222.422;   64.200;  227.000;  113.000
222.566;  -62.600; -381.000; -214.000
222.711; -100.600; -414.000; -479.000
222.855; -153.900; -643.000; -586.000
222.999; -168.200; -642.000; -717.000
223.144;  -33.500; -195.000; -194.000
223.288;  132.300;  423.000;  251.000
223.432;   48.200;  184.000;  230.000
223.576;   70.300;  152.000;  -21.000
223.721;   96.300;  364.000;  273.000
223.865; -103.700; -472.000; -475.000
224.009;  512.600; 1673.000; 1631.000
224.153; -203.200; -660.000; -671.000
224.298; -124.900; -531.000; -489.000
224.442;  -14.100;  -74.000;  -33.000
224.586;  -20.400; -169.000; -106.000
224.730; -214.500; -858.000; -670.000
224.875; -210.200; -739.000; -688.000
225.019;   28.800;  102.000;  188.000
225.163;  105.600;  208.000;  341.000
225.307;   50.800;   97.000;  -91.000
225.451;  129.300;  360.000;  481.000
225.595;   95.900;  264.000;  176.000
225.739;  -23.000; -170.000;  -94.000
225.884;   34.200;   86.000;    5.000
226.028; -200.000; -760.000; -626.000
226.172;  -67.700; -260.000; -273.000
226.316; -224.200; -941.000; -902.000
226.460; -132.100; -645.000; -493.000
226.604; -111.700; -406.000; -400.000
226.748; -207.500; -836.000; -733.000
226.892;  -43.900; -227.000; -181.000
227.036;  -93.400; -537.000; -447.000
227.180; -118.800; -551.000; -375.000
227.324; -126.400; -561.000; -580.000
227.468; -228.700; -819.000; -717.000
227.612;   46.800;  242.000;  -28.000
227.756; -245.100; -845.000; -698.000
227.900;  100.900;  342.000;  441.000
228.044; -136.400; -509.000; -290.000
228.188;  119.900;  448.000;  568.000
228.332; -115.400; -546.000; -472.000
228.476;  -72.700; -223.000; -149.000
228.620;  -61.800; -210.000; -150.000
228.764;  157.600;  431.000;  349.000
228.908;   -6.300; -155.000;   30.000
229.052; -114.800; -615.000; -528.000
229.195;  -24.800; -172.000;   13.000
229.339;  -48.200; -235.000; -305.000
229.483;  -51.900;    5.000; -162.000
229.627;   -3.000; -156.000;  139.000
229.771;  -69.900; -218.000; -294.000
229.915;   29.600;  230.000;   79.000
230.059; -169.500; -648.000; -663.000
230.202;  -94.200; -370.000; -317.000
230.346;   -6.800; -107.000;  107.000
230.490; -122.400; -489.000; -521.000
230.634; -202.800; -736.000; -553.000
230.777;  166.100;  478.000;  509.000
230.921; -158.200; -450.000; -359.000
231.065;  -82.700; -246.000; -286.000
231.209;   85.500;  261.000;  265.000
231.352;   49.700;   54.000;   40.000
231.496;   39.600;  568.000;  188.000
231.640; -150.000; -693.000; -621.000
231.783;  156.800;  546.000;  525.000
231.927;  -72.100; -294.000; -365.000
232.071; -255.700; -962.000; -736.000
232.214; -228.900; -980.000; -764.000
232.358; -184.100; -683.000; -599.000
232.502;   23.600;  -19.000;    7.000
232.645; -269.600;-1090.000; -927.000
232.789;  -29.500; -257.000; -218.000
232.933; -112.000; -407.000; -224.000
233.076; -255.200;-1038.000; -897.000
233.220; -232.000; -752.000; -777.000
233.363; -143.400; -669.000; -477.000
233.507;  151.500;  371.000;  129.000
233.650; -181.000; -764.000; -834.000
233.794;  113.300;  438.000;  461.000
233.938; -117.800; -530.000; -362.000
234.081;  -47.700;  -93.000;   31.000
234.225; -114.600; -631.000; -539.000
234.368; -228.500; -773.000; -723.000
234.512;  -65.400; -385.000; -299.000
234.655; -156.000; -582.000; -555.000
234.798; -113.200; -493.000; -466.000
234.942; -271.800; -884.000;-1002.000
235.085; -149.800; -651.000; -443.000
235.229; -154.600; -405.000; -410.000
235.372;  -89.600; -247.000; -191.000
235.516; -117.300; -397.000; -321.000
235.659;   50.200;   92.000;  121.000
235.802;    8.800;  -38.000;  -22.000
235.946;   95.300;  335.000;  215.000
236.089;   29.100;  126.000;  250.000
236.233;  137.900;  275.000;  298.000
236.376; -111.000; -235.000; -378.000
236.519; -100.300; -297.000; -319.000
236.663;  -45.000; -215.000; -117.000
236.806; -260.300;-1029.000; -999.000
236.949;  157.400;  543.000;  431.000
237.092;  134.200;  412.000;  391.000
237.236; -172.800; -589.000; -502.000
237.379;  143.600;  352.000;  428.000
237.522; -222.600; -879.000; -768.000
237.666;  -14.600; -271.000;   18.000
237.809; -218.500; -851.000; -823.000
237.952;   79.800;  469.000;  271.000
238.095; -127.500; -447.000; -442.000
238.238;  192.100;  688.000;  700.000
238.382;   15.300;  166.000;  103.000
238.525; -115.500; -598.000; -511.000
238.668; -285.200;-1060.000; -985.000
238.811; -147.100; -638.000; -643.000
238.954; -124.100; -483.000; -334.000
239.097;  194.300;  617.000;  664.000
239.241;   66.400;  394.000;  326.000
239.384;  -46.400; -254.000; -214.000
239.527; -104.800; -424.000; -224.000
239.670; -289.700; -994.000;-1091.000
239.813; -215.800; -696.000; -658.000
239.956;  158.400;  579.000;  473.000
240.099; -208.200; -778.000; -725.000
240.242;  132.300;  428.000;  432.000
240.385;  110.000;  466.000;  450.000
240.528; -136.100; -706.000; -473.000
240.671;   51.300;  189.000;  134.000
240.814;  -63.100; -441.000; -158.000
240.957; -216.800; -767.000; -578.000
241.100; -186.100; -779.000; -755.000
241.243; -281.800;-1234.000; -893.000
241.386; -119.500; -508.000; -379.000
241.529; -197.200; -735.000; -547.000
241.672; -128.700; -566.000; -495.000
241.815; -234.800; -832.000; -808.000
241.958;  -49.900; -125.000; -182.000
242.101; -163.900; -545.000; -390.000
242.244;  -74.600; -270.000; -325.000
242.387;  -68.000; -304.000; -246.000
242.530;  125.600;  470.000;  134.000
242.673;  -66.800; -381.000; -309.000
242.815; -246.200; -925.000; -899.000
242.958; -128.700; -482.000; -381.000
243.101;   33.100;  132.000;  187.000
243.244; -145.600; -564.000; -521.000
243.387;  -98.400; -313.000; -316.000
243.530; -199.300; -657.000; -674.000
243.672;   29.200;   43.000;  -92.000
243.815; -104.100; -355.000; -283.000
243.958;   12.000;   98.000;  -26.000
244.101;   21.000;   59.000;  -16.000
244.243;  -34.500;  -47.000;  101.000
244.386; -180.400; -761.000; -630.000
244.529;   -6.400; -132.000; -139.000
244.672; -293.600;-1154.000; -951.000
244.814; -220.200; -621.000; -794.000
244.957;  -97.800; -380.000; -304.000
245.100; -140.800; -489.000; -489.000
245.242;  -94.300; -387.000; -374.000
245.385;    2.100;  -59.000;  -39.000
245.528; -235.600; -871.000; -705.000
245.670;  192.800;  612.000;  634.000
245.813; -190.700; -599.000; -547.000
245.956;  -74.700; -324.000; -275.000
246.098; -140.800; -508.000; -650.000
246.241;   28.600;  194.000;   48.000
246.383;  -18.100; -119.000;  -73.000
246.526; -144.600; -454.000; -525.000
246.669; -216.900; -889.000; -780.000
246.811;   80.500;  172.000;   -1.000
246.954; -143.200; -512.000; -426.000
247.096;  -39.000;  -84.000;   -6.000
247.239; -111.900; -482.000; -445.000
247.381; -115.500; -647.000; -488.000
247.524;  183.700;  645.000;  679.000
247.666;    1.300;   58.000;   11.000
247.809; -224.400; -887.000; -691.000
247.951;  -29.100;  -75.000;  138.000
248.094;   71.300;  432.000;  308.000
248.236; -326.300;-1262.000;-1238.000
248.378;    2.800; -356.000;  -81.000
248.521;  -12.800; -334.000; -337.000
248.663;  -52.500; -236.000; -267.000
248.806;  -55.800; -300.000; -266.000
248.948; -192.100; -886.000; -763.000
249.090; -107.200; -428.000; -398.000
249.233; -108.900; -344.000; -381.000
249.375; -121.800; -474.000; -451.000
249.518;  -14.100;  -83.000; -133.000
249.660;   23.300; -103.000;    3.000
249.802; -344.800;-1303.000;-1189.000
249.945; -142.300; -612.000; -540.000
250.087; -218.500; -834.000; -768.000
250.229;  -98.400; -362.000; -480.000
250.371; -128.300; -494.000; -439.000
250.514; -107.200; -310.000; -244.000
250.656;    4.200;   69.000;  102.000
250.798; -231.700; -849.000; -800.000
250.940; -114.400; -322.000; -322.000
251.083;  -65.300; -335.000; -111.000
251.225;  114.500;  338.000;  310.000
251.367;  -34.400; -274.000; -373.000
251.509;  -47.600; -265.000; -210.000
251.651; -206.200; -731.000; -671.000
251.794;  125.300;  538.000;  632.000
251.936; -216.900; -821.000; -747.000
252.078; -177.800; -540.000; -461.000
252.220; -125.800; -645.000; -477.000
252.362;  179.600;  344.000;  462.000
252.504; -113.600; -677.000; -584.000
252.646; -216.800; -875.000; -722.000
252.788;  -39.100;   14.000; -128.000
252.931;  -95.700; -257.000; -253.000
253.073;  -75.300; -376.000; -317.000
253.215;  -20.500;  141.000;  122.000
253.357;  -26.700;   82.000; -153.000
253.499;  -79.700; -374.000; -234.000
253.641; -159.400; -749.000; -594.000
253.783; -187.300; -609.000; -527.000
253.925; -170.300; -586.000; -591.000
254.067; -222.100; -744.000; -667.000
254.209;  -43.400; -391.000; -259.000
254.351; -259.700; -865.000; -883.000
254.493; -108.500; -441.000; -417.000
254.635; -218.800; -936.000; -818.000
254.777; -162.000; -752.000; -687.000
254.918; -143.800; -512.000; -430.000
255.060; -125.600; -551.000; -395.000
255.202; -111.900; -473.000; -261.000
255.344; -138.400; -658.000; -455.000
255.486; -131.000; -471.000; -406.000
255.628; -224.500; -780.000; -781.000
255.770; -170.500; -676.000; -536.000
255.912; -113.600; -559.000; -468.000
256.053; -192.400; -730.000; -508.000
256.195;  309.600; 1008.000;  903.000
256.337; -175.900; -861.000; -595.000
256.479;  161.300;  532.000;  416.000
256.621;  -69.500; -394.000; -212.000
256.762; -172.800; -789.000; -742.000
256.904;  110.700;  485.000;  487.000
257.046;  -87.300; -381.000; -271.000
257.188;  -66.400; -351.000; -264.000
257.329; -137.600; -525.000; -464.000
257.471; -233.700; -939.000; -807.000
257.613; -113.500; -584.000; -498.000
257.755; -266.500;-1073.000; -982.000
257.896;   96.200;  286.000;  392.000
258.038; -122.000; -403.000; -352.000
258.180;  -76.100; -354.000; -279.000
258.321; -153.000; -581.000; -457.000
258.463;    8.900;  -71.000;  133.000
258.605; -162.300; -562.000; -570.000
258.746; -219.300; -886.000; -772.000
258.888; -304.000;-1026.000;-1020.000
259.029;   76.100;  121.000;   -8.000
259.171; -174.600; -614.000; -550.000
259.313;   24.200;  -49.000;  -47.000
259.454; -121.000; -536.000; -414.000
259.596;  -94.600; -483.000; -390.000
259.737; -159.800; -590.000; -474.000
259.879;   79.000;  217.000;  311.000
260.020;  201.900;  901.000;  636.000
260.162;  -38.900; -146.000; -253.000
260.303; -209.300; -768.000; -687.000
260.445; -126.200; -609.000; -613.000
260.586;   86.100;  392.000;  157.000
260.728;  -85.200; -360.000; -248.000
260.869; -121.200; -350.000; -343.000
261.011;  180.200;  706.000;  537.000
261.152; -108.800; -479.000; -319.000
261.293; -152.500; -576.000; -595.000
261.435;  -65.100; -219.000; -184.000
261.576;  -75.200; -455.000; -325.000
261.718;  134.900;  420.000;  470.000
261.859; -247.400; -940.000; -949.000
262.000; -266.400; -951.000;-1016.000
262.142;  -17.900;  -52.000;  -60.000
262.283; -232.600; -808.000; -691.000
262.424; -158.900; -666.000; -625.000
262.566; -279.600;-1161.000; -983.000
262.707; -203.900; -840.000; -830.000
262.848; -231.700; -769.000; -726.000
262.990;  -90.300; -362.000; -345.000
263.131;  190.400;  650.000;  681.000
263.272;    8.800;  -61.000;  -41.000
263.413; -159.200; -589.000; -561.000
263.555; -100.400; -669.000; -143.000
263.696; -147.300; -550.000; -641.000
263.837; -106.600; -449.000; -551.000
263.978;    9.700;   -5.000;  -77.000
264.119;  -70.200; -283.000; -264.000
264.261; -218.900; -847.000; -630.000
264.402;   18.200;   33.000;   40.000
264.543; -158.600; -509.000; -524.000
264.684;   -9.900;   61.000;  -50.000
264.825; -150.300; -816.000; -538.000
264.966;   -9.800;  -84.000;  -67.000
265.107; -194.500; -646.000; -670.000
265.248; -225.100; -825.000; -812.000
265.390;   -7.100;  152.000;   -9.000
265.531;  -52.600; -238.000; -107.000
265.672; -165.200; -557.000; -630.000
265.813;  155.000;  563.000;  439.000
265.954; -291.300; -959.000; -940.000
266.095;   -5.800; -372.000; -322.000
266.236; -194.200; -686.000; -548.000
266.377;  -76.800; -243.000; -297.000
266.518; -139.600; -619.000; -547.000
266.659;   63.500;  170.000;  268.000
266.800;   23.600;   83.000;   85.000
266.941; -160.100; -487.000; -478.000
267.082;   55.800;  354.000;   99.000
267.223; -101.000; -344.000; -273.000
267.364; -224.200; -892.000; -686.000
267.504;  -29.600;    3.000;  135.000
267.645;  -11.900;  160.000;   67.000
267.786;  -32.700; -147.000;  -86.000
267.927; -128.400; -473.000; -379.000
268.068;   -7.300; -186.000;  -61.000
268.209; -105.500; -175.000; -413.000
268.350; -127.900; -388.000; -532.000
268.490; -167.600; -648.000; -521.000
268.631;  104.200;  127.000;  225.000
268.772; -207.200; -874.000; -647.000
268.913;  -88.000; -328.000; -476.000
269.054;  -22.000; -117.000;   12.000
269.194;  -64.300; -418.000; -402.000
269.335; -308.500;-1137.000;-1074.000
269.476;  -21.400;   33.000;  -35.000
269.617;  -66.300; -347.000; -392.000
269.757; -171.800; -713.000; -646.000
269.898; -180.700; -856.000; -613.000
270.039; -101.600; -415.000; -405.000
270.180; -255.200; -952.000; -816.000
270.320;  -34.700; -190.000; -250.000
270.461;  -84.600; -277.000; -249.000
270.602;    9.900; -186.000; -156.000
270.742; -234.600; -868.000; -943.000
270.883; -102.400; -442.000; -390.000
271.023; -100.900; -358.000; -357.000
271.164; -133.900; -607.000; -528.000
271.305; -190.900; -666.000; -654.000
271.445; -158.200; -722.000; -683.000
271.586; -119.600; -462.000; -283.000
271.726;  -92.600; -397.000; -322.000
271.867; -132.000; -594.000; -534.000
272.008;  297.100; -473.000; -285.000
272.148;  242.900;  462.000;  468.000
272.289;   31.200; -113.000; -181.000
272.429;   28.000;   19.000;  185.000
272.570; -158.300; -633.000; -737.000
272.710; -217.900; -825.000; -775.000
272.851;  -33.000;  113.000; -130.000
272.991; -308.800;-1173.000;-1077.000
273.131; -112.000; -419.000; -459.000
273.272; -200.100; -683.000; -723.000
273.412;   27.300; -143.000;  -31.000
273.553; -111.100; -488.000; -507.000
273.693;  315.600;  913.000;  858.000
273.834; -197.200; -894.000; -692.000
273.974; -145.300; -664.000; -615.000
274.114; -183.100; -772.000; -560.000
274.255;  146.800;  414.000;  373.000
274.395;  -12.000; -180.000; -125.000
274.535;   84.400;  199.000;  350.000
274.676;   42.600;  225.000;   94.000
274.816;   23.600;  110.000;   34.000
274.956; -156.100; -624.000; -690.000
275.097; -167.800;-1014.000; -922.000
275.237; -217.000; -913.000; -803.000
275.377; -194.500; -778.000; -689.000
275.517; -305.200; -878.000; -937.000
275.658; -115.100; -590.000; -555.000
275.798; -152.600; -606.000; -413.000
275.938;   49.500;  215.000;  323.000
276.078; -173.000; -626.000; -395.000
276.218;    8.000;   99.000;  104.000
276.359; -258.400;-1026.000;-1024.000
276.499; -152.400; -605.000; -446.000
276.639;  -59.600; -305.000; -151.000
276.779; -112.200; -475.000; -357.000
276.919; -208.400; -783.000; -624.000
277.059;  -44.900; -261.000; -212.000
277.199;  -74.800; -357.000; -259.000
277.340;  124.100;  287.000;  175.000
277.480; -212.400; -840.000; -693.000
277.620;   69.200;  192.000;   16.000
277.760; -406.100;-1533.000;-1294.000
277.900;   47.700;  113.000;   33.000
278.040;   45.000;  137.000;  159.000
278.180;   90.100;  270.000;  170.000
278.320;   17.300;   21.000;   56.000
278.460; -114.500; -443.000; -469.000
278.600; -191.700; -708.000; -598.000
278.740;  152.400;  448.000;  224.000
278.880; -131.400; -768.000; -791.000
279.020;   43.000; -194.000; -144.000
279.160; -176.600; -672.000; -595.000
279.300; -242.100; -926.000; -873.000
279.440; -170.000; -709.000; -622.000
279.579; -118.700;-1014.000; -929.000
279.719;  -91.300; -410.000; -394.000
279.859;  110.700;   -4.000;   41.000
279.999;   60.500; -208.000;  101.000
280.139;  -60.800; -435.000; -387.000
280.279; -152.300; -708.000; -745.000
280.419;    1.000; -229.000; -147.000
280.559;  -48.600; -259.000; -180.000
280.698; -148.500; -790.000; -639.000
280.838; -199.500; -778.000; -800.000
280.978; -205.600; -846.000; -790.000
281.118; -228.300; -811.000; -704.000
281.257;   30.500;   24.000;    6.000
281.397; -238.700;-1094.000; -960.000
281.537; -151.800; -599.000; -712.000
281.677;    0.500; -150.000; -101.000
281.816; -175.400; -700.000; -630.000
281.956;  -54.400; -193.000; -257.000
282.096; -134.400; -539.000; -396.000
282.235; -199.700; -672.000; -638.000
282.375;  -22.000; -243.000;  -98.000
282.515; -187.500; -715.000; -707.000
282.654;   70.200;   29.000;  106.000
282.794;   66.500;  388.000;  244.000
282.934; -111.200; -530.000; -491.000
283.073; -233.900;-1030.000; -857.000
283.213;  -93.200; -460.000; -467.000
283.353;  -99.100; -408.000; -349.000
283.492;  -49.400; -264.000; -296.000
283.632;  -90.300; -254.000; -168.000
283.771; -185.300; -859.000; -730.000
283.911; -102.800; -369.000; -260.000
284.050; -195.300; -794.000; -748.000
284.190; -308.100;-1229.000;-1096.000
284.329; -284.500;-1055.000; -964.000
284.469; -154.400; -516.000; -591.000
284.608;  -90.400; -559.000; -598.000
284.748; -163.100; -614.000; -570.000
284.887;   37.000;  -87.000;  -20.000
285.027; -211.700; -844.000; -892.000
285.166;  -38.400; -192.000; -249.000
285.306;   35.000; -116.000;  -33.000
285.445;  -37.300; -229.000; -343.000
285.584; -150.600; -630.000; -494.000
285.724;  -65.400; -282.000; -322.000
285.863; -202.400; -857.000; -507.000
286.002; -103.000; -366.000; -276.000
286.142; -205.600; -715.000; -622.000
286.281; -123.400; -525.000; -493.000
286.420; -132.400; -554.000; -417.000
286.560;  223.800;  653.000;  623.000
286.699; -254.800; -958.000; -912.000
286.838; -147.300; -590.000; -591.000
286.978; -159.500; -533.000; -537.000
287.117; -255.300;-1085.000; -950.000
287.256;  -48.700; -228.000; -211.000
287.395;  -86.800; -197.000; -378.000
287.535;  -82.000; -370.000; -298.000
287.674; -128.600; -509.000; -484.000
287.813;  132.300;  661.000;  533.000
287.952; -271.300;-1010.000; -871.000
288.091; -293.000;-1049.000; -915.000
288.231;   51.000;   13.000;   15.000
288.370; -346.500;-1217.000;-1200.000
288.509; -182.900; -728.000; -645.000
288.648; -156.500; -770.000; -548.000
288.787;   -1.700; -243.000;  -87.000
288.926; -112.400; -454.000; -475.000
289.065;  246.100;  859.000;  672.000
289.204;  -98.900; -377.000; -217.000
289.344; -184.100; -791.000; -690.000
289.483;   52.700;  416.000;  304.000
289.622;  -40.500; -291.000; -149.000
289.761;   10.100; -309.000; -166.000
289.900; -208.600; -785.000; -626.000
290.039;   -5.600;  -12.000;  -95.000
290.178;  -41.200; -274.000; -180.000
290.317; -125.700; -618.000; -479.000
290.456; -116.000; -463.000; -451.000
290.595; -284.600; -961.000; -833.000
290.734; -258.400; -904.000; -891.000
290.873; -136.400; -456.000; -420.000
291.011; -212.000; -833.000; -843.000
291.150; -173.100; -770.000; -682.000
291.289;  -25.600; -343.000; -110.000
291.428; -157.500; -599.000; -480.000
291.567;  -75.400; -370.000; -442.000
291.706;   10.200;  109.000;  154.000
291.845; -130.900; -597.000; -505.000
291.984; -333.400;-1234.000;-1061.000
292.122;  172.900;  602.000;  582.000
292.261;   90.900;  620.000;  463.000
292.400;   65.200; -144.000;  211.000
292.539; -218.500; -959.000; -813.000
292.678;  -53.100; -325.000; -300.000
292.816; -295.300;-1136.000; -965.000
292.955; -179.000; -844.000; -684.000
293.094;    0.400; -173.000; -337.000
293.233; -111.000; -556.000; -400.000
293.371;  -80.600; -225.000;  -84.000
293.510; -214.500; -866.000; -780.000
293.649; -246.900; -959.000; -924.000
293.787; -155.600;-1083.000;-1012.000
293.926;  -17.900; -113.000;  -32.000
294.065;  -79.500; -379.000; -290.000
294.203;  114.800;  298.000;  406.000
294.342;   58.100;   74.000;  156.000
294.481;12745.800;51180.000; -836.000
294.619;  -23.800; -425.000; -582.000
294.758; -279.900;-1230.000;-1137.000
294.896;  122.500; -125.000;    5.000
295.035; -238.300;-1040.000;-1006.000
295.174; -240.400;-1082.000; -954.000
295.312;  -48.500; -323.000; -203.000
295.451;  -32.500; -307.000; -428.000
295.589; -106.500; -389.000; -518.000
295.728;   53.500; -292.000; -165.000
295.866;   13.200;  -36.000;  -51.000
296.005; -147.200; -584.000; -341.000
296.143; -146.000; -558.000; -596.000
296.282; -192.800; -957.000; -881.000
296.420; -156.900; -657.000; -557.000
296.559; -161.800; -892.000; -633.000
296.697;  -15.400; -847.000; -665.000
296.835;   39.300;-1141.000;-1002.000
296.974;  113.700;  -23.000;   39.000
297.112;  -29.300; -443.000; -504.000
297.251; -120.100; -815.000; -755.000
297.389;  100.900; -576.000; -438.000
297.527;   40.600; -145.000;  -83.000
297.666;  -90.100; -486.000; -438.000
297.804;  -77.900; -404.000; -264.000
297.942;  -12.400; -136.000; -161.000
298.081;   -4.400; -183.000;   63.000
298.219;  121.000;  -17.000;  -19.000
298.357;   77.300; -144.000;  -71.000
298.495;    6.100; -810.000; -812.000
298.634;  148.800;  245.000;  219.000
298.772;   62.100; -220.000; -338.000
298.910;  -81.200; -309.000; -182.000
299.048;  -11.200; -130.000; -153.000
299.187;  -54.000; -350.000; -250.000
299.325;   54.500;   52.000;  122.000
299.463;   52.800; -389.000; -299.000
299.601;  151.100; -327.000; -271.000
299.739; -204.900; -908.000; -883.000
299.877; -158.900; -791.000; -703.000
300.016; -131.600;-1095.000; -935.000
300.154;  264.200;  -19.000; -161.000
300.292;   32.900; -428.000; -348.000
300.430;   51.700; -408.000; -291.000
300.568; -228.800; -940.000; -874.000
300.706;  -98.900; -366.000; -469.000
300.844; -196.500;-1108.000; -979.000
300.982;  212.500;  246.000;  282.000
301.120; -198.200; -965.000; -866.000
301.258; -132.600; -812.000; -705.000
301.396;   69.000;  104.000;  -41.000
301.534;  126.800; -218.000; -293.000
301.672;  -53.900; -664.000; -521.000
301.810;  -13.900; -613.000; -545.000
301.948;  246.200;   53.000;  149.000
302.086;  869.500; -250.000;  -32.000
302.224; 1400.600; -610.000; -585.000
302.362;   56.200; -558.000; -622.000
302.500; -107.500; -923.000; -893.000
302.638;  175.000;  128.000;  245.000
302.776;  -17.300; -352.000; -408.000
302.913;  113.000;  447.000;  236.000
303.051;   -0.600;  -86.000;  -23.000
303.189;  109.400;   90.000;  118.000
303.327;  -55.500; -341.000; -256.000
303.465; -157.000; -832.000; -588.000
303.603; -163.100; -805.000; -604.000
303.740;  194.900;  417.000;  241.000
303.878;  -51.900; -800.000; -759.000
304.016; -162.600; -915.000; -790.000
304.154; -292.800;-1123.000;-1152.000
304.291; -109.800; -505.000; -554.000
304.429;   39.200;  102.000;   74.000
304.567; -246.500; -908.000; -893.000
304.705; -110.800; -408.000; -515.000
304.842;  138.000; -616.000; -540.000
304.980;  128.500;  215.000;   35.000
305.118;   29.500; -367.000; -365.000
305.255; -171.800; -945.000; -927.000
305.393;  149.300;  178.000;  239.000
305.531; -213.300;-1173.000; -956.000
305.668; -157.100; -663.000; -582.000
305.806;  160.000; -358.000; -439.000
305.943;  130.600; -629.000; -637.000
306.081;   88.300; -378.000; -267.000
306.219; -194.200; -863.000; -748.000
306.356;   55.000;  158.000;   27.000
306.494;  267.900;  981.000;  761.000
306.631;   33.600;  -11.000;  -55.000
306.769;   19.300; -613.000; -485.000
306.906;  -18.800; -284.000; -258.000
307.044;  -99.000; -473.000; -488.000
307.181; -121.600; -410.000; -332.000
307.319;   48.000;  112.000;   87.000
307.456; -341.900;-1191.000;-1153.000
307.594; -194.800; -980.000; -727.000
307.731;    5.700; -371.000; -164.000
307.868;   33.100;  -15.000;   20.000
308.006; -211.900; -961.000; -847.000
308.143; -111.600; -618.000; -330.000
308.281;  351.100;  -37.000; -254.000
308.418;   -7.300; -748.000; -640.000
308.555; -139.500; -400.000; -250.000
308.693; -149.800; -577.000; -573.000
308.830; -184.200; -712.000; -657.000
308.967;   14.200; -215.000;  -95.000
309.105;  -68.100; -507.000; -396.000
309.242;   57.900; -468.000; -367.000
309.379;  611.900; -577.000; -655.000
309.517;  -97.700; -936.000; -948.000
309.654; -201.900; -910.000; -734.000
309.791; -126.800; -662.000; -580.000
309.928; -207.600; -977.000; -914.000
310.065;  353.100;  819.000;  697.000
310.203;  -77.400; -825.000; -850.000
310.340;  -33.500; -465.000; -321.000
310.477; -119.800; -412.000; -516.000
310.614;  -93.900; -383.000; -473.000
310.751; -140.800; -427.000; -518.000
310.889;  -18.500;    1.000;   11.000
311.026; -292.200;-1161.000; -939.000
311.163;  -95.800; -386.000; -380.000
311.300; -133.700; -512.000; -479.000
311.437; -119.500; -658.000; -619.000
311.574; -311.000;-1226.000; -985.000
311.711; -109.800; -595.000; -433.000
311.848;  -50.600; -380.000; -388.000
311.985;   73.200;  270.000;   93.000
312.122; -213.400; -932.000; -762.000
312.259; -214.600; -941.000; -994.000
312.396; -131.000; -508.000; -551.000
312.533; -165.300; -812.000; -790.000
312.670; -278.300;-1070.000; -898.000
312.807;  -53.200; -352.000; -367.000
312.944; -150.000; -513.000; -611.000
313.081;  -30.100; -150.000; -415.000
313.218; -201.300;-1111.000; -867.000
313.355;  -22.600; -531.000; -449.000
313.492;    8.600; -455.000; -292.000
313.629;  317.400;  815.000;  735.000
313.766; -302.000;-1176.000;-1008.000
313.902;   27.000; -186.000;   21.000
314.039;  -53.200; -372.000; -289.000
314.176;   73.100;  286.000;  192.000
314.313; -151.500; -569.000; -473.000
314.450; -122.000; -788.000; -684.000
314.587; -117.700; -468.000; -480.000
314.723;   18.000;  -78.000;  130.000
314.860;  108.200;  318.000;  332.000
314.997;   93.700;  223.000;  142.000
315.134;  -75.300; -385.000; -368.000
315.270;  -55.700; -480.000; -496.000
315.407; -259.300;-1094.000; -967.000
315.544;  -74.400; -657.000; -538.000
315.681; -133.600; -681.000; -565.000
315.817;   24.900; -133.000; -176.000
315.954;    7.000; -613.000; -392.000
316.091; -258.100;-1045.000;-1023.000
316.227;  -12.800;  -71.000; -179.000
316.364;   42.700;   23.000;    6.000
316.500;  -33.200; -113.000; -300.000
316.637;  -81.000; -181.000; -302.000
316.774; -152.300; -625.000; -358.000
316.910; -160.700; -598.000; -629.000
317.047; -131.500; -487.000; -351.000
317.183;  -75.800; -435.000; -566.000
317.320;   22.800; -367.000; -321.000
317.456; -117.900; -733.000; -805.000
317.593; -167.300; -598.000; -641.000
317.729;    5.000;  168.000;  -67.000
317.866; -390.300;-1434.000;-1285.000
318.002; -165.300; -708.000; -948.000
318.139; -207.800; -883.000; -867.000
318.275; -191.400;-1003.000; -738.000
318.412;  -99.700; -517.000; -336.000
318.548;  -75.200; -751.000; -720.000
318.685; -173.000; -985.000; -888.000
318.821; -182.500; -762.000; -735.000
318.957;   -3.900;   34.000;  -23.000
319.094;   91.000;  297.000;  154.000
319.230; -152.200; -756.000; -742.000
319.367;  158.800; -471.000; -520.000
319.503;   76.000; -538.000; -436.000
319.639; -170.300; -877.000; -793.000
319.775; -108.900; -750.000; -685.000
319.912; -109.200; -424.000; -519.000
320.048; -182.800;-1184.000;-1184.000
320.184;  166.200;   59.000;   70.000
320.321; -111.600; -497.000; -467.000
320.457;  161.300;  475.000;  662.000
320.593; -117.800; -375.000; -382.000
320.729; -186.700; -732.000; -734.000
320.866; -106.900; -577.000; -635.000
321.002; -119.100; -759.000; -809.000
321.138;   -8.100; -135.000; -211.000
321.274;  107.600; -148.000; -115.000
321.410;  -76.100; -585.000; -353.000
321.546; -105.900;-1011.000; -911.000
321.683;  123.700;  400.000;  185.000
321.819;   32.300;  -48.000; -117.000
321.955; -209.600; -743.000; -722.000
322.091;  -91.300; -585.000; -540.000
322.227;  -20.200; -382.000; -202.000
322.363;  -24.600; -320.000; -215.000
322.499;  -53.900; -343.000; -331.000
322.635;  317.400;  636.000;  443.000
322.771;   77.200; -139.000;   12.000
322.907;  167.100;  129.000;  327.000
323.043;  -17.600; -115.000; -206.000
323.179;  -64.000; -394.000; -363.000
323.315;   47.700; -401.000; -371.000
323.451;   97.200; -328.000; -236.000
323.587;  117.700;  -60.000;  -77.000
323.723;   36.200; -682.000; -601.000
323.859;  -33.500; -258.000;  -76.000
323.995;  -68.600; -467.000; -409.000
324.131; -231.300; -967.000; -892.000
324.267;  -37.400; -254.000; -276.000
324.402; -245.900; -960.000; -983.000
324.538;  -24.900; -279.000; -104.000
324.674;   78.400;  164.000;   77.000
324.810;  271.500;  226.000;  308.000
324.946;    0.400; -810.000; -658.000
325.082; -129.900; -568.000; -475.000
325.217;   47.400;  -62.000;   16.000
325.353; -172.900; -764.000; -659.000
325.489; -132.300; -540.000; -506.000
325.625; -135.300; -579.000; -525.000
325.760;  161.100;  517.000;  376.000
325.896;  -40.900; -515.000; -702.000
326.032;  -84.500; -403.000; -352.000
326.168; -100.300; -462.000; -369.000
326.303;  -80.100; -352.000; -461.000
326.439;   -8.700; -336.000; -276.000
326.575;   33.600; -190.000;  -29.000
326.710;   10.400; -156.000;  -30.000
326.846;   -4.600;  146.000;  103.000
326.982; -169.200; -530.000; -548.000
327.117; -126.000; -481.000; -442.000
327.253; -153.800; -745.000; -742.000
327.388; -249.200;-1137.000;-1153.000
327.524;  -91.300; -811.000; -578.000
327.659;   -5.300;  -58.000;  -22.000
327.795;   -2.500;   69.000;   45.000
327.931; -134.200; -723.000; -499.000
328.066;  -35.000; -417.000; -276.000
328.202;    1.000;   12.000; -129.000
328.337;  245.200;  957.000;  713.000
328.473;    8.900;  -12.000;  -74.000
328.608;   -0.800; -256.000; -267.000
328.743; -166.500; -799.000; -664.000
328.879;   74.300;  214.000;  114.000
329.014; -108.500; -102.000; -122.000
329.150; -116.900; -358.000; -483.000
329.285; -117.900; -465.000; -466.000
329.421;  -67.700; -548.000; -246.000
329.556;    8.200;  -36.000;   85.000
329.691; -140.600; -633.000; -615.000
329.827; -158.200; -626.000; -480.000
329.962;  -73.100;  131.000; -301.000
330.097; -173.500; -673.000; -585.000
330.233;  -79.100; -410.000; -223.000
330.368; -243.500; -839.000; -628.000
330.503;   20.200;    3.000;   98.000
330.638;   35.200;  -93.000; -125.000
330.774;  -99.200; -609.000; -530.000
330.909;  -63.800; -434.000; -244.000
331.044; -181.000; -714.000; -708.000
331.179; -332.000;-1217.000;-1109.000
331.315;   49.500;   77.000;   20.000
331.450;   47.800;  157.000;  285.000
331.585; -158.300; -805.000; -706.000
331.720; -118.600; -510.000; -460.000
331.855;   35.500;  -35.000; -102.000
331.990;  498.000;   62.000;  138.000
332.126;  276.100; -110.000;   71.000
332.261;  -17.100; -379.000; -265.000
332.396;   41.100; -135.000; -242.000
332.531; -199.200;-1074.000;-1031.000
332.666;   74.800; -519.000; -363.000
332.801; -177.200; -726.000; -807.000
332.936;  -39.200; -192.000; -122.000
333.071; -261.600; -870.000; -817.000
333.206;   74.200;  307.000;  379.000
333.341;   87.100;  344.000;  418.000
333.476; -167.400; -627.000; -623.000
333.611;  -69.400; -251.000; -173.000
333.746;  -77.600; -381.000; -464.000
333.881; -225.500; -973.000; -935.000
334.016; -254.300; -936.000; -917.000
334.151; -230.500; -746.000; -702.000
334.286;   93.600;  152.000;  186.000
334.421;  -34.900; -125.000; -178.000
334.556; -143.800; -611.000; -567.000
334.690; -153.200; -631.000; -577.000
334.825;  156.600;  381.000;   83.000
334.960;  -96.400; -285.000; -413.000
335.095;   24.000;  135.000;  -91.000
335.230; -214.500; -722.000; -738.000
335.365; -252.400;-1084.000; -990.000
335.499; -244.000;-1108.000;-1037.000
335.634;   44.600;    9.000;  534.000
335.769; -195.800; -755.000; -720.000
335.904; -131.300; -603.000; -561.000
336.038; -124.700; -735.000; -657.000
336.173; -266.300;-1206.000;-1194.000
336.308;   -1.400; -116.000; -189.000
336.443;    3.900; -544.000; -634.000
336.577; -156.700; -936.000; -787.000
336.712;   96.400;   -4.000;  -12.000
336.847; -103.400; -724.000; -607.000
336.981;   87.600; -272.000; -208.000
337.116;  467.600;  615.000;  501.000
337.250;  183.200; -434.000; -421.000
337.385;  517.900; -297.000; -208.000
337.520;  200.600; -632.000; -603.000
337.654;  -73.300; -215.000; -126.000
337.789; -222.000; -989.000; -933.000
337.923;  -33.100; -104.000; -205.000
338.058; -150.100; -673.000; -738.000
338.192;  -80.800; -611.000; -488.000
338.327;  -20.700;  -18.000; -155.000
338.461; -121.900; -299.000; -469.000
338.596; -152.800; -780.000; -638.000
338.730; -152.500; -767.000; -803.000
338.865;  198.800;  -46.000; -140.000
338.999;  -77.000; -846.000; -702.000
339.134;  -34.800; -634.000; -536.000
339.268;   -2.400; -741.000; -603.000
339.403;  630.300; -740.000; -775.000
339.537;  221.700; -894.000; -820.000
339.671; -183.700; -829.000; -813.000
339.806;  -90.200; -556.000; -512.000
339.940;   71.400; -261.000; -235.000
340.074; -169.700; -685.000; -510.000
340.209;  -57.900; -351.000; -230.000
340.343; -155.200; -517.000; -573.000
340.477;  356.500;  998.000; 1036.000
340.612;  -98.000;-1033.000; -900.000
340.746;  260.000; -199.000; -243.000
340.880; -139.600; -924.000; -785.000
341.014;    8.100;  -45.000; -154.000
341.149; -180.500; -756.000; -718.000
341.283; -184.300; -839.000; -754.000
341.417; -207.300;-1124.000; -938.000
341.551;  138.500; -768.000; -708.000
341.685;  -49.500; -633.000; -611.000
341.820;  -82.000; -562.000; -493.000
341.954;  -82.700; -218.000; -349.000
342.088; -272.600;-1102.000;-1019.000
342.222;   91.500;  565.000;  618.000
342.356; -113.600; -395.000; -335.000
342.490; -165.200; -880.000; -841.000
342.624;  -44.200; -339.000; -242.000
342.758;  -19.000; -364.000; -312.000
342.892; -129.200; -710.000; -585.000
343.026;  -22.100;  -58.000; -116.000
343.160;  -67.400; -426.000; -376.000
343.294; -143.300; -474.000; -337.000
343.428;  -55.300; -488.000; -448.000
343.562;    7.800; -172.000;  -23.000
343.696;  -12.900; -385.000; -314.000
343.830;  -38.200; -362.000; -356.000
343.964;   38.600; -231.000; -168.000
344.098; 1317.200;  199.000;   70.000
344.232; 1151.600; -266.000; -127.000
344.366;  134.500; -567.000; -453.000
344.500;   61.500; -665.000; -744.000
344.634;   67.500; -324.000; -164.000
344.768;  -49.000; -531.000; -341.000
344.902;  111.500;  278.000;  256.000
345.035; -113.800; -556.000; -496.000
345.169; -261.200; -933.000; -656.000
345.303;  -45.000; -308.000; -482.000
345.437; -158.300; -826.000; -717.000
345.571; -129.800; -675.000; -594.000
345.704; -129.100; -309.000; -532.000
345.838;   29.100; -331.000; -284.000
345.972;  -60.400; -543.000; -495.000
346.106;  307.500; -179.000; -190.000
346.239;  697.800; -312.000; -243.000
346.373;   38.300; -343.000; -302.000
346.507; -283.100; -950.000; -962.000
346.640;  185.100;  -30.000;   13.000
346.774;  -93.400; -650.000; -797.000
346.908;   -8.100; -138.000;  -11.000
347.041; -166.800; -646.000; -593.000
347.175;   71.700;  259.000;   27.000
347.309; -120.800; -698.000; -628.000
347.442; -193.000; -883.000; -732.000
347.576;  466.800;  670.000;  668.000
347.709;  299.400; -123.000;  -52.000
347.843; -178.300; -933.000; -825.000
347.976;   95.400;  235.000;  294.000
348.110; -342.100;-1268.000;-1186.000
348.243; -174.000; -679.000; -772.000
348.377;   21.200;  -26.000;   60.000
348.510;  152.500;  403.000;  540.000
348.644;  -51.000;  -37.000; -159.000
348.777;   46.100;  180.000;  191.000
348.911;  -70.900; -142.000; -112.000
349.044;  312.700;  471.000;  448.000
349.178;  171.200;-1069.000;-1006.000
349.311;  218.000;  141.000;  255.000
349.444;   -5.100; -927.000; -813.000
349.578;  -31.800; -347.000; -200.000
349.711; -170.800; -959.000; -862.000
349.845;  -37.700; -661.000; -591.000
349.978; -283.400;-1224.000;-1137.000
350.111; -136.400; -546.000; -612.000
350.244; -133.000; -596.000; -700.000
350.378;  -11.700; -392.000; -393.000
350.511; -115.800; -393.000; -426.000
350.644; -215.300; -808.000; -806.000
350.778;   41.200;  168.000;  104.000
350.911;   34.100;  134.000;  140.000
351.044; -165.400; -685.000; -615.000
351.177;  -30.800; -321.000; -281.000
351.310;    9.700;    3.000; -131.000
351.444; -149.700; -888.000; -788.000
351.577;  185.100;  140.000;   90.000
351.710;  187.800;  593.000;  417.000
351.843;  -16.700; -165.000;  -77.000
351.976;   29.000;  149.000;  -79.000
352.109; -190.200; -621.000; -612.000
352.242;  -66.800; -464.000; -419.000
352.376; -144.900; -580.000; -636.000
352.509;  247.700; -437.000; -356.000
352.642;  -96.700; -654.000; -604.000
352.775;   90.700; -141.000;  -98.000
352.908; -234.100; -933.000; -904.000
353.041; -172.500; -814.000; -824.000
353.174;  -84.800; -551.000; -424.000
353.307; -138.000; -753.000; -764.000
353.440;  141.900;  541.000;  453.000
353.573; -201.400; -957.000;-1008.000
353.706;  -29.200; -384.000; -558.000
353.839;    6.200; -264.000; -220.000
353.971; -184.400; -657.000; -512.000
354.104; -169.300; -896.000; -835.000
354.237;  -78.500; -627.000; -662.000
354.370; -156.200; -846.000; -879.000
354.503; -347.000;-1231.000;-1308.000
354.636;  -58.000; -529.000; -348.000
354.769; -236.700; -937.000; -860.000
354.902;  -26.400; -230.000; -139.000
355.034;   -3.300; -164.000; -220.000
355.167;  -27.400; -262.000; -162.000
355.300; -206.600;-1061.000; -880.000
355.433; 1790.200;  -71.000;  -14.000
355.565; 2776.400; -402.000; -384.000
355.698;  684.100; -356.000; -296.000
355.831;  -43.500; -882.000; -801.000
355.964;  121.900; -285.000; -170.000
356.096; -148.200; -856.000; -843.000
356.229;  -15.600; -523.000; -530.000
356.362;  601.500; -373.000; -266.000
356.494; 1125.700; -229.000; -162.000
356.627;  788.300;  269.000;  377.000
356.760; 1188.800;  120.000;   53.000
356.892; 1708.100; -286.000; -601.000
357.025; 1020.400;  403.000;  389.000
357.157;  909.400; -167.000; -179.000
357.290; 1296.700; -856.000; -713.000
357.423;  355.200; -667.000; -556.000
357.555;  174.400; -217.000; -228.000
357.688;  171.800; -483.000; -364.000
357.820;  588.100; -870.000; -877.000
357.953; 5423.600; -563.000; -589.000
358.085; 1152.200; -632.000; -612.000
358.218; 1481.500;-1131.000; -932.000
358.350;  317.400;  -58.000;  312.000
358.483; -252.100;-1300.000;-1187.000
358.615; -103.600;-1182.000;-1078.000
358.747; -157.800;-1187.000;-1058.000
358.880;   -2.400; -810.000; -744.000
359.012;    7.400; -376.000; -202.000
359.145;  -74.600; -480.000; -511.000
359.277;   43.700; -962.000; -913.000
359.409; 4556.200;  536.000;  231.000
359.542; 1100.000; -738.000; -688.000
359.674;  138.200;   46.000;   13.000
359.806; -102.900; -565.000; -438.000
359.939;  -60.000; -617.000; -516.000
360.071;    8.500; -583.000; -579.000
360.203;  -16.300; -411.000; -364.000
360.335;  109.500;  164.000;  -16.000
360.468;  328.100; -249.000; -307.000
360.600; 3716.200; -547.000; -454.000
360.732; 5212.400; -546.000; -423.000
360.864;  650.500;-1216.000;-1044.000
360.996;  386.500; -516.000; -554.000
361.129;   27.100; -389.000; -598.000
361.261;   88.100;  110.000; -113.000
361.393;  -13.400; -252.000; -214.000
361.525;   82.800;   94.000;  244.000
361.657;  -77.900; -821.000; -703.000
361.789;   30.800; -139.000; -155.000
361.921;  263.700; -642.000; -593.000
362.053;  456.900;  524.000;  541.000
362.185;  113.400;  288.000;   72.000
362.318; -145.100; -709.000; -705.000
362.450;  231.700;  294.000;  444.000
362.582;   40.400; -913.000; -870.000
362.714;  -52.400; -353.000; -332.000
362.846; -139.500; -606.000; -490.000
362.978; -241.200; -941.000; -811.000
363.109;   70.100; -161.000; -260.000
363.241;  624.400; -739.000; -749.000
363.373;  736.100; -649.000; -564.000
363.505; 1286.600; -186.000;  -91.000
363.637;  251.200; -787.000; -601.000
363.769; -212.500;-1067.000;-1080.000
363.901; -132.800; -596.000; -654.000
364.033; -204.800;-1103.000;-1062.000
364.165;   43.900; -283.000; -283.000
364.296;  157.000; -316.000; -177.000
364.428;  134.600;-1344.000;-1220.000
364.560; -114.100; -679.000; -661.000
364.692;  -93.300; -738.000; -835.000
364.824;  335.400; -588.000; -456.000
364.955;  790.500; -402.000; -564.000
365.087; 1819.100;-1097.000; -852.000
365.219;   72.500; -686.000; -816.000
365.351; -125.700; -526.000; -572.000
365.482;  140.500;  300.000;  240.000
365.614;  -62.600; -402.000; -314.000
365.746; -172.900; -729.000; -752.000
365.877; -197.300; -706.000; -672.000
366.009;  562.800;  -35.000;  -62.000
366.141; -193.600;-1249.000;-1134.000
366.272; -186.200; -803.000; -719.000
366.404; -173.000;-1005.000; -874.000
366.535;   21.300; -139.000;  -12.000
366.667; -139.500; -644.000; -649.000
366.799;  109.300;  353.000;  203.000
366.930; -221.500; -862.000; -996.000
367.062;  280.300; -639.000; -613.000
367.193;  285.900; -872.000; -842.000
367.325;  -77.500; -580.000; -684.000
367.456;   53.900; -246.000;   31.000
367.588;  302.800; -371.000; -318.000
367.719;   60.700;  -44.000;  -45.000
367.851;   -8.700; -222.000; -241.000
367.982; -104.100; -875.000; -732.000
368.113;  137.200; -475.000; -358.000
368.245; -225.100; -960.000; -841.000
368.376;   -6.300; -254.000; -302.000
368.508;  -15.400; -188.000; -263.000
368.639; -283.500;-1166.000;-1034.000
368.770;  -31.900; -670.000; -589.000
368.902; -161.500; -836.000; -926.000
369.033; -185.400; -906.000; -855.000
369.164;  -65.000; -720.000; -653.000
369.296; -182.700; -452.000; -601.000
369.427;    6.000; -209.000; -144.000
369.558; -113.200; -593.000; -377.000
369.689; -125.200; -721.000; -569.000
369.821; -239.900; -951.000; -845.000
369.952;   52.100;   42.000; -108.000
370.083;  -51.300; -229.000; -108.000
370.214; -150.300; -735.000; -650.000
370.345;   17.300;   65.000;   81.000
370.477; -175.600; -810.000; -790.000
370.608;  364.500; -328.000; -264.000
370.739; -142.100;-1233.000;-1292.000
370.870;  -98.800;-1102.000; -923.000
371.001;  100.200; -378.000; -467.000
371.132; -123.300; -754.000; -735.000
371.263;   -5.500;  -42.000; -148.000
371.394; -252.500; -841.000; -748.000
371.525;   74.700;  345.000;  225.000
371.657; -155.300; -808.000; -670.000
371.788;  134.400;  103.000;  199.000
371.919;  259.400; -384.000; -304.000
372.050; 5232.800;  -91.000; -156.000
372.181; 1578.100; -188.000; -294.000
372.311;  579.100;   42.000; -127.000
372.442;    0.300; -457.000; -451.000
372.573;    3.800; -444.000; -340.000
372.704; -242.200;-1008.000; -980.000
372.835;  120.800; -228.000; -289.000
372.966; -101.600; -646.000; -554.000
373.097; -131.700; -575.000; -711.000
373.228;  -92.900; -717.000; -542.000
373.359;  147.400; -824.000; -536.000
373.490; 1279.100; -881.000; -727.000
373.620; 1555.100;-1001.000; -803.000
373.751; 2553.100; -332.000; -396.000
373.882; 1037.000; -663.000; -733.000
374.013;   66.300; -449.000; -262.000
374.143; -100.200; -581.000; -659.000
374.274; -193.200; -987.000; -908.000
374.405;  301.300; -388.000; -276.000
374.536;  657.700; -526.000; -387.000
374.666; 1525.200; -759.000; -807.000
374.797;  262.800; -817.000; -868.000
374.928; 1210.600; -710.000; -560.000
375.058; 1215.800; -535.000; -500.000
375.189;  149.000;  -59.000;  -93.000
375.320; -206.200; -928.000;-1034.000
375.450;  -71.800; -625.000; -616.000
375.581;  -66.800; -526.000; -436.000
375.712;  -17.800; -574.000; -250.000
375.842;  418.900; -438.000; -415.000
375.973;  271.200; -554.000; -513.000
376.103;  -82.400; -665.000; -648.000
376.234; -146.300; -531.000; -552.000
376.364;  -99.500; -944.000; -867.000
376.495;  587.900;  925.000;  529.000
376.625;  -64.200; -472.000; -485.000
376.756;   43.400; -709.000; -678.000
376.886; -195.100;-1178.000;-1026.000
377.017;  111.000;-1048.000;-1061.000
377.147;  681.300; -786.000; -782.000
377.278;  174.900;  174.000;  228.000
377.408; -220.800; -801.000; -815.000
377.538; -173.500; -707.000; -693.000
377.669; -128.200; -537.000; -613.000
377.799; -172.400; -645.000; -635.000
377.929; -117.300; -610.000; -428.000
378.060; -211.100; -781.000; -847.000
378.190;  -94.100; -726.000; -531.000
378.320;  -91.300; -401.000; -406.000
378.451;   44.100; -131.000;  -22.000
378.581;   44.300;  -67.000; -110.000
378.711;  291.800; 1035.000;  866.000
378.841;  -38.100; -533.000; -675.000
378.972; -163.900; -871.000; -751.000
379.102;  -33.100; -652.000; -579.000
379.232;  -18.600; -126.000;  -73.000
379.362; -205.600;-1001.000; -885.000
379.492;    5.200; -373.000; -424.000
379.623;  210.000;    0.000;  111.000
379.753; -178.500;-1107.000; -974.000
379.883;  378.300;   59.000;  156.000
380.013;  -63.000;-1081.000;-1017.000
380.143; -210.500;-1097.000;-1056.000
380.273; -208.700; -985.000; -861.000
380.403;   21.500; -344.000; -257.000
380.533;  -80.400; -651.000; -664.000
380.663;  122.700;  173.000;  128.000
380.793; -193.100;-1027.000;-1074.000
380.923;  -21.600; -103.000;  -34.000
381.053; -182.200; -613.000; -623.000
381.183;  -33.900; -106.000; -248.000
381.313;   52.700; -656.000; -470.000
381.443;   66.500; -692.000; -473.000
381.573;  300.400; -402.000; -409.000
381.703;  306.300;-1249.000;-1095.000
381.833; -270.900;-1454.000;-1336.000
381.963;  182.200; -134.000;  -87.000
382.093; 2041.400; -925.000; -909.000
382.223;  535.600; -713.000; -602.000
382.353;  -57.400; -801.000; -608.000
382.482;  480.100;-1091.000; -964.000
382.612; 1090.000; -872.000; -644.000
382.742;  579.200; -695.000; -622.000
382.872;  369.500; -565.000; -551.000
383.002;  156.300;  347.000; -132.000
383.131;   -2.900; -226.000; -160.000
383.261;  -56.000; -706.000; -768.000
383.391;  496.200; -552.000; -377.000
383.521; 6130.500;  451.000;  263.000
383.650; 1354.100; -947.000; -904.000
383.780;   17.100; -783.000; -656.000
383.910;  282.400;  880.000;  802.000
384.039;   -4.100; -794.000; -656.000
384.169;  200.000;-1205.000;-1017.000
384.299;  -77.400; -650.000; -662.000
384.428; -164.000; -764.000; -680.000
384.558;  -37.700; -308.000; -275.000
384.687;  -57.700; -414.000; -334.000
384.817;   57.300;   75.000;   -2.000
384.947;   76.000; -234.000; -141.000
385.076;  540.200;  982.000;  912.000
385.206;  210.100;  369.000;  480.000
385.335;  -62.400; -549.000; -417.000
385.465; -133.500; -655.000; -663.000
385.594;  257.700;  -53.000;  -44.000
385.724;  557.500; -868.000; -838.000
385.853;  137.800; -296.000; -270.000
385.982; 1995.200; -743.000; -787.000
386.112; 2924.000;-1052.000; -871.000
386.241;  168.200; -307.000; -312.000
386.371;   47.900; -174.000;  -87.000
386.500;    8.600; -825.000; -789.000
386.629;    7.000; -874.000; -817.000
386.759;  166.600;  -43.000;   68.000
386.888;   17.100; -170.000; -250.000
387.017; -159.600; -648.000; -620.000
387.147; -144.500; -771.000; -798.000
387.276;   14.000; -410.000; -397.000
387.405;   -5.000; -398.000; -342.000
387.535;  -75.800; -452.000; -361.000
387.664; -110.400; -692.000; -620.000
387.793;  104.000; -198.000; -113.000
387.922;  793.600;  255.000;  200.000
388.052;    8.300; -576.000; -423.000
388.181;    9.500; -342.000; -472.000
388.310;  -49.000; -889.000; -710.000
388.439; -138.700; -749.000; -742.000
388.568;  339.600;  365.000;  244.000
388.697; 1408.000; -756.000; -653.000
388.826;  263.000; -768.000; -666.000
388.956;   58.000; -285.000; -307.000
389.085;  -57.100; -347.000; -287.000
389.214; -158.600; -842.000; -872.000
389.343; -102.300; -645.000; -413.000
389.472;  811.300;  126.000;  149.000
389.601;  946.600;   91.000;    0.000
389.730;   31.600; -568.000; -687.000
389.859;  134.100;  226.000;   46.000
389.988;  313.000; -423.000; -408.000
390.117;  211.800; -168.000; -146.000
390.246;  -10.700; -331.000; -320.000
390.375;  137.400; -673.000; -626.000
390.504; -126.100; -703.000; -621.000
390.633; -183.300; -672.000; -726.000
390.761; -117.300; -732.000; -645.000
390.890;   74.600;   -4.000; -130.000
391.019;  -74.400; -421.000; -441.000
391.148; -216.300; -826.000; -855.000
391.277;  -94.500; -576.000; -493.000
391.406; -156.200; -821.000; -805.000
391.534;   69.500;  574.000; -301.000
391.663; -142.800; -583.000; -645.000
391.792; -126.700; -673.000; -701.000
391.921;  145.600;   -3.000;   15.000
392.050;  221.300; -287.000; -228.000
392.178; -154.400;-1206.000;-1061.000
392.307;  156.100; -758.000; -712.000
392.436;   65.500; -427.000; -641.000
392.564;   50.800;  166.000;   -6.000
392.693; -135.500; -860.000; -682.000
392.822;  282.300; -529.000; -534.000
392.950;   79.300; -880.000; -714.000
393.079;  447.900; -188.000; -328.000
393.208;    6.700; -488.000; -511.000
393.336;   28.800; -170.000; -145.000
393.465;  -43.700; -317.000; -199.000
393.593;   54.600;   62.000;   79.000
393.722; -284.400;-1121.000; -916.000
393.850;   11.200; -188.000;  -61.000
393.979; -269.500; -926.000; -805.000
394.107;  -87.200; -517.000; -537.000
394.236;  -46.900; -570.000; -507.000
394.364;  517.500;  383.000;  206.000
394.493;  700.600; -911.000; -767.000
394.621;    5.400; -955.000; -916.000
394.750; 1338.000; -873.000; -923.000
394.878; 5529.800; -247.000; -149.000
395.007; 7237.000; -721.000; -807.000
395.135;  476.200; -790.000; -721.000
395.263; -152.900;-1038.000;-1040.000
395.392;   42.700;  -25.000; -107.000
395.520; -181.900; -818.000; -679.000
395.648; -212.900; -865.000; -915.000
395.777;  -34.200; -366.000; -405.000
395.905;  -60.700; -449.000; -564.000
396.033;  112.900;  217.000;  172.000
396.162; 1240.800; -399.000; -453.000
396.290; 1043.500;  -17.000;   -2.000
396.418;  172.000; -555.000; -514.000
396.546; -182.500; -571.000; -466.000
396.674; -174.000; -850.000; -878.000
396.803;   63.000;  -72.000;  -23.000
396.931;  111.500; -179.000; -199.000
397.059;   -3.200;-1026.000; -989.000
397.187; -199.700;-1026.000; -975.000
397.315; -241.500; -884.000; -649.000
397.443; -160.000; -592.000; -443.000
397.572; -145.600; -578.000; -424.000
397.700;  -55.300; -607.000; -614.000
397.828;   39.900;  120.000;  -90.000
397.956;  -69.100; -508.000; -478.000
398.084; -104.200; -767.000; -626.000
398.212;  120.400;  137.000;  124.000
398.340;   45.800;  -56.000;  159.000
398.468;   42.500; -390.000; -169.000
398.596; -244.400; -993.000; -953.000
398.724; -225.500; -762.000; -767.000
398.852; -278.900;-1024.000; -976.000
398.980;  -77.100; -560.000; -560.000
399.108;  -97.700; -982.000; -735.000
399.236;   84.400;   13.000;    8.000
399.363;   46.400;  222.000;  196.000
399.491;  -93.400; -404.000; -398.000
399.619; -229.700; -829.000; -800.000
399.747; -186.300; -859.000; -771.000
399.875;  174.300;  220.000;  234.000
400.003;  -64.600; -359.000; -284.000
400.130; -141.700; -421.000; -341.000
400.258;  -19.900;  -83.000;   38.000
400.386;  -95.200; -352.000; -168.000
400.514;  -74.500; -526.000; -587.000
400.641; -187.400; -928.000; -802.000
400.769; -260.200; -979.000; -888.000
400.897; -207.400; -838.000; -793.000
401.025;    4.000; -166.000; -152.000
401.152;   37.800;  220.000;   38.000
401.280; -114.800; -430.000; -429.000
401.408; -187.100; -712.000; -576.000
401.535; -203.600; -735.000; -758.000
401.663; -347.500;-1134.000;-1054.000
401.790; -119.800; -514.000; -525.000
401.918;  123.500;  436.000;  405.000
402.046;   15.800;  134.000;  122.000
402.173;  -35.600;  -18.000;    7.000
402.301;  -91.000; -519.000; -397.000
402.428;  152.400;  528.000;  383.000
402.556; -254.800;-1188.000; -913.000
402.683;  -14.200;  -20.000;   -1.000
402.811;   38.600;  -37.000; -206.000
402.938;   19.700;   20.000;   27.000
403.066;  238.700; -574.000; -558.000
403.193;  497.500;  299.000;  239.000
403.321;  384.500; -396.000; -574.000
403.448;  477.400;   83.000;   27.000
403.575;  183.500;  -90.000;  -46.000
403.703; -144.600; -732.000; -557.000
403.830; -138.700; -531.000; -496.000
403.957; -269.100;-1117.000;-1023.000
404.085;   70.300;  -61.000; -172.000
404.212;  204.800;  -50.000;   63.000
404.339;  532.100; -566.000; -306.000
404.467;11050.600; -612.000; -524.000
404.594; 6446.600; -287.000; -227.000
404.721; 1379.200; -869.000; -764.000
404.848;  185.400; -113.000; -202.000
404.976; -182.300; -856.000; -783.000
405.103;    9.000;  -14.000;  -82.000
405.230;   10.900;  190.000;  226.000
405.357;   86.100;  117.000;   44.000
405.484;  549.900;  -49.000;    5.000
405.612;  100.300; -548.000; -563.000
405.739;  -59.000; -488.000; -243.000
405.866;  222.400;  669.000;  385.000
405.993;  -51.200; -398.000; -102.000
406.120; -245.700; -801.000; -887.000
406.247;  -74.000; -323.000; -342.000
406.374;  683.900;  540.000;  629.000
406.501;   81.200; -632.000; -702.000
406.628;  -81.800; -621.000; -589.000
406.755; -154.700; -803.000; -620.000
406.882;  -44.000; -228.000; -277.000
407.009; -198.600; -719.000; -628.000
407.136;   64.100; -480.000; -401.000
407.263;  163.400; -939.000; -829.000
407.390; -103.900; -692.000; -614.000
407.517; -301.600;-1139.000;-1187.000
407.644;  -61.500; -332.000; -256.000
407.771;  -81.800; -249.000; -287.000
407.898;   72.500;  168.000;  328.000
408.025; -102.000; -421.000; -313.000
408.151;   56.300;   82.000;  153.000
408.278;  -83.800; -267.000; -216.000
408.405; -188.700; -931.000; -899.000
408.532; -130.000; -549.000; -542.000
408.659; -197.800; -677.000; -648.000
408.785; -348.600;-1298.000;-1170.000
408.912;  -73.400; -412.000; -296.000
409.039; -159.900; -610.000; -686.000
409.166; -148.000; -591.000; -555.000
409.292; -176.800; -571.000; -534.000
409.419; -182.900; -665.000; -649.000
409.546; -111.500; -431.000; -192.000
409.672; -127.300; -713.000; -545.000
409.799;    1.100;  -36.000;   34.000
409.926;    3.700; -180.000; -179.000
410.052; -305.100;-1127.000;-1091.000
410.179;  -62.000; -368.000; -392.000
410.305; -130.400; -375.000; -493.000
410.432;  -39.200; -220.000; -333.000
410.558; -141.200; -305.000; -380.000
410.685; -146.000; -688.000; -431.000
410.812; -149.400; -409.000; -588.000
410.938; -223.000; -964.000; -808.000
411.065; -182.600; -671.000; -645.000
411.191;   11.600; -189.000; -174.000
411.317; -199.200; -823.000; -742.000
411.444;  -87.500; -317.000; -246.000
411.570; -116.800; -339.000; -294.000
411.697; -205.300; -758.000; -752.000
411.823; -306.200; -989.000; -999.000
411.949;   -2.100;  -56.000;   17.000
412.076; -168.700; -539.000; -519.000
412.202; -213.100; -758.000; -757.000
412.329; -245.800; -798.000; -752.000
412.455; -195.800; -821.000; -657.000
412.581;   12.500;  -15.000;  172.000
412.707; -135.700; -540.000; -457.000
412.834;   83.500;  156.000;  219.000
412.960; -147.600; -785.000; -784.000
413.086; -162.600; -743.000; -701.000
413.212;  306.200;  604.000;  578.000
413.339; -129.300; -685.000; -701.000
413.465;  -21.900; -364.000; -310.000
413.591; -162.300; -757.000; -474.000
413.717;  -74.500; -358.000; -366.000
413.843; -221.300; -839.000; -861.000
413.969;  -39.900;  -47.000; -292.000
414.096; -156.100; -679.000; -679.000
414.222;    7.400;  -33.000;   85.000
414.348;  -48.700; -652.000; -385.000
414.474;  142.800;   38.000;  -52.000
414.600;   32.400; -126.000; -144.000
414.726;   40.000;  -96.000;  -55.000
414.852;  -97.700; -365.000; -342.000
414.978;  103.800;  104.000;  -18.000
415.104;  129.400;   38.000;   80.000
415.230;   72.400; -329.000; -330.000
415.356;  101.100; -409.000; -514.000
415.482;  379.000;   13.000;  -35.000
415.608;  525.200; -247.000; -323.000
415.734; 1795.200;   67.000;   38.000
415.860;37802.400; -875.000; -767.000
415.986;24748.200; -685.000; -607.000
416.111; 2059.400; -798.000; -652.000
416.237;  469.600; -424.000; -571.000
416.363; 2301.600; -765.000; -733.000
416.489; 7614.900; -324.000; -251.000
416.615;  793.100; -707.000; -742.000
416.741;  -33.300; -677.000; -784.000
416.866; -138.500; -673.000; -736.000
416.992; -196.800; -801.000; -818.000
417.118;    3.700;  -41.000;  -80.000
417.244;  -99.400; -798.000; -531.000
417.369; -126.100; -801.000; -612.000
417.495;   14.200; -325.000; -254.000
417.621; -129.800;-1015.000; -803.000
417.746;   17.300; -579.000; -572.000
417.872;  118.300; -254.000; -144.000
417.998;  140.600; -515.000; -530.000
418.123; 2194.400;-1073.000; -845.000
418.249; 9923.300; -512.000; -601.000
418.374; 1260.500; -916.000; -824.000
418.500;  231.000; -383.000; -482.000
418.626;  240.700;   70.000;  -59.000
418.751;  242.900; -549.000; -448.000
418.877;  382.300; -637.000; -643.000
419.002; 3782.900; -688.000; -560.000
419.128;23594.300; -930.000; -721.000
419.253; 5217.800; -967.000; -837.000
419.379;  765.000; -391.000; -338.000
419.504;  763.400;  325.000;  415.000
419.629;  980.500; -393.000; -212.000
419.755; 7459.600; -317.000; -254.000
419.880;39331.500;  -98.000;   67.000
420.006;21666.400; -280.000; -221.000
420.131;52305.200; -662.000; -775.000
420.256; 6957.200; -315.000; -316.000
420.382;  979.100; -665.000; -687.000
420.507;   97.900; -649.000; -778.000
420.632;  188.800; -337.000; -339.000
420.758;  361.100; -251.000; -425.000
420.883; -136.800; -876.000; -672.000
421.008; -188.300; -775.000; -619.000
421.133; -142.000; -509.000; -467.000
421.259;  -27.300; -325.000; -259.000
421.384; -175.500; -834.000; -693.000
421.509;  -98.100;-1052.000; -862.000
421.634; 1554.200; -936.000; -820.000
421.759;  592.700; -359.000; -327.000
421.885; -100.700; -717.000; -656.000
422.010; -141.200; -673.000; -542.000
422.135; -219.200; -695.000; -727.000
422.260;  120.600;  340.000;  280.000
422.385;  -37.200;   12.000;  -98.000
422.510;   77.100;  151.000;  -26.000
422.635;   56.200;  -87.000;  -43.000
422.760;  203.000; -766.000; -791.000
422.885;  136.300;  -57.000;  -80.000
423.010;   -6.000; -112.000; -169.000
423.135; -106.600; -481.000; -561.000
423.260;   12.400; -150.000; -245.000
423.385;  169.700;  476.000;  222.000
423.510;  100.700;   71.000;  -22.000
423.635;  190.000;  133.000;   45.000
423.760;  182.600;  383.000;  328.000
423.885;  150.800;  336.000;  391.000
424.010;   45.400;  -68.000;  -13.000
424.135;   27.700;    5.000;  -33.000
424.259; -107.800; -654.000; -457.000
424.384;  -62.800; -279.000; -272.000
424.509;  -12.300; -260.000; -186.000
424.634; -156.500; -761.000; -623.000
424.759;  -30.900; -688.000; -544.000
424.883;   13.200; -506.000; -527.000
425.008;  308.600; -502.000; -410.000
425.133; 3803.500; -679.000; -653.000
425.258; 1587.200; -517.000; -381.000
425.382; 1661.700; -867.000; -774.000
425.507; 3743.700; -487.000; -543.000
425.632;  662.100; -802.000; -663.000
425.756;  926.100; -256.000; -146.000
425.881;13509.700; -831.000; -857.000
426.006;32949.200; -604.000; -355.000
426.130; 4646.000; -696.000; -508.000
426.255;  659.000; -611.000; -491.000
426.379;  344.500; -189.000; -577.000
426.504;  752.400;  660.000;  544.000
426.629; 7679.200; -519.000; -466.000
426.753; 4725.900;   64.000;  -46.000
426.878;  583.400; -252.000; -288.000
427.002;  360.300; -651.000; -668.000
427.127; 3187.500;  -35.000; -158.000
427.251;21461.500;  372.000;  401.000
427.375; 5461.000; -191.000; -173.000
427.500; 3532.600; -616.000; -610.000
427.624; 1063.600; -234.000; -400.000
427.749;  134.400; -216.000; -225.000
427.873;  -50.700; -499.000; -412.000
427.997;   -2.500; -222.000; -230.000
428.122;  213.200;  795.000;  703.000
428.246;  153.700;  433.000;  434.000
428.371; -181.400; -869.000; -773.000
428.495; -157.900; -624.000; -646.000
428.619;   42.100; -186.000; -117.000
428.743;  111.000;   65.000;  132.000
428.868;   -3.400; -732.000; -643.000
428.992; 2075.800; -219.000; -326.000
429.116;  762.400; -329.000; -357.000
429.240;  436.100;  419.000;  426.000
429.365;  -10.300; -454.000; -574.000
429.489;  -60.500; -638.000; -647.000
429.613;  100.500; -236.000; -177.000
429.737;   99.800; -563.000; -432.000
429.861;  523.900; -247.000; -133.000
429.985;10977.600; -425.000; -305.000
430.109;10787.800; -770.000; -908.000
430.234; 1220.400;   76.000;  -50.000
430.358;  156.200; -250.000; -160.000
430.482;  -83.700; -672.000; -564.000
430.606;  -74.400; -655.000; -375.000
430.730;   52.400; -437.000; -388.000
430.854;  107.700; -909.000; -835.000
430.978; -121.700; -795.000; -764.000
431.102; -138.800; -499.000; -422.000
431.226; -197.800; -874.000; -815.000
431.350;  110.900;  345.000;  422.000
431.474; -112.100; -661.000; -373.000
431.597; -270.800;-1060.000; -848.000
431.721; -103.400; -276.000; -267.000
431.845; -216.100; -704.000; -472.000
431.969;  -71.000; -304.000; -349.000
432.093; -133.800; -395.000; -317.000
432.217;   50.000;   32.000;   82.000
432.341; -126.300; -523.000; -518.000
432.464;   51.000;   96.000;   40.000
432.588;  312.700; -401.000; -329.000
432.712;  169.400;  -52.000;  -52.000
432.836;  132.900;  213.000;  263.000
432.959;    5.000; -372.000; -311.000
433.083;  222.500;   11.000;    2.000
433.207;  801.000;  285.000;  930.000
433.330;10091.700; -391.000; -200.000
433.454;11211.300; -654.000; -638.000
433.578; 6609.700;  583.000;  278.000
433.701; 1114.200; -623.000; -675.000
433.825;  231.700; -292.000; -299.000
433.949;  263.200;   28.000;  -72.000
434.072;   83.900; -410.000; -323.000
434.196;   22.200; -309.000; -117.000
434.319; 7711.100;25482.000;25124.000
434.443; 1437.600; -656.000; -603.000
434.566; 4872.900;  281.000;   62.000
434.690;  766.500; -637.000; -383.000
434.813;  123.700; -251.000; -173.000
434.937; -128.800; -569.000; -696.000
435.060;  -78.800; -423.000; -332.000
435.184;  378.500; -492.000; -217.000
435.307;  230.800;  159.000;  102.000
435.431;   14.000;  -40.000;   24.000
435.554; -103.000; -399.000; -240.000
435.677; -128.000; -350.000; -258.000
435.801;  -23.800;  -25.000;   49.000
435.924;   35.400;    1.000;  -67.000
436.048; -206.000;-1019.000; -732.000
436.171;  -71.900; -240.000;  -66.000
436.294;   17.600; -248.000; -229.000
436.417;  212.400; -963.000; -849.000
436.541; -155.500; -814.000; -840.000
436.664;  -44.400; -242.000; -316.000
436.787;   37.200;   13.000;  113.000
436.910; -163.400; -792.000; -422.000
437.034;   57.000;  142.000;  143.000
437.157;  133.800;  -11.000;    0.000
437.280;  -71.600; -392.000; -292.000
437.403; -149.100; -982.000; -869.000
437.526;  801.200; -903.000; -865.000
437.649; 2906.400; -505.000; -332.000
437.772;  294.000; -692.000; -540.000
437.896;  214.100;  700.000;  544.000
438.019; -161.700; -758.000; -503.000
438.142; -137.300; -596.000; -506.000
438.265;  -51.000; -639.000; -670.000
438.388;  773.900; -520.000; -410.000
438.511;   73.900; -597.000; -394.000
438.634;  -72.300; -247.000; -125.000
438.757; -217.900; -693.000; -619.000
438.880;    2.000;  -34.000;  -57.000
439.003; -100.300; -417.000; -437.000
439.126;  -65.700; -287.000; -167.000
439.248;  -67.500;  -98.000; -139.000
439.371;  -24.500;    9.000;  -53.000
439.494;  123.900;  510.000;  439.000
439.617;  -70.000;   65.000;  -88.000
439.740; -329.700; -968.000; -816.000
439.863; -226.900; -755.000; -595.000
439.986; -172.100; -476.000; -431.000
440.108;  -51.200; -161.000; -112.000
440.231; -279.900; -950.000; -836.000
440.354;  -42.300;  -64.000; -150.000
440.477;   50.800; -566.000; -542.000
440.599;   26.200; -200.000; -225.000
440.722; -181.800; -709.000; -586.000
440.845;  205.200;  751.000;  928.000
440.968; -161.200; -415.000; -311.000
441.090;  -81.900; -199.000;  -33.000
441.213; -285.700;-1021.000; -825.000
441.336;  -23.800; -159.000;   -5.000
441.458;  -86.900; -549.000; -396.000
441.581; -116.200; -628.000; -629.000
441.703;  -69.300; -152.000;   13.000
441.826; -152.700; -557.000; -400.000
441.948;  -38.600;   56.000;   51.000
442.071;  135.500;  555.000;  424.000
442.193; -206.900; -531.000; -485.000
442.316;   87.200;  152.000;   97.000
442.438;  105.900; -233.000;  -10.000
442.561;  178.700;  272.000;  262.000
442.683;  750.800; -809.000; -522.000
442.806; 1501.200;   -8.000;   74.000
442.928;  -13.700; -859.000; -604.000
443.051;  -96.500; -577.000; -373.000
443.173; -112.700; -341.000; -339.000
443.295; -107.400; -263.000; -371.000
443.418;  -87.400; -321.000;  -29.000
443.540;   30.100; -106.000;   -4.000
443.662; -169.100; -563.000; -465.000
443.785;   44.800;  335.000;  199.000
443.907; -142.800; -362.000; -208.000
444.029; -197.100; -767.000; -494.000
444.152; -247.300; -644.000; -554.000
444.274;  -20.800;  -18.000;  -24.000
444.396; -161.800; -461.000; -221.000
444.518; -215.500; -691.000; -454.000
444.640; -131.100; -268.000; -111.000
444.763;   23.300;  388.000;  249.000
444.885; -175.900; -432.000; -392.000
445.007;  -13.300;   35.000;   86.000
445.129; -208.100; -610.000; -515.000
445.251; -142.900; -372.000; -439.000
445.373; -208.700; -537.000; -386.000
445.495;   64.400;  242.000;  350.000
445.617;  151.900;  853.000;  753.000
445.739;  -60.000; -215.000;  -97.000
445.861;    0.600; -245.000; -112.000
445.984;  -70.200; -267.000; -101.000
446.105;  300.400; -418.000; -251.000
446.227;  788.300; -176.000;  -19.000
446.349;  -59.400; -358.000; -249.000
446.471; -145.300; -615.000; -448.000
446.593;  -63.400; -316.000;   19.000
446.715;   17.300;  -67.000;   41.000
446.837;  166.200;  697.000;  832.000
446.959; -155.500; -457.000; -478.000
447.081; -184.400; -628.000; -518.000
447.203;  213.700;  862.000;  834.000
447.325;  -90.200; -270.000;   42.000
447.446;   72.600;  286.000;  530.000
447.568; -243.500; -921.000; -803.000
447.690; -113.700; -236.000; -245.000
447.812; -260.500; -798.000; -519.000
447.933;   32.500;  155.000;  127.000
448.055;  -71.700; -306.000; -261.000
448.177;  271.600;   31.000;   79.000
448.299;   23.500; -935.000; -727.000
448.420;   86.600;  -25.000;  159.000
448.542;  -10.100;   -3.000;   33.000
448.664;   42.200;  109.000;  322.000
448.785;    7.700;  265.000;   83.000
448.907; -100.000; -614.000; -353.000
449.028;  -55.700; -771.000; -471.000
449.150;  176.200;  492.000;  589.000
449.272; -318.000;-1044.000; -913.000
449.393;  106.200;  612.000;  694.000
449.515; -240.200; -634.000; -581.000
449.636;  -84.200; -264.000; -155.000
449.758;  216.200;  763.000;  622.000
449.879; -107.600; -498.000; -396.000
450.001;  -84.800; -149.000;  -49.000
450.122;   -3.500;  -95.000;  162.000
450.244;   10.500;   37.000;  364.000
450.365;  -84.200; -495.000; -301.000
450.486;  -30.600;   80.000;  268.000
450.608;  112.700;  393.000;  326.000
450.729;  223.700;  578.000;  645.000
450.850;   67.800; -574.000; -466.000
450.972; 1637.100; -552.000; -389.000
451.093; 9734.800;  190.000;  588.000
451.214; 3638.600; -516.000; -337.000
451.336;  742.400;  773.000;  579.000
451.457;  184.000;  264.000;  393.000
451.578;  -12.200; -118.000;  -74.000
451.699; -202.800; -546.000; -540.000
451.821;  -59.800; -284.000;  -50.000
451.942;   48.500;  278.000;  285.000
452.063;  161.400;  228.000;  419.000
452.184; 1197.100;  -54.000;  -49.000
452.305; 2038.100;  103.000;  170.000
452.427;  240.900; -549.000; -301.000
452.548;   51.300;   23.000;   79.000
452.669;  -42.700; -257.000;  -89.000
452.790;  -46.400;    3.000;  -18.000
452.911;   17.000;  195.000;  259.000
453.032;  -58.900; -289.000;  -60.000
453.153;  -13.200;  -29.000;   81.000
453.274;  184.900;  737.000;  868.000
453.395;  -38.200;  -51.000;  175.000
453.516;  316.100; 1317.000; 1388.000
453.637; -106.500; -205.000; -150.000
453.758;  -52.400;   15.000;   69.000
453.879; -177.100; -462.000; -250.000
454.000;  194.000; 1086.000;  948.000
454.121; -179.900; -554.000; -326.000
454.242; -155.900; -599.000; -383.000
454.362;  -38.700;  -99.000;  114.000
454.483;  -34.300; -309.000; -229.000
454.604;  130.200;  512.000;  580.000
454.725; -219.300; -627.000; -555.000
454.846; -181.600; -474.000; -406.000
454.967;   19.700;  230.000;  539.000
455.087;   -8.200;  179.000;  153.000
455.208;  137.500;  554.000;  856.000
455.329;  -53.700;  -22.000;   82.000
455.450;  160.400;  473.000;  633.000
455.570;  -97.600; -234.000; -211.000
455.691;  -23.900;  201.000;  407.000
455.812; -150.500; -270.000;  -92.000
455.932;  -17.600;  107.000;  -97.000
456.053;  -75.600;   36.000;   24.000
456.173; -171.400; -433.000; -355.000
456.294; -211.700; -476.000; -303.000
456.415;  -73.700;  -73.000;   70.000
456.535;   -5.900;  297.000;  273.000
456.656;  -40.600;  132.000;  240.000
456.776;  -69.400;    3.000;  298.000
456.897;   41.700;  308.000;  513.000
457.017;  -84.000; -153.000;   -3.000
457.138; -160.100; -402.000; -249.000
457.258;   21.600;  263.000;  224.000
457.379;   46.500;  509.000;  521.000
457.499;   18.800;  443.000;  432.000
457.620; -179.000; -407.000; -231.000
457.740; -127.400; -132.000;  -11.000
457.860;  -19.600;   87.000;   44.000
457.981;  -47.100;  132.000;  124.000
458.101;  -91.100;  -89.000;   40.000
458.221;   60.200;  336.000;  402.000
458.342;  -47.100;   -4.000;  -37.000
458.462;  148.000;  617.000;  352.000
458.582;  -13.700; -302.000; -294.000
458.703;  104.400;  303.000;  154.000
458.823;   23.200;   22.000;  163.000
458.943;  123.400;  341.000;  467.000
459.063;   33.000; 1124.000;  192.000
459.183;   10.800;  328.000;  313.000
459.304;   66.000;  315.000;  517.000
459.424;  -48.000; -246.000;  -89.000
459.544;  745.300;  388.000;  764.000
459.664; 1624.500;  499.000;  506.000
459.784;  590.000; 1004.000; 1175.000
459.904;  154.200;  867.000;  744.000
460.024;  212.800;  867.000;  684.000
460.144;   58.600;  449.000;  554.000
460.264;   73.300;  515.000;  327.000
460.385; -122.600; -145.000; -119.000
460.505;  120.700;  905.000;  858.000
460.625; -129.200;  -17.000;  -68.000
460.745;   28.800;  396.000;  541.000
460.864;  -23.700;  153.000;  469.000
460.984;  100.900;  499.000;  573.000
461.104;  367.400; 1656.000; 1775.000
461.224;  124.400;  657.000;  650.000
461.344;   44.800;  431.000;  360.000
461.464;   -5.300;  258.000;  513.000
461.584;   25.800;  283.000;  466.000
461.704;  -28.700;   58.000;  108.000
461.824;  -42.700;  238.000;  259.000
461.943;  -36.300;  191.000;  130.000
462.063;  -65.300;    2.000;  324.000
462.183;  138.000;  639.000;  717.000
462.303;  282.800; 1678.000; 1230.000
462.422;  130.500;  781.000;  840.000
462.542;   10.600;  271.000;  391.000
462.662;  117.400;  353.000;  380.000
462.782;  550.100;  833.000;  572.000
462.901;  953.200;  545.000;  717.000
463.021;  618.500; 1702.000; 1638.000
463.141;   49.000;  337.000;  770.000
463.260;   50.200;  614.000;  474.000
463.380;  122.500;  902.000;  884.000
463.499;   13.300;  342.000;  332.000
463.619;   17.800;  581.000;  559.000
463.738;  309.100; 1644.000;  903.000
463.858;  104.800;  657.000;  811.000
463.978;   -2.400;  542.000;  396.000
464.097;  146.400;  921.000; 1114.000
464.217;  314.100; 1196.000; 1143.000
464.336;  310.200; 1068.000; 1130.000
464.455;   16.100;  328.000;  659.000
464.575;  156.800;  597.000;  602.000
464.694;  385.900; 1204.000; 1179.000
464.814;  311.400; 1190.000; 1138.000
464.933;  200.200; 1095.000; 1027.000
465.052;  254.900; 1412.000; 1054.000
465.172;  184.500;  922.000;  799.000
465.291;  338.500; 1376.000; 1320.000
465.410;  135.500;  462.000;  735.000
465.530;  244.300; 1355.000; 1310.000
465.649;  218.800; 1209.000; 1273.000
465.768;  349.600; 1673.000; 1508.000
465.888;  165.100;  941.000; 1174.000
466.007;  244.700; 1335.000; 1440.000
466.126;   43.800;  721.000;  641.000
466.245;  144.700; 1176.000; 1187.000
466.364;  134.700;  950.000; 1060.000
466.484;  196.600; 1024.000; 1213.000
466.603;  178.700; 1101.000; 1222.000
466.722;  287.200; 1490.000; 1769.000
466.841;  199.600; 1151.000; 1401.000
466.960;  183.300; 1069.000;  972.000
467.079;  335.400; 1971.000; 1786.000
467.198;  200.800; 1238.000; 1181.000
467.317;  262.000; 1768.000; 1162.000
467.436;  246.200; 1709.000; 1261.000
467.555;  344.700; 1796.000; 1746.000
467.674;  187.900; 1227.000; 1329.000
467.793;  188.000; 1376.000; 1374.000
467.912;  257.000; 1658.000; 1539.000
468.031;  343.700; 2038.000; 1930.000
468.150;  357.900; 1842.000; 1837.000
468.269;  486.800; 2313.000; 2090.000
468.388;  459.000; 2168.000; 2339.000
468.507;  565.700; 2884.000; 2903.000
468.626;  650.600; 2555.000; 2541.000
468.744;  354.100; 2018.000; 2174.000
468.863;  490.500; 2312.000; 2523.000
468.982;  278.100; 1503.000; 1555.000
469.101;  516.300; 2788.000; 2692.000
469.220;  406.900; 2333.000; 2176.000
469.338;  589.800; 2935.000; 3051.000
469.457;  462.900; 2719.000; 2545.000
469.576;  757.100; 3953.000; 3784.000
469.695;  578.900; 2877.000; 3066.000
469.813;  910.900; 4148.000; 4192.000
469.932;  942.600; 4255.000; 4485.000
470.051;  931.900; 4075.000; 4161.000
470.169; 1848.000; 4470.000; 4338.000
470.288; 2884.400; 4700.000; 4809.000
470.406; 1718.500; 5059.000; 5194.000
470.525; 1305.200; 6101.000; 5787.000
470.644; 1430.300; 6847.000; 6794.000
470.762; 1759.200; 8397.000; 7873.000
470.881; 1923.700; 8651.000; 8464.000
470.999; 2108.000; 9685.000; 9151.000
471.118; 2317.100;11174.000;10711.000

