
Integration time [ms]: 200.000
Averaging Nr. [scans]: 10
Smoothing Nr. [pixels]: 0
Data measured with spectrometer [name]: 2101012U2
Wave   ;Sample   ;Dark     ;Reference
[nm]   ;[counts] ;[counts] ;[counts] 

197.733;  112.400;  516.000;  404.000
197.879; -164.800; -610.000; -634.000
198.025;  -96.800; -475.000; -420.000
198.171; -165.600; -602.000; -612.000
198.317;  -82.300; -401.000; -316.000
198.463; -142.900; -655.000; -404.000
198.609;   60.000;  181.000; -137.000
198.755; -187.600; -644.000; -410.000
198.901; -128.500; -505.000; -424.000
199.047; -160.000; -615.000; -488.000
199.193;  -73.900; -230.000; -468.000
199.339;  -95.700; -222.000; -369.000
199.485;   75.700;  330.000;  271.000
199.631;   -2.700;  227.000;  310.000
199.777; -102.000; -466.000; -398.000
199.923; -149.800; -610.000; -424.000
200.069;    3.300; -141.000;  -58.000
200.215;   93.600;  128.000;  453.000
200.361;   73.300;  243.000;  477.000
200.507; -161.200; -600.000; -373.000
200.653;  -66.100; -371.000; -194.000
200.798;  -75.400; -215.000; -125.000
200.944;  -32.000; -146.000;  -41.000
201.090;   54.400;   61.000;  222.000
201.236;    3.000; -116.000; -158.000
201.382;  256.000;  874.000;  903.000
201.528;  -19.700;  -58.000;  -48.000
201.674; -148.300; -386.000; -293.000
201.819; -124.800; -540.000; -439.000
201.965; -167.100; -699.000; -447.000
202.111;  -73.800; -273.000; -226.000
202.257;  -63.800; -250.000; -238.000
202.402;   47.500;   13.000;  -36.000
202.548;  -65.000; -169.000; -116.000
202.694;  207.500;  410.000; -183.000
202.840; -155.000; -603.000; -531.000
202.985; -150.300; -681.000; -639.000
203.131; -266.100; -832.000; -666.000
203.277;  -50.400; -199.000; -262.000
203.423; -133.600; -434.000; -520.000
203.568;  -88.900; -462.000; -237.000
203.714; -125.900; -535.000; -542.000
203.860; -174.300; -682.000; -641.000
204.005;    5.500;  112.000;  167.000
204.151;  163.200;  561.000;  556.000
204.296; -104.300; -354.000; -221.000
204.442; -133.000; -600.000; -547.000
204.588; -177.400; -592.000; -579.000
204.733;   31.500;  178.000;  168.000
204.879; -277.900;-1018.000; -822.000
205.025;   17.800;  -99.000;  126.000
205.170;   11.200;  -17.000;   94.000
205.316;  189.300;  438.000;  661.000
205.461; -207.400; -698.000; -554.000
205.607;  186.400;  609.000;  665.000
205.752; -194.800; -626.000; -551.000
205.898; -137.100; -501.000; -391.000
206.043; -151.100; -578.000; -506.000
206.189; -113.500; -243.000; -285.000
206.334;  137.000;  554.000;  606.000
206.480;  173.200;  409.000;  239.000
206.625; -163.500; -529.000; -552.000
206.771; -101.800; -451.000; -373.000
206.916; -112.500; -210.000; -537.000
207.062; -135.900; -545.000; -591.000
207.207; -145.800; -546.000; -443.000
207.353;  136.300;  185.000;  460.000
207.498;    9.000;  196.000;   85.000
207.643;  -89.900; -501.000; -370.000
207.789; -287.000;-1069.000; -910.000
207.934; -183.200; -665.000; -713.000
208.080;  -51.700; -154.000;   66.000
208.225;  -12.600;  -22.000;  -57.000
208.370; -177.700; -727.000; -619.000
208.516; -173.000; -741.000; -487.000
208.661;  -94.400; -127.000;  -69.000
208.806;  -25.400; -165.000; -171.000
208.952; -274.100;-1044.000; -731.000
209.097;  150.700;  378.000;  349.000
209.242;  -95.300; -307.000; -382.000
209.387;  113.100;  392.000;  350.000
209.533; -104.700; -321.000; -350.000
209.678;  173.300;  472.000;  543.000
209.823; -117.200; -408.000; -310.000
209.969; -199.000; -860.000; -757.000
210.114; -250.700; -907.000; -719.000
210.259; -228.600; -939.000; -889.000
210.404;  -27.800; -171.000;  103.000
210.549;   40.200;  108.000;    3.000
210.695;  -41.500;   -3.000;  -95.000
210.840;   61.300;   94.000;   67.000
210.985; -150.900; -484.000; -303.000
211.130;  144.000;  268.000;  406.000
211.275;   53.200;  207.000;  199.000
211.420; -115.200; -300.000; -289.000
211.566; -157.700; -536.000; -489.000
211.711;   26.500;  218.000;  157.000
211.856; -126.800; -545.000; -519.000
212.001;   66.900;  151.000;   44.000
212.146;   -8.500;  153.000;   49.000
212.291;  -64.700; -210.000; -186.000
212.436;  -49.100; -280.000;   -6.000
212.581; -173.600; -685.000; -653.000
212.726; -140.600; -487.000; -538.000
212.871;  -74.200; -552.000; -217.000
213.016; -318.300;-1172.000;-1029.000
213.161;  123.500;  406.000;  291.000
213.306; -165.200; -435.000; -577.000
213.451; -208.200; -778.000; -689.000
213.596;  -91.600; -455.000; -347.000
213.741; -132.500; -448.000; -538.000
213.886; -165.900; -498.000; -517.000
214.031;  -28.900; -294.000; -124.000
214.176; -114.900; -408.000; -341.000
214.321;  -37.500; -296.000; -157.000
214.466;  -68.300; -163.000;  -43.000
214.611;   20.500;  -61.000;  -10.000
214.756; -254.300; -948.000; -858.000
214.901;  -20.500; -388.000; -226.000
215.046; -281.400; -797.000; -825.000
215.191;   28.400;  128.000;   35.000
215.336;  -38.600; -157.000;  -19.000
215.480; -139.700; -684.000; -505.000
215.625;  -17.200; -175.000;  -19.000
215.770; -158.300; -757.000; -662.000
215.915;  -20.500;   -5.000;  -97.000
216.060;  -17.500; -113.000;  -21.000
216.205; -225.300; -731.000; -779.000
216.349; -138.900; -470.000; -533.000
216.494; -293.400; -939.000; -867.000
216.639; -256.500; -823.000; -888.000
216.784; -188.700; -577.000; -525.000
216.929;   82.700;  392.000;  281.000
217.073;  -20.700; -244.000;  -31.000
217.218;   35.500;   78.000;  -47.000
217.363; -211.600; -656.000; -618.000
217.507; -149.600; -623.000; -588.000
217.652; -265.000; -845.000; -874.000
217.797; -178.400; -708.000; -659.000
217.942; -214.200; -856.000; -720.000
218.086;  145.400;  608.000;  539.000
218.231;  -70.500; -174.000;  -26.000
218.376;  -50.700; -337.000; -229.000
218.520;   26.900;  -41.000;   96.000
218.665;  -57.500; -338.000; -204.000
218.810; -102.000; -275.000; -233.000
218.954;   33.700;  201.000;   35.000
219.099; -249.400; -713.000; -963.000
219.243; -130.900; -589.000; -554.000
219.388;  -57.600; -264.000; -136.000
219.532;  -13.600; -116.000; -116.000
219.677; -176.300; -564.000; -521.000
219.822;   -7.600;   33.000;   89.000
219.966;    1.200;   17.000;  -99.000
220.111;  -56.500; -328.000;  -40.000
220.255; -203.400; -797.000; -750.000
220.400;  -51.800; -180.000; -146.000
220.544; -144.900; -516.000; -450.000
220.689; -120.100; -422.000; -451.000
220.833;  -43.500; -123.000;  -58.000
220.978;  -88.400; -393.000; -563.000
221.122;   42.600;  319.000;  307.000
221.267; -215.000; -906.000; -837.000
221.411; -139.900; -478.000; -394.000
221.555;  -20.900; -104.000;  -23.000
221.700;  -99.500; -329.000; -222.000
221.844;   69.400;  255.000;  272.000
221.989; -130.500; -328.000; -311.000
222.133;  -74.800; -289.000; -307.000
222.277;  -44.500;    5.000;   78.000
222.422;   33.100;  227.000;  113.000
222.566;  -90.700; -381.000; -214.000
222.711; -113.400; -414.000; -479.000
222.855; -181.400; -643.000; -586.000
222.999; -175.200; -642.000; -717.000
223.144;  -70.200; -195.000; -194.000
223.288;  124.800;  423.000;  251.000
223.432;    5.000;  184.000;  230.000
223.576;   39.600;  152.000;  -21.000
223.721;   97.800;  364.000;  273.000
223.865; -116.300; -472.000; -475.000
224.009;  469.700; 1673.000; 1631.000
224.153; -176.700; -660.000; -671.000
224.298; -162.700; -531.000; -489.000
224.442;  -28.300;  -74.000;  -33.000
224.586;  -35.300; -169.000; -106.000
224.730; -185.700; -858.000; -670.000
224.875; -219.100; -739.000; -688.000
225.019;   55.700;  102.000;  188.000
225.163;  120.600;  208.000;  341.000
225.307;   47.300;   97.000;  -91.000
225.451;  103.700;  360.000;  481.000
225.595;   72.600;  264.000;  176.000
225.739;  -48.500; -170.000;  -94.000
225.884;   28.100;   86.000;    5.000
226.028; -234.900; -760.000; -626.000
226.172;  -58.700; -260.000; -273.000
226.316; -247.200; -941.000; -902.000
226.460; -141.000; -645.000; -493.000
226.604; -116.600; -406.000; -400.000
226.748; -225.000; -836.000; -733.000
226.892;  -74.000; -227.000; -181.000
227.036; -108.500; -537.000; -447.000
227.180; -137.900; -551.000; -375.000
227.324; -156.300; -561.000; -580.000
227.468; -250.000; -819.000; -717.000
227.612;   15.800;  242.000;  -28.000
227.756; -237.200; -845.000; -698.000
227.900;  117.200;  342.000;  441.000
228.044; -118.400; -509.000; -290.000
228.188;  122.800;  448.000;  568.000
228.332; -178.100; -546.000; -472.000
228.476;  -63.400; -223.000; -149.000
228.620;  -76.200; -210.000; -150.000
228.764;  161.000;  431.000;  349.000
228.908;  -42.600; -155.000;   30.000
229.052; -138.800; -615.000; -528.000
229.195;  -13.700; -172.000;   13.000
229.339;  -75.000; -235.000; -305.000
229.483;  -69.700;    5.000; -162.000
229.627;  -11.900; -156.000;  139.000
229.771;  -95.700; -218.000; -294.000
229.915;   53.400;  230.000;   79.000
230.059; -192.600; -648.000; -663.000
230.202;  -64.100; -370.000; -317.000
230.346;  -18.300; -107.000;  107.000
230.490; -136.100; -489.000; -521.000
230.634; -209.500; -736.000; -553.000
230.777;  143.300;  478.000;  509.000
230.921; -153.900; -450.000; -359.000
231.065;  -70.600; -246.000; -286.000
231.209;   52.600;  261.000;  265.000
231.352;   49.400;   54.000;   40.000
231.496;   12.300;  568.000;  188.000
231.640; -132.200; -693.000; -621.000
231.783;  116.800;  546.000;  525.000
231.927;  -89.300; -294.000; -365.000
232.071; -247.400; -962.000; -736.000
232.214; -213.000; -980.000; -764.000
232.358; -203.900; -683.000; -599.000
232.502;   -9.800;  -19.000;    7.000
232.645; -285.700;-1090.000; -927.000
232.789;  -67.200; -257.000; -218.000
232.933;  -72.900; -407.000; -224.000
233.076; -239.900;-1038.000; -897.000
233.220; -240.100; -752.000; -777.000
233.363; -106.400; -669.000; -477.000
233.507;  112.500;  371.000;  129.000
233.650; -175.100; -764.000; -834.000
233.794;  114.400;  438.000;  461.000
233.938; -140.200; -530.000; -362.000
234.081;  -11.000;  -93.000;   31.000
234.225; -109.100; -631.000; -539.000
234.368; -239.500; -773.000; -723.000
234.512;  -86.700; -385.000; -299.000
234.655; -180.300; -582.000; -555.000
234.798; -133.600; -493.000; -466.000
234.942; -251.400; -884.000;-1002.000
235.085; -132.600; -651.000; -443.000
235.229; -151.200; -405.000; -410.000
235.372;  -91.400; -247.000; -191.000
235.516; -118.200; -397.000; -321.000
235.659;   48.600;   92.000;  121.000
235.802;  -41.300;  -38.000;  -22.000
235.946;   96.500;  335.000;  215.000
236.089;   67.900;  126.000;  250.000
236.233;  121.800;  275.000;  298.000
236.376;  -98.100; -235.000; -378.000
236.519; -108.700; -297.000; -319.000
236.663;  -10.800; -215.000; -117.000
236.806; -287.200;-1029.000; -999.000
236.949;  132.200;  543.000;  431.000
237.092;  160.500;  412.000;  391.000
237.236; -179.300; -589.000; -502.000
237.379;  147.700;  352.000;  428.000
237.522; -236.100; -879.000; -768.000
237.666;  -13.700; -271.000;   18.000
237.809; -269.200; -851.000; -823.000
237.952;  101.700;  469.000;  271.000
238.095; -152.300; -447.000; -442.000
238.238;  203.300;  688.000;  700.000
238.382;  -14.400;  166.000;  103.000
238.525; -147.800; -598.000; -511.000
238.668; -321.400;-1060.000; -985.000
238.811; -160.600; -638.000; -643.000
238.954; -141.900; -483.000; -334.000
239.097;  199.100;  617.000;  664.000
239.241;   51.300;  394.000;  326.000
239.384;  -56.300; -254.000; -214.000
239.527; -125.000; -424.000; -224.000
239.670; -306.000; -994.000;-1091.000
239.813; -214.800; -696.000; -658.000
239.956;  171.100;  579.000;  473.000
240.099; -224.900; -778.000; -725.000
240.242;  134.300;  428.000;  432.000
240.385;   93.100;  466.000;  450.000
240.528; -134.300; -706.000; -473.000
240.671;   31.800;  189.000;  134.000
240.814;  -88.600; -441.000; -158.000
240.957; -219.700; -767.000; -578.000
241.100; -187.600; -779.000; -755.000
241.243; -323.400;-1234.000; -893.000
241.386; -122.100; -508.000; -379.000
241.529; -197.700; -735.000; -547.000
241.672; -134.900; -566.000; -495.000
241.815; -231.900; -832.000; -808.000
241.958;  -56.200; -125.000; -182.000
242.101; -168.100; -545.000; -390.000
242.244;  -79.500; -270.000; -325.000
242.387;  -74.500; -304.000; -246.000
242.530;  120.800;  470.000;  134.000
242.673;  -73.300; -381.000; -309.000
242.815; -241.900; -925.000; -899.000
242.958; -149.900; -482.000; -381.000
243.101;   33.900;  132.000;  187.000
243.244; -168.500; -564.000; -521.000
243.387;  -87.100; -313.000; -316.000
243.530; -223.400; -657.000; -674.000
243.672;   22.000;   43.000;  -92.000
243.815; -124.300; -355.000; -283.000
243.958;    1.500;   98.000;  -26.000
244.101;    6.000;   59.000;  -16.000
244.243;   -7.600;  -47.000;  101.000
244.386; -210.200; -761.000; -630.000
244.529;  -40.000; -132.000; -139.000
244.672; -318.900;-1154.000; -951.000
244.814; -190.300; -621.000; -794.000
244.957; -112.600; -380.000; -304.000
245.100; -144.300; -489.000; -489.000
245.242; -102.800; -387.000; -374.000
245.385;  -13.000;  -59.000;  -39.000
245.528; -262.700; -871.000; -705.000
245.670;  204.100;  612.000;  634.000
245.813; -198.000; -599.000; -547.000
245.956;  -55.600; -324.000; -275.000
246.098; -167.700; -508.000; -650.000
246.241;   46.400;  194.000;   48.000
246.383;  -28.400; -119.000;  -73.000
246.526; -150.000; -454.000; -525.000
246.669; -260.300; -889.000; -780.000
246.811;   22.700;  172.000;   -1.000
246.954; -133.400; -512.000; -426.000
247.096;    7.100;  -84.000;   -6.000
247.239; -123.600; -482.000; -445.000
247.381; -149.300; -647.000; -488.000
247.524;  177.100;  645.000;  679.000
247.666;   -1.600;   58.000;   11.000
247.809; -230.900; -887.000; -691.000
247.951;   -1.700;  -75.000;  138.000
248.094;   18.400;  432.000;  308.000
248.236; -319.400;-1262.000;-1238.000
248.378;  -32.700; -356.000;  -81.000
248.521;  -55.600; -334.000; -337.000
248.663; -119.000; -236.000; -267.000
248.806;  -47.100; -300.000; -266.000
248.948; -208.600; -886.000; -763.000
249.090;  -78.700; -428.000; -398.000
249.233; -119.800; -344.000; -381.000
249.375; -103.200; -474.000; -451.000
249.518;  -85.400;  -83.000; -133.000
249.660;   -2.100; -103.000;    3.000
249.802; -387.300;-1303.000;-1189.000
249.945; -127.500; -612.000; -540.000
250.087; -203.600; -834.000; -768.000
250.229; -108.800; -362.000; -480.000
250.371; -168.100; -494.000; -439.000
250.514;  -53.100; -310.000; -244.000
250.656;  -33.800;   69.000;  102.000
250.798; -234.800; -849.000; -800.000
250.940; -118.600; -322.000; -322.000
251.083;  -39.200; -335.000; -111.000
251.225;  120.800;  338.000;  310.000
251.367;  -77.100; -274.000; -373.000
251.509;  -57.200; -265.000; -210.000
251.651; -175.400; -731.000; -671.000
251.794;  100.200;  538.000;  632.000
251.936; -227.400; -821.000; -747.000
252.078; -173.400; -540.000; -461.000
252.220; -149.900; -645.000; -477.000
252.362;   88.100;  344.000;  462.000
252.504; -129.000; -677.000; -584.000
252.646; -238.900; -875.000; -722.000
252.788;  -11.300;   14.000; -128.000
252.931;  -72.700; -257.000; -253.000
253.073;  -76.300; -376.000; -317.000
253.215;  -41.300;  141.000;  122.000
253.357;    2.300;   82.000; -153.000
253.499;  -69.200; -374.000; -234.000
253.641; -154.700; -749.000; -594.000
253.783; -185.200; -609.000; -527.000
253.925; -167.500; -586.000; -591.000
254.067; -223.100; -744.000; -667.000
254.209;  -70.800; -391.000; -259.000
254.351; -279.200; -865.000; -883.000
254.493; -111.900; -441.000; -417.000
254.635; -254.400; -936.000; -818.000
254.777; -184.000; -752.000; -687.000
254.918; -166.500; -512.000; -430.000
255.060; -121.400; -551.000; -395.000
255.202; -120.600; -473.000; -261.000
255.344; -144.700; -658.000; -455.000
255.486; -119.100; -471.000; -406.000
255.628; -206.200; -780.000; -781.000
255.770; -180.800; -676.000; -536.000
255.912; -130.000; -559.000; -468.000
256.053; -170.700; -730.000; -508.000
256.195;  351.800; 1008.000;  903.000
256.337; -192.400; -861.000; -595.000
256.479;  138.000;  532.000;  416.000
256.621; -113.300; -394.000; -212.000
256.762; -186.800; -789.000; -742.000
256.904;   91.700;  485.000;  487.000
257.046;  -82.500; -381.000; -271.000
257.188;  -86.000; -351.000; -264.000
257.329; -136.200; -525.000; -464.000
257.471; -254.700; -939.000; -807.000
257.613; -103.400; -584.000; -498.000
257.755; -305.400;-1073.000; -982.000
257.896;   74.600;  286.000;  392.000
258.038; -134.400; -403.000; -352.000
258.180;  -57.400; -354.000; -279.000
258.321; -140.800; -581.000; -457.000
258.463;   12.000;  -71.000;  133.000
258.605; -181.700; -562.000; -570.000
258.746; -199.600; -886.000; -772.000
258.888; -314.100;-1026.000;-1020.000
259.029;   36.900;  121.000;   -8.000
259.171; -185.300; -614.000; -550.000
259.313;   -6.400;  -49.000;  -47.000
259.454; -131.400; -536.000; -414.000
259.596;  -90.900; -483.000; -390.000
259.737; -130.700; -590.000; -474.000
259.879;   70.800;  217.000;  311.000
260.020;  199.300;  901.000;  636.000
260.162;  -55.200; -146.000; -253.000
260.303; -223.600; -768.000; -687.000
260.445; -163.500; -609.000; -613.000
260.586;   74.200;  392.000;  157.000
260.728;  -75.600; -360.000; -248.000
260.869; -156.200; -350.000; -343.000
261.011;  192.900;  706.000;  537.000
261.152;  -96.200; -479.000; -319.000
261.293; -158.600; -576.000; -595.000
261.435;  -92.200; -219.000; -184.000
261.576; -111.800; -455.000; -325.000
261.718;  113.500;  420.000;  470.000
261.859; -251.800; -940.000; -949.000
262.000; -274.700; -951.000;-1016.000
262.142;  -24.000;  -52.000;  -60.000
262.283; -226.700; -808.000; -691.000
262.424; -173.700; -666.000; -625.000
262.566; -315.100;-1161.000; -983.000
262.707; -218.600; -840.000; -830.000
262.848; -236.700; -769.000; -726.000
262.990;  -80.600; -362.000; -345.000
263.131;  178.800;  650.000;  681.000
263.272;    7.900;  -61.000;  -41.000
263.413; -192.200; -589.000; -561.000
263.555; -149.800; -669.000; -143.000
263.696; -181.200; -550.000; -641.000
263.837; -102.000; -449.000; -551.000
263.978;    4.100;   -5.000;  -77.000
264.119;  -65.100; -283.000; -264.000
264.261; -257.200; -847.000; -630.000
264.402;   18.800;   33.000;   40.000
264.543; -170.700; -509.000; -524.000
264.684;  -36.400;   61.000;  -50.000
264.825; -148.500; -816.000; -538.000
264.966;  -14.800;  -84.000;  -67.000
265.107; -212.900; -646.000; -670.000
265.248; -209.900; -825.000; -812.000
265.390;  -29.100;  152.000;   -9.000
265.531;  -42.400; -238.000; -107.000
265.672; -171.100; -557.000; -630.000
265.813;  133.700;  563.000;  439.000
265.954; -295.400; -959.000; -940.000
266.095;  -31.100; -372.000; -322.000
266.236; -233.000; -686.000; -548.000
266.377;  -63.200; -243.000; -297.000
266.518; -130.200; -619.000; -547.000
266.659;   90.400;  170.000;  268.000
266.800;   11.100;   83.000;   85.000
266.941; -113.600; -487.000; -478.000
267.082;   21.500;  354.000;   99.000
267.223;  -88.500; -344.000; -273.000
267.364; -273.000; -892.000; -686.000
267.504;    5.700;    3.000;  135.000
267.645;    3.000;  160.000;   67.000
267.786;  -65.400; -147.000;  -86.000
267.927; -151.300; -473.000; -379.000
268.068;  -11.900; -186.000;  -61.000
268.209;  -84.300; -175.000; -413.000
268.350;  -98.800; -388.000; -532.000
268.490; -150.300; -648.000; -521.000
268.631;   59.300;  127.000;  225.000
268.772; -223.000; -874.000; -647.000
268.913;  -73.800; -328.000; -476.000
269.054;  -41.600; -117.000;   12.000
269.194;  -60.800; -418.000; -402.000
269.335; -296.500;-1137.000;-1074.000
269.476;  -19.800;   33.000;  -35.000
269.617;  -94.700; -347.000; -392.000
269.757; -200.800; -713.000; -646.000
269.898; -215.100; -856.000; -613.000
270.039;  -99.600; -415.000; -405.000
270.180; -296.900; -952.000; -816.000
270.320;  -32.600; -190.000; -250.000
270.461;  -61.600; -277.000; -249.000
270.602;   -4.200; -186.000; -156.000
270.742; -280.900; -868.000; -943.000
270.883; -114.800; -442.000; -390.000
271.023; -123.000; -358.000; -357.000
271.164; -139.700; -607.000; -528.000
271.305; -205.900; -666.000; -654.000
271.445; -182.300; -722.000; -683.000
271.586; -122.000; -462.000; -283.000
271.726;  -74.000; -397.000; -322.000
271.867; -137.200; -594.000; -534.000
272.008;  218.300; -473.000; -285.000
272.148;  189.500;  462.000;  468.000
272.289;   29.400; -113.000; -181.000
272.429;   14.300;   19.000;  185.000
272.570; -197.800; -633.000; -737.000
272.710; -204.700; -825.000; -775.000
272.851;  -33.700;  113.000; -130.000
272.991; -308.300;-1173.000;-1077.000
273.131; -105.300; -419.000; -459.000
273.272; -208.300; -683.000; -723.000
273.412;  -28.500; -143.000;  -31.000
273.553; -119.400; -488.000; -507.000
273.693;  253.500;  913.000;  858.000
273.834; -230.900; -894.000; -692.000
273.974; -171.200; -664.000; -615.000
274.114; -216.400; -772.000; -560.000
274.255;  124.600;  414.000;  373.000
274.395;  -26.700; -180.000; -125.000
274.535;   72.300;  199.000;  350.000
274.676;   17.100;  225.000;   94.000
274.816;   41.300;  110.000;   34.000
274.956; -189.900; -624.000; -690.000
275.097; -166.300;-1014.000; -922.000
275.237; -225.300; -913.000; -803.000
275.377; -208.000; -778.000; -689.000
275.517; -338.800; -878.000; -937.000
275.658; -111.900; -590.000; -555.000
275.798; -142.300; -606.000; -413.000
275.938;   75.400;  215.000;  323.000
276.078; -210.500; -626.000; -395.000
276.218;   -3.400;   99.000;  104.000
276.359; -289.000;-1026.000;-1024.000
276.499; -119.400; -605.000; -446.000
276.639;  -66.100; -305.000; -151.000
276.779;  -95.600; -475.000; -357.000
276.919; -206.600; -783.000; -624.000
277.059;  -27.800; -261.000; -212.000
277.199;  -98.900; -357.000; -259.000
277.340;   93.100;  287.000;  175.000
277.480; -222.700; -840.000; -693.000
277.620;   82.100;  192.000;   16.000
277.760; -398.100;-1533.000;-1294.000
277.900;   11.400;  113.000;   33.000
278.040;   23.200;  137.000;  159.000
278.180;   85.000;  270.000;  170.000
278.320;  -12.600;   21.000;   56.000
278.460; -100.900; -443.000; -469.000
278.600; -196.100; -708.000; -598.000
278.740;  115.800;  448.000;  224.000
278.880; -179.700; -768.000; -791.000
279.020;   -9.200; -194.000; -144.000
279.160; -217.200; -672.000; -595.000
279.300; -235.500; -926.000; -873.000
279.440; -194.600; -709.000; -622.000
279.579; -134.900;-1014.000; -929.000
279.719; -130.900; -410.000; -394.000
279.859;  138.800;   -4.000;   41.000
279.999;   46.000; -208.000;  101.000
280.139;  -12.300; -435.000; -387.000
280.279; -199.700; -708.000; -745.000
280.419;  -25.100; -229.000; -147.000
280.559;  -87.100; -259.000; -180.000
280.698; -167.800; -790.000; -639.000
280.838; -197.200; -778.000; -800.000
280.978; -186.700; -846.000; -790.000
281.118; -215.900; -811.000; -704.000
281.257;    3.700;   24.000;    6.000
281.397; -290.000;-1094.000; -960.000
281.537; -171.500; -599.000; -712.000
281.677;  -57.100; -150.000; -101.000
281.816; -155.600; -700.000; -630.000
281.956;  -64.400; -193.000; -257.000
282.096; -109.500; -539.000; -396.000
282.235; -207.600; -672.000; -638.000
282.375;  -33.400; -243.000;  -98.000
282.515; -225.000; -715.000; -707.000
282.654;   61.900;   29.000;  106.000
282.794;   53.000;  388.000;  244.000
282.934;  -84.200; -530.000; -491.000
283.073; -272.300;-1030.000; -857.000
283.213; -128.000; -460.000; -467.000
283.353; -106.500; -408.000; -349.000
283.492;  -69.700; -264.000; -296.000
283.632; -100.600; -254.000; -168.000
283.771; -162.700; -859.000; -730.000
283.911; -106.300; -369.000; -260.000
284.050; -219.800; -794.000; -748.000
284.190; -332.700;-1229.000;-1096.000
284.329; -299.300;-1055.000; -964.000
284.469; -156.300; -516.000; -591.000
284.608; -113.400; -559.000; -598.000
284.748; -176.000; -614.000; -570.000
284.887;  -20.200;  -87.000;  -20.000
285.027; -251.900; -844.000; -892.000
285.166;  -68.800; -192.000; -249.000
285.306;  -13.400; -116.000;  -33.000
285.445;  -56.000; -229.000; -343.000
285.584; -197.300; -630.000; -494.000
285.724;  -88.100; -282.000; -322.000
285.863; -196.800; -857.000; -507.000
286.002;  -81.200; -366.000; -276.000
286.142; -218.600; -715.000; -622.000
286.281; -111.600; -525.000; -493.000
286.420; -143.100; -554.000; -417.000
286.560;  224.200;  653.000;  623.000
286.699; -262.600; -958.000; -912.000
286.838; -162.400; -590.000; -591.000
286.978; -202.800; -533.000; -537.000
287.117; -253.000;-1085.000; -950.000
287.256;  -76.200; -228.000; -211.000
287.395;  -73.600; -197.000; -378.000
287.535;  -97.500; -370.000; -298.000
287.674; -176.700; -509.000; -484.000
287.813;  133.300;  661.000;  533.000
287.952; -232.500;-1010.000; -871.000
288.091; -317.300;-1049.000; -915.000
288.231;   76.600;   13.000;   15.000
288.370; -359.800;-1217.000;-1200.000
288.509; -166.100; -728.000; -645.000
288.648; -188.300; -770.000; -548.000
288.787;  -57.900; -243.000;  -87.000
288.926; -118.200; -454.000; -475.000
289.065;  250.100;  859.000;  672.000
289.204; -111.100; -377.000; -217.000
289.344; -179.000; -791.000; -690.000
289.483;   44.500;  416.000;  304.000
289.622;  -47.000; -291.000; -149.000
289.761;  -25.200; -309.000; -166.000
289.900; -197.500; -785.000; -626.000
290.039;  -28.400;  -12.000;  -95.000
290.178;  -60.800; -274.000; -180.000
290.317; -164.400; -618.000; -479.000
290.456;  -84.800; -463.000; -451.000
290.595; -299.500; -961.000; -833.000
290.734; -260.500; -904.000; -891.000
290.873; -172.700; -456.000; -420.000
291.011; -220.800; -833.000; -843.000
291.150; -213.200; -770.000; -682.000
291.289;  -33.300; -343.000; -110.000
291.428; -185.700; -599.000; -480.000
291.567; -110.000; -370.000; -442.000
291.706;   -9.300;  109.000;  154.000
291.845; -133.900; -597.000; -505.000
291.984; -349.500;-1234.000;-1061.000
292.122;  171.400;  602.000;  582.000
292.261;   90.800;  620.000;  463.000
292.400;   53.200; -144.000;  211.000
292.539; -238.400; -959.000; -813.000
292.678;  -26.300; -325.000; -300.000
292.816; -329.200;-1136.000; -965.000
292.955; -185.400; -844.000; -684.000
293.094;  -66.600; -173.000; -337.000
293.233;  -92.400; -556.000; -400.000
293.371;  -82.900; -225.000;  -84.000
293.510; -217.200; -866.000; -780.000
293.649; -277.500; -959.000; -924.000
293.787; -198.300;-1083.000;-1012.000
293.926;  -54.300; -113.000;  -32.000
294.065;  -91.500; -379.000; -290.000
294.203;   91.700;  298.000;  406.000
294.342;   48.200;   74.000;  156.000
294.481;12385.500;51180.000; -836.000
294.619;  -31.000; -425.000; -582.000
294.758; -326.800;-1230.000;-1137.000
294.896;   93.600; -125.000;    5.000
295.035; -278.300;-1040.000;-1006.000
295.174; -253.900;-1082.000; -954.000
295.312;  -84.700; -323.000; -203.000
295.451;  -87.100; -307.000; -428.000
295.589; -128.800; -389.000; -518.000
295.728;   46.900; -292.000; -165.000
295.866;  -22.600;  -36.000;  -51.000
296.005; -120.000; -584.000; -341.000
296.143; -166.500; -558.000; -596.000
296.282; -251.000; -957.000; -881.000
296.420; -176.700; -657.000; -557.000
296.559; -182.200; -892.000; -633.000
296.697;  -43.300; -847.000; -665.000
296.835;  -65.600;-1141.000;-1002.000
296.974;   92.700;  -23.000;   39.000
297.112;  -58.600; -443.000; -504.000
297.251; -168.800; -815.000; -755.000
297.389;   35.500; -576.000; -438.000
297.527;   33.800; -145.000;  -83.000
297.666; -114.900; -486.000; -438.000
297.804; -109.000; -404.000; -264.000
297.942;  -17.900; -136.000; -161.000
298.081;  -28.500; -183.000;   63.000
298.219;  106.700;  -17.000;  -19.000
298.357;   21.100; -144.000;  -71.000
298.495;  -78.000; -810.000; -812.000
298.634;   91.900;  245.000;  219.000
298.772;   12.400; -220.000; -338.000
298.910;  -87.700; -309.000; -182.000
299.048;   -6.400; -130.000; -153.000
299.187;  -80.400; -350.000; -250.000
299.325;   33.800;   52.000;  122.000
299.463;   -9.300; -389.000; -299.000
299.601;   94.300; -327.000; -271.000
299.739; -234.300; -908.000; -883.000
299.877; -156.500; -791.000; -703.000
300.016; -175.300;-1095.000; -935.000
300.154;  166.900;  -19.000; -161.000
300.292;    7.400; -428.000; -348.000
300.430;   -1.200; -408.000; -291.000
300.568; -246.400; -940.000; -874.000
300.706; -111.300; -366.000; -469.000
300.844; -230.100;-1108.000; -979.000
300.982;  197.500;  246.000;  282.000
301.120; -257.800; -965.000; -866.000
301.258; -155.500; -812.000; -705.000
301.396;   36.400;  104.000;  -41.000
301.534;   56.300; -218.000; -293.000
301.672;  -85.600; -664.000; -521.000
301.810;  -31.100; -613.000; -545.000
301.948;  158.700;   53.000;  149.000
302.086;  654.300; -250.000;  -32.000
302.224;  929.200; -610.000; -585.000
302.362;  -16.300; -558.000; -622.000
302.500; -161.300; -923.000; -893.000
302.638;  142.900;  128.000;  245.000
302.776;  -32.700; -352.000; -408.000
302.913;   91.600;  447.000;  236.000
303.051;  -31.600;  -86.000;  -23.000
303.189;   93.400;   90.000;  118.000
303.327;  -85.500; -341.000; -256.000
303.465; -144.700; -832.000; -588.000
303.603; -213.500; -805.000; -604.000
303.740;  165.100;  417.000;  241.000
303.878; -102.100; -800.000; -759.000
304.016; -171.500; -915.000; -790.000
304.154; -302.900;-1123.000;-1152.000
304.291;  -87.000; -505.000; -554.000
304.429;   29.900;  102.000;   74.000
304.567; -265.300; -908.000; -893.000
304.705; -113.700; -408.000; -515.000
304.842;   36.900; -616.000; -540.000
304.980;  107.200;  215.000;   35.000
305.118;   -3.100; -367.000; -365.000
305.255; -237.300; -945.000; -927.000
305.393;  113.000;  178.000;  239.000
305.531; -240.000;-1173.000; -956.000
305.668; -148.100; -663.000; -582.000
305.806;   47.600; -358.000; -439.000
305.943;   85.100; -629.000; -637.000
306.081;   26.100; -378.000; -267.000
306.219; -217.500; -863.000; -748.000
306.356;   28.900;  158.000;   27.000
306.494;  246.900;  981.000;  761.000
306.631;   19.900;  -11.000;  -55.000
306.769;  -34.400; -613.000; -485.000
306.906;  -55.400; -284.000; -258.000
307.044; -110.200; -473.000; -488.000
307.181; -132.200; -410.000; -332.000
307.319;   29.900;  112.000;   87.000
307.456; -311.000;-1191.000;-1153.000
307.594; -195.600; -980.000; -727.000
307.731;  -36.500; -371.000; -164.000
307.868;   32.600;  -15.000;   20.000
308.006; -270.900; -961.000; -847.000
308.143; -132.600; -618.000; -330.000
308.281;  226.000;  -37.000; -254.000
308.418;  -24.000; -748.000; -640.000
308.555; -154.500; -400.000; -250.000
308.693; -129.200; -577.000; -573.000
308.830; -220.800; -712.000; -657.000
308.967;   10.100; -215.000;  -95.000
309.105;  -85.600; -507.000; -396.000
309.242;   44.900; -468.000; -367.000
309.379;  455.200; -577.000; -655.000
309.517; -109.600; -936.000; -948.000
309.654; -190.200; -910.000; -734.000
309.791; -126.500; -662.000; -580.000
309.928; -257.900; -977.000; -914.000
310.065;  299.500;  819.000;  697.000
310.203; -109.000; -825.000; -850.000
310.340;  -55.300; -465.000; -321.000
310.477; -149.000; -412.000; -516.000
310.614; -105.000; -383.000; -473.000
310.751; -141.600; -427.000; -518.000
310.889;    0.800;    1.000;   11.000
311.026; -289.300;-1161.000; -939.000
311.163;  -70.900; -386.000; -380.000
311.300; -121.600; -512.000; -479.000
311.437; -137.900; -658.000; -619.000
311.574; -315.500;-1226.000; -985.000
311.711; -111.400; -595.000; -433.000
311.848;  -71.400; -380.000; -388.000
311.985;   44.200;  270.000;   93.000
312.122; -233.200; -932.000; -762.000
312.259; -213.700; -941.000; -994.000
312.396; -154.100; -508.000; -551.000
312.533; -166.800; -812.000; -790.000
312.670; -257.900;-1070.000; -898.000
312.807;  -87.700; -352.000; -367.000
312.944; -165.100; -513.000; -611.000
313.081;  -49.900; -150.000; -415.000
313.218; -219.500;-1111.000; -867.000
313.355;   26.600; -531.000; -449.000
313.492;   -8.500; -455.000; -292.000
313.629;  264.600;  815.000;  735.000
313.766; -329.100;-1176.000;-1008.000
313.902;   11.000; -186.000;   21.000
314.039; -120.300; -372.000; -289.000
314.176;  112.300;  286.000;  192.000
314.313; -135.400; -569.000; -473.000
314.450; -173.000; -788.000; -684.000
314.587; -124.200; -468.000; -480.000
314.723;   15.600;  -78.000;  130.000
314.860;   94.500;  318.000;  332.000
314.997;   61.300;  223.000;  142.000
315.134; -110.200; -385.000; -368.000
315.270;  -93.900; -480.000; -496.000
315.407; -267.700;-1094.000; -967.000
315.544; -105.600; -657.000; -538.000
315.681; -144.600; -681.000; -565.000
315.817;  -16.800; -133.000; -176.000
315.954;  -52.700; -613.000; -392.000
316.091; -266.600;-1045.000;-1023.000
316.227;  -25.200;  -71.000; -179.000
316.364;   35.500;   23.000;    6.000
316.500;  -68.600; -113.000; -300.000
316.637;  -62.300; -181.000; -302.000
316.774; -177.900; -625.000; -358.000
316.910; -143.300; -598.000; -629.000
317.047; -154.900; -487.000; -351.000
317.183;  -92.000; -435.000; -566.000
317.320;  -56.400; -367.000; -321.000
317.456; -163.500; -733.000; -805.000
317.593; -194.100; -598.000; -641.000
317.729;   -5.000;  168.000;  -67.000
317.866; -413.700;-1434.000;-1285.000
318.002; -175.700; -708.000; -948.000
318.139; -224.000; -883.000; -867.000
318.275; -237.200;-1003.000; -738.000
318.412; -117.200; -517.000; -336.000
318.548; -105.200; -751.000; -720.000
318.685; -225.900; -985.000; -888.000
318.821; -153.100; -762.000; -735.000
318.957;   -3.700;   34.000;  -23.000
319.094;  106.000;  297.000;  154.000
319.230; -162.200; -756.000; -742.000
319.367;  123.800; -471.000; -520.000
319.503;   62.400; -538.000; -436.000
319.639; -175.500; -877.000; -793.000
319.775; -133.600; -750.000; -685.000
319.912;  -73.500; -424.000; -519.000
320.048; -233.200;-1184.000;-1184.000
320.184;  135.700;   59.000;   70.000
320.321; -103.700; -497.000; -467.000
320.457;  157.400;  475.000;  662.000
320.593; -121.700; -375.000; -382.000
320.729; -180.400; -732.000; -734.000
320.866; -172.400; -577.000; -635.000
321.002; -140.200; -759.000; -809.000
321.138;  -52.800; -135.000; -211.000
321.274;   78.300; -148.000; -115.000
321.410;  -99.900; -585.000; -353.000
321.546; -137.800;-1011.000; -911.000
321.683;   76.300;  400.000;  185.000
321.819;   26.100;  -48.000; -117.000
321.955; -219.500; -743.000; -722.000
322.091; -105.300; -585.000; -540.000
322.227;  -50.500; -382.000; -202.000
322.363;  -32.700; -320.000; -215.000
322.499;  -72.200; -343.000; -331.000
322.635;  236.700;  636.000;  443.000
322.771;   10.800; -139.000;   12.000
322.907;  159.300;  129.000;  327.000
323.043;  -58.700; -115.000; -206.000
323.179;  -70.300; -394.000; -363.000
323.315;  -64.400; -401.000; -371.000
323.451;   42.600; -328.000; -236.000
323.587;   66.000;  -60.000;  -77.000
323.723;    2.700; -682.000; -601.000
323.859;  -29.000; -258.000;  -76.000
323.995;  -57.500; -467.000; -409.000
324.131; -262.800; -967.000; -892.000
324.267;  -56.300; -254.000; -276.000
324.402; -293.500; -960.000; -983.000
324.538;  -21.200; -279.000; -104.000
324.674;   48.800;  164.000;   77.000
324.810;  223.800;  226.000;  308.000
324.946;    7.700; -810.000; -658.000
325.082; -147.600; -568.000; -475.000
325.217;    0.200;  -62.000;   16.000
325.353; -186.200; -764.000; -659.000
325.489; -154.900; -540.000; -506.000
325.625; -118.000; -579.000; -525.000
325.760;   98.500;  517.000;  376.000
325.896;  -68.100; -515.000; -702.000
326.032;  -96.000; -403.000; -352.000
326.168;  -88.500; -462.000; -369.000
326.303; -145.700; -352.000; -461.000
326.439;  -33.900; -336.000; -276.000
326.575;  -10.100; -190.000;  -29.000
326.710;   26.700; -156.000;  -30.000
326.846;  -20.600;  146.000;  103.000
326.982; -154.700; -530.000; -548.000
327.117; -151.900; -481.000; -442.000
327.253; -188.100; -745.000; -742.000
327.388; -312.800;-1137.000;-1153.000
327.524; -133.600; -811.000; -578.000
327.659;  -40.300;  -58.000;  -22.000
327.795;   -4.500;   69.000;   45.000
327.931; -175.700; -723.000; -499.000
328.066;  -48.400; -417.000; -276.000
328.202;  -31.800;   12.000; -129.000
328.337;  221.900;  957.000;  713.000
328.473;  -24.100;  -12.000;  -74.000
328.608;  -32.800; -256.000; -267.000
328.743; -206.700; -799.000; -664.000
328.879;   37.600;  214.000;  114.000
329.014;  -95.400; -102.000; -122.000
329.150; -128.000; -358.000; -483.000
329.285; -155.000; -465.000; -466.000
329.421;  -39.300; -548.000; -246.000
329.556;  -38.800;  -36.000;   85.000
329.691; -169.400; -633.000; -615.000
329.827; -160.300; -626.000; -480.000
329.962;  -35.800;  131.000; -301.000
330.097; -170.200; -673.000; -585.000
330.233;  -85.500; -410.000; -223.000
330.368; -255.300; -839.000; -628.000
330.503;  -11.300;    3.000;   98.000
330.638;  -20.200;  -93.000; -125.000
330.774; -152.100; -609.000; -530.000
330.909; -116.900; -434.000; -244.000
331.044; -148.300; -714.000; -708.000
331.179; -368.100;-1217.000;-1109.000
331.315;   30.000;   77.000;   20.000
331.450;   43.300;  157.000;  285.000
331.585; -195.600; -805.000; -706.000
331.720; -145.000; -510.000; -460.000
331.855;  -15.100;  -35.000; -102.000
331.990;  284.800;   62.000;  138.000
332.126;  162.900; -110.000;   71.000
332.261;  -98.400; -379.000; -265.000
332.396;    4.500; -135.000; -242.000
332.531; -249.600;-1074.000;-1031.000
332.666;    0.600; -519.000; -363.000
332.801; -199.000; -726.000; -807.000
332.936;  -17.000; -192.000; -122.000
333.071; -311.800; -870.000; -817.000
333.206;   61.000;  307.000;  379.000
333.341;   55.500;  344.000;  418.000
333.476; -149.100; -627.000; -623.000
333.611;  -60.500; -251.000; -173.000
333.746;  -72.600; -381.000; -464.000
333.881; -242.400; -973.000; -935.000
334.016; -240.900; -936.000; -917.000
334.151; -258.000; -746.000; -702.000
334.286;   45.300;  152.000;  186.000
334.421;  -34.200; -125.000; -178.000
334.556; -152.100; -611.000; -567.000
334.690; -181.000; -631.000; -577.000
334.825;  128.000;  381.000;   83.000
334.960; -124.400; -285.000; -413.000
335.095;   22.100;  135.000;  -91.000
335.230; -216.500; -722.000; -738.000
335.365; -274.700;-1084.000; -990.000
335.499; -281.100;-1108.000;-1037.000
335.634;   50.600;    9.000;  534.000
335.769; -212.300; -755.000; -720.000
335.904; -166.600; -603.000; -561.000
336.038; -181.000; -735.000; -657.000
336.173; -287.600;-1206.000;-1194.000
336.308;  -62.100; -116.000; -189.000
336.443;  -49.100; -544.000; -634.000
336.577; -189.700; -936.000; -787.000
336.712;   50.900;   -4.000;  -12.000
336.847; -164.300; -724.000; -607.000
336.981;   38.600; -272.000; -208.000
337.116;  327.600;  615.000;  501.000
337.250;  129.900; -434.000; -421.000
337.385;  231.100; -297.000; -208.000
337.520;   23.300; -632.000; -603.000
337.654;  -76.500; -215.000; -126.000
337.789; -234.600; -989.000; -933.000
337.923;  -43.500; -104.000; -205.000
338.058; -156.100; -673.000; -738.000
338.192; -103.500; -611.000; -488.000
338.327;   -5.100;  -18.000; -155.000
338.461; -134.600; -299.000; -469.000
338.596; -178.900; -780.000; -638.000
338.730; -232.400; -767.000; -803.000
338.865;  110.100;  -46.000; -140.000
338.999; -177.000; -846.000; -702.000
339.134;  -96.300; -634.000; -536.000
339.268; -106.900; -741.000; -603.000
339.403;  279.300; -740.000; -775.000
339.537;   14.900; -894.000; -820.000
339.671; -207.600; -829.000; -813.000
339.806; -148.400; -556.000; -512.000
339.940;   18.500; -261.000; -235.000
340.074; -196.700; -685.000; -510.000
340.209;  -46.400; -351.000; -230.000
340.343; -201.100; -517.000; -573.000
340.477;  289.900;  998.000; 1036.000
340.612; -157.400;-1033.000; -900.000
340.746;  141.100; -199.000; -243.000
340.880; -197.200; -924.000; -785.000
341.014;   13.200;  -45.000; -154.000
341.149; -219.900; -756.000; -718.000
341.283; -204.600; -839.000; -754.000
341.417; -236.500;-1124.000; -938.000
341.551;   57.800; -768.000; -708.000
341.685;  -90.100; -633.000; -611.000
341.820; -142.500; -562.000; -493.000
341.954; -112.700; -218.000; -349.000
342.088; -273.300;-1102.000;-1019.000
342.222;   85.200;  565.000;  618.000
342.356;  -91.500; -395.000; -335.000
342.490; -218.400; -880.000; -841.000
342.624;  -77.300; -339.000; -242.000
342.758;  -59.100; -364.000; -312.000
342.892; -123.600; -710.000; -585.000
343.026;  -68.500;  -58.000; -116.000
343.160;  -88.800; -426.000; -376.000
343.294; -188.000; -474.000; -337.000
343.428;  -73.200; -488.000; -448.000
343.562;  -20.600; -172.000;  -23.000
343.696;  -52.600; -385.000; -314.000
343.830;  -76.900; -362.000; -356.000
343.964;   24.400; -231.000; -168.000
344.098; 1013.800;  199.000;   70.000
344.232;  865.600; -266.000; -127.000
344.366;   31.700; -567.000; -453.000
344.500;   -9.900; -665.000; -744.000
344.634;   23.300; -324.000; -164.000
344.768;  -74.000; -531.000; -341.000
344.902;   55.500;  278.000;  256.000
345.035; -146.000; -556.000; -496.000
345.169; -249.300; -933.000; -656.000
345.303;  -83.400; -308.000; -482.000
345.437; -204.300; -826.000; -717.000
345.571; -126.700; -675.000; -594.000
345.704; -104.600; -309.000; -532.000
345.838;  -12.200; -331.000; -284.000
345.972;  -94.800; -543.000; -495.000
346.106;  196.300; -179.000; -190.000
346.239;  383.600; -312.000; -243.000
346.373;  -33.700; -343.000; -302.000
346.507; -303.200; -950.000; -962.000
346.640;  158.400;  -30.000;   13.000
346.774; -150.900; -650.000; -797.000
346.908;  -35.600; -138.000;  -11.000
347.041; -203.200; -646.000; -593.000
347.175;   52.700;  259.000;   27.000
347.309; -178.500; -698.000; -628.000
347.442; -211.300; -883.000; -732.000
347.576;  388.700;  670.000;  668.000
347.709;  222.100; -123.000;  -52.000
347.843; -211.800; -933.000; -825.000
347.976;   92.300;  235.000;  294.000
348.110; -358.900;-1268.000;-1186.000
348.243; -171.900; -679.000; -772.000
348.377;  -12.700;  -26.000;   60.000
348.510;  110.400;  403.000;  540.000
348.644;  -57.800;  -37.000; -159.000
348.777;   74.500;  180.000;  191.000
348.911;  -43.500; -142.000; -112.000
349.044;  268.100;  471.000;  448.000
349.178;   37.800;-1069.000;-1006.000
349.311;  187.500;  141.000;  255.000
349.444; -132.100; -927.000; -813.000
349.578;  -23.400; -347.000; -200.000
349.711; -207.600; -959.000; -862.000
349.845;  -50.000; -661.000; -591.000
349.978; -334.000;-1224.000;-1137.000
350.111; -128.200; -546.000; -612.000
350.244; -157.500; -596.000; -700.000
350.378;  -23.500; -392.000; -393.000
350.511; -118.200; -393.000; -426.000
350.644; -191.400; -808.000; -806.000
350.778;   11.700;  168.000;  104.000
350.911;   55.200;  134.000;  140.000
351.044; -184.200; -685.000; -615.000
351.177;  -62.500; -321.000; -281.000
351.310;  -33.400;    3.000; -131.000
351.444; -208.100; -888.000; -788.000
351.577;  110.300;  140.000;   90.000
351.710;  232.800;  593.000;  417.000
351.843;  -73.900; -165.000;  -77.000
351.976;    8.700;  149.000;  -79.000
352.109; -186.500; -621.000; -612.000
352.242;  -42.400; -464.000; -419.000
352.376; -131.400; -580.000; -636.000
352.509;  129.600; -437.000; -356.000
352.642; -136.300; -654.000; -604.000
352.775;   41.300; -141.000;  -98.000
352.908; -233.600; -933.000; -904.000
353.041; -205.200; -814.000; -824.000
353.174; -148.500; -551.000; -424.000
353.307; -177.100; -753.000; -764.000
353.440;  145.400;  541.000;  453.000
353.573; -224.500; -957.000;-1008.000
353.706; -102.600; -384.000; -558.000
353.839;  -50.800; -264.000; -220.000
353.971; -171.600; -657.000; -512.000
354.104; -186.200; -896.000; -835.000
354.237; -119.200; -627.000; -662.000
354.370; -139.900; -846.000; -879.000
354.503; -356.200;-1231.000;-1308.000
354.636;  -87.800; -529.000; -348.000
354.769; -277.800; -937.000; -860.000
354.902;  -45.200; -230.000; -139.000
355.034;  -40.700; -164.000; -220.000
355.167;  -40.500; -262.000; -162.000
355.300; -270.900;-1061.000; -880.000
355.433;  967.300;  -71.000;  -14.000
355.565; 1475.500; -402.000; -384.000
355.698;  343.700; -356.000; -296.000
355.831; -116.600; -882.000; -801.000
355.964;   85.700; -285.000; -170.000
356.096; -218.400; -856.000; -843.000
356.229;  -76.300; -523.000; -530.000
356.362;  268.000; -373.000; -266.000
356.494;  583.800; -229.000; -162.000
356.627;  489.300;  269.000;  377.000
356.760;  672.800;  120.000;   53.000
356.892;  870.300; -286.000; -601.000
357.025;  732.200;  403.000;  389.000
357.157;  603.200; -167.000; -179.000
357.290;  677.900; -856.000; -713.000
357.423;  154.400; -667.000; -556.000
357.555;  104.000; -217.000; -228.000
357.688;   61.300; -483.000; -364.000
357.820;  417.800; -870.000; -877.000
357.953; 4134.500; -563.000; -589.000
358.085;  793.900; -632.000; -612.000
358.218; 1034.100;-1131.000; -932.000
358.350;  218.800;  -58.000;  312.000
358.483; -301.200;-1300.000;-1187.000
358.615; -128.600;-1182.000;-1078.000
358.747; -224.100;-1187.000;-1058.000
358.880;  -40.800; -810.000; -744.000
359.012;  -48.700; -376.000; -202.000
359.145;  -65.300; -480.000; -511.000
359.277;  -44.900; -962.000; -913.000
359.409; 3478.200;  536.000;  231.000
359.542;  845.600; -738.000; -688.000
359.674;  104.000;   46.000;   13.000
359.806; -129.700; -565.000; -438.000
359.939;  -95.100; -617.000; -516.000
360.071; -114.600; -583.000; -579.000
360.203;  -54.000; -411.000; -364.000
360.335;   78.400;  164.000;  -16.000
360.468;  186.200; -249.000; -307.000
360.600; 2639.200; -547.000; -454.000
360.732; 2783.200; -546.000; -423.000
360.864;  175.900;-1216.000;-1044.000
360.996;  233.400; -516.000; -554.000
361.129;  -48.300; -389.000; -598.000
361.261;   51.500;  110.000; -113.000
361.393;  -91.700; -252.000; -214.000
361.525;   76.500;   94.000;  244.000
361.657; -157.100; -821.000; -703.000
361.789;    3.400; -139.000; -155.000
361.921;  165.300; -642.000; -593.000
362.053;  336.400;  524.000;  541.000
362.185;   52.300;  288.000;   72.000
362.318; -174.500; -709.000; -705.000
362.450;  184.100;  294.000;  444.000
362.582;   -6.500; -913.000; -870.000
362.714;  -74.900; -353.000; -332.000
362.846; -166.500; -606.000; -490.000
362.978; -287.400; -941.000; -811.000
363.109;   31.700; -161.000; -260.000
363.241;  316.500; -739.000; -749.000
363.373;  324.000; -649.000; -564.000
363.505;  692.600; -186.000;  -91.000
363.637;   96.400; -787.000; -601.000
363.769; -291.300;-1067.000;-1080.000
363.901; -108.200; -596.000; -654.000
364.033; -258.300;-1103.000;-1062.000
364.165;   -6.600; -283.000; -283.000
364.296;   37.700; -316.000; -177.000
364.428;  -99.800;-1344.000;-1220.000
364.560; -156.800; -679.000; -661.000
364.692; -114.300; -738.000; -835.000
364.824;  216.200; -588.000; -456.000
364.955;  428.300; -402.000; -564.000
365.087;  767.700;-1097.000; -852.000
365.219;  -59.200; -686.000; -816.000
365.351; -147.300; -526.000; -572.000
365.482;   96.400;  300.000;  240.000
365.614; -102.400; -402.000; -314.000
365.746; -144.400; -729.000; -752.000
365.877; -216.100; -706.000; -672.000
366.009;  293.400;  -35.000;  -62.000
366.141; -264.800;-1249.000;-1134.000
366.272; -209.800; -803.000; -719.000
366.404; -249.100;-1005.000; -874.000
366.535;   26.300; -139.000;  -12.000
366.667; -180.500; -644.000; -649.000
366.799;   97.200;  353.000;  203.000
366.930; -273.300; -862.000; -996.000
367.062;   61.100; -639.000; -613.000
367.193;    4.100; -872.000; -842.000
367.325; -123.100; -580.000; -684.000
367.456;   50.200; -246.000;   31.000
367.588;  153.000; -371.000; -318.000
367.719;    9.200;  -44.000;  -45.000
367.851;  -22.300; -222.000; -241.000
367.982; -157.200; -875.000; -732.000
368.113;   68.800; -475.000; -358.000
368.245; -238.200; -960.000; -841.000
368.376;  -64.100; -254.000; -302.000
368.508;  -89.200; -188.000; -263.000
368.639; -285.700;-1166.000;-1034.000
368.770; -100.700; -670.000; -589.000
368.902; -168.200; -836.000; -926.000
369.033; -238.000; -906.000; -855.000
369.164; -147.500; -720.000; -653.000
369.296; -217.300; -452.000; -601.000
369.427;    5.100; -209.000; -144.000
369.558;  -93.700; -593.000; -377.000
369.689; -162.300; -721.000; -569.000
369.821; -264.600; -951.000; -845.000
369.952;   15.200;   42.000; -108.000
370.083; -113.100; -229.000; -108.000
370.214; -154.200; -735.000; -650.000
370.345;  -17.900;   65.000;   81.000
370.477; -163.700; -810.000; -790.000
370.608;  235.900; -328.000; -264.000
370.739; -159.700;-1233.000;-1292.000
370.870; -184.800;-1102.000; -923.000
371.001;   70.600; -378.000; -467.000
371.132; -157.700; -754.000; -735.000
371.263;  -21.700;  -42.000; -148.000
371.394; -246.600; -841.000; -748.000
371.525;   97.100;  345.000;  225.000
371.657; -191.200; -808.000; -670.000
371.788;  128.000;  103.000;  199.000
371.919;  132.900; -384.000; -304.000
372.050; 4372.000;  -91.000; -156.000
372.181; 1239.500; -188.000; -294.000
372.311;  405.700;   42.000; -127.000
372.442;  -15.800; -457.000; -451.000
372.573;  -61.400; -444.000; -340.000
372.704; -286.900;-1008.000; -980.000
372.835;   66.300; -228.000; -289.000
372.966; -150.600; -646.000; -554.000
373.097; -174.200; -575.000; -711.000
373.228; -136.300; -717.000; -542.000
373.359;   55.200; -824.000; -536.000
373.490;  875.500; -881.000; -727.000
373.620; 1136.200;-1001.000; -803.000
373.751; 2012.700; -332.000; -396.000
373.882;  833.900; -663.000; -733.000
374.013;   16.600; -449.000; -262.000
374.143;  -89.700; -581.000; -659.000
374.274; -247.000; -987.000; -908.000
374.405;  120.000; -388.000; -276.000
374.536;  416.500; -526.000; -387.000
374.666; 1187.600; -759.000; -807.000
374.797;  172.800; -817.000; -868.000
374.928;  883.800; -710.000; -560.000
375.058;  812.900; -535.000; -500.000
375.189;  102.800;  -59.000;  -93.000
375.320; -256.000; -928.000;-1034.000
375.450; -107.700; -625.000; -616.000
375.581; -118.200; -526.000; -436.000
375.712;  -85.500; -574.000; -250.000
375.842;  298.800; -438.000; -415.000
375.973;  142.300; -554.000; -513.000
376.103; -131.400; -665.000; -648.000
376.234; -173.000; -531.000; -552.000
376.364; -164.100; -944.000; -867.000
376.495;  445.700;  925.000;  529.000
376.625; -101.300; -472.000; -485.000
376.756;  -30.200; -709.000; -678.000
376.886; -264.000;-1178.000;-1026.000
377.017;  -74.000;-1048.000;-1061.000
377.147;  215.500; -786.000; -782.000
377.278;  118.600;  174.000;  228.000
377.408; -243.400; -801.000; -815.000
377.538; -190.600; -707.000; -693.000
377.669; -175.600; -537.000; -613.000
377.799; -166.900; -645.000; -635.000
377.929; -138.100; -610.000; -428.000
378.060; -204.400; -781.000; -847.000
378.190; -177.800; -726.000; -531.000
378.320; -111.600; -401.000; -406.000
378.451;  -11.600; -131.000;  -22.000
378.581;  -19.500;  -67.000; -110.000
378.711;  277.500; 1035.000;  866.000
378.841;  -95.100; -533.000; -675.000
378.972; -211.900; -871.000; -751.000
379.102;  -71.200; -652.000; -579.000
379.232;  -48.000; -126.000;  -73.000
379.362; -193.700;-1001.000; -885.000
379.492;  -56.700; -373.000; -424.000
379.623;  139.300;    0.000;  111.000
379.753; -212.700;-1107.000; -974.000
379.883;  265.700;   59.000;  156.000
380.013; -120.500;-1081.000;-1017.000
380.143; -249.000;-1097.000;-1056.000
380.273; -204.600; -985.000; -861.000
380.403;   -8.700; -344.000; -257.000
380.533; -140.200; -651.000; -664.000
380.663;  126.300;  173.000;  128.000
380.793; -249.700;-1027.000;-1074.000
380.923;  -31.000; -103.000;  -34.000
381.053; -187.500; -613.000; -623.000
381.183;  -29.300; -106.000; -248.000
381.313;   -5.600; -656.000; -470.000
381.443;  -12.500; -692.000; -473.000
381.573;  179.100; -402.000; -409.000
381.703;  110.900;-1249.000;-1095.000
381.833; -325.600;-1454.000;-1336.000
381.963;  154.900; -134.000;  -87.000
382.093; 1443.500; -925.000; -909.000
382.223;  396.200; -713.000; -602.000
382.353; -105.900; -801.000; -608.000
382.482;  334.300;-1091.000; -964.000
382.612;  749.800; -872.000; -644.000
382.742;  380.400; -695.000; -622.000
382.872;  207.800; -565.000; -551.000
383.002;  101.300;  347.000; -132.000
383.131;  -65.900; -226.000; -160.000
383.261; -122.200; -706.000; -768.000
383.391;  247.600; -552.000; -377.000
383.521; 3410.900;  451.000;  263.000
383.650;  582.600; -947.000; -904.000
383.780;  -73.400; -783.000; -656.000
383.910;  238.800;  880.000;  802.000
384.039; -100.000; -794.000; -656.000
384.169;   55.600;-1205.000;-1017.000
384.299; -107.800; -650.000; -662.000
384.428; -193.800; -764.000; -680.000
384.558;  -72.700; -308.000; -275.000
384.687; -108.300; -414.000; -334.000
384.817;   23.000;   75.000;   -2.000
384.947;  -24.800; -234.000; -141.000
385.076;  455.000;  982.000;  912.000
385.206;  151.200;  369.000;  480.000
385.335;  -87.800; -549.000; -417.000
385.465; -165.000; -655.000; -663.000
385.594;  184.900;  -53.000;  -44.000
385.724;  373.500; -868.000; -838.000
385.853;  122.900; -296.000; -270.000
385.982; 1588.900; -743.000; -787.000
386.112; 2382.600;-1052.000; -871.000
386.241;  106.100; -307.000; -312.000
386.371;   58.600; -174.000;  -87.000
386.500;  -70.400; -825.000; -789.000
386.629;  -76.400; -874.000; -817.000
386.759;   67.700;  -43.000;   68.000
386.888;   -7.800; -170.000; -250.000
387.017; -167.000; -648.000; -620.000
387.147; -197.800; -771.000; -798.000
387.276;  -60.600; -410.000; -397.000
387.405;   -6.700; -398.000; -342.000
387.535;  -93.700; -452.000; -361.000
387.664; -128.400; -692.000; -620.000
387.793;   19.900; -198.000; -113.000
387.922;  599.300;  255.000;  200.000
388.052;  -40.000; -576.000; -423.000
388.181;  -35.800; -342.000; -472.000
388.310; -141.200; -889.000; -710.000
388.439; -130.300; -749.000; -742.000
388.568;  207.100;  365.000;  244.000
388.697; 1144.900; -756.000; -653.000
388.826;  147.400; -768.000; -666.000
388.956;   55.700; -285.000; -307.000
389.085;  -86.800; -347.000; -287.000
389.214; -189.100; -842.000; -872.000
389.343; -100.000; -645.000; -413.000
389.472;  494.700;  126.000;  149.000
389.601;  605.300;   91.000;    0.000
389.730;  -46.600; -568.000; -687.000
389.859;   92.800;  226.000;   46.000
389.988;  171.300; -423.000; -408.000
390.117;  143.800; -168.000; -146.000
390.246;   -3.300; -331.000; -320.000
390.375;   34.500; -673.000; -626.000
390.504; -116.400; -703.000; -621.000
390.633; -214.400; -672.000; -726.000
390.761; -167.600; -732.000; -645.000
390.890;    7.400;   -4.000; -130.000
391.019;  -77.900; -421.000; -441.000
391.148; -247.300; -826.000; -855.000
391.277; -107.300; -576.000; -493.000
391.406; -196.900; -821.000; -805.000
391.534;  109.300;  574.000; -301.000
391.663; -116.300; -583.000; -645.000
391.792; -155.400; -673.000; -701.000
391.921;   86.300;   -3.000;   15.000
392.050;  214.300; -287.000; -228.000
392.178; -203.700;-1206.000;-1061.000
392.307;   96.100; -758.000; -712.000
392.436;   30.400; -427.000; -641.000
392.564;   26.000;  166.000;   -6.000
392.693; -219.300; -860.000; -682.000
392.822;  187.400; -529.000; -534.000
392.950;   -8.000; -880.000; -714.000
393.079;  357.100; -188.000; -328.000
393.208;  -34.400; -488.000; -511.000
393.336;    9.200; -170.000; -145.000
393.465;  -68.100; -317.000; -199.000
393.593;   26.900;   62.000;   79.000
393.722; -288.000;-1121.000; -916.000
393.850;   -9.100; -188.000;  -61.000
393.979; -283.300; -926.000; -805.000
394.107; -109.900; -517.000; -537.000
394.236; -106.000; -570.000; -507.000
394.364;  358.800;  383.000;  206.000
394.493;  465.600; -911.000; -767.000
394.621;  -87.900; -955.000; -916.000
394.750;  593.200; -873.000; -923.000
394.878; 2890.600; -247.000; -149.000
395.007; 3661.900; -721.000; -807.000
395.135;  178.200; -790.000; -721.000
395.263; -221.100;-1038.000;-1040.000
395.392;   31.300;  -25.000; -107.000
395.520; -177.600; -818.000; -679.000
395.648; -209.600; -865.000; -915.000
395.777;  -46.200; -366.000; -405.000
395.905;  -76.400; -449.000; -564.000
396.033;   71.200;  217.000;  172.000
396.162;  942.400; -399.000; -453.000
396.290;  793.600;  -17.000;   -2.000
396.418;   63.500; -555.000; -514.000
396.546; -188.800; -571.000; -466.000
396.674; -205.600; -850.000; -878.000
396.803;   16.400;  -72.000;  -23.000
396.931;   75.500; -179.000; -199.000
397.059; -132.300;-1026.000; -989.000
397.187; -189.100;-1026.000; -975.000
397.315; -257.500; -884.000; -649.000
397.443; -151.300; -592.000; -443.000
397.572; -137.000; -578.000; -424.000
397.700;  -58.800; -607.000; -614.000
397.828;   36.000;  120.000;  -90.000
397.956;  -93.000; -508.000; -478.000
398.084; -166.300; -767.000; -626.000
398.212;   86.200;  137.000;  124.000
398.340;    9.200;  -56.000;  159.000
398.468;  -20.500; -390.000; -169.000
398.596; -267.100; -993.000; -953.000
398.724; -205.800; -762.000; -767.000
398.852; -314.600;-1024.000; -976.000
398.980;  -97.400; -560.000; -560.000
399.108; -159.000; -982.000; -735.000
399.236;   66.700;   13.000;    8.000
399.363;   19.400;  222.000;  196.000
399.491; -121.600; -404.000; -398.000
399.619; -250.500; -829.000; -800.000
399.747; -214.700; -859.000; -771.000
399.875;  136.500;  220.000;  234.000
400.003;  -77.100; -359.000; -284.000
400.130; -137.600; -421.000; -341.000
400.258;  -13.000;  -83.000;   38.000
400.386;  -76.500; -352.000; -168.000
400.514; -117.900; -526.000; -587.000
400.641; -227.300; -928.000; -802.000
400.769; -262.200; -979.000; -888.000
400.897; -224.500; -838.000; -793.000
401.025;   -9.800; -166.000; -152.000
401.152;    8.800;  220.000;   38.000
401.280; -101.400; -430.000; -429.000
401.408; -208.900; -712.000; -576.000
401.535; -166.200; -735.000; -758.000
401.663; -385.700;-1134.000;-1054.000
401.790; -132.300; -514.000; -525.000
401.918;  135.000;  436.000;  405.000
402.046;    6.700;  134.000;  122.000
402.173;   -8.600;  -18.000;    7.000
402.301; -102.600; -519.000; -397.000
402.428;   75.200;  528.000;  383.000
402.556; -276.300;-1188.000; -913.000
402.683;  -27.100;  -20.000;   -1.000
402.811;   -6.800;  -37.000; -206.000
402.938;   20.100;   20.000;   27.000
403.066;  162.700; -574.000; -558.000
403.193;  391.200;  299.000;  239.000
403.321;  235.900; -396.000; -574.000
403.448;  355.700;   83.000;   27.000
403.575;  182.500;  -90.000;  -46.000
403.703; -205.200; -732.000; -557.000
403.830;  -96.900; -531.000; -496.000
403.957; -303.800;-1117.000;-1023.000
404.085;  -30.100;  -61.000; -172.000
404.212;  115.300;  -50.000;   63.000
404.339;  259.600; -566.000; -306.000
404.467; 5628.300; -612.000; -524.000
404.594; 3537.400; -287.000; -227.000
404.721;  757.200; -869.000; -764.000
404.848;   92.200; -113.000; -202.000
404.976; -247.500; -856.000; -783.000
405.103;   16.200;  -14.000;  -82.000
405.230;   12.700;  190.000;  226.000
405.357;   14.100;  117.000;   44.000
405.484;  228.500;  -49.000;    5.000
405.612;    1.400; -548.000; -563.000
405.739; -113.600; -488.000; -243.000
405.866;  211.000;  669.000;  385.000
405.993;  -78.400; -398.000; -102.000
406.120; -243.600; -801.000; -887.000
406.247; -107.400; -323.000; -342.000
406.374;  574.100;  540.000;  629.000
406.501;  -14.900; -632.000; -702.000
406.628; -126.200; -621.000; -589.000
406.755; -214.700; -803.000; -620.000
406.882;  -50.500; -228.000; -277.000
407.009; -212.800; -719.000; -628.000
407.136;   38.800; -480.000; -401.000
407.263;  -11.800; -939.000; -829.000
407.390; -154.500; -692.000; -614.000
407.517; -327.600;-1139.000;-1187.000
407.644;  -82.900; -332.000; -256.000
407.771; -142.900; -249.000; -287.000
407.898;   71.000;  168.000;  328.000
408.025; -141.900; -421.000; -313.000
408.151;    6.000;   82.000;  153.000
408.278; -110.900; -267.000; -216.000
408.405; -220.700; -931.000; -899.000
408.532; -166.100; -549.000; -542.000
408.659; -188.300; -677.000; -648.000
408.785; -385.400;-1298.000;-1170.000
408.912;  -96.800; -412.000; -296.000
409.039; -210.200; -610.000; -686.000
409.166; -140.700; -591.000; -555.000
409.292; -141.500; -571.000; -534.000
409.419; -202.800; -665.000; -649.000
409.546; -144.600; -431.000; -192.000
409.672; -169.600; -713.000; -545.000
409.799;  -36.800;  -36.000;   34.000
409.926;  -61.300; -180.000; -179.000
410.052; -336.900;-1127.000;-1091.000
410.179;  -78.300; -368.000; -392.000
410.305; -149.600; -375.000; -493.000
410.432;  -44.900; -220.000; -333.000
410.558; -155.600; -305.000; -380.000
410.685; -155.600; -688.000; -431.000
410.812; -159.600; -409.000; -588.000
410.938; -237.700; -964.000; -808.000
411.065; -188.300; -671.000; -645.000
411.191;  -34.400; -189.000; -174.000
411.317; -227.700; -823.000; -742.000
411.444;  -83.200; -317.000; -246.000
411.570; -128.500; -339.000; -294.000
411.697; -199.700; -758.000; -752.000
411.823; -337.900; -989.000; -999.000
411.949;  -37.300;  -56.000;   17.000
412.076; -207.900; -539.000; -519.000
412.202; -198.800; -758.000; -757.000
412.329; -237.700; -798.000; -752.000
412.455; -183.500; -821.000; -657.000
412.581;  -44.200;  -15.000;  172.000
412.707; -107.500; -540.000; -457.000
412.834;   36.900;  156.000;  219.000
412.960; -150.900; -785.000; -784.000
413.086; -224.700; -743.000; -701.000
413.212;  254.800;  604.000;  578.000
413.339; -145.500; -685.000; -701.000
413.465;  -40.400; -364.000; -310.000
413.591; -199.700; -757.000; -474.000
413.717;  -61.300; -358.000; -366.000
413.843; -312.300; -839.000; -861.000
413.969;  -80.400;  -47.000; -292.000
414.096; -203.400; -679.000; -679.000
414.222;   19.500;  -33.000;   85.000
414.348; -125.900; -652.000; -385.000
414.474;   85.400;   38.000;  -52.000
414.600;  -35.300; -126.000; -144.000
414.726;   15.200;  -96.000;  -55.000
414.852; -102.400; -365.000; -342.000
414.978;   63.900;  104.000;  -18.000
415.104;   65.600;   38.000;   80.000
415.230;  -25.800; -329.000; -330.000
415.356;  -25.600; -409.000; -514.000
415.482;  224.000;   13.000;  -35.000
415.608;  242.000; -247.000; -323.000
415.734; 1010.100;   67.000;   38.000
415.860;20652.200; -875.000; -767.000
415.986;13602.500; -685.000; -607.000
416.111; 1023.800; -798.000; -652.000
416.237;  181.100; -424.000; -571.000
416.363; 1180.700; -765.000; -733.000
416.489; 4160.400; -324.000; -251.000
416.615;  324.500; -707.000; -742.000
416.741;  -80.100; -677.000; -784.000
416.866; -204.100; -673.000; -736.000
416.992; -238.200; -801.000; -818.000
417.118;  -69.900;  -41.000;  -80.000
417.244; -142.400; -798.000; -531.000
417.369; -163.200; -801.000; -612.000
417.495;  -32.700; -325.000; -254.000
417.621; -227.000;-1015.000; -803.000
417.746;  -28.000; -579.000; -572.000
417.872;   57.800; -254.000; -144.000
417.998;   16.200; -515.000; -530.000
418.123; 1015.500;-1073.000; -845.000
418.249; 5192.600; -512.000; -601.000
418.374;  496.400; -916.000; -824.000
418.500;   54.900; -383.000; -482.000
418.626;  135.400;   70.000;  -59.000
418.751;  111.300; -549.000; -448.000
418.877;  105.500; -637.000; -643.000
419.002; 1892.500; -688.000; -560.000
419.128;12334.000; -930.000; -721.000
419.253; 2621.800; -967.000; -837.000
419.379;  280.200; -391.000; -338.000
419.504;  433.200;  325.000;  415.000
419.629;  495.300; -393.000; -212.000
419.755; 3715.300; -317.000; -254.000
419.880;20479.000;  -98.000;   67.000
420.006;11658.900; -280.000; -221.000
420.131;29083.000; -662.000; -775.000
420.256; 3819.400; -315.000; -316.000
420.382;  415.000; -665.000; -687.000
420.507;    7.200; -649.000; -778.000
420.632;  117.900; -337.000; -339.000
420.758;  290.200; -251.000; -425.000
420.883; -206.700; -876.000; -672.000
421.008; -178.400; -775.000; -619.000
421.133; -158.800; -509.000; -467.000
421.259;  -56.200; -325.000; -259.000
421.384; -217.600; -834.000; -693.000
421.509; -127.100;-1052.000; -862.000
421.634; 1304.400; -936.000; -820.000
421.759;  527.500; -359.000; -327.000
421.885; -130.700; -717.000; -656.000
422.010; -145.900; -673.000; -542.000
422.135; -293.100; -695.000; -727.000
422.260;  118.800;  340.000;  280.000
422.385;  -80.500;   12.000;  -98.000
422.510;   49.900;  151.000;  -26.000
422.635;   34.800;  -87.000;  -43.000
422.760;  101.400; -766.000; -791.000
422.885;   66.900;  -57.000;  -80.000
423.010;  -16.000; -112.000; -169.000
423.135; -142.500; -481.000; -561.000
423.260;   -5.600; -150.000; -245.000
423.385;  135.900;  476.000;  222.000
423.510;   75.000;   71.000;  -22.000
423.635;  100.700;  133.000;   45.000
423.760;   89.300;  383.000;  328.000
423.885;   87.400;  336.000;  391.000
424.010;   31.900;  -68.000;  -13.000
424.135;  -44.200;    5.000;  -33.000
424.259; -146.700; -654.000; -457.000
424.384;  -97.000; -279.000; -272.000
424.509;  -31.900; -260.000; -186.000
424.634; -196.200; -761.000; -623.000
424.759;  -62.300; -688.000; -544.000
424.883;  -86.600; -506.000; -527.000
425.008;  125.700; -502.000; -410.000
425.133; 1903.400; -679.000; -653.000
425.258;  789.400; -517.000; -381.000
425.382; 1141.200; -867.000; -774.000
425.507; 2857.700; -487.000; -543.000
425.632;  353.600; -802.000; -663.000
425.756;  417.200; -256.000; -146.000
425.881; 6803.700; -831.000; -857.000
426.006;16549.700; -604.000; -355.000
426.130; 2385.300; -696.000; -508.000
426.255;  249.100; -611.000; -491.000
426.379;  118.100; -189.000; -577.000
426.504;  464.400;  660.000;  544.000
426.629; 4077.000; -519.000; -466.000
426.753; 2574.400;   64.000;  -46.000
426.878;  282.100; -252.000; -288.000
427.002;   65.300; -651.000; -668.000
427.127; 1756.300;  -35.000; -158.000
427.251;11738.300;  372.000;  401.000
427.375; 3026.100; -191.000; -173.000
427.500; 2580.100; -616.000; -610.000
427.624;  750.700; -234.000; -400.000
427.749;   75.700; -216.000; -225.000
427.873; -106.700; -499.000; -412.000
427.997;  -39.200; -222.000; -230.000
428.122;  159.500;  795.000;  703.000
428.246;  186.500;  433.000;  434.000
428.371; -271.000; -869.000; -773.000
428.495; -169.200; -624.000; -646.000
428.619;  -64.000; -186.000; -117.000
428.743;   87.300;   65.000;  132.000
428.868;  -70.700; -732.000; -643.000
428.992; 1637.400; -219.000; -326.000
429.116;  599.200; -329.000; -357.000
429.240;  388.700;  419.000;  426.000
429.365;  -55.900; -454.000; -574.000
429.489; -105.500; -638.000; -647.000
429.613;   34.100; -236.000; -177.000
429.737;  -47.700; -563.000; -432.000
429.861;  226.700; -247.000; -133.000
429.985; 5794.000; -425.000; -305.000
430.109; 5684.800; -770.000; -908.000
430.234;  650.800;   76.000;  -50.000
430.358;   29.000; -250.000; -160.000
430.482; -138.000; -672.000; -564.000
430.606; -115.400; -655.000; -375.000
430.730;  -13.100; -437.000; -388.000
430.854;   15.200; -909.000; -835.000
430.978; -123.200; -795.000; -764.000
431.102; -136.400; -499.000; -422.000
431.226; -203.500; -874.000; -815.000
431.350;   72.300;  345.000;  422.000
431.474; -103.300; -661.000; -373.000
431.597; -286.700;-1060.000; -848.000
431.721; -105.600; -276.000; -267.000
431.845; -234.700; -704.000; -472.000
431.969; -119.800; -304.000; -349.000
432.093; -163.900; -395.000; -317.000
432.217;   -3.100;   32.000;   82.000
432.341; -178.400; -523.000; -518.000
432.464;   22.200;   96.000;   40.000
432.588;  137.000; -401.000; -329.000
432.712;  111.300;  -52.000;  -52.000
432.836;   66.900;  213.000;  263.000
432.959;  -64.700; -372.000; -311.000
433.083;   56.600;   11.000;    2.000
433.207;  439.600;  285.000;  930.000
433.330; 5176.600; -391.000; -200.000
433.454; 5679.300; -654.000; -638.000
433.578; 3485.400;  583.000;  278.000
433.701;  467.400; -623.000; -675.000
433.825;   64.900; -292.000; -299.000
433.949;  223.500;   28.000;  -72.000
434.072;   20.500; -410.000; -323.000
434.196;  -18.500; -309.000; -117.000
434.319; 7666.800;25482.000;25124.000
434.443;  717.500; -656.000; -603.000
434.566; 2564.000;  281.000;   62.000
434.690;  329.100; -637.000; -383.000
434.813;  -14.700; -251.000; -173.000
434.937; -151.400; -569.000; -696.000
435.060;  -74.600; -423.000; -332.000
435.184;  286.700; -492.000; -217.000
435.307;  174.700;  159.000;  102.000
435.431;   -0.300;  -40.000;   24.000
435.554; -111.500; -399.000; -240.000
435.677; -127.700; -350.000; -258.000
435.801;  -27.100;  -25.000;   49.000
435.924;   11.100;    1.000;  -67.000
436.048; -250.300;-1019.000; -732.000
436.171; -111.900; -240.000;  -66.000
436.294;  -51.000; -248.000; -229.000
436.417;  -42.600; -963.000; -849.000
436.541; -207.800; -814.000; -840.000
436.664;  -48.700; -242.000; -316.000
436.787;   -2.700;   13.000;  113.000
436.910; -157.200; -792.000; -422.000
437.034;   28.900;  142.000;  143.000
437.157;   97.400;  -11.000;    0.000
437.280; -115.500; -392.000; -292.000
437.403; -193.500; -982.000; -869.000
437.526;  667.400; -903.000; -865.000
437.649; 2484.800; -505.000; -332.000
437.772;  251.300; -692.000; -540.000
437.896;  198.600;  700.000;  544.000
438.019; -175.500; -758.000; -503.000
438.142; -166.700; -596.000; -506.000
438.265;  -87.000; -639.000; -670.000
438.388;  534.400; -520.000; -410.000
438.511;    0.600; -597.000; -394.000
438.634;  -88.800; -247.000; -125.000
438.757; -215.200; -693.000; -619.000
438.880;   -4.000;  -34.000;  -57.000
439.003; -137.700; -417.000; -437.000
439.126;  -97.300; -287.000; -167.000
439.248;  -96.900;  -98.000; -139.000
439.371;    0.300;    9.000;  -53.000
439.494;   96.900;  510.000;  439.000
439.617;  -56.400;   65.000;  -88.000
439.740; -331.600; -968.000; -816.000
439.863; -239.100; -755.000; -595.000
439.986; -210.300; -476.000; -431.000
440.108;  -74.800; -161.000; -112.000
440.231; -325.200; -950.000; -836.000
440.354;   13.700;  -64.000; -150.000
440.477;  -28.400; -566.000; -542.000
440.599;  -25.800; -200.000; -225.000
440.722; -195.300; -709.000; -586.000
440.845;  179.600;  751.000;  928.000
440.968; -148.800; -415.000; -311.000
441.090;  -60.900; -199.000;  -33.000
441.213; -309.900;-1021.000; -825.000
441.336;  -47.200; -159.000;   -5.000
441.458; -162.400; -549.000; -396.000
441.581; -165.600; -628.000; -629.000
441.703; -119.100; -152.000;   13.000
441.826; -177.100; -557.000; -400.000
441.948;  -26.500;   56.000;   51.000
442.071;   96.800;  555.000;  424.000
442.193; -172.200; -531.000; -485.000
442.316;   46.500;  152.000;   97.000
442.438;   46.300; -233.000;  -10.000
442.561;   93.600;  272.000;  262.000
442.683;  597.100; -809.000; -522.000
442.806; 1384.400;   -8.000;   74.000
442.928; -121.900; -859.000; -604.000
443.051; -144.600; -577.000; -373.000
443.173; -163.800; -341.000; -339.000
443.295; -142.000; -263.000; -371.000
443.418; -110.200; -321.000;  -29.000
443.540;  -19.600; -106.000;   -4.000
443.662; -212.800; -563.000; -465.000
443.785;   31.200;  335.000;  199.000
443.907; -164.900; -362.000; -208.000
444.029; -212.600; -767.000; -494.000
444.152; -231.100; -644.000; -554.000
444.274;   -6.900;  -18.000;  -24.000
444.396; -198.100; -461.000; -221.000
444.518; -228.700; -691.000; -454.000
444.640; -151.100; -268.000; -111.000
444.763;   26.700;  388.000;  249.000
444.885; -200.900; -432.000; -392.000
445.007;  -14.400;   35.000;   86.000
445.129; -199.100; -610.000; -515.000
445.251; -146.600; -372.000; -439.000
445.373; -232.400; -537.000; -386.000
445.495;   51.700;  242.000;  350.000
445.617;  167.700;  853.000;  753.000
445.739; -114.300; -215.000;  -97.000
445.861;  -61.000; -245.000; -112.000
445.984;  -60.700; -267.000; -101.000
446.105;  228.600; -418.000; -251.000
446.227;  701.800; -176.000;  -19.000
446.349;  -68.800; -358.000; -249.000
446.471; -158.600; -615.000; -448.000
446.593; -110.300; -316.000;   19.000
446.715;   -8.200;  -67.000;   41.000
446.837;  119.300;  697.000;  832.000
446.959; -148.200; -457.000; -478.000
447.081; -221.500; -628.000; -518.000
447.203;  147.400;  862.000;  834.000
447.325; -131.000; -270.000;   42.000
447.446;   59.000;  286.000;  530.000
447.568; -315.000; -921.000; -803.000
447.690; -125.700; -236.000; -245.000
447.812; -277.600; -798.000; -519.000
447.933;    6.300;  155.000;  127.000
448.055; -111.800; -306.000; -261.000
448.177;  210.200;   31.000;   79.000
448.299;   -6.300; -935.000; -727.000
448.420;   41.500;  -25.000;  159.000
448.542;  -65.500;   -3.000;   33.000
448.664;   13.800;  109.000;  322.000
448.785;  -45.100;  265.000;   83.000
448.907; -135.400; -614.000; -353.000
449.028; -117.500; -771.000; -471.000
449.150;  158.800;  492.000;  589.000
449.272; -357.300;-1044.000; -913.000
449.393;  102.000;  612.000;  694.000
449.515; -273.500; -634.000; -581.000
449.636;  -90.100; -264.000; -155.000
449.758;  170.900;  763.000;  622.000
449.879; -143.300; -498.000; -396.000
450.001; -119.600; -149.000;  -49.000
450.122;  -57.700;  -95.000;  162.000
450.244;   21.000;   37.000;  364.000
450.365; -119.700; -495.000; -301.000
450.486;  -26.200;   80.000;  268.000
450.608;   67.100;  393.000;  326.000
450.729;  134.700;  578.000;  645.000
450.850;  -71.400; -574.000; -466.000
450.972;  707.000; -552.000; -389.000
451.093; 5010.100;  190.000;  588.000
451.214; 1829.500; -516.000; -337.000
451.336;  440.500;  773.000;  579.000
451.457;   98.000;  264.000;  393.000
451.578;  -43.500; -118.000;  -74.000
451.699; -241.900; -546.000; -540.000
451.821;  -82.900; -284.000;  -50.000
451.942;   30.100;  278.000;  285.000
452.063;   77.500;  228.000;  419.000
452.184;  587.700;  -54.000;  -49.000
452.305; 1133.200;  103.000;  170.000
452.427;   -1.900; -549.000; -301.000
452.548;  -18.200;   23.000;   79.000
452.669; -121.500; -257.000;  -89.000
452.790;  -55.800;    3.000;  -18.000
452.911;   33.300;  195.000;  259.000
453.032;  -82.900; -289.000;  -60.000
453.153;  -64.100;  -29.000;   81.000
453.274;  181.500;  737.000;  868.000
453.395;  -77.400;  -51.000;  175.000
453.516;  304.200; 1317.000; 1388.000
453.637; -121.900; -205.000; -150.000
453.758;  -54.400;   15.000;   69.000
453.879; -207.300; -462.000; -250.000
454.000;  201.700; 1086.000;  948.000
454.121; -215.100; -554.000; -326.000
454.242; -180.200; -599.000; -383.000
454.362;  -77.200;  -99.000;  114.000
454.483;  -79.300; -309.000; -229.000
454.604;  131.800;  512.000;  580.000
454.725; -188.600; -627.000; -555.000
454.846; -226.000; -474.000; -406.000
454.967;   13.100;  230.000;  539.000
455.087;  -53.000;  179.000;  153.000
455.208;   71.900;  554.000;  856.000
455.329;  -59.300;  -22.000;   82.000
455.450;  160.700;  473.000;  633.000
455.570;  -94.900; -234.000; -211.000
455.691;  -22.600;  201.000;  407.000
455.812; -155.100; -270.000;  -92.000
455.932;  -43.600;  107.000;  -97.000
456.053; -121.700;   36.000;   24.000
456.173; -153.900; -433.000; -355.000
456.294; -228.200; -476.000; -303.000
456.415; -100.600;  -73.000;   70.000
456.535;  -13.900;  297.000;  273.000
456.656;  -34.000;  132.000;  240.000
456.776;  -90.900;    3.000;  298.000
456.897;   60.300;  308.000;  513.000
457.017;  -96.300; -153.000;   -3.000
457.138; -170.200; -402.000; -249.000
457.258;  -21.400;  263.000;  224.000
457.379;   53.000;  509.000;  521.000
457.499;  -15.900;  443.000;  432.000
457.620; -189.500; -407.000; -231.000
457.740; -115.600; -132.000;  -11.000
457.860;  -11.900;   87.000;   44.000
457.981;  -43.600;  132.000;  124.000
458.101;  -92.700;  -89.000;   40.000
458.221;   21.400;  336.000;  402.000
458.342;  -69.100;   -4.000;  -37.000
458.462;   78.400;  617.000;  352.000
458.582;  -87.300; -302.000; -294.000
458.703;   42.900;  303.000;  154.000
458.823;  -18.200;   22.000;  163.000
458.943;   60.800;  341.000;  467.000
459.063;    5.900; 1124.000;  192.000
459.183;  -26.600;  328.000;  313.000
459.304;  100.000;  315.000;  517.000
459.424; -106.500; -246.000;  -89.000
459.544;  444.200;  388.000;  764.000
459.664;  946.100;  499.000;  506.000
459.784;  420.100; 1004.000; 1175.000
459.904;  150.500;  867.000;  744.000
460.024;  204.700;  867.000;  684.000
460.144;   14.300;  449.000;  554.000
460.264;   11.100;  515.000;  327.000
460.385; -121.000; -145.000; -119.000
460.505;  135.000;  905.000;  858.000
460.625; -128.900;  -17.000;  -68.000
460.745;   23.300;  396.000;  541.000
460.864;  -51.700;  153.000;  469.000
460.984;   78.900;  499.000;  573.000
461.104;  335.900; 1656.000; 1775.000
461.224;  114.900;  657.000;  650.000
461.344;  -24.600;  431.000;  360.000
461.464;  -19.800;  258.000;  513.000
461.584;   18.300;  283.000;  466.000
461.704;  -43.600;   58.000;  108.000
461.824;  -81.800;  238.000;  259.000
461.943;  -28.800;  191.000;  130.000
462.063;  -77.600;    2.000;  324.000
462.183;  113.400;  639.000;  717.000
462.303;  295.700; 1678.000; 1230.000
462.422;  121.400;  781.000;  840.000
462.542;  -57.100;  271.000;  391.000
462.662;   85.000;  353.000;  380.000
462.782;  311.600;  833.000;  572.000
462.901;  561.800;  545.000;  717.000
463.021;  443.100; 1702.000; 1638.000
463.141;   27.900;  337.000;  770.000
463.260;   18.200;  614.000;  474.000
463.380;   75.300;  902.000;  884.000
463.499;  -37.700;  342.000;  332.000
463.619;  -23.600;  581.000;  559.000
463.738;  280.200; 1644.000;  903.000
463.858;  107.000;  657.000;  811.000
463.978;    6.300;  542.000;  396.000
464.097;  143.700;  921.000; 1114.000
464.217;  262.800; 1196.000; 1143.000
464.336;  270.600; 1068.000; 1130.000
464.455;  -47.400;  328.000;  659.000
464.575;  136.900;  597.000;  602.000
464.694;  315.200; 1204.000; 1179.000
464.814;  258.600; 1190.000; 1138.000
464.933;  174.500; 1095.000; 1027.000
465.052;  244.200; 1412.000; 1054.000
465.172;  194.900;  922.000;  799.000
465.291;  300.700; 1376.000; 1320.000
465.410;   87.000;  462.000;  735.000
465.530;  220.700; 1355.000; 1310.000
465.649;  187.300; 1209.000; 1273.000
465.768;  345.500; 1673.000; 1508.000
465.888;  116.400;  941.000; 1174.000
466.007;  244.200; 1335.000; 1440.000
466.126;   43.000;  721.000;  641.000
466.245;  161.400; 1176.000; 1187.000
466.364;   91.700;  950.000; 1060.000
466.484;  194.700; 1024.000; 1213.000
466.603;  124.900; 1101.000; 1222.000
466.722;  305.700; 1490.000; 1769.000
466.841;  194.400; 1151.000; 1401.000
466.960;  122.500; 1069.000;  972.000
467.079;  319.300; 1971.000; 1786.000
467.198;  135.300; 1238.000; 1181.000
467.317;  267.800; 1768.000; 1162.000
467.436;  225.800; 1709.000; 1261.000
467.555;  285.200; 1796.000; 1746.000
467.674;  196.200; 1227.000; 1329.000
467.793;  178.500; 1376.000; 1374.000
467.912;  260.000; 1658.000; 1539.000
468.031;  338.800; 2038.000; 1930.000
468.150;  307.200; 1842.000; 1837.000
468.269;  453.200; 2313.000; 2090.000
468.388;  489.500; 2168.000; 2339.000
468.507;  574.100; 2884.000; 2903.000
468.626;  666.700; 2555.000; 2541.000
468.744;  329.900; 2018.000; 2174.000
468.863;  508.200; 2312.000; 2523.000
468.982;  201.700; 1503.000; 1555.000
469.101;  568.900; 2788.000; 2692.000
469.220;  354.700; 2333.000; 2176.000
469.338;  622.800; 2935.000; 3051.000
469.457;  452.100; 2719.000; 2545.000
469.576;  751.800; 3953.000; 3784.000
469.695;  511.000; 2877.000; 3066.000
469.813;  934.500; 4148.000; 4192.000
469.932;  916.100; 4255.000; 4485.000
470.051;  862.900; 4075.000; 4161.000
470.169; 1361.500; 4470.000; 4338.000
470.288; 1984.400; 4700.000; 4809.000
470.406; 1382.700; 5059.000; 5194.000
470.525; 1308.000; 6101.000; 5787.000
470.644; 1376.400; 6847.000; 6794.000
470.762; 1718.900; 8397.000; 7873.000
470.881; 1829.200; 8651.000; 8464.000
470.999; 2154.300; 9685.000; 9151.000
471.118; 2311.300;11174.000;10711.000

