
Integration time [ms]: 100.000
Averaging Nr. [scans]: 40
Smoothing Nr. [pixels]: 0
Data measured with spectrometer [name]: 2101012U2
Wave   ;Sample   ;Dark     ;Reference
[nm]   ;[counts] ;[counts] ;[counts] 

197.733;   49.725;  516.000;  404.000
197.879;  -91.250; -610.000; -634.000
198.025;  -47.175; -475.000; -420.000
198.171;  -83.450; -602.000; -612.000
198.317;  -36.575; -401.000; -316.000
198.463;  -64.975; -655.000; -404.000
198.609;   28.175;  181.000; -137.000
198.755;  -77.950; -644.000; -410.000
198.901;  -72.725; -505.000; -424.000
199.047;  -77.575; -615.000; -488.000
199.193;  -28.600; -230.000; -468.000
199.339;  -43.075; -222.000; -369.000
199.485;   38.125;  330.000;  271.000
199.631;   11.750;  227.000;  310.000
199.777;  -58.925; -466.000; -398.000
199.923;  -68.050; -610.000; -424.000
200.069;   -2.075; -141.000;  -58.000
200.215;   34.075;  128.000;  453.000
200.361;   39.050;  243.000;  477.000
200.507;  -65.325; -600.000; -373.000
200.653;  -30.775; -371.000; -194.000
200.798;  -37.300; -215.000; -125.000
200.944;   -2.350; -146.000;  -41.000
201.090;   29.000;   61.000;  222.000
201.236;   -3.375; -116.000; -158.000
201.382;  113.450;  874.000;  903.000
201.528;   -6.325;  -58.000;  -48.000
201.674;  -32.925; -386.000; -293.000
201.819;  -57.425; -540.000; -439.000
201.965;  -80.500; -699.000; -447.000
202.111;  -27.450; -273.000; -226.000
202.257;  -49.825; -250.000; -238.000
202.402;   -5.750;   13.000;  -36.000
202.548;  -36.375; -169.000; -116.000
202.694;   66.300;  410.000; -183.000
202.840;  -93.275; -603.000; -531.000
202.985;  -62.750; -681.000; -639.000
203.131; -123.450; -832.000; -666.000
203.277;  -27.325; -199.000; -262.000
203.423;  -65.425; -434.000; -520.000
203.568;  -45.650; -462.000; -237.000
203.714;  -67.525; -535.000; -542.000
203.860;  -85.600; -682.000; -641.000
204.005;    2.325;  112.000;  167.000
204.151;   72.025;  561.000;  556.000
204.296;  -58.100; -354.000; -221.000
204.442;  -66.525; -600.000; -547.000
204.588;  -75.625; -592.000; -579.000
204.733;   21.825;  178.000;  168.000
204.879; -135.175;-1018.000; -822.000
205.025;    7.175;  -99.000;  126.000
205.170;  -13.700;  -17.000;   94.000
205.316;   80.275;  438.000;  661.000
205.461;  -83.225; -698.000; -554.000
205.607;   91.350;  609.000;  665.000
205.752;  -94.200; -626.000; -551.000
205.898;  -58.075; -501.000; -391.000
206.043;  -64.200; -578.000; -506.000
206.189;  -45.375; -243.000; -285.000
206.334;   64.325;  554.000;  606.000
206.480;  101.300;  409.000;  239.000
206.625;  -94.750; -529.000; -552.000
206.771;  -51.550; -451.000; -373.000
206.916;  -43.875; -210.000; -537.000
207.062;  -83.075; -545.000; -591.000
207.207;  -63.650; -546.000; -443.000
207.353;   59.200;  185.000;  460.000
207.498;   -2.825;  196.000;   85.000
207.643;  -45.450; -501.000; -370.000
207.789; -137.875;-1069.000; -910.000
207.934;  -94.875; -665.000; -713.000
208.080;  -23.025; -154.000;   66.000
208.225;  -13.000;  -22.000;  -57.000
208.370;  -87.400; -727.000; -619.000
208.516;  -74.350; -741.000; -487.000
208.661;  -25.575; -127.000;  -69.000
208.806;  -18.150; -165.000; -171.000
208.952; -120.600;-1044.000; -731.000
209.097;   55.250;  378.000;  349.000
209.242;  -60.425; -307.000; -382.000
209.387;   69.425;  392.000;  350.000
209.533;  -49.175; -321.000; -350.000
209.678;   83.900;  472.000;  543.000
209.823;  -55.850; -408.000; -310.000
209.969;  -99.175; -860.000; -757.000
210.114; -117.000; -907.000; -719.000
210.259; -121.775; -939.000; -889.000
210.404;  -11.625; -171.000;  103.000
210.549;    5.525;  108.000;    3.000
210.695;  -18.425;   -3.000;  -95.000
210.840;   35.500;   94.000;   67.000
210.985;  -73.700; -484.000; -303.000
211.130;   60.600;  268.000;  406.000
211.275;    9.400;  207.000;  199.000
211.420;  -39.025; -300.000; -289.000
211.566;  -74.050; -536.000; -489.000
211.711;   22.575;  218.000;  157.000
211.856;  -67.800; -545.000; -519.000
212.001;    4.350;  151.000;   44.000
212.146;   22.925;  153.000;   49.000
212.291;  -27.175; -210.000; -186.000
212.436;  -31.800; -280.000;   -6.000
212.581;  -84.875; -685.000; -653.000
212.726;  -75.050; -487.000; -538.000
212.871;  -43.525; -552.000; -217.000
213.016; -148.200;-1172.000;-1029.000
213.161;   70.950;  406.000;  291.000
213.306;  -67.275; -435.000; -577.000
213.451; -117.375; -778.000; -689.000
213.596;  -54.025; -455.000; -347.000
213.741;  -53.475; -448.000; -538.000
213.886;  -80.075; -498.000; -517.000
214.031;  -19.225; -294.000; -124.000
214.176;  -64.500; -408.000; -341.000
214.321;  -22.525; -296.000; -157.000
214.466;  -25.975; -163.000;  -43.000
214.611;   -0.225;  -61.000;  -10.000
214.756; -113.725; -948.000; -858.000
214.901;  -25.125; -388.000; -226.000
215.046; -124.500; -797.000; -825.000
215.191;   22.100;  128.000;   35.000
215.336;   -5.875; -157.000;  -19.000
215.480;  -74.425; -684.000; -505.000
215.625;  -19.775; -175.000;  -19.000
215.770;  -85.700; -757.000; -662.000
215.915;   -5.800;   -5.000;  -97.000
216.060;  -21.375; -113.000;  -21.000
216.205; -113.200; -731.000; -779.000
216.349;  -74.750; -470.000; -533.000
216.494; -140.075; -939.000; -867.000
216.639; -117.375; -823.000; -888.000
216.784;  -96.750; -577.000; -525.000
216.929;   57.250;  392.000;  281.000
217.073;  -27.125; -244.000;  -31.000
217.218;    6.900;   78.000;  -47.000
217.363;  -95.250; -656.000; -618.000
217.507;  -82.250; -623.000; -588.000
217.652; -137.525; -845.000; -874.000
217.797;  -92.625; -708.000; -659.000
217.942; -104.525; -856.000; -720.000
218.086;   76.750;  608.000;  539.000
218.231;  -27.000; -174.000;  -26.000
218.376;  -43.325; -337.000; -229.000
218.520;   -5.725;  -41.000;   96.000
218.665;  -32.625; -338.000; -204.000
218.810;  -49.850; -275.000; -233.000
218.954;   16.425;  201.000;   35.000
219.099; -119.700; -713.000; -963.000
219.243;  -80.850; -589.000; -554.000
219.388;  -40.075; -264.000; -136.000
219.532;   -2.300; -116.000; -116.000
219.677;  -92.975; -564.000; -521.000
219.822;    2.975;   33.000;   89.000
219.966;   -1.325;   17.000;  -99.000
220.111;  -29.375; -328.000;  -40.000
220.255; -108.275; -797.000; -750.000
220.400;  -25.100; -180.000; -146.000
220.544;  -76.725; -516.000; -450.000
220.689;  -62.675; -422.000; -451.000
220.833;  -27.850; -123.000;  -58.000
220.978;  -47.575; -393.000; -563.000
221.122;    8.200;  319.000;  307.000
221.267; -124.725; -906.000; -837.000
221.411;  -82.200; -478.000; -394.000
221.555;   -5.500; -104.000;  -23.000
221.700;  -55.300; -329.000; -222.000
221.844;   28.025;  255.000;  272.000
221.989;  -39.050; -328.000; -311.000
222.133;  -31.600; -289.000; -307.000
222.277;  -21.700;    5.000;   78.000
222.422;   19.350;  227.000;  113.000
222.566;  -40.525; -381.000; -214.000
222.711;  -61.100; -414.000; -479.000
222.855;  -80.800; -643.000; -586.000
222.999;  -92.950; -642.000; -717.000
223.144;  -32.000; -195.000; -194.000
223.288;   62.100;  423.000;  251.000
223.432;   25.325;  184.000;  230.000
223.576;   22.225;  152.000;  -21.000
223.721;   36.225;  364.000;  273.000
223.865;  -57.450; -472.000; -475.000
224.009;  261.825; 1673.000; 1631.000
224.153;  -76.550; -660.000; -671.000
224.298;  -68.950; -531.000; -489.000
224.442;  -15.425;  -74.000;  -33.000
224.586;  -19.400; -169.000; -106.000
224.730; -102.250; -858.000; -670.000
224.875; -111.600; -739.000; -688.000
225.019;    6.025;  102.000;  188.000
225.163;   39.225;  208.000;  341.000
225.307;    9.350;   97.000;  -91.000
225.451;   25.250;  360.000;  481.000
225.595;   27.150;  264.000;  176.000
225.739;  -30.100; -170.000;  -94.000
225.884;    3.800;   86.000;    5.000
226.028; -116.575; -760.000; -626.000
226.172;  -43.075; -260.000; -273.000
226.316; -117.325; -941.000; -902.000
226.460;  -68.550; -645.000; -493.000
226.604;  -62.450; -406.000; -400.000
226.748;  -96.275; -836.000; -733.000
226.892;  -48.350; -227.000; -181.000
227.036;  -46.775; -537.000; -447.000
227.180;  -66.525; -551.000; -375.000
227.324;  -60.525; -561.000; -580.000
227.468; -116.475; -819.000; -717.000
227.612;    8.550;  242.000;  -28.000
227.756; -109.625; -845.000; -698.000
227.900;   54.500;  342.000;  441.000
228.044;  -77.300; -509.000; -290.000
228.188;   53.975;  448.000;  568.000
228.332;  -83.750; -546.000; -472.000
228.476;  -27.050; -223.000; -149.000
228.620;  -36.500; -210.000; -150.000
228.764;   48.325;  431.000;  349.000
228.908;  -25.975; -155.000;   30.000
229.052;  -70.850; -615.000; -528.000
229.195;  -28.150; -172.000;   13.000
229.339;  -35.725; -235.000; -305.000
229.483;  -30.450;    5.000; -162.000
229.627;    1.425; -156.000;  139.000
229.771;  -59.100; -218.000; -294.000
229.915;   12.950;  230.000;   79.000
230.059;  -99.425; -648.000; -663.000
230.202;  -43.475; -370.000; -317.000
230.346;  -31.725; -107.000;  107.000
230.490;  -71.875; -489.000; -521.000
230.634; -118.075; -736.000; -553.000
230.777;   78.425;  478.000;  509.000
230.921;  -74.875; -450.000; -359.000
231.065;  -41.025; -246.000; -286.000
231.209;   10.575;  261.000;  265.000
231.352;   29.100;   54.000;   40.000
231.496;   10.525;  568.000;  188.000
231.640;  -74.650; -693.000; -621.000
231.783;   58.850;  546.000;  525.000
231.927;  -48.725; -294.000; -365.000
232.071; -129.750; -962.000; -736.000
232.214; -110.750; -980.000; -764.000
232.358; -117.700; -683.000; -599.000
232.502;   -1.600;  -19.000;    7.000
232.645; -143.475;-1090.000; -927.000
232.789;  -24.425; -257.000; -218.000
232.933;  -47.500; -407.000; -224.000
233.076; -127.650;-1038.000; -897.000
233.220; -106.875; -752.000; -777.000
233.363;  -77.475; -669.000; -477.000
233.507;   55.100;  371.000;  129.000
233.650; -100.400; -764.000; -834.000
233.794;   40.275;  438.000;  461.000
233.938;  -74.050; -530.000; -362.000
234.081;  -24.875;  -93.000;   31.000
234.225;  -63.950; -631.000; -539.000
234.368; -124.675; -773.000; -723.000
234.512;  -36.475; -385.000; -299.000
234.655;  -86.475; -582.000; -555.000
234.798;  -73.675; -493.000; -466.000
234.942; -148.375; -884.000;-1002.000
235.085;  -85.250; -651.000; -443.000
235.229;  -73.125; -405.000; -410.000
235.372;  -58.950; -247.000; -191.000
235.516;  -73.700; -397.000; -321.000
235.659;   13.300;   92.000;  121.000
235.802;  -10.600;  -38.000;  -22.000
235.946;   34.775;  335.000;  215.000
236.089;    9.575;  126.000;  250.000
236.233;   49.925;  275.000;  298.000
236.376;  -68.275; -235.000; -378.000
236.519;  -47.575; -297.000; -319.000
236.663;  -29.475; -215.000; -117.000
236.806; -139.075;-1029.000; -999.000
236.949;   55.725;  543.000;  431.000
237.092;   58.350;  412.000;  391.000
237.236;  -95.550; -589.000; -502.000
237.379;   68.425;  352.000;  428.000
237.522; -126.750; -879.000; -768.000
237.666;  -15.550; -271.000;   18.000
237.809; -133.550; -851.000; -823.000
237.952;   24.950;  469.000;  271.000
238.095;  -61.925; -447.000; -442.000
238.238;   74.825;  688.000;  700.000
238.382;    3.675;  166.000;  103.000
238.525;  -72.875; -598.000; -511.000
238.668; -143.125;-1060.000; -985.000
238.811;  -76.225; -638.000; -643.000
238.954;  -57.625; -483.000; -334.000
239.097;   81.025;  617.000;  664.000
239.241;   11.850;  394.000;  326.000
239.384;  -44.075; -254.000; -214.000
239.527;  -69.225; -424.000; -224.000
239.670; -161.850; -994.000;-1091.000
239.813; -105.475; -696.000; -658.000
239.956;   76.400;  579.000;  473.000
240.099; -122.025; -778.000; -725.000
240.242;   53.025;  428.000;  432.000
240.385;   41.100;  466.000;  450.000
240.528;  -83.800; -706.000; -473.000
240.671;    1.375;  189.000;  134.000
240.814;  -56.150; -441.000; -158.000
240.957; -108.150; -767.000; -578.000
241.100; -101.100; -779.000; -755.000
241.243; -149.850;-1234.000; -893.000
241.386;  -64.575; -508.000; -379.000
241.529;  -83.350; -735.000; -547.000
241.672;  -76.400; -566.000; -495.000
241.815; -135.575; -832.000; -808.000
241.958;  -35.850; -125.000; -182.000
242.101;  -92.125; -545.000; -390.000
242.244;  -55.650; -270.000; -325.000
242.387;  -46.900; -304.000; -246.000
242.530;   43.950;  470.000;  134.000
242.673;  -50.825; -381.000; -309.000
242.815; -115.350; -925.000; -899.000
242.958;  -74.425; -482.000; -381.000
243.101;   10.825;  132.000;  187.000
243.244;  -80.950; -564.000; -521.000
243.387;  -49.900; -313.000; -316.000
243.530;  -94.975; -657.000; -674.000
243.672;  -14.075;   43.000;  -92.000
243.815;  -55.725; -355.000; -283.000
243.958;   -9.450;   98.000;  -26.000
244.101;   -2.025;   59.000;  -16.000
244.243;  -13.675;  -47.000;  101.000
244.386; -123.375; -761.000; -630.000
244.529;  -21.425; -132.000; -139.000
244.672; -156.325;-1154.000; -951.000
244.814;  -92.250; -621.000; -794.000
244.957;  -65.175; -380.000; -304.000
245.100;  -80.200; -489.000; -489.000
245.242;  -64.650; -387.000; -374.000
245.385;  -18.575;  -59.000;  -39.000
245.528; -125.625; -871.000; -705.000
245.670;   86.475;  612.000;  634.000
245.813;  -88.000; -599.000; -547.000
245.956;  -40.900; -324.000; -275.000
246.098;  -78.150; -508.000; -650.000
246.241;   14.350;  194.000;   48.000
246.383;  -17.375; -119.000;  -73.000
246.526;  -82.675; -454.000; -525.000
246.669; -121.525; -889.000; -780.000
246.811;   13.825;  172.000;   -1.000
246.954;  -78.400; -512.000; -426.000
247.096;  -10.375;  -84.000;   -6.000
247.239;  -62.875; -482.000; -445.000
247.381;  -75.700; -647.000; -488.000
247.524;   69.600;  645.000;  679.000
247.666;  -19.700;   58.000;   11.000
247.809; -129.125; -887.000; -691.000
247.951;  -23.125;  -75.000;  138.000
248.094;   18.125;  432.000;  308.000
248.236; -152.775;-1262.000;-1238.000
248.378;   -0.675; -356.000;  -81.000
248.521;  -23.400; -334.000; -337.000
248.663;  -43.200; -236.000; -267.000
248.806;  -22.525; -300.000; -266.000
248.948;  -97.800; -886.000; -763.000
249.090;  -35.075; -428.000; -398.000
249.233;  -46.000; -344.000; -381.000
249.375;  -73.350; -474.000; -451.000
249.518;  -23.200;  -83.000; -133.000
249.660;  -13.925; -103.000;    3.000
249.802; -177.350;-1303.000;-1189.000
249.945;  -66.550; -612.000; -540.000
250.087; -106.700; -834.000; -768.000
250.229;  -56.000; -362.000; -480.000
250.371;  -77.375; -494.000; -439.000
250.514;  -70.200; -310.000; -244.000
250.656;  -66.450;   69.000;  102.000
250.798; -116.475; -849.000; -800.000
250.940;  -71.900; -322.000; -322.000
251.083;  -32.475; -335.000; -111.000
251.225;   45.450;  338.000;  310.000
251.367;  -47.400; -274.000; -373.000
251.509;  -44.175; -265.000; -210.000
251.651; -103.075; -731.000; -671.000
251.794;   55.200;  538.000;  632.000
251.936; -104.100; -821.000; -747.000
252.078;  -89.575; -540.000; -461.000
252.220;  -61.375; -645.000; -477.000
252.362;   86.200;  344.000;  462.000
252.504;  -68.900; -677.000; -584.000
252.646; -125.050; -875.000; -722.000
252.788;    9.425;   14.000; -128.000
252.931;  -46.525; -257.000; -253.000
253.073;  -43.000; -376.000; -317.000
253.215;   -6.550;  141.000;  122.000
253.357;  -24.450;   82.000; -153.000
253.499;  -59.550; -374.000; -234.000
253.641;  -88.500; -749.000; -594.000
253.783; -101.925; -609.000; -527.000
253.925;  -87.600; -586.000; -591.000
254.067; -115.875; -744.000; -667.000
254.209;  -36.825; -391.000; -259.000
254.351; -129.000; -865.000; -883.000
254.493;  -60.100; -441.000; -417.000
254.635; -133.475; -936.000; -818.000
254.777;  -85.075; -752.000; -687.000
254.918;  -74.475; -512.000; -430.000
255.060;  -65.825; -551.000; -395.000
255.202;  -55.875; -473.000; -261.000
255.344;  -66.775; -658.000; -455.000
255.486;  -64.825; -471.000; -406.000
255.628; -112.625; -780.000; -781.000
255.770; -103.100; -676.000; -536.000
255.912;  -62.075; -559.000; -468.000
256.053;  -84.250; -730.000; -508.000
256.195;  162.200; 1008.000;  903.000
256.337; -114.650; -861.000; -595.000
256.479;   51.975;  532.000;  416.000
256.621;  -58.875; -394.000; -212.000
256.762; -108.550; -789.000; -742.000
256.904;   44.650;  485.000;  487.000
257.046;  -49.100; -381.000; -271.000
257.188;  -46.650; -351.000; -264.000
257.329;  -77.750; -525.000; -464.000
257.471; -125.525; -939.000; -807.000
257.613;  -72.425; -584.000; -498.000
257.755; -144.575;-1073.000; -982.000
257.896;   30.075;  286.000;  392.000
258.038;  -69.700; -403.000; -352.000
258.180;  -44.850; -354.000; -279.000
258.321;  -99.325; -581.000; -457.000
258.463;   -5.900;  -71.000;  133.000
258.605;  -89.775; -562.000; -570.000
258.746; -111.500; -886.000; -772.000
258.888; -140.000;-1026.000;-1020.000
259.029;    9.100;  121.000;   -8.000
259.171; -103.250; -614.000; -550.000
259.313;  -16.100;  -49.000;  -47.000
259.454;  -74.900; -536.000; -414.000
259.596;  -49.525; -483.000; -390.000
259.737;  -85.200; -590.000; -474.000
259.879;   49.750;  217.000;  311.000
260.020;   88.400;  901.000;  636.000
260.162;  -23.925; -146.000; -253.000
260.303; -126.425; -768.000; -687.000
260.445;  -87.400; -609.000; -613.000
260.586;   17.200;  392.000;  157.000
260.728;  -42.475; -360.000; -248.000
260.869; -115.250; -350.000; -343.000
261.011;   84.750;  706.000;  537.000
261.152;  -70.300; -479.000; -319.000
261.293;  -81.675; -576.000; -595.000
261.435;  -40.875; -219.000; -184.000
261.576;  -45.500; -455.000; -325.000
261.718;   42.100;  420.000;  470.000
261.859; -128.925; -940.000; -949.000
262.000; -139.925; -951.000;-1016.000
262.142;  -31.325;  -52.000;  -60.000
262.283; -117.975; -808.000; -691.000
262.424;  -91.650; -666.000; -625.000
262.566; -159.225;-1161.000; -983.000
262.707; -113.175; -840.000; -830.000
262.848; -143.025; -769.000; -726.000
262.990;  -53.650; -362.000; -345.000
263.131;   53.400;  650.000;  681.000
263.272;  -18.925;  -61.000;  -41.000
263.413;  -86.250; -589.000; -561.000
263.555;  -74.900; -669.000; -143.000
263.696;  -80.250; -550.000; -641.000
263.837;  -59.500; -449.000; -551.000
263.978;   -9.975;   -5.000;  -77.000
264.119;  -56.150; -283.000; -264.000
264.261; -127.900; -847.000; -630.000
264.402;    3.825;   33.000;   40.000
264.543;  -86.050; -509.000; -524.000
264.684;  -10.150;   61.000;  -50.000
264.825;  -77.250; -816.000; -538.000
264.966;   -5.650;  -84.000;  -67.000
265.107; -121.150; -646.000; -670.000
265.248; -120.425; -825.000; -812.000
265.390;  -23.375;  152.000;   -9.000
265.531;  -18.075; -238.000; -107.000
265.672;  -96.075; -557.000; -630.000
265.813;   61.350;  563.000;  439.000
265.954; -146.100; -959.000; -940.000
266.095;  -12.925; -372.000; -322.000
266.236; -104.100; -686.000; -548.000
266.377;  -50.500; -243.000; -297.000
266.518;  -74.025; -619.000; -547.000
266.659;   22.350;  170.000;  268.000
266.800;   -3.350;   83.000;   85.000
266.941;  -80.550; -487.000; -478.000
267.082;   -3.800;  354.000;   99.000
267.223;  -52.300; -344.000; -273.000
267.364; -127.275; -892.000; -686.000
267.504;  -29.700;    3.000;  135.000
267.645;  -12.775;  160.000;   67.000
267.786;  -37.800; -147.000;  -86.000
267.927;  -79.500; -473.000; -379.000
268.068;  -18.150; -186.000;  -61.000
268.209;  -46.025; -175.000; -413.000
268.350;  -64.675; -388.000; -532.000
268.490; -103.400; -648.000; -521.000
268.631;   27.325;  127.000;  225.000
268.772; -107.925; -874.000; -647.000
268.913;  -51.375; -328.000; -476.000
269.054;  -12.450; -117.000;   12.000
269.194;  -46.150; -418.000; -402.000
269.335; -167.725;-1137.000;-1074.000
269.476;  -19.750;   33.000;  -35.000
269.617;  -44.725; -347.000; -392.000
269.757;  -84.700; -713.000; -646.000
269.898; -113.825; -856.000; -613.000
270.039;  -74.525; -415.000; -405.000
270.180; -143.175; -952.000; -816.000
270.320;  -28.050; -190.000; -250.000
270.461;  -46.300; -277.000; -249.000
270.602;  -20.200; -186.000; -156.000
270.742; -141.250; -868.000; -943.000
270.883;  -59.925; -442.000; -390.000
271.023;  -71.125; -358.000; -357.000
271.164;  -75.125; -607.000; -528.000
271.305; -113.850; -666.000; -654.000
271.445;  -89.525; -722.000; -683.000
271.586;  -72.625; -462.000; -283.000
271.726;  -35.400; -397.000; -322.000
271.867;  -50.225; -594.000; -534.000
272.008;  211.875; -473.000; -285.000
272.148;  138.900;  462.000;  468.000
272.289;   11.375; -113.000; -181.000
272.429;   22.425;   19.000;  185.000
272.570;  -95.350; -633.000; -737.000
272.710; -107.550; -825.000; -775.000
272.851;  -33.525;  113.000; -130.000
272.991; -175.450;-1173.000;-1077.000
273.131;  -59.550; -419.000; -459.000
273.272; -106.800; -683.000; -723.000
273.412;   21.675; -143.000;  -31.000
273.553;  -63.850; -488.000; -507.000
273.693;  123.225;  913.000;  858.000
273.834;  -74.025; -894.000; -692.000
273.974;  -71.375; -664.000; -615.000
274.114; -105.150; -772.000; -560.000
274.255;   90.425;  414.000;  373.000
274.395;    7.100; -180.000; -125.000
274.535;   51.900;  199.000;  350.000
274.676;   24.425;  225.000;   94.000
274.816;    2.900;  110.000;   34.000
274.956;  -74.225; -624.000; -690.000
275.097;  -48.900;-1014.000; -922.000
275.237; -105.025; -913.000; -803.000
275.377;  -95.150; -778.000; -689.000
275.517; -142.725; -878.000; -937.000
275.658;  -49.050; -590.000; -555.000
275.798;  -65.550; -606.000; -413.000
275.938;   11.300;  215.000;  323.000
276.078; -104.325; -626.000; -395.000
276.218;    5.150;   99.000;  104.000
276.359; -120.500;-1026.000;-1024.000
276.499;  -71.425; -605.000; -446.000
276.639;  -36.925; -305.000; -151.000
276.779;  -46.975; -475.000; -357.000
276.919;  -95.025; -783.000; -624.000
277.059;  -20.675; -261.000; -212.000
277.199;  -33.150; -357.000; -259.000
277.340;   51.400;  287.000;  175.000
277.480; -117.650; -840.000; -693.000
277.620;    7.600;  192.000;   16.000
277.760; -213.325;-1533.000;-1294.000
277.900;   15.900;  113.000;   33.000
278.040;   28.450;  137.000;  159.000
278.180;   47.725;  270.000;  170.000
278.320;  -10.200;   21.000;   56.000
278.460;  -65.375; -443.000; -469.000
278.600;  -99.200; -708.000; -598.000
278.740;   53.325;  448.000;  224.000
278.880;  -20.325; -768.000; -791.000
279.020;   -3.175; -194.000; -144.000
279.160;  -99.700; -672.000; -595.000
279.300; -113.350; -926.000; -873.000
279.440;  -89.325; -709.000; -622.000
279.579;   -7.650;-1014.000; -929.000
279.719;  -42.600; -410.000; -394.000
279.859;   79.875;   -4.000;   41.000
279.999;   29.125; -208.000;  101.000
280.139;  -15.600; -435.000; -387.000
280.279;  -66.900; -708.000; -745.000
280.419;  -24.325; -229.000; -147.000
280.559;  -35.500; -259.000; -180.000
280.698;  -67.000; -790.000; -639.000
280.838;  -91.700; -778.000; -800.000
280.978; -101.750; -846.000; -790.000
281.118; -111.525; -811.000; -704.000
281.257;   12.700;   24.000;    6.000
281.397;  -93.675;-1094.000; -960.000
281.537;  -72.575; -599.000; -712.000
281.677;  -19.150; -150.000; -101.000
281.816;  -90.025; -700.000; -630.000
281.956;  -49.625; -193.000; -257.000
282.096;  -57.625; -539.000; -396.000
282.235; -112.100; -672.000; -638.000
282.375;  -14.875; -243.000;  -98.000
282.515; -105.325; -715.000; -707.000
282.654;   24.600;   29.000;  106.000
282.794;   22.575;  388.000;  244.000
282.934;  -54.750; -530.000; -491.000
283.073; -138.800;-1030.000; -857.000
283.213;  -58.850; -460.000; -467.000
283.353;  -45.000; -408.000; -349.000
283.492;  -22.450; -264.000; -296.000
283.632;  -42.425; -254.000; -168.000
283.771; -104.150; -859.000; -730.000
283.911;  -52.500; -369.000; -260.000
284.050; -111.050; -794.000; -748.000
284.190; -165.850;-1229.000;-1096.000
284.329; -141.350;-1055.000; -964.000
284.469;  -46.200; -516.000; -591.000
284.608;  -49.250; -559.000; -598.000
284.748;  -89.175; -614.000; -570.000
284.887;   -4.550;  -87.000;  -20.000
285.027; -123.075; -844.000; -892.000
285.166;  -24.675; -192.000; -249.000
285.306;   14.250; -116.000;  -33.000
285.445;  -26.200; -229.000; -343.000
285.584; -108.125; -630.000; -494.000
285.724;  -43.950; -282.000; -322.000
285.863; -107.025; -857.000; -507.000
286.002;  -53.025; -366.000; -276.000
286.142; -109.625; -715.000; -622.000
286.281;  -79.525; -525.000; -493.000
286.420;  -86.275; -554.000; -417.000
286.560;   86.650;  653.000;  623.000
286.699; -135.200; -958.000; -912.000
286.838;  -76.550; -590.000; -591.000
286.978;  -93.525; -533.000; -537.000
287.117; -128.025;-1085.000; -950.000
287.256;  -25.275; -228.000; -211.000
287.395;  -55.050; -197.000; -378.000
287.535;  -69.275; -370.000; -298.000
287.674;  -74.050; -509.000; -484.000
287.813;   56.450;  661.000;  533.000
287.952; -131.000;-1010.000; -871.000
288.091; -147.200;-1049.000; -915.000
288.231;   18.750;   13.000;   15.000
288.370; -166.575;-1217.000;-1200.000
288.509;  -97.325; -728.000; -645.000
288.648;  -96.925; -770.000; -548.000
288.787;  -29.200; -243.000;  -87.000
288.926;  -61.850; -454.000; -475.000
289.065;  126.100;  859.000;  672.000
289.204;  -46.500; -377.000; -217.000
289.344;  -96.100; -791.000; -690.000
289.483;   25.675;  416.000;  304.000
289.622;  -24.975; -291.000; -149.000
289.761;  -19.400; -309.000; -166.000
289.900; -111.675; -785.000; -626.000
290.039;  -24.900;  -12.000;  -95.000
290.178;  -30.275; -274.000; -180.000
290.317;  -83.800; -618.000; -479.000
290.456;  -74.575; -463.000; -451.000
290.595; -141.725; -961.000; -833.000
290.734; -139.625; -904.000; -891.000
290.873;  -70.725; -456.000; -420.000
291.011; -109.475; -833.000; -843.000
291.150; -105.825; -770.000; -682.000
291.289;  -21.100; -343.000; -110.000
291.428; -101.800; -599.000; -480.000
291.567;  -71.125; -370.000; -442.000
291.706;   -5.350;  109.000;  154.000
291.845;  -90.325; -597.000; -505.000
291.984; -172.400;-1234.000;-1061.000
292.122;   67.825;  602.000;  582.000
292.261;   45.375;  620.000;  463.000
292.400;    9.850; -144.000;  211.000
292.539; -113.100; -959.000; -813.000
292.678;  -34.625; -325.000; -300.000
292.816; -156.025;-1136.000; -965.000
292.955;  -75.750; -844.000; -684.000
293.094;  -29.450; -173.000; -337.000
293.233;  -53.375; -556.000; -400.000
293.371;  -39.400; -225.000;  -84.000
293.510; -113.575; -866.000; -780.000
293.649; -121.925; -959.000; -924.000
293.787;  -26.025;-1083.000;-1012.000
293.926;   -7.475; -113.000;  -32.000
294.065;  -50.500; -379.000; -290.000
294.203;   44.875;  298.000;  406.000
294.342;   22.425;   74.000;  156.000
294.481; 5976.400;51180.000; -836.000
294.619;  -18.600; -425.000; -582.000
294.758; -146.925;-1230.000;-1137.000
294.896;   88.825; -125.000;    5.000
295.035; -121.750;-1040.000;-1006.000
295.174;  -95.425;-1082.000; -954.000
295.312;  -46.625; -323.000; -203.000
295.451;    4.850; -307.000; -428.000
295.589;  -45.450; -389.000; -518.000
295.728;   27.750; -292.000; -165.000
295.866;   -5.850;  -36.000;  -51.000
296.005;  -57.400; -584.000; -341.000
296.143;  -80.500; -558.000; -596.000
296.282; -108.300; -957.000; -881.000
296.420;  -81.675; -657.000; -557.000
296.559;  -60.325; -892.000; -633.000
296.697;   84.975; -847.000; -665.000
296.835;  141.475;-1141.000;-1002.000
296.974;   50.225;  -23.000;   39.000
297.112;   42.025; -443.000; -504.000
297.251;  -66.525; -815.000; -755.000
297.389;  144.950; -576.000; -438.000
297.527;   52.475; -145.000;  -83.000
297.666;  -40.125; -486.000; -438.000
297.804;  -63.475; -404.000; -264.000
297.942;  -10.375; -136.000; -161.000
298.081;  -15.075; -183.000;   63.000
298.219;  112.050;  -17.000;  -19.000
298.357;   72.575; -144.000;  -71.000
298.495;   93.550; -810.000; -812.000
298.634;   94.100;  245.000;  219.000
298.772;   89.525; -220.000; -338.000
298.910;  -43.125; -309.000; -182.000
299.048;    2.900; -130.000; -153.000
299.187;  -24.575; -350.000; -250.000
299.325;   22.650;   52.000;  122.000
299.463;  106.950; -389.000; -299.000
299.601;  162.125; -327.000; -271.000
299.739;  -94.750; -908.000; -883.000
299.877;  -67.200; -791.000; -703.000
300.016;  -18.725;-1095.000; -935.000
300.154;  212.300;  -19.000; -161.000
300.292;   82.325; -428.000; -348.000
300.430;   61.875; -408.000; -291.000
300.568; -101.375; -940.000; -874.000
300.706;  -37.450; -366.000; -469.000
300.844;  -45.900;-1108.000; -979.000
300.982;  139.150;  246.000;  282.000
301.120; -105.925; -965.000; -866.000
301.258;  -61.175; -812.000; -705.000
301.396;   28.175;  104.000;  -41.000
301.534;  121.275; -218.000; -293.000
301.672;   34.925; -664.000; -521.000
301.810;   74.700; -613.000; -545.000
301.948;  152.950;   53.000;  149.000
302.086;  820.300; -250.000;  -32.000
302.224; 1257.025; -610.000; -585.000
302.362;   81.225; -558.000; -622.000
302.500;    0.575; -923.000; -893.000
302.638;  129.650;  128.000;  245.000
302.776;    4.375; -352.000; -408.000
302.913;   51.550;  447.000;  236.000
303.051;   19.975;  -86.000;  -23.000
303.189;   81.650;   90.000;  118.000
303.327;  -49.300; -341.000; -256.000
303.465;  -77.250; -832.000; -588.000
303.603;  -99.700; -805.000; -604.000
303.740;  123.925;  417.000;  241.000
303.878;   56.800; -800.000; -759.000
304.016;  -88.825; -915.000; -790.000
304.154; -109.250;-1123.000;-1152.000
304.291;  -36.075; -505.000; -554.000
304.429;   11.850;  102.000;   74.000
304.567; -107.300; -908.000; -893.000
304.705;  -44.325; -408.000; -515.000
304.842;  158.825; -616.000; -540.000
304.980;   60.400;  215.000;   35.000
305.118;   60.525; -367.000; -365.000
305.255;  -55.500; -945.000; -927.000
305.393;   52.525;  178.000;  239.000
305.531;  -77.500;-1173.000; -956.000
305.668;  -65.075; -663.000; -582.000
305.806;  127.675; -358.000; -439.000
305.943;  145.875; -629.000; -637.000
306.081;   80.300; -378.000; -267.000
306.219; -100.975; -863.000; -748.000
306.356;   10.275;  158.000;   27.000
306.494;  105.875;  981.000;  761.000
306.631;   -9.725;  -11.000;  -55.000
306.769;   21.775; -613.000; -485.000
306.906;  -12.125; -284.000; -258.000
307.044;  -61.375; -473.000; -488.000
307.181;  -64.800; -410.000; -332.000
307.319;    2.575;  112.000;   87.000
307.456; -162.050;-1191.000;-1153.000
307.594;  -85.200; -980.000; -727.000
307.731;   -5.025; -371.000; -164.000
307.868;    2.675;  -15.000;   20.000
308.006; -134.125; -961.000; -847.000
308.143;  -51.900; -618.000; -330.000
308.281;  214.400;  -37.000; -254.000
308.418;    0.675; -748.000; -640.000
308.555;  -80.900; -400.000; -250.000
308.693;  -73.925; -577.000; -573.000
308.830; -117.575; -712.000; -657.000
308.967;  -17.425; -215.000;  -95.000
309.105;  -47.550; -507.000; -396.000
309.242;   65.100; -468.000; -367.000
309.379;  429.875; -577.000; -655.000
309.517;  -34.525; -936.000; -948.000
309.654; -107.825; -910.000; -734.000
309.791;  -58.000; -662.000; -580.000
309.928; -116.925; -977.000; -914.000
310.065;  197.600;  819.000;  697.000
310.203;   22.250; -825.000; -850.000
310.340;   10.200; -465.000; -321.000
310.477;  -74.700; -412.000; -516.000
310.614;  -66.750; -383.000; -473.000
310.751;  -74.675; -427.000; -518.000
310.889;  -21.225;    1.000;   11.000
311.026; -146.400;-1161.000; -939.000
311.163;  -46.325; -386.000; -380.000
311.300;  -77.650; -512.000; -479.000
311.437;  -79.700; -658.000; -619.000
311.574; -165.775;-1226.000; -985.000
311.711;  -49.675; -595.000; -433.000
311.848;  -40.125; -380.000; -388.000
311.985;   12.025;  270.000;   93.000
312.122; -111.700; -932.000; -762.000
312.259; -122.725; -941.000; -994.000
312.396;  -87.675; -508.000; -551.000
312.533;  -84.425; -812.000; -790.000
312.670; -131.150;-1070.000; -898.000
312.807;  -33.175; -352.000; -367.000
312.944;  -81.425; -513.000; -611.000
313.081;  -26.875; -150.000; -415.000
313.218; -103.325;-1111.000; -867.000
313.355;   22.875; -531.000; -449.000
313.492;    3.775; -455.000; -292.000
313.629;  137.050;  815.000;  735.000
313.766; -148.300;-1176.000;-1008.000
313.902;  -12.675; -186.000;   21.000
314.039;  -48.075; -372.000; -289.000
314.176;   24.000;  286.000;  192.000
314.313;  -86.150; -569.000; -473.000
314.450;  -70.400; -788.000; -684.000
314.587;  -60.175; -468.000; -480.000
314.723;    1.475;  -78.000;  130.000
314.860;   34.450;  318.000;  332.000
314.997;   32.050;  223.000;  142.000
315.134;  -41.300; -385.000; -368.000
315.270;  -18.200; -480.000; -496.000
315.407; -119.475;-1094.000; -967.000
315.544;  -29.225; -657.000; -538.000
315.681;  -60.750; -681.000; -565.000
315.817;   48.350; -133.000; -176.000
315.954;   29.825; -613.000; -392.000
316.091; -122.975;-1045.000;-1023.000
316.227;  -25.925;  -71.000; -179.000
316.364;    6.800;   23.000;    6.000
316.500;  -45.475; -113.000; -300.000
316.637;  -36.225; -181.000; -302.000
316.774;  -98.300; -625.000; -358.000
316.910;  -90.900; -598.000; -629.000
317.047;  -70.250; -487.000; -351.000
317.183;  -43.150; -435.000; -566.000
317.320;  -22.900; -367.000; -321.000
317.456;  -71.075; -733.000; -805.000
317.593; -102.700; -598.000; -641.000
317.729;   -2.475;  168.000;  -67.000
317.866; -191.675;-1434.000;-1285.000
318.002;  -83.525; -708.000; -948.000
318.139;  -85.800; -883.000; -867.000
318.275; -107.850;-1003.000; -738.000
318.412;  -58.800; -517.000; -336.000
318.548;    4.225; -751.000; -720.000
318.685;  -87.875; -985.000; -888.000
318.821;  -92.075; -762.000; -735.000
318.957;  -27.375;   34.000;  -23.000
319.094;   44.825;  297.000;  154.000
319.230;  -39.800; -756.000; -742.000
319.367;  209.775; -471.000; -520.000
319.503;   82.275; -538.000; -436.000
319.639;  -77.600; -877.000; -793.000
319.775;  -55.775; -750.000; -685.000
319.912;  -48.825; -424.000; -519.000
320.048;  -69.600;-1184.000;-1184.000
320.184;   80.250;   59.000;   70.000
320.321;  -72.225; -497.000; -467.000
320.457;   64.325;  475.000;  662.000
320.593;  -54.825; -375.000; -382.000
320.729; -106.125; -732.000; -734.000
320.866;  -88.775; -577.000; -635.000
321.002;  -70.925; -759.000; -809.000
321.138;   -7.350; -135.000; -211.000
321.274;   90.825; -148.000; -115.000
321.410;  -17.600; -585.000; -353.000
321.546;    7.275;-1011.000; -911.000
321.683;   53.700;  400.000;  185.000
321.819;   22.075;  -48.000; -117.000
321.955;  -98.875; -743.000; -722.000
322.091;  -40.850; -585.000; -540.000
322.227;  -12.350; -382.000; -202.000
322.363;  -15.250; -320.000; -215.000
322.499;  -35.075; -343.000; -331.000
322.635;  195.250;  636.000;  443.000
322.771;   48.575; -139.000;   12.000
322.907;   95.950;  129.000;  327.000
323.043;  -26.725; -115.000; -206.000
323.179;  -23.725; -394.000; -363.000
323.315;   56.825; -401.000; -371.000
323.451;  148.375; -328.000; -236.000
323.587;   64.050;  -60.000;  -77.000
323.723;   64.100; -682.000; -601.000
323.859;   -2.775; -258.000;  -76.000
323.995;  -27.400; -467.000; -409.000
324.131; -132.450; -967.000; -892.000
324.267;  -48.000; -254.000; -276.000
324.402; -142.000; -960.000; -983.000
324.538;   -0.725; -279.000; -104.000
324.674;   26.000;  164.000;   77.000
324.810;  179.975;  226.000;  308.000
324.946;   35.975; -810.000; -658.000
325.082;  -58.750; -568.000; -475.000
325.217;  -13.000;  -62.000;   16.000
325.353;  -96.125; -764.000; -659.000
325.489;  -86.300; -540.000; -506.000
325.625;  -70.950; -579.000; -525.000
325.760;   54.150;  517.000;  376.000
325.896;  -26.325; -515.000; -702.000
326.032;  -50.900; -403.000; -352.000
326.168;  -60.900; -462.000; -369.000
326.303;  -78.550; -352.000; -461.000
326.439;  -19.500; -336.000; -276.000
326.575;  -12.850; -190.000;  -29.000
326.710;   -9.525; -156.000;  -30.000
326.846;  -17.275;  146.000;  103.000
326.982;  -88.350; -530.000; -548.000
327.117;  -71.825; -481.000; -442.000
327.253;  -94.575; -745.000; -742.000
327.388; -121.875;-1137.000;-1153.000
327.524;  -36.625; -811.000; -578.000
327.659;  -38.175;  -58.000;  -22.000
327.795;  -13.425;   69.000;   45.000
327.931;  -91.825; -723.000; -499.000
328.066;  -19.050; -417.000; -276.000
328.202;   -2.050;   12.000; -129.000
328.337;  100.800;  957.000;  713.000
328.473;   45.275;  -12.000;  -74.000
328.608;   -8.550; -256.000; -267.000
328.743;  -86.700; -799.000; -664.000
328.879;   10.375;  214.000;  114.000
329.014;  -40.725; -102.000; -122.000
329.150;  -74.150; -358.000; -483.000
329.285;  -78.200; -465.000; -466.000
329.421;  -57.000; -548.000; -246.000
329.556;  -29.075;  -36.000;   85.000
329.691; -102.975; -633.000; -615.000
329.827;  -84.750; -626.000; -480.000
329.962;  -59.250;  131.000; -301.000
330.097;  -92.125; -673.000; -585.000
330.233;  -55.100; -410.000; -223.000
330.368; -126.500; -839.000; -628.000
330.503;  -12.800;    3.000;   98.000
330.638;   19.775;  -93.000; -125.000
330.774;  -45.000; -609.000; -530.000
330.909;  -38.725; -434.000; -244.000
331.044; -100.525; -714.000; -708.000
331.179; -166.750;-1217.000;-1109.000
331.315;   22.225;   77.000;   20.000
331.450;    3.200;  157.000;  285.000
331.585;  -87.050; -805.000; -706.000
331.720;  -93.425; -510.000; -460.000
331.855;   -1.400;  -35.000; -102.000
331.990;  183.500;   62.000;  138.000
332.126;  116.900; -110.000;   71.000
332.261;  -31.700; -379.000; -265.000
332.396;   -1.675; -135.000; -242.000
332.531; -112.050;-1074.000;-1031.000
332.666;   23.125; -519.000; -363.000
332.801; -108.975; -726.000; -807.000
332.936;  -22.025; -192.000; -122.000
333.071; -154.225; -870.000; -817.000
333.206;   15.450;  307.000;  379.000
333.341;   22.825;  344.000;  418.000
333.476;  -83.575; -627.000; -623.000
333.611;  -34.700; -251.000; -173.000
333.746;  -41.600; -381.000; -464.000
333.881;  -95.200; -973.000; -935.000
334.016; -114.000; -936.000; -917.000
334.151; -121.525; -746.000; -702.000
334.286;   33.750;  152.000;  186.000
334.421;   -9.100; -125.000; -178.000
334.556;  -71.700; -611.000; -567.000
334.690;  -89.625; -631.000; -577.000
334.825;   69.800;  381.000;   83.000
334.960;  -54.575; -285.000; -413.000
335.095;   18.275;  135.000;  -91.000
335.230;  -98.175; -722.000; -738.000
335.365; -119.525;-1084.000; -990.000
335.499; -126.175;-1108.000;-1037.000
335.634;   24.525;    9.000;  534.000
335.769; -103.775; -755.000; -720.000
335.904;  -42.975; -603.000; -561.000
336.038;  -53.475; -735.000; -657.000
336.173;  -90.775;-1206.000;-1194.000
336.308;    5.575; -116.000; -189.000
336.443;   -9.200; -544.000; -634.000
336.577;  -53.825; -936.000; -787.000
336.712;   90.775;   -4.000;  -12.000
336.847;  -14.600; -724.000; -607.000
336.981;  113.600; -272.000; -208.000
337.116;  329.500;  615.000;  501.000
337.250;  211.100; -434.000; -421.000
337.385;  212.525; -297.000; -208.000
337.520;   49.625; -632.000; -603.000
337.654;  -35.650; -215.000; -126.000
337.789; -122.900; -989.000; -933.000
337.923;  -38.900; -104.000; -205.000
338.058;  -81.600; -673.000; -738.000
338.192;  -26.550; -611.000; -488.000
338.327;    2.050;  -18.000; -155.000
338.461;  -61.325; -299.000; -469.000
338.596;  -86.600; -780.000; -638.000
338.730; -103.625; -767.000; -803.000
338.865;   65.900;  -46.000; -140.000
338.999;  -70.675; -846.000; -702.000
339.134;  -35.000; -634.000; -536.000
339.268;    8.175; -741.000; -603.000
339.403;  342.925; -740.000; -775.000
339.537;   74.875; -894.000; -820.000
339.671; -117.200; -829.000; -813.000
339.806;  -72.075; -556.000; -512.000
339.940;    8.725; -261.000; -235.000
340.074; -108.100; -685.000; -510.000
340.209;  -50.800; -351.000; -230.000
340.343; -101.500; -517.000; -573.000
340.477;  154.825;  998.000; 1036.000
340.612;  -71.275;-1033.000; -900.000
340.746;  117.375; -199.000; -243.000
340.880;  -52.250; -924.000; -785.000
341.014;  -35.600;  -45.000; -154.000
341.149; -125.225; -756.000; -718.000
341.283; -100.750; -839.000; -754.000
341.417;  -74.000;-1124.000; -938.000
341.551;  226.400; -768.000; -708.000
341.685;  -24.100; -633.000; -611.000
341.820;  -52.825; -562.000; -493.000
341.954;  -51.050; -218.000; -349.000
342.088; -147.625;-1102.000;-1019.000
342.222;   50.450;  565.000;  618.000
342.356;  -61.150; -395.000; -335.000
342.490;  -81.400; -880.000; -841.000
342.624;  -31.925; -339.000; -242.000
342.758;   17.125; -364.000; -312.000
342.892;  -42.450; -710.000; -585.000
343.026;  -58.175;  -58.000; -116.000
343.160;  -53.375; -426.000; -376.000
343.294;  -96.450; -474.000; -337.000
343.428;   -6.675; -488.000; -448.000
343.562;  -11.850; -172.000;  -23.000
343.696;   -1.375; -385.000; -314.000
343.830;  -16.250; -362.000; -356.000
343.964;   39.725; -231.000; -168.000
344.098; 1212.775;  199.000;   70.000
344.232; 1042.150; -266.000; -127.000
344.366;  113.225; -567.000; -453.000
344.500;  119.575; -665.000; -744.000
344.634;   78.475; -324.000; -164.000
344.768;   26.475; -531.000; -341.000
344.902;   33.625;  278.000;  256.000
345.035;  -73.725; -556.000; -496.000
345.169; -119.350; -933.000; -656.000
345.303;   -4.850; -308.000; -482.000
345.437;  -60.600; -826.000; -717.000
345.571;  -66.875; -675.000; -594.000
345.704;  -76.700; -309.000; -532.000
345.838;  -16.300; -331.000; -284.000
345.972;  -35.425; -543.000; -495.000
346.106;  142.250; -179.000; -190.000
346.239;  434.575; -312.000; -243.000
346.373;   25.100; -343.000; -302.000
346.507; -150.800; -950.000; -962.000
346.640;  215.975;  -30.000;   13.000
346.774;  -18.800; -650.000; -797.000
346.908;   -3.475; -138.000;  -11.000
347.041; -116.775; -646.000; -593.000
347.175;   -3.750;  259.000;   27.000
347.309;  -51.425; -698.000; -628.000
347.442;  -96.900; -883.000; -732.000
347.576;  354.750;  670.000;  668.000
347.709;  285.250; -123.000;  -52.000
347.843;  -76.975; -933.000; -825.000
347.976;   29.300;  235.000;  294.000
348.110; -180.800;-1268.000;-1186.000
348.243;  -94.775; -679.000; -772.000
348.377;   -4.100;  -26.000;   60.000
348.510;   38.475;  403.000;  540.000
348.644;  -41.225;  -37.000; -159.000
348.777;    1.100;  180.000;  191.000
348.911;  -64.975; -142.000; -112.000
349.044;  206.350;  471.000;  448.000
349.178;  265.400;-1069.000;-1006.000
349.311;  124.225;  141.000;  255.000
349.444;  -10.425; -927.000; -813.000
349.578;  -14.350; -347.000; -200.000
349.711;  -83.325; -959.000; -862.000
349.845;   37.725; -661.000; -591.000
349.978; -140.675;-1224.000;-1137.000
350.111;  -81.950; -546.000; -612.000
350.244;  -69.825; -596.000; -700.000
350.378;   34.325; -392.000; -393.000
350.511;  -65.875; -393.000; -426.000
350.644; -115.025; -808.000; -806.000
350.778;   13.550;  168.000;  104.000
350.911;    5.650;  134.000;  140.000
351.044;  -78.975; -685.000; -615.000
351.177;  -21.850; -321.000; -281.000
351.310;  -27.975;    3.000; -131.000
351.444;  -50.275; -888.000; -788.000
351.577;  160.975;  140.000;   90.000
351.710;  105.850;  593.000;  417.000
351.843;  -31.825; -165.000;  -77.000
351.976;    4.425;  149.000;  -79.000
352.109;  -83.925; -621.000; -612.000
352.242;  -12.450; -464.000; -419.000
352.376;  -58.700; -580.000; -636.000
352.509;  256.100; -437.000; -356.000
352.642;   78.925; -654.000; -604.000
352.775;   82.900; -141.000;  -98.000
352.908; -106.150; -933.000; -904.000
353.041;  -97.575; -814.000; -824.000
353.174;  -62.325; -551.000; -424.000
353.307;  -58.550; -753.000; -764.000
353.440;   62.750;  541.000;  453.000
353.573; -106.100; -957.000;-1008.000
353.706;  -39.050; -384.000; -558.000
353.839;   -2.225; -264.000; -220.000
353.971;  -84.675; -657.000; -512.000
354.104;  -78.550; -896.000; -835.000
354.237;  -13.200; -627.000; -662.000
354.370;  -74.100; -846.000; -879.000
354.503; -164.500;-1231.000;-1308.000
354.636;  -26.325; -529.000; -348.000
354.769; -130.575; -937.000; -860.000
354.902;  -12.250; -230.000; -139.000
355.034;   -9.750; -164.000; -220.000
355.167;   -6.375; -262.000; -162.000
355.300;  -99.850;-1061.000; -880.000
355.433;  861.525;  -71.000;  -14.000
355.565; 1386.350; -402.000; -384.000
355.698;  347.050; -356.000; -296.000
355.831;   21.925; -882.000; -801.000
355.964;  131.400; -285.000; -170.000
356.096;  -67.100; -856.000; -843.000
356.229;   40.350; -523.000; -530.000
356.362;  274.800; -373.000; -266.000
356.494;  556.725; -229.000; -162.000
356.627;  583.375;  269.000;  377.000
356.760;  630.775;  120.000;   53.000
356.892;  832.950; -286.000; -601.000
357.025;  845.100;  403.000;  389.000
357.157;  812.600; -167.000; -179.000
357.290;  572.625; -856.000; -713.000
357.423;  185.975; -667.000; -556.000
357.555;  138.425; -217.000; -228.000
357.688;  170.500; -483.000; -364.000
357.820;  591.500; -870.000; -877.000
357.953; 4647.700; -563.000; -589.000
358.085; 1112.550; -632.000; -612.000
358.218; 1710.675;-1131.000; -932.000
358.350;  305.625;  -58.000;  312.000
358.483;  -91.900;-1300.000;-1187.000
358.615;   42.250;-1182.000;-1078.000
358.747;  -11.775;-1187.000;-1058.000
358.880;   65.100; -810.000; -744.000
359.012;   -4.175; -376.000; -202.000
359.145;  -29.575; -480.000; -511.000
359.277;  108.875; -962.000; -913.000
359.409; 3835.475;  536.000;  231.000
359.542; 1054.250; -738.000; -688.000
359.674;   84.275;   46.000;   13.000
359.806;  -46.050; -565.000; -438.000
359.939;  -58.725; -617.000; -516.000
360.071;  -16.500; -583.000; -579.000
360.203;  -19.225; -411.000; -364.000
360.335;   56.500;  164.000;  -16.000
360.468;  236.525; -249.000; -307.000
360.600; 2982.600; -547.000; -454.000
360.732; 2573.475; -546.000; -423.000
360.864;  362.300;-1216.000;-1044.000
360.996;  403.650; -516.000; -554.000
361.129;  104.200; -389.000; -598.000
361.261;   25.575;  110.000; -113.000
361.393;  -29.675; -252.000; -214.000
361.525;   30.975;   94.000;  244.000
361.657;  -22.225; -821.000; -703.000
361.789;   38.450; -139.000; -155.000
361.921;  363.500; -642.000; -593.000
362.053;  339.750;  524.000;  541.000
362.185;   65.550;  288.000;   72.000
362.318;  -50.300; -709.000; -705.000
362.450;  170.700;  294.000;  444.000
362.582;  242.200; -913.000; -870.000
362.714;  -19.250; -353.000; -332.000
362.846;  -66.375; -606.000; -490.000
362.978; -138.450; -941.000; -811.000
363.109;   73.525; -161.000; -260.000
363.241;  614.500; -739.000; -749.000
363.373;  410.825; -649.000; -564.000
363.505;  564.600; -186.000;  -91.000
363.637;  155.925; -787.000; -601.000
363.769; -106.800;-1067.000;-1080.000
363.901;  -64.300; -596.000; -654.000
364.033; -108.200;-1103.000;-1062.000
364.165;   13.775; -283.000; -283.000
364.296;   67.750; -316.000; -177.000
364.428;   51.625;-1344.000;-1220.000
364.560;  -69.575; -679.000; -661.000
364.692;  -53.475; -738.000; -835.000
364.824;  408.950; -588.000; -456.000
364.955;  463.825; -402.000; -564.000
365.087;  722.275;-1097.000; -852.000
365.219;   23.950; -686.000; -816.000
365.351;  -61.725; -526.000; -572.000
365.482;   71.200;  300.000;  240.000
365.614;  -40.675; -402.000; -314.000
365.746;  -88.275; -729.000; -752.000
365.877; -109.825; -706.000; -672.000
366.009;  219.575;  -35.000;  -62.000
366.141;  -97.700;-1249.000;-1134.000
366.272;  -97.025; -803.000; -719.000
366.404; -107.550;-1005.000; -874.000
366.535;   -4.625; -139.000;  -12.000
366.667; -116.500; -644.000; -649.000
366.799;   41.100;  353.000;  203.000
366.930;  -98.900; -862.000; -996.000
367.062;  129.475; -639.000; -613.000
367.193;  112.625; -872.000; -842.000
367.325;  -62.075; -580.000; -684.000
367.456;  106.725; -246.000;   31.000
367.588;  150.675; -371.000; -318.000
367.719;   21.200;  -44.000;  -45.000
367.851;    5.550; -222.000; -241.000
367.982;   -9.675; -875.000; -732.000
368.113;  161.750; -475.000; -358.000
368.245; -105.475; -960.000; -841.000
368.376;  -12.125; -254.000; -302.000
368.508;  -30.100; -188.000; -263.000
368.639; -121.500;-1166.000;-1034.000
368.770;   14.950; -670.000; -589.000
368.902;  -36.300; -836.000; -926.000
369.033; -103.300; -906.000; -855.000
369.164;  -46.350; -720.000; -653.000
369.296; -101.800; -452.000; -601.000
369.427;    7.025; -209.000; -144.000
369.558;  -45.400; -593.000; -377.000
369.689;  -75.100; -721.000; -569.000
369.821; -134.400; -951.000; -845.000
369.952;  -17.525;   42.000; -108.000
370.083;  -51.100; -229.000; -108.000
370.214;  -76.925; -735.000; -650.000
370.345;   -1.975;   65.000;   81.000
370.477;  -67.700; -810.000; -790.000
370.608;  344.650; -328.000; -264.000
370.739;    3.775;-1233.000;-1292.000
370.870;    1.075;-1102.000; -923.000
371.001;  144.000; -378.000; -467.000
371.132;  -66.150; -754.000; -735.000
371.263;  -10.800;  -42.000; -148.000
371.394; -135.125; -841.000; -748.000
371.525;   30.625;  345.000;  225.000
371.657;  -79.800; -808.000; -670.000
371.788;   93.350;  103.000;  199.000
371.919;  233.825; -384.000; -304.000
372.050; 4770.600;  -91.000; -156.000
372.181; 1456.975; -188.000; -294.000
372.311;  512.675;   42.000; -127.000
372.442;   82.525; -457.000; -451.000
372.573;   -2.650; -444.000; -340.000
372.704; -109.800;-1008.000; -980.000
372.835;  123.775; -228.000; -289.000
372.966;  -46.275; -646.000; -554.000
373.097;  -42.375; -575.000; -711.000
373.228;  -21.175; -717.000; -542.000
373.359;  217.100; -824.000; -536.000
373.490; 1297.600; -881.000; -727.000
373.620; 1669.050;-1001.000; -803.000
373.751; 2442.200; -332.000; -396.000
373.882; 1152.950; -663.000; -733.000
374.013;  107.700; -449.000; -262.000
374.143;  -27.475; -581.000; -659.000
374.274;  -76.100; -987.000; -908.000
374.405;  248.875; -388.000; -276.000
374.536;  600.975; -526.000; -387.000
374.666; 1637.325; -759.000; -807.000
374.797;  338.675; -817.000; -868.000
374.928; 1237.150; -710.000; -560.000
375.058; 1263.050; -535.000; -500.000
375.189;  112.200;  -59.000;  -93.000
375.320;  -83.250; -928.000;-1034.000
375.450;  -16.875; -625.000; -616.000
375.581;  -50.200; -526.000; -436.000
375.712;  -12.100; -574.000; -250.000
375.842;  423.500; -438.000; -415.000
375.973;  356.725; -554.000; -513.000
376.103;   -6.975; -665.000; -648.000
376.234;  -79.175; -531.000; -552.000
376.364;   -2.550; -944.000; -867.000
376.495;  391.125;  925.000;  529.000
376.625;   16.275; -472.000; -485.000
376.756;  130.450; -709.000; -678.000
376.886;  -31.525;-1178.000;-1026.000
377.017;   17.275;-1048.000;-1061.000
377.147;  274.525; -786.000; -782.000
377.278;   62.225;  174.000;  228.000
377.408; -123.825; -801.000; -815.000
377.538; -111.075; -707.000; -693.000
377.669;  -78.425; -537.000; -613.000
377.799;  -80.475; -645.000; -635.000
377.929;  -50.700; -610.000; -428.000
378.060; -120.625; -781.000; -847.000
378.190;  -65.325; -726.000; -531.000
378.320;  -50.525; -401.000; -406.000
378.451;   -7.275; -131.000;  -22.000
378.581;    3.750;  -67.000; -110.000
378.711;  181.800; 1035.000;  866.000
378.841;   12.375; -533.000; -675.000
378.972;  -40.000; -871.000; -751.000
379.102;   42.575; -652.000; -579.000
379.232;    6.250; -126.000;  -73.000
379.362;  -98.500;-1001.000; -885.000
379.492;   35.375; -373.000; -424.000
379.623;  135.850;    0.000;  111.000
379.753;  -78.825;-1107.000; -974.000
379.883;  257.050;   59.000;  156.000
380.013;   60.300;-1081.000;-1017.000
380.143;  -76.950;-1097.000;-1056.000
380.273; -100.025; -985.000; -861.000
380.403;   12.800; -344.000; -257.000
380.533;   -3.375; -651.000; -664.000
380.663;  113.450;  173.000;  128.000
380.793;  -67.150;-1027.000;-1074.000
380.923;  -14.600; -103.000;  -34.000
381.053;  -87.675; -613.000; -623.000
381.183;  -25.725; -106.000; -248.000
381.313;   73.825; -656.000; -470.000
381.443;   78.425; -692.000; -473.000
381.573;  307.900; -402.000; -409.000
381.703;  489.850;-1249.000;-1095.000
381.833;  -96.675;-1454.000;-1336.000
381.963;  154.275; -134.000;  -87.000
382.093; 1827.500; -925.000; -909.000
382.223;  626.200; -713.000; -602.000
382.353;   22.875; -801.000; -608.000
382.482;  587.950;-1091.000; -964.000
382.612; 1052.100; -872.000; -644.000
382.742;  607.975; -695.000; -622.000
382.872;  407.725; -565.000; -551.000
383.002;   77.325;  347.000; -132.000
383.131;  -26.000; -226.000; -160.000
383.261;  -24.550; -706.000; -768.000
383.391;  296.950; -552.000; -377.000
383.521; 2753.175;  451.000;  263.000
383.650;  621.475; -947.000; -904.000
383.780;  -27.225; -783.000; -656.000
383.910;  114.600;  880.000;  802.000
384.039;   59.575; -794.000; -656.000
384.169;  356.650;-1205.000;-1017.000
384.299;   11.050; -650.000; -662.000
384.428;  -82.100; -764.000; -680.000
384.558;  -46.575; -308.000; -275.000
384.687;  -25.275; -414.000; -334.000
384.817;   20.775;   75.000;   -2.000
384.947;   31.175; -234.000; -141.000
385.076;  359.475;  982.000;  912.000
385.206;  114.525;  369.000;  480.000
385.335;  -10.500; -549.000; -417.000
385.465;  -70.025; -655.000; -663.000
385.594;  190.600;  -53.000;  -44.000
385.724;  642.900; -868.000; -838.000
385.853;  189.275; -296.000; -270.000
385.982; 1843.550; -743.000; -787.000
386.112; 2989.775;-1052.000; -871.000
386.241;  227.900; -307.000; -312.000
386.371;   44.025; -174.000;  -87.000
386.500;   38.600; -825.000; -789.000
386.629;   48.875; -874.000; -817.000
386.759;   60.000;  -43.000;   68.000
386.888;   11.300; -170.000; -250.000
387.017;  -65.000; -648.000; -620.000
387.147;  -76.900; -771.000; -798.000
387.276;   21.500; -410.000; -397.000
387.405;   36.175; -398.000; -342.000
387.535;  -36.650; -452.000; -361.000
387.664;  -46.375; -692.000; -620.000
387.793;   87.825; -198.000; -113.000
387.922;  723.600;  255.000;  200.000
388.052;   72.625; -576.000; -423.000
388.181;   54.275; -342.000; -472.000
388.310;   47.025; -889.000; -710.000
388.439;   -2.725; -749.000; -742.000
388.568;  240.725;  365.000;  244.000
388.697; 1511.500; -756.000; -653.000
388.826;  335.175; -768.000; -666.000
388.956;  104.825; -285.000; -307.000
389.085;  -18.950; -347.000; -287.000
389.214;  -99.325; -842.000; -872.000
389.343;  -54.200; -645.000; -413.000
389.472;  347.475;  126.000;  149.000
389.601;  532.950;   91.000;    0.000
389.730;   43.850; -568.000; -687.000
389.859;   85.850;  226.000;   46.000
389.988;  275.750; -423.000; -408.000
390.117;  211.125; -168.000; -146.000
390.246;   14.775; -331.000; -320.000
390.375;  176.475; -673.000; -626.000
390.504;  -42.025; -703.000; -621.000
390.633;  -86.825; -672.000; -726.000
390.761;  -53.700; -732.000; -645.000
390.890;   44.525;   -4.000; -130.000
391.019;    0.000; -421.000; -441.000
391.148; -122.400; -826.000; -855.000
391.277;  -65.650; -576.000; -493.000
391.406;  -45.325; -821.000; -805.000
391.534;   27.125;  574.000; -301.000
391.663;  -55.525; -583.000; -645.000
391.792;  -75.800; -673.000; -701.000
391.921;  171.675;   -3.000;   15.000
392.050;  321.800; -287.000; -228.000
392.178;   27.200;-1206.000;-1061.000
392.307;  233.725; -758.000; -712.000
392.436;  133.800; -427.000; -641.000
392.564;   23.150;  166.000;   -6.000
392.693;  -90.150; -860.000; -682.000
392.822;  307.100; -529.000; -534.000
392.950;  165.000; -880.000; -714.000
393.079;  462.625; -188.000; -328.000
393.208;   67.100; -488.000; -511.000
393.336;    4.700; -170.000; -145.000
393.465;  -46.275; -317.000; -199.000
393.593;    4.825;   62.000;   79.000
393.722; -154.975;-1121.000; -916.000
393.850;  -42.575; -188.000;  -61.000
393.979; -159.025; -926.000; -805.000
394.107;  -56.725; -517.000; -537.000
394.236;   -9.950; -570.000; -507.000
394.364;  257.175;  383.000;  206.000
394.493;  478.350; -911.000; -767.000
394.621;    2.525; -955.000; -916.000
394.750;  608.125; -873.000; -923.000
394.878; 2591.075; -247.000; -149.000
395.007; 3625.575; -721.000; -807.000
395.135;  262.700; -790.000; -721.000
395.263;  -90.875;-1038.000;-1040.000
395.392;   -7.950;  -25.000; -107.000
395.520; -142.450; -818.000; -679.000
395.648;  -61.700; -865.000; -915.000
395.777;   12.525; -366.000; -405.000
395.905;  -33.325; -449.000; -564.000
396.033;    8.575;  217.000;  172.000
396.162;  744.300; -399.000; -453.000
396.290;  680.875;  -17.000;   -2.000
396.418;  173.775; -555.000; -514.000
396.546;  -61.200; -571.000; -466.000
396.674;  -88.250; -850.000; -878.000
396.803;   26.125;  -72.000;  -23.000
396.931;  151.250; -179.000; -199.000
397.059;  162.650;-1026.000; -989.000
397.187;  -93.350;-1026.000; -975.000
397.315; -127.800; -884.000; -649.000
397.443;  -95.675; -592.000; -443.000
397.572;  -92.525; -578.000; -424.000
397.700;   37.875; -607.000; -614.000
397.828;   31.025;  120.000;  -90.000
397.956;  -49.525; -508.000; -478.000
398.084;  -81.725; -767.000; -626.000
398.212;   48.475;  137.000;  124.000
398.340;   15.875;  -56.000;  159.000
398.468;   81.125; -390.000; -169.000
398.596; -130.350; -993.000; -953.000
398.724; -111.225; -762.000; -767.000
398.852; -157.350;-1024.000; -976.000
398.980;  -52.075; -560.000; -560.000
399.108;  -29.225; -982.000; -735.000
399.236;   58.800;   13.000;    8.000
399.363;    4.675;  222.000;  196.000
399.491;  -60.925; -404.000; -398.000
399.619; -134.125; -829.000; -800.000
399.747;  -98.350; -859.000; -771.000
399.875;   87.275;  220.000;  234.000
400.003;  -37.325; -359.000; -284.000
400.130;  -90.525; -421.000; -341.000
400.258;  -33.875;  -83.000;   38.000
400.386;  -78.800; -352.000; -168.000
400.514;  -28.425; -526.000; -587.000
400.641;  -65.175; -928.000; -802.000
400.769; -143.450; -979.000; -888.000
400.897;  -90.975; -838.000; -793.000
401.025;   -3.400; -166.000; -152.000
401.152;    3.525;  220.000;   38.000
401.280;  -60.150; -430.000; -429.000
401.408; -128.800; -712.000; -576.000
401.535;  -90.750; -735.000; -758.000
401.663; -199.000;-1134.000;-1054.000
401.790;  -78.525; -514.000; -525.000
401.918;   41.025;  436.000;  405.000
402.046;  -25.550;  134.000;  122.000
402.173;  -34.775;  -18.000;    7.000
402.301;  -84.450; -519.000; -397.000
402.428;   27.250;  528.000;  383.000
402.556; -131.375;-1188.000; -913.000
402.683;  -26.975;  -20.000;   -1.000
402.811;  -23.300;  -37.000; -206.000
402.938;   -3.650;   20.000;   27.000
403.066;  291.600; -574.000; -558.000
403.193;  459.000;  299.000;  239.000
403.321;  369.600; -396.000; -574.000
403.448;  433.075;   83.000;   27.000
403.575;  213.750;  -90.000;  -46.000
403.703;  -97.775; -732.000; -557.000
403.830;  -67.425; -531.000; -496.000
403.957; -133.750;-1117.000;-1023.000
404.085;   15.375;  -61.000; -172.000
404.212;  122.325;  -50.000;   63.000
404.339;  231.325; -566.000; -306.000
404.467; 5074.575; -612.000; -524.000
404.594; 3834.975; -287.000; -227.000
404.721; 1083.600; -869.000; -764.000
404.848;   98.400; -113.000; -202.000
404.976; -108.725; -856.000; -783.000
405.103;  -16.625;  -14.000;  -82.000
405.230;   11.375;  190.000;  226.000
405.357;   22.050;  117.000;   44.000
405.484;  229.500;  -49.000;    5.000
405.612;   59.050; -548.000; -563.000
405.739;  -74.800; -488.000; -243.000
405.866;   86.875;  669.000;  385.000
405.993;  -33.925; -398.000; -102.000
406.120; -133.850; -801.000; -887.000
406.247;  -57.700; -323.000; -342.000
406.374;  596.300;  540.000;  629.000
406.501;  212.200; -632.000; -702.000
406.628;  -78.150; -621.000; -589.000
406.755;  -97.475; -803.000; -620.000
406.882;  -32.300; -228.000; -277.000
407.009; -110.225; -719.000; -628.000
407.136;   92.875; -480.000; -401.000
407.263;  254.175; -939.000; -829.000
407.390;  -46.100; -692.000; -614.000
407.517; -164.900;-1139.000;-1187.000
407.644;  -51.275; -332.000; -256.000
407.771;  -59.475; -249.000; -287.000
407.898;    7.375;  168.000;  328.000
408.025;  -66.950; -421.000; -313.000
408.151;  -15.625;   82.000;  153.000
408.278;  -69.500; -267.000; -216.000
408.405; -122.125; -931.000; -899.000
408.532;  -82.825; -549.000; -542.000
408.659; -119.025; -677.000; -648.000
408.785; -208.400;-1298.000;-1170.000
408.912;  -62.050; -412.000; -296.000
409.039; -137.900; -610.000; -686.000
409.166; -106.175; -591.000; -555.000
409.292; -116.025; -571.000; -534.000
409.419; -128.300; -665.000; -649.000
409.546; -107.850; -431.000; -192.000
409.672; -111.600; -713.000; -545.000
409.799;  -27.800;  -36.000;   34.000
409.926;  -46.950; -180.000; -179.000
410.052; -179.850;-1127.000;-1091.000
410.179;  -49.825; -368.000; -392.000
410.305;  -91.850; -375.000; -493.000
410.432;  -54.700; -220.000; -333.000
410.558;  -91.100; -305.000; -380.000
410.685; -119.425; -688.000; -431.000
410.812; -103.750; -409.000; -588.000
410.938; -143.700; -964.000; -808.000
411.065;  -98.800; -671.000; -645.000
411.191;  -16.325; -189.000; -174.000
411.317; -110.525; -823.000; -742.000
411.444;  -75.675; -317.000; -246.000
411.570;  -66.450; -339.000; -294.000
411.697; -124.775; -758.000; -752.000
411.823; -169.800; -989.000; -999.000
411.949;  -25.275;  -56.000;   17.000
412.076; -118.250; -539.000; -519.000
412.202; -108.700; -758.000; -757.000
412.329; -135.300; -798.000; -752.000
412.455; -113.425; -821.000; -657.000
412.581;  -27.375;  -15.000;  172.000
412.707;  -41.050; -540.000; -457.000
412.834;   25.375;  156.000;  219.000
412.960;  -81.975; -785.000; -784.000
413.086; -106.925; -743.000; -701.000
413.212;  175.250;  604.000;  578.000
413.339;  -50.950; -685.000; -701.000
413.465;   44.775; -364.000; -310.000
413.591;  -80.025; -757.000; -474.000
413.717;  -53.900; -358.000; -366.000
413.843; -134.550; -839.000; -861.000
413.969;  -66.375;  -47.000; -292.000
414.096;  -93.900; -679.000; -679.000
414.222;  -21.225;  -33.000;   85.000
414.348;    1.950; -652.000; -385.000
414.474;  150.400;   38.000;  -52.000
414.600;  -24.100; -126.000; -144.000
414.726;  -25.325;  -96.000;  -55.000
414.852;  -61.650; -365.000; -342.000
414.978;   34.450;  104.000;  -18.000
415.104;   29.750;   38.000;   80.000
415.230;   27.925; -329.000; -330.000
415.356;   31.250; -409.000; -514.000
415.482;  196.950;   13.000;  -35.000
415.608;  259.575; -247.000; -323.000
415.734;  866.200;   67.000;   38.000
415.860;18294.900; -875.000; -767.000
415.986;13994.975; -685.000; -607.000
416.111; 1194.500; -798.000; -652.000
416.237;  227.500; -424.000; -571.000
416.363;  939.250; -765.000; -733.000
416.489; 3721.600; -324.000; -251.000
416.615;  389.800; -707.000; -742.000
416.741;  -26.800; -677.000; -784.000
416.866; -106.075; -673.000; -736.000
416.992; -115.175; -801.000; -818.000
417.118;  -26.150;  -41.000;  -80.000
417.244;  -54.400; -798.000; -531.000
417.369;  -86.550; -801.000; -612.000
417.495;    0.275; -325.000; -254.000
417.621;  -62.375;-1015.000; -803.000
417.746;   15.550; -579.000; -572.000
417.872;   49.700; -254.000; -144.000
417.998;   39.725; -515.000; -530.000
418.123;  856.625;-1073.000; -845.000
418.249; 4893.050; -512.000; -601.000
418.374;  691.725; -916.000; -824.000
418.500;   98.750; -383.000; -482.000
418.626;  103.625;   70.000;  -59.000
418.751;  127.800; -549.000; -448.000
418.877;  189.875; -637.000; -643.000
419.002; 1520.350; -688.000; -560.000
419.128;11264.750; -930.000; -721.000
419.253; 2903.500; -967.000; -837.000
419.379;  350.975; -391.000; -338.000
419.504;  372.450;  325.000;  415.000
419.629;  445.000; -393.000; -212.000
419.755; 2949.575; -317.000; -254.000
419.880;18194.825;  -98.000;   67.000
420.006;10134.625; -280.000; -221.000
420.131;27094.700; -662.000; -775.000
420.256; 4134.825; -315.000; -316.000
420.382;  530.500; -665.000; -687.000
420.507;   66.800; -649.000; -778.000
420.632;  190.350; -337.000; -339.000
420.758;  397.800; -251.000; -425.000
420.883;  -74.650; -876.000; -672.000
421.008;  -99.550; -775.000; -619.000
421.133;  -88.025; -509.000; -467.000
421.259;  -48.575; -325.000; -259.000
421.384; -117.750; -834.000; -693.000
421.509;    5.925;-1052.000; -862.000
421.634; 1713.150; -936.000; -820.000
421.759;  805.725; -359.000; -327.000
421.885;  -30.425; -717.000; -656.000
422.010;  -56.525; -673.000; -542.000
422.135; -142.050; -695.000; -727.000
422.260;   25.950;  340.000;  280.000
422.385;  -40.625;   12.000;  -98.000
422.510;    8.050;  151.000;  -26.000
422.635;   13.850;  -87.000;  -43.000
422.760;  147.975; -766.000; -791.000
422.885;   62.000;  -57.000;  -80.000
423.010;  -41.200; -112.000; -169.000
423.135;  -93.200; -481.000; -561.000
423.260;   15.400; -150.000; -245.000
423.385;   82.450;  476.000;  222.000
423.510;   44.850;   71.000;  -22.000
423.635;  111.675;  133.000;   45.000
423.760;   50.050;  383.000;  328.000
423.885;   56.300;  336.000;  391.000
424.010;   17.475;  -68.000;  -13.000
424.135;  -17.925;    5.000;  -33.000
424.259;  -82.300; -654.000; -457.000
424.384;  -78.050; -279.000; -272.000
424.509;  -27.625; -260.000; -186.000
424.634; -102.575; -761.000; -623.000
424.759;   -9.825; -688.000; -544.000
424.883;  -19.450; -506.000; -527.000
425.008;  156.025; -502.000; -410.000
425.133; 1816.025; -679.000; -653.000
425.258;  891.800; -517.000; -381.000
425.382; 1271.625; -867.000; -774.000
425.507; 3481.700; -487.000; -543.000
425.632;  561.175; -802.000; -663.000
425.756;  398.800; -256.000; -146.000
425.881; 5276.900; -831.000; -857.000
426.006;14903.450; -604.000; -355.000
426.130; 2558.275; -696.000; -508.000
426.255;  326.100; -611.000; -491.000
426.379;  125.850; -189.000; -577.000
426.504;  330.350;  660.000;  544.000
426.629; 3683.025; -519.000; -466.000
426.753; 2712.900;   64.000;  -46.000
426.878;  311.300; -252.000; -288.000
427.002;  123.950; -651.000; -668.000
427.127; 1425.300;  -35.000; -158.000
427.251;10248.950;  372.000;  401.000
427.375; 3161.250; -191.000; -173.000
427.500; 2911.975; -616.000; -610.000
427.624; 1066.900; -234.000; -400.000
427.749;  138.750; -216.000; -225.000
427.873;  -20.925; -499.000; -412.000
427.997;  -32.250; -222.000; -230.000
428.122;   85.975;  795.000;  703.000
428.246;   85.025;  433.000;  434.000
428.371; -114.050; -869.000; -773.000
428.495;  -98.325; -624.000; -646.000
428.619;  -30.625; -186.000; -117.000
428.743;   32.525;   65.000;  132.000
428.868;   49.900; -732.000; -643.000
428.992; 1830.500; -219.000; -326.000
429.116;  824.275; -329.000; -357.000
429.240;  383.975;  419.000;  426.000
429.365;  -11.750; -454.000; -574.000
429.489;  -27.700; -638.000; -647.000
429.613;    6.075; -236.000; -177.000
429.737;   40.225; -563.000; -432.000
429.861;  264.075; -247.000; -133.000
429.985; 4929.800; -425.000; -305.000
430.109; 5684.825; -770.000; -908.000
430.234;  706.375;   76.000;  -50.000
430.358;   45.325; -250.000; -160.000
430.482;  -72.800; -672.000; -564.000
430.606;  -71.175; -655.000; -375.000
430.730;   23.850; -437.000; -388.000
430.854;  233.500; -909.000; -835.000
430.978;  -46.250; -795.000; -764.000
431.102;  -86.575; -499.000; -422.000
431.226; -108.200; -874.000; -815.000
431.350;   28.975;  345.000;  422.000
431.474;  -63.925; -661.000; -373.000
431.597; -152.850;-1060.000; -848.000
431.721;  -84.725; -276.000; -267.000
431.845; -134.875; -704.000; -472.000
431.969;  -96.825; -304.000; -349.000
432.093; -101.325; -395.000; -317.000
432.217;  -15.475;   32.000;   82.000
432.341;  -88.175; -523.000; -518.000
432.464;    6.075;   96.000;   40.000
432.588;  308.650; -401.000; -329.000
432.712;  147.025;  -52.000;  -52.000
432.836;   48.275;  213.000;  263.000
432.959;  -23.900; -372.000; -311.000
433.083;   48.200;   11.000;    2.000
433.207;  334.875;  285.000;  930.000
433.330; 4336.925; -391.000; -200.000
433.454; 5631.875; -654.000; -638.000
433.578; 3258.225;  583.000;  278.000
433.701;  670.775; -623.000; -675.000
433.825;  202.550; -292.000; -299.000
433.949;  275.150;   28.000;  -72.000
434.072;  138.700; -410.000; -323.000
434.196;   -3.700; -309.000; -117.000
434.319; 3644.875;25482.000;25124.000
434.443;  720.550; -656.000; -603.000
434.566; 2464.525;  281.000;   62.000
434.690;  410.875; -637.000; -383.000
434.813;   64.025; -251.000; -173.000
434.937;  -78.450; -569.000; -696.000
435.060;  -13.125; -423.000; -332.000
435.184;  529.850; -492.000; -217.000
435.307;  282.350;  159.000;  102.000
435.431;   -4.350;  -40.000;   24.000
435.554;  -89.125; -399.000; -240.000
435.677;  -92.300; -350.000; -258.000
435.801;  -48.800;  -25.000;   49.000
435.924;   -5.050;    1.000;  -67.000
436.048;  -93.200;-1019.000; -732.000
436.171;  -66.025; -240.000;  -66.000
436.294;  -43.525; -248.000; -229.000
436.417;   64.400; -963.000; -849.000
436.541;  -81.550; -814.000; -840.000
436.664;  -52.975; -242.000; -316.000
436.787;  -23.950;   13.000;  113.000
436.910; -117.250; -792.000; -422.000
437.034;   14.300;  142.000;  143.000
437.157;   90.450;  -11.000;    0.000
437.280;  -33.800; -392.000; -292.000
437.403;  -46.150; -982.000; -869.000
437.526;  989.600; -903.000; -865.000
437.649; 3521.525; -505.000; -332.000
437.772;  626.775; -692.000; -540.000
437.896;  156.625;  700.000;  544.000
438.019;  -83.175; -758.000; -503.000
438.142;  -78.625; -596.000; -506.000
438.265;   26.450; -639.000; -670.000
438.388;  837.650; -520.000; -410.000
438.511;  219.275; -597.000; -394.000
438.634;  -40.625; -247.000; -125.000
438.757; -131.975; -693.000; -619.000
438.880;  -19.425;  -34.000;  -57.000
439.003;  -80.050; -417.000; -437.000
439.126;  -61.950; -287.000; -167.000
439.248;  -73.000;  -98.000; -139.000
439.371;  -43.400;    9.000;  -53.000
439.494;   20.625;  510.000;  439.000
439.617;  -65.000;   65.000;  -88.000
439.740; -172.050; -968.000; -816.000
439.863; -147.100; -755.000; -595.000
439.986; -126.425; -476.000; -431.000
440.108;  -56.450; -161.000; -112.000
440.231; -155.125; -950.000; -836.000
440.354;  -30.725;  -64.000; -150.000
440.477;   91.600; -566.000; -542.000
440.599;   56.575; -200.000; -225.000
440.722; -114.875; -709.000; -586.000
440.845;   62.250;  751.000;  928.000
440.968; -108.150; -415.000; -311.000
441.090;  -72.775; -199.000;  -33.000
441.213; -172.225;-1021.000; -825.000
441.336;  -48.125; -159.000;   -5.000
441.458;  -77.750; -549.000; -396.000
441.581;  -65.900; -628.000; -629.000
441.703;  -67.750; -152.000;   13.000
441.826; -113.225; -557.000; -400.000
441.948;  -61.850;   56.000;   51.000
442.071;   40.800;  555.000;  424.000
442.193; -127.000; -531.000; -485.000
442.316;   12.550;  152.000;   97.000
442.438;   52.275; -233.000;  -10.000
442.561;   82.875;  272.000;  262.000
442.683;  810.900; -809.000; -522.000
442.806; 1769.750;   -8.000;   74.000
442.928;  123.600; -859.000; -604.000
443.051;  -50.650; -577.000; -373.000
443.173;  -91.475; -341.000; -339.000
443.295;  -88.400; -263.000; -371.000
443.418;  -78.325; -321.000;  -29.000
443.540;  -13.850; -106.000;   -4.000
443.662; -120.300; -563.000; -465.000
443.785;  -32.200;  335.000;  199.000
443.907; -107.850; -362.000; -208.000
444.029; -133.475; -767.000; -494.000
444.152; -162.200; -644.000; -554.000
444.274;  -44.075;  -18.000;  -24.000
444.396; -118.900; -461.000; -221.000
444.518; -136.475; -691.000; -454.000
444.640; -123.125; -268.000; -111.000
444.763;  -28.050;  388.000;  249.000
444.885; -118.100; -432.000; -392.000
445.007;  -47.100;   35.000;   86.000
445.129; -119.050; -610.000; -515.000
445.251;  -97.525; -372.000; -439.000
445.373; -143.675; -537.000; -386.000
445.495;   -4.275;  242.000;  350.000
445.617;   47.750;  853.000;  753.000
445.739;  -61.250; -215.000;  -97.000
445.861;  -33.250; -245.000; -112.000
445.984;  -16.700; -267.000; -101.000
446.105;  296.700; -418.000; -251.000
446.227;  868.575; -176.000;  -19.000
446.349;   59.975; -358.000; -249.000
446.471;  -78.825; -615.000; -448.000
446.593;  -63.675; -316.000;   19.000
446.715;   15.075;  -67.000;   41.000
446.837;   65.675;  697.000;  832.000
446.959;  -89.175; -457.000; -478.000
447.081; -147.600; -628.000; -518.000
447.203;   48.675;  862.000;  834.000
447.325;  -92.475; -270.000;   42.000
447.446;   -9.300;  286.000;  530.000
447.568; -149.650; -921.000; -803.000
447.690;  -63.875; -236.000; -245.000
447.812; -163.825; -798.000; -519.000
447.933;  -39.525;  155.000;  127.000
448.055;  -74.100; -306.000; -261.000
448.177;  199.675;   31.000;   79.000
448.299;  184.950; -935.000; -727.000
448.420;   47.825;  -25.000;  159.000
448.542;  -55.650;   -3.000;   33.000
448.664;  -27.100;  109.000;  322.000
448.785;  -51.675;  265.000;   83.000
448.907;  -71.225; -614.000; -353.000
449.028;   -9.300; -771.000; -471.000
449.150;   60.175;  492.000;  589.000
449.272; -188.225;-1044.000; -913.000
449.393;   27.750;  612.000;  694.000
449.515; -149.375; -634.000; -581.000
449.636;  -35.100; -264.000; -155.000
449.758;   72.900;  763.000;  622.000
449.879;  -88.300; -498.000; -396.000
450.001;  -89.125; -149.000;  -49.000
450.122;  -35.900;  -95.000;  162.000
450.244;  -39.950;   37.000;  364.000
450.365; -105.500; -495.000; -301.000
450.486;  -45.750;   80.000;  268.000
450.608;    5.775;  393.000;  326.000
450.729;   55.150;  578.000;  645.000
450.850;  -12.000; -574.000; -466.000
450.972;  596.550; -552.000; -389.000
451.093; 4159.225;  190.000;  588.000
451.214; 1935.500; -516.000; -337.000
451.336;  361.500;  773.000;  579.000
451.457;   33.325;  264.000;  393.000
451.578;  -59.675; -118.000;  -74.000
451.699; -126.075; -546.000; -540.000
451.821;  -67.700; -284.000;  -50.000
451.942;  -22.625;  278.000;  285.000
452.063;   30.200;  228.000;  419.000
452.184;  439.425;  -54.000;  -49.000
452.305;  973.875;  103.000;  170.000
452.427;  113.325; -549.000; -301.000
452.548;  -19.775;   23.000;   79.000
452.669;  -46.350; -257.000;  -89.000
452.790;  -27.000;    3.000;  -18.000
452.911;  -14.475;  195.000;  259.000
453.032;  -54.975; -289.000;  -60.000
453.153;  -42.425;  -29.000;   81.000
453.274;   62.775;  737.000;  868.000
453.395;  -50.925;  -51.000;  175.000
453.516;  131.750; 1317.000; 1388.000
453.637;  -40.200; -205.000; -150.000
453.758;  -62.925;   15.000;   69.000
453.879; -117.525; -462.000; -250.000
454.000;   72.250; 1086.000;  948.000
454.121;  -92.425; -554.000; -326.000
454.242; -120.825; -599.000; -383.000
454.362;  -70.350;  -99.000;  114.000
454.483;  -45.275; -309.000; -229.000
454.604;   57.575;  512.000;  580.000
454.725; -116.225; -627.000; -555.000
454.846; -123.900; -474.000; -406.000
454.967;  -38.550;  230.000;  539.000
455.087;  -52.400;  179.000;  153.000
455.208;   13.150;  554.000;  856.000
455.329;  -77.350;  -22.000;   82.000
455.450;   13.625;  473.000;  633.000
455.570; -100.475; -234.000; -211.000
455.691;  -38.125;  201.000;  407.000
455.812; -120.950; -270.000;  -92.000
455.932;  -74.700;  107.000;  -97.000
456.053;  -96.275;   36.000;   24.000
456.173; -124.625; -433.000; -355.000
456.294; -146.050; -476.000; -303.000
456.415;  -68.450;  -73.000;   70.000
456.535;  -45.400;  297.000;  273.000
456.656;  -47.300;  132.000;  240.000
456.776;  -84.275;    3.000;  298.000
456.897;  -18.700;  308.000;  513.000
457.017;  -85.325; -153.000;   -3.000
457.138;  -96.000; -402.000; -249.000
457.258;  -33.175;  263.000;  224.000
457.379;  -14.875;  509.000;  521.000
457.499;  -39.100;  443.000;  432.000
457.620; -131.125; -407.000; -231.000
457.740; -107.850; -132.000;  -11.000
457.860;  -66.750;   87.000;   44.000
457.981;  -61.325;  132.000;  124.000
458.101;  -74.625;  -89.000;   40.000
458.221;  -29.950;  336.000;  402.000
458.342;  -56.625;   -4.000;  -37.000
458.462;    5.850;  617.000;  352.000
458.582;  -50.625; -302.000; -294.000
458.703;  -18.925;  303.000;  154.000
458.823;  -39.075;   22.000;  163.000
458.943;    7.775;  341.000;  467.000
459.063;   -7.175; 1124.000;  192.000
459.183;  -18.800;  328.000;  313.000
459.304;    2.900;  315.000;  517.000
459.424;  -83.250; -246.000;  -89.000
459.544;  283.350;  388.000;  764.000
459.664;  729.900;  499.000;  506.000
459.784;  301.275; 1004.000; 1175.000
459.904;   50.850;  867.000;  744.000
460.024;   83.700;  867.000;  684.000
460.144;   15.725;  449.000;  554.000
460.264;   -6.050;  515.000;  327.000
460.385;  -95.800; -145.000; -119.000
460.505;   10.100;  905.000;  858.000
460.625; -101.625;  -17.000;  -68.000
460.745;  -26.225;  396.000;  541.000
460.864;  -61.125;  153.000;  469.000
460.984;   13.900;  499.000;  573.000
461.104;  138.350; 1656.000; 1775.000
461.224;   17.575;  657.000;  650.000
461.344;  -37.225;  431.000;  360.000
461.464;  -43.825;  258.000;  513.000
461.584;  -22.475;  283.000;  466.000
461.704;  -43.850;   58.000;  108.000
461.824;  -48.200;  238.000;  259.000
461.943;  -36.725;  191.000;  130.000
462.063;  -83.250;    2.000;  324.000
462.183;   33.650;  639.000;  717.000
462.303;   98.825; 1678.000; 1230.000
462.422;   28.925;  781.000;  840.000
462.542;  -36.325;  271.000;  391.000
462.662;   35.600;  353.000;  380.000
462.782;  220.625;  833.000;  572.000
462.901;  427.700;  545.000;  717.000
463.021;  263.825; 1702.000; 1638.000
463.141;  -16.725;  337.000;  770.000
463.260;  -26.950;  614.000;  474.000
463.380;    5.325;  902.000;  884.000
463.499;  -57.700;  342.000;  332.000
463.619;  -42.375;  581.000;  559.000
463.738;  106.700; 1644.000;  903.000
463.858;   17.050;  657.000;  811.000
463.978;  -51.300;  542.000;  396.000
464.097;   48.475;  921.000; 1114.000
464.217;   90.825; 1196.000; 1143.000
464.336;   92.225; 1068.000; 1130.000
464.455;  -32.250;  328.000;  659.000
464.575;   62.850;  597.000;  602.000
464.694;  184.625; 1204.000; 1179.000
464.814;  125.800; 1190.000; 1138.000
464.933;   74.125; 1095.000; 1027.000
465.052;  116.125; 1412.000; 1054.000
465.172;   66.950;  922.000;  799.000
465.291;  154.575; 1376.000; 1320.000
465.410;   12.325;  462.000;  735.000
465.530;   84.025; 1355.000; 1310.000
465.649;   54.350; 1209.000; 1273.000
465.768;  140.850; 1673.000; 1508.000
465.888;   42.475;  941.000; 1174.000
466.007;   88.400; 1335.000; 1440.000
466.126;   -8.100;  721.000;  641.000
466.245;   34.525; 1176.000; 1187.000
466.364;   10.300;  950.000; 1060.000
466.484;   51.850; 1024.000; 1213.000
466.603;   35.600; 1101.000; 1222.000
466.722;  121.975; 1490.000; 1769.000
466.841;   75.300; 1151.000; 1401.000
466.960;   39.575; 1069.000;  972.000
467.079;  115.600; 1971.000; 1786.000
467.198;   43.975; 1238.000; 1181.000
467.317;   73.775; 1768.000; 1162.000
467.436;   67.900; 1709.000; 1261.000
467.555;  131.150; 1796.000; 1746.000
467.674;   57.500; 1227.000; 1329.000
467.793;   49.725; 1376.000; 1374.000
467.912;   75.550; 1658.000; 1539.000
468.031;  125.075; 2038.000; 1930.000
468.150;  149.475; 1842.000; 1837.000
468.269;  181.350; 2313.000; 2090.000
468.388;  184.625; 2168.000; 2339.000
468.507;  230.875; 2884.000; 2903.000
468.626;  268.900; 2555.000; 2541.000
468.744;  131.475; 2018.000; 2174.000
468.863;  184.300; 2312.000; 2523.000
468.982;   79.825; 1503.000; 1555.000
469.101;  228.300; 2788.000; 2692.000
469.220;  148.500; 2333.000; 2176.000
469.338;  236.375; 2935.000; 3051.000
469.457;  186.525; 2719.000; 2545.000
469.576;  339.925; 3953.000; 3784.000
469.695;  228.000; 2877.000; 3066.000
469.813;  405.825; 4148.000; 4192.000
469.932;  403.225; 4255.000; 4485.000
470.051;  402.450; 4075.000; 4161.000
470.169;  808.750; 4470.000; 4338.000
470.288; 1374.275; 4700.000; 4809.000
470.406;  853.950; 5059.000; 5194.000
470.525;  630.550; 6101.000; 5787.000
470.644;  635.700; 6847.000; 6794.000
470.762;  826.100; 8397.000; 7873.000
470.881;  917.125; 8651.000; 8464.000
470.999; 1025.500; 9685.000; 9151.000
471.118; 1106.775;11174.000;10711.000

