
Integration time [ms]: 200.000
Averaging Nr. [scans]: 10
Smoothing Nr. [pixels]: 0
Data measured with spectrometer [name]: 2101012U2
Wave   ;Sample   ;Dark     ;Reference
[nm]   ;[counts] ;[counts] ;[counts] 

197.733;  129.500;  516.000;  404.000
197.879; -204.900; -610.000; -634.000
198.025; -103.700; -475.000; -420.000
198.171; -155.200; -602.000; -612.000
198.317;  -94.700; -401.000; -316.000
198.463; -124.200; -655.000; -404.000
198.609;   83.200;  181.000; -137.000
198.755; -138.600; -644.000; -410.000
198.901; -143.000; -505.000; -424.000
199.047; -142.100; -615.000; -488.000
199.193;  -54.100; -230.000; -468.000
199.339; -101.700; -222.000; -369.000
199.485;   78.300;  330.000;  271.000
199.631;   40.900;  227.000;  310.000
199.777; -112.600; -466.000; -398.000
199.923; -126.600; -610.000; -424.000
200.069;   -2.200; -141.000;  -58.000
200.215;  113.000;  128.000;  453.000
200.361;  105.000;  243.000;  477.000
200.507; -142.600; -600.000; -373.000
200.653;  -47.300; -371.000; -194.000
200.798;  -68.800; -215.000; -125.000
200.944;    5.300; -146.000;  -41.000
201.090;   74.000;   61.000;  222.000
201.236;  -16.400; -116.000; -158.000
201.382;  240.900;  874.000;  903.000
201.528;   -6.400;  -58.000;  -48.000
201.674; -133.900; -386.000; -293.000
201.819; -145.400; -540.000; -439.000
201.965; -174.300; -699.000; -447.000
202.111;  -58.600; -273.000; -226.000
202.257;  -83.900; -250.000; -238.000
202.402;   37.300;   13.000;  -36.000
202.548;  -69.700; -169.000; -116.000
202.694;  145.800;  410.000; -183.000
202.840; -169.600; -603.000; -531.000
202.985; -156.900; -681.000; -639.000
203.131; -223.300; -832.000; -666.000
203.277;  -36.700; -199.000; -262.000
203.423;  -96.600; -434.000; -520.000
203.568;  -89.800; -462.000; -237.000
203.714; -122.600; -535.000; -542.000
203.860; -174.900; -682.000; -641.000
204.005;    2.200;  112.000;  167.000
204.151;  153.900;  561.000;  556.000
204.296; -114.700; -354.000; -221.000
204.442; -123.200; -600.000; -547.000
204.588; -159.600; -592.000; -579.000
204.733;   64.000;  178.000;  168.000
204.879; -273.700;-1018.000; -822.000
205.025;   11.700;  -99.000;  126.000
205.170;    1.100;  -17.000;   94.000
205.316;  171.100;  438.000;  661.000
205.461; -174.100; -698.000; -554.000
205.607;  164.200;  609.000;  665.000
205.752; -162.300; -626.000; -551.000
205.898; -121.300; -501.000; -391.000
206.043; -122.700; -578.000; -506.000
206.189;  -90.600; -243.000; -285.000
206.334;  144.300;  554.000;  606.000
206.480;  166.100;  409.000;  239.000
206.625; -155.300; -529.000; -552.000
206.771;  -84.500; -451.000; -373.000
206.916; -115.100; -210.000; -537.000
207.062; -189.500; -545.000; -591.000
207.207; -101.400; -546.000; -443.000
207.353;  110.100;  185.000;  460.000
207.498;   53.200;  196.000;   85.000
207.643; -110.600; -501.000; -370.000
207.789; -282.500;-1069.000; -910.000
207.934; -185.100; -665.000; -713.000
208.080;  -50.500; -154.000;   66.000
208.225;    1.500;  -22.000;  -57.000
208.370; -184.100; -727.000; -619.000
208.516; -170.400; -741.000; -487.000
208.661;  -54.400; -127.000;  -69.000
208.806;  -60.100; -165.000; -171.000
208.952; -276.400;-1044.000; -731.000
209.097;  164.400;  378.000;  349.000
209.242;  -89.900; -307.000; -382.000
209.387;   95.700;  392.000;  350.000
209.533;  -78.600; -321.000; -350.000
209.678;  165.200;  472.000;  543.000
209.823; -124.300; -408.000; -310.000
209.969; -229.400; -860.000; -757.000
210.114; -212.600; -907.000; -719.000
210.259; -232.800; -939.000; -889.000
210.404;  -28.100; -171.000;  103.000
210.549;    8.000;  108.000;    3.000
210.695;  -62.900;   -3.000;  -95.000
210.840;   90.400;   94.000;   67.000
210.985; -121.200; -484.000; -303.000
211.130;  190.100;  268.000;  406.000
211.275;   23.100;  207.000;  199.000
211.420; -114.600; -300.000; -289.000
211.566; -141.000; -536.000; -489.000
211.711;   56.100;  218.000;  157.000
211.856; -128.500; -545.000; -519.000
212.001;   26.400;  151.000;   44.000
212.146;   14.000;  153.000;   49.000
212.291;  -23.200; -210.000; -186.000
212.436;  -48.800; -280.000;   -6.000
212.581; -187.500; -685.000; -653.000
212.726; -155.200; -487.000; -538.000
212.871;  -99.500; -552.000; -217.000
213.016; -313.000;-1172.000;-1029.000
213.161;  133.000;  406.000;  291.000
213.306; -158.000; -435.000; -577.000
213.451; -209.700; -778.000; -689.000
213.596; -107.700; -455.000; -347.000
213.741; -139.800; -448.000; -538.000
213.886; -161.500; -498.000; -517.000
214.031;  -33.300; -294.000; -124.000
214.176; -112.800; -408.000; -341.000
214.321;  -35.200; -296.000; -157.000
214.466;  -53.100; -163.000;  -43.000
214.611;   31.200;  -61.000;  -10.000
214.756; -246.100; -948.000; -858.000
214.901;  -28.600; -388.000; -226.000
215.046; -259.700; -797.000; -825.000
215.191;   41.600;  128.000;   35.000
215.336;  -57.500; -157.000;  -19.000
215.480; -134.300; -684.000; -505.000
215.625;  -22.800; -175.000;  -19.000
215.770; -180.300; -757.000; -662.000
215.915;   14.000;   -5.000;  -97.000
216.060;  -26.300; -113.000;  -21.000
216.205; -215.300; -731.000; -779.000
216.349; -141.400; -470.000; -533.000
216.494; -277.100; -939.000; -867.000
216.639; -254.100; -823.000; -888.000
216.784; -170.500; -577.000; -525.000
216.929;  132.600;  392.000;  281.000
217.073;  -11.000; -244.000;  -31.000
217.218;   39.000;   78.000;  -47.000
217.363; -158.600; -656.000; -618.000
217.507; -171.700; -623.000; -588.000
217.652; -267.400; -845.000; -874.000
217.797; -182.800; -708.000; -659.000
217.942; -231.700; -856.000; -720.000
218.086;  148.100;  608.000;  539.000
218.231;  -28.900; -174.000;  -26.000
218.376;  -67.100; -337.000; -229.000
218.520;  -15.700;  -41.000;   96.000
218.665;  -28.200; -338.000; -204.000
218.810; -110.000; -275.000; -233.000
218.954;   49.000;  201.000;   35.000
219.099; -249.300; -713.000; -963.000
219.243; -153.900; -589.000; -554.000
219.388;  -78.800; -264.000; -136.000
219.532;  -28.400; -116.000; -116.000
219.677; -160.600; -564.000; -521.000
219.822;   23.400;   33.000;   89.000
219.966;   25.700;   17.000;  -99.000
220.111;  -70.900; -328.000;  -40.000
220.255; -229.700; -797.000; -750.000
220.400;  -25.300; -180.000; -146.000
220.544; -153.600; -516.000; -450.000
220.689; -106.500; -422.000; -451.000
220.833;  -51.400; -123.000;  -58.000
220.978; -109.600; -393.000; -563.000
221.122;   30.400;  319.000;  307.000
221.267; -234.500; -906.000; -837.000
221.411; -173.300; -478.000; -394.000
221.555;  -19.000; -104.000;  -23.000
221.700;  -69.800; -329.000; -222.000
221.844;   65.300;  255.000;  272.000
221.989;  -56.500; -328.000; -311.000
222.133;  -70.900; -289.000; -307.000
222.277;  -31.700;    5.000;   78.000
222.422;   20.300;  227.000;  113.000
222.566;  -68.000; -381.000; -214.000
222.711; -112.300; -414.000; -479.000
222.855; -185.100; -643.000; -586.000
222.999; -145.800; -642.000; -717.000
223.144;  -72.300; -195.000; -194.000
223.288;   97.300;  423.000;  251.000
223.432;   38.100;  184.000;  230.000
223.576;   23.200;  152.000;  -21.000
223.721;   73.500;  364.000;  273.000
223.865; -120.800; -472.000; -475.000
224.009;  437.900; 1673.000; 1631.000
224.153; -156.800; -660.000; -671.000
224.298; -151.700; -531.000; -489.000
224.442;   -9.500;  -74.000;  -33.000
224.586;  -26.300; -169.000; -106.000
224.730; -180.400; -858.000; -670.000
224.875; -207.300; -739.000; -688.000
225.019;   13.000;  102.000;  188.000
225.163;  114.500;  208.000;  341.000
225.307;   18.100;   97.000;  -91.000
225.451;  119.200;  360.000;  481.000
225.595;  116.000;  264.000;  176.000
225.739;  -45.900; -170.000;  -94.000
225.884;   19.200;   86.000;    5.000
226.028; -196.800; -760.000; -626.000
226.172;  -57.000; -260.000; -273.000
226.316; -243.400; -941.000; -902.000
226.460; -132.800; -645.000; -493.000
226.604; -100.100; -406.000; -400.000
226.748; -205.300; -836.000; -733.000
226.892;  -72.600; -227.000; -181.000
227.036;  -91.100; -537.000; -447.000
227.180; -121.900; -551.000; -375.000
227.324; -139.500; -561.000; -580.000
227.468; -227.300; -819.000; -717.000
227.612;   50.800;  242.000;  -28.000
227.756; -209.700; -845.000; -698.000
227.900;  106.100;  342.000;  441.000
228.044; -138.600; -509.000; -290.000
228.188;  160.900;  448.000;  568.000
228.332; -171.300; -546.000; -472.000
228.476;  -51.800; -223.000; -149.000
228.620;  -45.200; -210.000; -150.000
228.764;  128.500;  431.000;  349.000
228.908;  -50.000; -155.000;   30.000
229.052; -125.800; -615.000; -528.000
229.195;  -18.000; -172.000;   13.000
229.339;  -37.500; -235.000; -305.000
229.483;  -51.800;    5.000; -162.000
229.627;   25.200; -156.000;  139.000
229.771; -103.100; -218.000; -294.000
229.915;   36.500;  230.000;   79.000
230.059; -198.000; -648.000; -663.000
230.202;  -65.000; -370.000; -317.000
230.346;  -33.600; -107.000;  107.000
230.490; -112.300; -489.000; -521.000
230.634; -204.600; -736.000; -553.000
230.777;  180.900;  478.000;  509.000
230.921;  -96.200; -450.000; -359.000
231.065;  -82.600; -246.000; -286.000
231.209;   44.600;  261.000;  265.000
231.352;   63.200;   54.000;   40.000
231.496;   59.000;  568.000;  188.000
231.640; -159.600; -693.000; -621.000
231.783;  162.900;  546.000;  525.000
231.927;  -60.400; -294.000; -365.000
232.071; -246.000; -962.000; -736.000
232.214; -231.600; -980.000; -764.000
232.358; -210.500; -683.000; -599.000
232.502;   34.100;  -19.000;    7.000
232.645; -273.800;-1090.000; -927.000
232.789;  -50.200; -257.000; -218.000
232.933;  -59.400; -407.000; -224.000
233.076; -251.500;-1038.000; -897.000
233.220; -197.000; -752.000; -777.000
233.363; -149.900; -669.000; -477.000
233.507;  164.700;  371.000;  129.000
233.650; -186.900; -764.000; -834.000
233.794;   71.000;  438.000;  461.000
233.938;  -94.100; -530.000; -362.000
234.081;  -29.300;  -93.000;   31.000
234.225; -134.600; -631.000; -539.000
234.368; -228.500; -773.000; -723.000
234.512;  -91.000; -385.000; -299.000
234.655; -195.000; -582.000; -555.000
234.798; -120.800; -493.000; -466.000
234.942; -265.300; -884.000;-1002.000
235.085; -174.200; -651.000; -443.000
235.229; -156.600; -405.000; -410.000
235.372;  -96.100; -247.000; -191.000
235.516;  -97.900; -397.000; -321.000
235.659;  -23.100;   92.000;  121.000
235.802;  -34.600;  -38.000;  -22.000
235.946;   56.900;  335.000;  215.000
236.089;   66.900;  126.000;  250.000
236.233;   95.100;  275.000;  298.000
236.376;  -92.600; -235.000; -378.000
236.519;  -83.500; -297.000; -319.000
236.663;  -28.600; -215.000; -117.000
236.806; -270.900;-1029.000; -999.000
236.949;  156.900;  543.000;  431.000
237.092;  117.800;  412.000;  391.000
237.236; -180.200; -589.000; -502.000
237.379;  142.200;  352.000;  428.000
237.522; -226.800; -879.000; -768.000
237.666;  -33.300; -271.000;   18.000
237.809; -242.800; -851.000; -823.000
237.952;  101.500;  469.000;  271.000
238.095; -142.700; -447.000; -442.000
238.238;  198.200;  688.000;  700.000
238.382;   12.400;  166.000;  103.000
238.525; -153.800; -598.000; -511.000
238.668; -289.300;-1060.000; -985.000
238.811; -141.700; -638.000; -643.000
238.954; -133.700; -483.000; -334.000
239.097;  207.600;  617.000;  664.000
239.241;   60.800;  394.000;  326.000
239.384;  -51.500; -254.000; -214.000
239.527; -130.500; -424.000; -224.000
239.670; -296.200; -994.000;-1091.000
239.813; -205.100; -696.000; -658.000
239.956;  160.900;  579.000;  473.000
240.099; -210.400; -778.000; -725.000
240.242;  135.200;  428.000;  432.000
240.385;  116.300;  466.000;  450.000
240.528; -121.900; -706.000; -473.000
240.671;   44.800;  189.000;  134.000
240.814;  -72.300; -441.000; -158.000
240.957; -226.600; -767.000; -578.000
241.100; -162.700; -779.000; -755.000
241.243; -284.600;-1234.000; -893.000
241.386; -120.400; -508.000; -379.000
241.529; -160.700; -735.000; -547.000
241.672; -131.700; -566.000; -495.000
241.815; -244.900; -832.000; -808.000
241.958;  -50.900; -125.000; -182.000
242.101; -143.500; -545.000; -390.000
242.244;  -67.500; -270.000; -325.000
242.387;  -83.700; -304.000; -246.000
242.530;  140.400;  470.000;  134.000
242.673; -108.300; -381.000; -309.000
242.815; -243.800; -925.000; -899.000
242.958; -140.400; -482.000; -381.000
243.101;   59.400;  132.000;  187.000
243.244; -156.800; -564.000; -521.000
243.387;  -79.700; -313.000; -316.000
243.530; -193.400; -657.000; -674.000
243.672;   23.700;   43.000;  -92.000
243.815; -115.200; -355.000; -283.000
243.958;   22.800;   98.000;  -26.000
244.101;    4.700;   59.000;  -16.000
244.243;  -35.700;  -47.000;  101.000
244.386; -201.700; -761.000; -630.000
244.529;  -58.600; -132.000; -139.000
244.672; -325.000;-1154.000; -951.000
244.814; -187.900; -621.000; -794.000
244.957; -131.900; -380.000; -304.000
245.100; -155.800; -489.000; -489.000
245.242; -118.000; -387.000; -374.000
245.385;   10.600;  -59.000;  -39.000
245.528; -260.400; -871.000; -705.000
245.670;  199.700;  612.000;  634.000
245.813; -176.600; -599.000; -547.000
245.956;  -79.900; -324.000; -275.000
246.098; -162.600; -508.000; -650.000
246.241;   39.100;  194.000;   48.000
246.383;  -24.000; -119.000;  -73.000
246.526; -172.300; -454.000; -525.000
246.669; -258.200; -889.000; -780.000
246.811;   28.100;  172.000;   -1.000
246.954; -139.300; -512.000; -426.000
247.096;  -15.800;  -84.000;   -6.000
247.239; -162.800; -482.000; -445.000
247.381; -158.300; -647.000; -488.000
247.524;  183.100;  645.000;  679.000
247.666;  -27.300;   58.000;   11.000
247.809; -221.700; -887.000; -691.000
247.951;   -6.200;  -75.000;  138.000
248.094;   60.500;  432.000;  308.000
248.236; -325.000;-1262.000;-1238.000
248.378;  -65.500; -356.000;  -81.000
248.521;  -43.900; -334.000; -337.000
248.663;  -93.600; -236.000; -267.000
248.806;  -64.300; -300.000; -266.000
248.948; -203.400; -886.000; -763.000
249.090; -105.500; -428.000; -398.000
249.233; -118.300; -344.000; -381.000
249.375; -150.300; -474.000; -451.000
249.518;  -24.500;  -83.000; -133.000
249.660;   19.900; -103.000;    3.000
249.802; -362.700;-1303.000;-1189.000
249.945; -128.100; -612.000; -540.000
250.087; -246.800; -834.000; -768.000
250.229;  -98.400; -362.000; -480.000
250.371; -155.100; -494.000; -439.000
250.514;  -85.200; -310.000; -244.000
250.656;  -31.700;   69.000;  102.000
250.798; -228.900; -849.000; -800.000
250.940; -108.000; -322.000; -322.000
251.083;  -31.900; -335.000; -111.000
251.225;  101.600;  338.000;  310.000
251.367;  -76.500; -274.000; -373.000
251.509;  -81.300; -265.000; -210.000
251.651; -166.000; -731.000; -671.000
251.794;  143.800;  538.000;  632.000
251.936; -224.200; -821.000; -747.000
252.078; -148.900; -540.000; -461.000
252.220; -151.100; -645.000; -477.000
252.362;   99.000;  344.000;  462.000
252.504; -143.500; -677.000; -584.000
252.646; -226.600; -875.000; -722.000
252.788;   12.800;   14.000; -128.000
252.931; -100.400; -257.000; -253.000
253.073; -104.400; -376.000; -317.000
253.215;  -25.100;  141.000;  122.000
253.357;   -1.100;   82.000; -153.000
253.499; -116.400; -374.000; -234.000
253.641; -166.400; -749.000; -594.000
253.783; -191.500; -609.000; -527.000
253.925; -144.800; -586.000; -591.000
254.067; -205.400; -744.000; -667.000
254.209;  -75.200; -391.000; -259.000
254.351; -275.100; -865.000; -883.000
254.493; -110.100; -441.000; -417.000
254.635; -230.800; -936.000; -818.000
254.777; -205.600; -752.000; -687.000
254.918; -152.100; -512.000; -430.000
255.060; -138.100; -551.000; -395.000
255.202; -117.500; -473.000; -261.000
255.344; -154.700; -658.000; -455.000
255.486; -129.400; -471.000; -406.000
255.628; -214.400; -780.000; -781.000
255.770; -146.100; -676.000; -536.000
255.912; -114.000; -559.000; -468.000
256.053; -185.900; -730.000; -508.000
256.195;  314.800; 1008.000;  903.000
256.337; -192.700; -861.000; -595.000
256.479;  139.100;  532.000;  416.000
256.621;  -69.200; -394.000; -212.000
256.762; -189.700; -789.000; -742.000
256.904;  132.400;  485.000;  487.000
257.046;  -80.200; -381.000; -271.000
257.188;  -70.400; -351.000; -264.000
257.329; -143.900; -525.000; -464.000
257.471; -222.100; -939.000; -807.000
257.613; -163.900; -584.000; -498.000
257.755; -283.000;-1073.000; -982.000
257.896;   49.900;  286.000;  392.000
258.038; -153.400; -403.000; -352.000
258.180;  -64.700; -354.000; -279.000
258.321; -128.900; -581.000; -457.000
258.463;   -3.600;  -71.000;  133.000
258.605; -188.500; -562.000; -570.000
258.746; -211.300; -886.000; -772.000
258.888; -302.600;-1026.000;-1020.000
259.029;   58.400;  121.000;   -8.000
259.171; -180.700; -614.000; -550.000
259.313;    0.500;  -49.000;  -47.000
259.454; -137.100; -536.000; -414.000
259.596;  -98.200; -483.000; -390.000
259.737; -145.200; -590.000; -474.000
259.879;   86.000;  217.000;  311.000
260.020;  147.700;  901.000;  636.000
260.162;  -58.600; -146.000; -253.000
260.303; -238.300; -768.000; -687.000
260.445; -166.300; -609.000; -613.000
260.586;   34.100;  392.000;  157.000
260.728;  -83.100; -360.000; -248.000
260.869; -149.500; -350.000; -343.000
261.011;  195.400;  706.000;  537.000
261.152; -106.500; -479.000; -319.000
261.293; -170.700; -576.000; -595.000
261.435;  -66.000; -219.000; -184.000
261.576;  -66.400; -455.000; -325.000
261.718;  130.200;  420.000;  470.000
261.859; -222.000; -940.000; -949.000
262.000; -275.200; -951.000;-1016.000
262.142;  -15.700;  -52.000;  -60.000
262.283; -200.600; -808.000; -691.000
262.424; -174.300; -666.000; -625.000
262.566; -331.100;-1161.000; -983.000
262.707; -214.100; -840.000; -830.000
262.848; -262.300; -769.000; -726.000
262.990;  -95.100; -362.000; -345.000
263.131;  174.100;  650.000;  681.000
263.272;  -20.600;  -61.000;  -41.000
263.413; -154.900; -589.000; -561.000
263.555; -117.400; -669.000; -143.000
263.696; -152.700; -550.000; -641.000
263.837; -121.200; -449.000; -551.000
263.978;  -16.600;   -5.000;  -77.000
264.119; -102.900; -283.000; -264.000
264.261; -247.000; -847.000; -630.000
264.402;   16.000;   33.000;   40.000
264.543; -166.600; -509.000; -524.000
264.684;   20.500;   61.000;  -50.000
264.825; -148.700; -816.000; -538.000
264.966;  -35.000;  -84.000;  -67.000
265.107; -206.800; -646.000; -670.000
265.248; -250.100; -825.000; -812.000
265.390;  -25.000;  152.000;   -9.000
265.531;  -24.300; -238.000; -107.000
265.672; -175.200; -557.000; -630.000
265.813;  147.100;  563.000;  439.000
265.954; -276.800; -959.000; -940.000
266.095;    1.000; -372.000; -322.000
266.236; -181.800; -686.000; -548.000
266.377;  -70.700; -243.000; -297.000
266.518; -130.600; -619.000; -547.000
266.659;   73.700;  170.000;  268.000
266.800;    4.500;   83.000;   85.000
266.941; -161.500; -487.000; -478.000
267.082;   38.600;  354.000;   99.000
267.223;  -83.800; -344.000; -273.000
267.364; -235.400; -892.000; -686.000
267.504;  -17.000;    3.000;  135.000
267.645;  -10.900;  160.000;   67.000
267.786;  -89.100; -147.000;  -86.000
267.927; -177.900; -473.000; -379.000
268.068;  -20.600; -186.000;  -61.000
268.209; -100.700; -175.000; -413.000
268.350;  -65.600; -388.000; -532.000
268.490; -147.000; -648.000; -521.000
268.631;   75.700;  127.000;  225.000
268.772; -203.900; -874.000; -647.000
268.913; -110.300; -328.000; -476.000
269.054;  -30.900; -117.000;   12.000
269.194;  -98.600; -418.000; -402.000
269.335; -305.300;-1137.000;-1074.000
269.476;  -13.700;   33.000;  -35.000
269.617;  -95.000; -347.000; -392.000
269.757; -173.300; -713.000; -646.000
269.898; -211.400; -856.000; -613.000
270.039; -128.100; -415.000; -405.000
270.180; -257.300; -952.000; -816.000
270.320;  -46.700; -190.000; -250.000
270.461;  -99.300; -277.000; -249.000
270.602;  -22.800; -186.000; -156.000
270.742; -219.700; -868.000; -943.000
270.883; -101.700; -442.000; -390.000
271.023; -126.300; -358.000; -357.000
271.164; -134.100; -607.000; -528.000
271.305; -200.600; -666.000; -654.000
271.445; -167.300; -722.000; -683.000
271.586; -135.000; -462.000; -283.000
271.726;  -84.800; -397.000; -322.000
271.867; -152.900; -594.000; -534.000
272.008;  147.300; -473.000; -285.000
272.148;  175.600;  462.000;  468.000
272.289;   -9.900; -113.000; -181.000
272.429;   19.200;   19.000;  185.000
272.570; -178.800; -633.000; -737.000
272.710; -236.000; -825.000; -775.000
272.851;  -64.600;  113.000; -130.000
272.991; -342.900;-1173.000;-1077.000
273.131; -155.700; -419.000; -459.000
273.272; -198.600; -683.000; -723.000
273.412;   11.300; -143.000;  -31.000
273.553; -152.400; -488.000; -507.000
273.693;  235.100;  913.000;  858.000
273.834; -229.400; -894.000; -692.000
273.974; -149.000; -664.000; -615.000
274.114; -191.900; -772.000; -560.000
274.255;  100.000;  414.000;  373.000
274.395;  -31.100; -180.000; -125.000
274.535;   59.400;  199.000;  350.000
274.676;   51.100;  225.000;   94.000
274.816;   10.400;  110.000;   34.000
274.956; -183.200; -624.000; -690.000
275.097; -208.100;-1014.000; -922.000
275.237; -226.800; -913.000; -803.000
275.377; -187.200; -778.000; -689.000
275.517; -294.900; -878.000; -937.000
275.658; -144.400; -590.000; -555.000
275.798; -146.900; -606.000; -413.000
275.938;   29.800;  215.000;  323.000
276.078; -210.100; -626.000; -395.000
276.218;    2.900;   99.000;  104.000
276.359; -254.800;-1026.000;-1024.000
276.499; -141.000; -605.000; -446.000
276.639;  -46.300; -305.000; -151.000
276.779;  -63.100; -475.000; -357.000
276.919; -216.300; -783.000; -624.000
277.059;  -46.200; -261.000; -212.000
277.199;  -64.200; -357.000; -259.000
277.340;   74.200;  287.000;  175.000
277.480; -218.300; -840.000; -693.000
277.620;   86.300;  192.000;   16.000
277.760; -405.900;-1533.000;-1294.000
277.900;   24.100;  113.000;   33.000
278.040;   10.400;  137.000;  159.000
278.180;   75.000;  270.000;  170.000
278.320;   -3.200;   21.000;   56.000
278.460; -144.600; -443.000; -469.000
278.600; -164.000; -708.000; -598.000
278.740;  137.800;  448.000;  224.000
278.880; -243.900; -768.000; -791.000
279.020;  -36.300; -194.000; -144.000
279.160; -181.100; -672.000; -595.000
279.300; -206.800; -926.000; -873.000
279.440; -201.200; -709.000; -622.000
279.579; -190.700;-1014.000; -929.000
279.719; -117.600; -410.000; -394.000
279.859;   81.900;   -4.000;   41.000
279.999;  -11.700; -208.000;  101.000
280.139;  -65.900; -435.000; -387.000
280.279; -186.100; -708.000; -745.000
280.419;   -9.500; -229.000; -147.000
280.559;  -71.700; -259.000; -180.000
280.698; -181.500; -790.000; -639.000
280.838; -212.900; -778.000; -800.000
280.978; -207.000; -846.000; -790.000
281.118; -215.900; -811.000; -704.000
281.257;   28.500;   24.000;    6.000
281.397; -277.300;-1094.000; -960.000
281.537; -163.000; -599.000; -712.000
281.677;    1.200; -150.000; -101.000
281.816; -174.400; -700.000; -630.000
281.956;  -66.300; -193.000; -257.000
282.096;  -99.900; -539.000; -396.000
282.235; -205.300; -672.000; -638.000
282.375;  -12.100; -243.000;  -98.000
282.515; -209.300; -715.000; -707.000
282.654;   38.800;   29.000;  106.000
282.794;   70.200;  388.000;  244.000
282.934;  -91.100; -530.000; -491.000
283.073; -250.400;-1030.000; -857.000
283.213; -113.900; -460.000; -467.000
283.353;  -93.000; -408.000; -349.000
283.492;  -56.600; -264.000; -296.000
283.632;  -94.200; -254.000; -168.000
283.771; -197.200; -859.000; -730.000
283.911; -112.000; -369.000; -260.000
284.050; -190.500; -794.000; -748.000
284.190; -306.800;-1229.000;-1096.000
284.329; -278.800;-1055.000; -964.000
284.469; -160.500; -516.000; -591.000
284.608; -136.700; -559.000; -598.000
284.748; -170.900; -614.000; -570.000
284.887;    6.100;  -87.000;  -20.000
285.027; -246.100; -844.000; -892.000
285.166;  -48.500; -192.000; -249.000
285.306;   -4.100; -116.000;  -33.000
285.445;  -93.600; -229.000; -343.000
285.584; -187.600; -630.000; -494.000
285.724;  -60.500; -282.000; -322.000
285.863; -207.300; -857.000; -507.000
286.002; -121.200; -366.000; -276.000
286.142; -213.800; -715.000; -622.000
286.281; -123.300; -525.000; -493.000
286.420; -137.300; -554.000; -417.000
286.560;  203.400;  653.000;  623.000
286.699; -293.100; -958.000; -912.000
286.838; -163.600; -590.000; -591.000
286.978; -160.200; -533.000; -537.000
287.117; -276.500;-1085.000; -950.000
287.256;  -59.800; -228.000; -211.000
287.395;  -92.800; -197.000; -378.000
287.535; -101.800; -370.000; -298.000
287.674; -147.100; -509.000; -484.000
287.813;  125.500;  661.000;  533.000
287.952; -262.800;-1010.000; -871.000
288.091; -282.600;-1049.000; -915.000
288.231;   66.200;   13.000;   15.000
288.370; -361.800;-1217.000;-1200.000
288.509; -171.700; -728.000; -645.000
288.648; -160.700; -770.000; -548.000
288.787;  -73.800; -243.000;  -87.000
288.926; -146.300; -454.000; -475.000
289.065;  292.600;  859.000;  672.000
289.204;  -94.300; -377.000; -217.000
289.344; -148.200; -791.000; -690.000
289.483;   34.900;  416.000;  304.000
289.622;  -55.000; -291.000; -149.000
289.761;  -69.200; -309.000; -166.000
289.900; -212.100; -785.000; -626.000
290.039;  -26.800;  -12.000;  -95.000
290.178;  -89.400; -274.000; -180.000
290.317; -194.000; -618.000; -479.000
290.456; -112.600; -463.000; -451.000
290.595; -286.700; -961.000; -833.000
290.734; -254.900; -904.000; -891.000
290.873; -150.300; -456.000; -420.000
291.011; -233.400; -833.000; -843.000
291.150; -197.900; -770.000; -682.000
291.289;  -52.300; -343.000; -110.000
291.428; -190.600; -599.000; -480.000
291.567; -126.300; -370.000; -442.000
291.706;   -8.900;  109.000;  154.000
291.845; -162.200; -597.000; -505.000
291.984; -325.400;-1234.000;-1061.000
292.122;  123.700;  602.000;  582.000
292.261;   81.900;  620.000;  463.000
292.400;    3.900; -144.000;  211.000
292.539; -257.500; -959.000; -813.000
292.678;  -63.700; -325.000; -300.000
292.816; -296.800;-1136.000; -965.000
292.955; -207.400; -844.000; -684.000
293.094;  -68.800; -173.000; -337.000
293.233;  -94.800; -556.000; -400.000
293.371;  -98.700; -225.000;  -84.000
293.510; -201.200; -866.000; -780.000
293.649; -255.900; -959.000; -924.000
293.787; -230.900;-1083.000;-1012.000
293.926;    1.700; -113.000;  -32.000
294.065;  -58.700; -379.000; -290.000
294.203;   71.600;  298.000;  406.000
294.342;   64.800;   74.000;  156.000
294.481;11748.000;51180.000; -836.000
294.619;  -76.400; -425.000; -582.000
294.758; -307.400;-1230.000;-1137.000
294.896;   54.600; -125.000;    5.000
295.035; -295.300;-1040.000;-1006.000
295.174; -235.400;-1082.000; -954.000
295.312;  -91.500; -323.000; -203.000
295.451;  -52.100; -307.000; -428.000
295.589; -133.400; -389.000; -518.000
295.728;   32.600; -292.000; -165.000
295.866;  -42.100;  -36.000;  -51.000
296.005; -158.900; -584.000; -341.000
296.143; -159.700; -558.000; -596.000
296.282; -213.200; -957.000; -881.000
296.420; -151.500; -657.000; -557.000
296.559; -180.200; -892.000; -633.000
296.697; -131.500; -847.000; -665.000
296.835; -125.400;-1141.000;-1002.000
296.974;   92.500;  -23.000;   39.000
297.112;  -62.000; -443.000; -504.000
297.251; -179.100; -815.000; -755.000
297.389;  -27.700; -576.000; -438.000
297.527;   36.100; -145.000;  -83.000
297.666;  -93.800; -486.000; -438.000
297.804; -112.800; -404.000; -264.000
297.942;   -6.000; -136.000; -161.000
298.081;   -4.900; -183.000;   63.000
298.219;   67.000;  -17.000;  -19.000
298.357;   24.700; -144.000;  -71.000
298.495; -120.800; -810.000; -812.000
298.634;   87.200;  245.000;  219.000
298.772;    0.900; -220.000; -338.000
298.910; -124.800; -309.000; -182.000
299.048;  -34.500; -130.000; -153.000
299.187;  -80.500; -350.000; -250.000
299.325;   26.100;   52.000;  122.000
299.463;  -84.400; -389.000; -299.000
299.601;   60.900; -327.000; -271.000
299.739; -270.300; -908.000; -883.000
299.877; -160.700; -791.000; -703.000
300.016; -233.900;-1095.000; -935.000
300.154;  108.900;  -19.000; -161.000
300.292;  -35.500; -428.000; -348.000
300.430;   16.400; -408.000; -291.000
300.568; -255.500; -940.000; -874.000
300.706; -115.500; -366.000; -469.000
300.844; -214.300;-1108.000; -979.000
300.982;  140.900;  246.000;  282.000
301.120; -229.300; -965.000; -866.000
301.258; -164.400; -812.000; -705.000
301.396;   66.900;  104.000;  -41.000
301.534;    9.500; -218.000; -293.000
301.672; -145.600; -664.000; -521.000
301.810;  -81.000; -613.000; -545.000
301.948;  113.200;   53.000;  149.000
302.086;  402.100; -250.000;  -32.000
302.224;  592.000; -610.000; -585.000
302.362;  -76.500; -558.000; -622.000
302.500; -162.300; -923.000; -893.000
302.638;  112.800;  128.000;  245.000
302.776;  -40.200; -352.000; -408.000
302.913;  128.300;  447.000;  236.000
303.051;  -37.400;  -86.000;  -23.000
303.189;   88.000;   90.000;  118.000
303.327; -109.400; -341.000; -256.000
303.465; -159.900; -832.000; -588.000
303.603; -210.000; -805.000; -604.000
303.740;  101.600;  417.000;  241.000
303.878; -117.300; -800.000; -759.000
304.016; -198.000; -915.000; -790.000
304.154; -308.800;-1123.000;-1152.000
304.291; -102.700; -505.000; -554.000
304.429;   31.800;  102.000;   74.000
304.567; -250.400; -908.000; -893.000
304.705; -107.600; -408.000; -515.000
304.842;  -43.900; -616.000; -540.000
304.980;   45.700;  215.000;   35.000
305.118;  -28.900; -367.000; -365.000
305.255; -245.600; -945.000; -927.000
305.393;   97.900;  178.000;  239.000
305.531; -239.600;-1173.000; -956.000
305.668; -157.600; -663.000; -582.000
305.806;    6.900; -358.000; -439.000
305.943;   18.400; -629.000; -637.000
306.081;  -23.400; -378.000; -267.000
306.219; -179.400; -863.000; -748.000
306.356;   41.300;  158.000;   27.000
306.494;  283.700;  981.000;  761.000
306.631;   38.000;  -11.000;  -55.000
306.769;  -28.600; -613.000; -485.000
306.906;  -21.800; -284.000; -258.000
307.044;  -84.600; -473.000; -488.000
307.181;  -97.800; -410.000; -332.000
307.319;  136.000;  112.000;   87.000
307.456; -316.200;-1191.000;-1153.000
307.594; -200.000; -980.000; -727.000
307.731;  -50.100; -371.000; -164.000
307.868;   13.100;  -15.000;   20.000
308.006; -254.100; -961.000; -847.000
308.143; -113.900; -618.000; -330.000
308.281;  100.300;  -37.000; -254.000
308.418;  -64.000; -748.000; -640.000
308.555;  -91.900; -400.000; -250.000
308.693; -127.400; -577.000; -573.000
308.830; -212.200; -712.000; -657.000
308.967;   10.200; -215.000;  -95.000
309.105;  -32.800; -507.000; -396.000
309.242;   17.500; -468.000; -367.000
309.379;  211.900; -577.000; -655.000
309.517; -146.300; -936.000; -948.000
309.654; -166.000; -910.000; -734.000
309.791; -105.100; -662.000; -580.000
309.928; -229.300; -977.000; -914.000
310.065;  313.000;  819.000;  697.000
310.203; -119.600; -825.000; -850.000
310.340;  -20.400; -465.000; -321.000
310.477; -134.200; -412.000; -516.000
310.614;  -69.000; -383.000; -473.000
310.751; -115.700; -427.000; -518.000
310.889;  -15.500;    1.000;   11.000
311.026; -273.300;-1161.000; -939.000
311.163;  -58.600; -386.000; -380.000
311.300; -127.000; -512.000; -479.000
311.437; -108.700; -658.000; -619.000
311.574; -281.600;-1226.000; -985.000
311.711; -108.300; -595.000; -433.000
311.848;  -24.800; -380.000; -388.000
311.985;   72.500;  270.000;   93.000
312.122; -215.400; -932.000; -762.000
312.259; -187.300; -941.000; -994.000
312.396;  -94.100; -508.000; -551.000
312.533; -117.700; -812.000; -790.000
312.670; -225.300;-1070.000; -898.000
312.807;   -9.600; -352.000; -367.000
312.944; -137.400; -513.000; -611.000
313.081;  -56.200; -150.000; -415.000
313.218; -195.500;-1111.000; -867.000
313.355;  -18.100; -531.000; -449.000
313.492;  -28.600; -455.000; -292.000
313.629;  227.600;  815.000;  735.000
313.766; -293.500;-1176.000;-1008.000
313.902;   13.500; -186.000;   21.000
314.039;  -85.700; -372.000; -289.000
314.176;   91.500;  286.000;  192.000
314.313; -137.900; -569.000; -473.000
314.450; -139.200; -788.000; -684.000
314.587;  -91.000; -468.000; -480.000
314.723;   42.900;  -78.000;  130.000
314.860;   70.100;  318.000;  332.000
314.997;   75.700;  223.000;  142.000
315.134; -111.900; -385.000; -368.000
315.270;  -67.100; -480.000; -496.000
315.407; -272.400;-1094.000; -967.000
315.544; -137.300; -657.000; -538.000
315.681; -148.800; -681.000; -565.000
315.817;   10.100; -133.000; -176.000
315.954;  -89.100; -613.000; -392.000
316.091; -260.700;-1045.000;-1023.000
316.227;  -30.900;  -71.000; -179.000
316.364;   58.300;   23.000;    6.000
316.500;  -66.200; -113.000; -300.000
316.637;  -70.100; -181.000; -302.000
316.774; -149.200; -625.000; -358.000
316.910; -181.700; -598.000; -629.000
317.047; -136.300; -487.000; -351.000
317.183; -108.400; -435.000; -566.000
317.320;  -66.000; -367.000; -321.000
317.456; -175.500; -733.000; -805.000
317.593; -141.500; -598.000; -641.000
317.729;   34.800;  168.000;  -67.000
317.866; -395.900;-1434.000;-1285.000
318.002; -169.300; -708.000; -948.000
318.139; -234.600; -883.000; -867.000
318.275; -231.600;-1003.000; -738.000
318.412; -116.900; -517.000; -336.000
318.548; -107.600; -751.000; -720.000
318.685; -225.300; -985.000; -888.000
318.821; -191.500; -762.000; -735.000
318.957;  -33.000;   34.000;  -23.000
319.094;  101.100;  297.000;  154.000
319.230; -216.200; -756.000; -742.000
319.367;   52.600; -471.000; -520.000
319.503;    0.300; -538.000; -436.000
319.639; -197.200; -877.000; -793.000
319.775; -193.500; -750.000; -685.000
319.912;  -79.700; -424.000; -519.000
320.048; -255.000;-1184.000;-1184.000
320.184;  106.600;   59.000;   70.000
320.321; -132.700; -497.000; -467.000
320.457;  161.800;  475.000;  662.000
320.593; -120.700; -375.000; -382.000
320.729; -172.400; -732.000; -734.000
320.866; -164.800; -577.000; -635.000
321.002; -189.400; -759.000; -809.000
321.138;  -64.600; -135.000; -211.000
321.274;   35.700; -148.000; -115.000
321.410; -127.200; -585.000; -353.000
321.546; -166.600;-1011.000; -911.000
321.683;   81.300;  400.000;  185.000
321.819;   10.600;  -48.000; -117.000
321.955; -231.000; -743.000; -722.000
322.091; -147.000; -585.000; -540.000
322.227;  -39.300; -382.000; -202.000
322.363;  -63.600; -320.000; -215.000
322.499;  -89.800; -343.000; -331.000
322.635;  213.400;  636.000;  443.000
322.771;   -2.900; -139.000;   12.000
322.907;  143.800;  129.000;  327.000
323.043;  -69.600; -115.000; -206.000
323.179;  -87.300; -394.000; -363.000
323.315;  -68.000; -401.000; -371.000
323.451;   35.600; -328.000; -236.000
323.587;   67.500;  -60.000;  -77.000
323.723;  -89.700; -682.000; -601.000
323.859;  -46.600; -258.000;  -76.000
323.995;  -48.100; -467.000; -409.000
324.131; -259.200; -967.000; -892.000
324.267;  -26.700; -254.000; -276.000
324.402; -264.600; -960.000; -983.000
324.538;  -52.000; -279.000; -104.000
324.674;   66.800;  164.000;   77.000
324.810;  131.800;  226.000;  308.000
324.946;  -40.800; -810.000; -658.000
325.082; -117.900; -568.000; -475.000
325.217;  -17.700;  -62.000;   16.000
325.353; -156.800; -764.000; -659.000
325.489; -184.000; -540.000; -506.000
325.625; -142.700; -579.000; -525.000
325.760;  109.100;  517.000;  376.000
325.896;  -97.200; -515.000; -702.000
326.032;  -84.800; -403.000; -352.000
326.168; -112.800; -462.000; -369.000
326.303;  -95.400; -352.000; -461.000
326.439;  -13.800; -336.000; -276.000
326.575;  -13.600; -190.000;  -29.000
326.710;  -23.900; -156.000;  -30.000
326.846;  -23.000;  146.000;  103.000
326.982; -157.200; -530.000; -548.000
327.117; -151.900; -481.000; -442.000
327.253; -202.100; -745.000; -742.000
327.388; -248.300;-1137.000;-1153.000
327.524; -111.400; -811.000; -578.000
327.659;  -45.100;  -58.000;  -22.000
327.795;  -19.800;   69.000;   45.000
327.931; -141.200; -723.000; -499.000
328.066;  -40.500; -417.000; -276.000
328.202;    7.300;   12.000; -129.000
328.337;  227.200;  957.000;  713.000
328.473;   11.500;  -12.000;  -74.000
328.608;  -30.200; -256.000; -267.000
328.743; -196.900; -799.000; -664.000
328.879;   44.200;  214.000;  114.000
329.014; -108.100; -102.000; -122.000
329.150; -158.300; -358.000; -483.000
329.285; -128.800; -465.000; -466.000
329.421;  -58.600; -548.000; -246.000
329.556;    5.000;  -36.000;   85.000
329.691; -162.900; -633.000; -615.000
329.827; -146.600; -626.000; -480.000
329.962;  -82.200;  131.000; -301.000
330.097; -185.600; -673.000; -585.000
330.233;  -62.300; -410.000; -223.000
330.368; -252.300; -839.000; -628.000
330.503;    6.900;    3.000;   98.000
330.638;   -8.200;  -93.000; -125.000
330.774; -132.500; -609.000; -530.000
330.909;  -73.200; -434.000; -244.000
331.044; -202.600; -714.000; -708.000
331.179; -365.300;-1217.000;-1109.000
331.315;   36.000;   77.000;   20.000
331.450;   37.400;  157.000;  285.000
331.585; -166.300; -805.000; -706.000
331.720; -172.700; -510.000; -460.000
331.855;   16.500;  -35.000; -102.000
331.990;  179.500;   62.000;  138.000
332.126;   99.000; -110.000;   71.000
332.261;  -94.200; -379.000; -265.000
332.396;  -14.900; -135.000; -242.000
332.531; -257.500;-1074.000;-1031.000
332.666;  -37.900; -519.000; -363.000
332.801; -197.000; -726.000; -807.000
332.936;  -53.000; -192.000; -122.000
333.071; -309.900; -870.000; -817.000
333.206;   36.100;  307.000;  379.000
333.341;   31.100;  344.000;  418.000
333.476; -160.900; -627.000; -623.000
333.611;  -59.700; -251.000; -173.000
333.746;  -72.800; -381.000; -464.000
333.881; -268.100; -973.000; -935.000
334.016; -239.000; -936.000; -917.000
334.151; -239.600; -746.000; -702.000
334.286;   -3.800;  152.000;  186.000
334.421;  -46.000; -125.000; -178.000
334.556; -156.400; -611.000; -567.000
334.690; -187.300; -631.000; -577.000
334.825;  112.700;  381.000;   83.000
334.960; -121.000; -285.000; -413.000
335.095;    8.700;  135.000;  -91.000
335.230; -223.700; -722.000; -738.000
335.365; -301.000;-1084.000; -990.000
335.499; -315.900;-1108.000;-1037.000
335.634;   34.700;    9.000;  534.000
335.769; -227.100; -755.000; -720.000
335.904; -167.100; -603.000; -561.000
336.038; -177.200; -735.000; -657.000
336.173; -273.500;-1206.000;-1194.000
336.308;  -57.100; -116.000; -189.000
336.443;  -51.800; -544.000; -634.000
336.577; -218.400; -936.000; -787.000
336.712;   74.900;   -4.000;  -12.000
336.847; -160.800; -724.000; -607.000
336.981;  -46.500; -272.000; -208.000
337.116;  260.200;  615.000;  501.000
337.250;   14.500; -434.000; -421.000
337.385;  168.600; -297.000; -208.000
337.520;  -36.200; -632.000; -603.000
337.654;  -63.100; -215.000; -126.000
337.789; -238.300; -989.000; -933.000
337.923;  -41.000; -104.000; -205.000
338.058; -206.800; -673.000; -738.000
338.192; -138.200; -611.000; -488.000
338.327;  -23.800;  -18.000; -155.000
338.461; -147.800; -299.000; -469.000
338.596; -157.000; -780.000; -638.000
338.730; -218.500; -767.000; -803.000
338.865;   59.600;  -46.000; -140.000
338.999; -186.100; -846.000; -702.000
339.134; -127.400; -634.000; -536.000
339.268; -116.600; -741.000; -603.000
339.403;  113.800; -740.000; -775.000
339.537;  -71.100; -894.000; -820.000
339.671; -201.400; -829.000; -813.000
339.806; -153.000; -556.000; -512.000
339.940;  -12.500; -261.000; -235.000
340.074; -215.700; -685.000; -510.000
340.209;  -69.100; -351.000; -230.000
340.343; -173.700; -517.000; -573.000
340.477;  335.600;  998.000; 1036.000
340.612; -185.600;-1033.000; -900.000
340.746;   73.700; -199.000; -243.000
340.880; -217.200; -924.000; -785.000
341.014;    9.900;  -45.000; -154.000
341.149; -194.500; -756.000; -718.000
341.283; -212.000; -839.000; -754.000
341.417; -218.200;-1124.000; -938.000
341.551;   -4.800; -768.000; -708.000
341.685; -109.100; -633.000; -611.000
341.820; -103.800; -562.000; -493.000
341.954; -104.100; -218.000; -349.000
342.088; -292.500;-1102.000;-1019.000
342.222;   53.000;  565.000;  618.000
342.356; -118.300; -395.000; -335.000
342.490; -219.500; -880.000; -841.000
342.624;  -66.000; -339.000; -242.000
342.758;  -95.800; -364.000; -312.000
342.892; -144.600; -710.000; -585.000
343.026;  -96.100;  -58.000; -116.000
343.160;  -61.900; -426.000; -376.000
343.294; -121.400; -474.000; -337.000
343.428; -114.100; -488.000; -448.000
343.562;  -48.700; -172.000;  -23.000
343.696;  -55.600; -385.000; -314.000
343.830;  -94.600; -362.000; -356.000
343.964;    7.100; -231.000; -168.000
344.098;  738.800;  199.000;   70.000
344.232;  564.600; -266.000; -127.000
344.366;   -9.500; -567.000; -453.000
344.500;  -42.100; -665.000; -744.000
344.634;  -17.100; -324.000; -164.000
344.768;  -86.600; -531.000; -341.000
344.902;   59.300;  278.000;  256.000
345.035; -140.800; -556.000; -496.000
345.169; -260.400; -933.000; -656.000
345.303;  -90.400; -308.000; -482.000
345.437; -182.200; -826.000; -717.000
345.571; -164.600; -675.000; -594.000
345.704; -130.900; -309.000; -532.000
345.838;  -76.500; -331.000; -284.000
345.972; -133.700; -543.000; -495.000
346.106;  114.300; -179.000; -190.000
346.239;  258.800; -312.000; -243.000
346.373;  -64.400; -343.000; -302.000
346.507; -295.400; -950.000; -962.000
346.640;  112.000;  -30.000;   13.000
346.774; -166.500; -650.000; -797.000
346.908;   -2.200; -138.000;  -11.000
347.041; -177.000; -646.000; -593.000
347.175;   19.400;  259.000;   27.000
347.309; -178.600; -698.000; -628.000
347.442; -195.100; -883.000; -732.000
347.576;  288.900;  670.000;  668.000
347.709;  135.300; -123.000;  -52.000
347.843; -254.800; -933.000; -825.000
347.976;   97.700;  235.000;  294.000
348.110; -358.000;-1268.000;-1186.000
348.243; -191.700; -679.000; -772.000
348.377;   22.600;  -26.000;   60.000
348.510;  124.800;  403.000;  540.000
348.644;  -59.900;  -37.000; -159.000
348.777;   25.500;  180.000;  191.000
348.911;  -89.100; -142.000; -112.000
349.044;  225.600;  471.000;  448.000
349.178;  -75.100;-1069.000;-1006.000
349.311;  155.300;  141.000;  255.000
349.444; -177.100; -927.000; -813.000
349.578;  -55.600; -347.000; -200.000
349.711; -248.300; -959.000; -862.000
349.845; -108.400; -661.000; -591.000
349.978; -328.600;-1224.000;-1137.000
350.111; -124.100; -546.000; -612.000
350.244; -154.200; -596.000; -700.000
350.378;  -49.900; -392.000; -393.000
350.511; -101.700; -393.000; -426.000
350.644; -213.700; -808.000; -806.000
350.778;   13.100;  168.000;  104.000
350.911;   24.600;  134.000;  140.000
351.044; -194.300; -685.000; -615.000
351.177;  -52.100; -321.000; -281.000
351.310;  -34.100;    3.000; -131.000
351.444; -185.600; -888.000; -788.000
351.577;  100.200;  140.000;   90.000
351.710;  198.900;  593.000;  417.000
351.843;  -58.100; -165.000;  -77.000
351.976;   18.300;  149.000;  -79.000
352.109; -202.600; -621.000; -612.000
352.242;  -93.800; -464.000; -419.000
352.376; -125.900; -580.000; -636.000
352.509;   65.900; -437.000; -356.000
352.642; -148.200; -654.000; -604.000
352.775;   32.700; -141.000;  -98.000
352.908; -250.200; -933.000; -904.000
353.041; -218.600; -814.000; -824.000
353.174;  -95.200; -551.000; -424.000
353.307; -220.900; -753.000; -764.000
353.440;  108.200;  541.000;  453.000
353.573; -249.900; -957.000;-1008.000
353.706; -202.600; -384.000; -558.000
353.839;  -35.300; -264.000; -220.000
353.971; -209.000; -657.000; -512.000
354.104; -220.400; -896.000; -835.000
354.237; -128.900; -627.000; -662.000
354.370; -199.500; -846.000; -879.000
354.503; -359.700;-1231.000;-1308.000
354.636;  -91.600; -529.000; -348.000
354.769; -275.300; -937.000; -860.000
354.902;  -35.500; -230.000; -139.000
355.034;  -72.500; -164.000; -220.000
355.167;  -32.300; -262.000; -162.000
355.300; -258.200;-1061.000; -880.000
355.433;  643.900;  -71.000;  -14.000
355.565;  899.000; -402.000; -384.000
355.698;  195.000; -356.000; -296.000
355.831; -152.100; -882.000; -801.000
355.964;   24.600; -285.000; -170.000
356.096; -246.500; -856.000; -843.000
356.229;  -71.500; -523.000; -530.000
356.362;  159.000; -373.000; -266.000
356.494;  381.900; -229.000; -162.000
356.627;  368.500;  269.000;  377.000
356.760;  491.900;  120.000;   53.000
356.892;  492.700; -286.000; -601.000
357.025;  540.200;  403.000;  389.000
357.157;  404.600; -167.000; -179.000
357.290;  319.700; -856.000; -713.000
357.423;   34.100; -667.000; -556.000
357.555;   52.300; -217.000; -228.000
357.688;  -24.000; -483.000; -364.000
357.820;  209.000; -870.000; -877.000
357.953; 2669.500; -563.000; -589.000
358.085;  480.200; -632.000; -612.000
358.218;  614.900;-1131.000; -932.000
358.350;  127.000;  -58.000;  312.000
358.483; -306.900;-1300.000;-1187.000
358.615; -204.400;-1182.000;-1078.000
358.747; -265.400;-1187.000;-1058.000
358.880;  -96.800; -810.000; -744.000
359.012;  -73.900; -376.000; -202.000
359.145;  -95.200; -480.000; -511.000
359.277; -119.600; -962.000; -913.000
359.409; 2323.400;  536.000;  231.000
359.542;  457.800; -738.000; -688.000
359.674;   81.500;   46.000;   13.000
359.806; -147.800; -565.000; -438.000
359.939;  -97.500; -617.000; -516.000
360.071; -136.100; -583.000; -579.000
360.203;  -67.000; -411.000; -364.000
360.335;   39.700;  164.000;  -16.000
360.468;  118.900; -249.000; -307.000
360.600; 1639.500; -547.000; -454.000
360.732; 1851.300; -546.000; -423.000
360.864;   24.000;-1216.000;-1044.000
360.996;  131.600; -516.000; -554.000
361.129;  -59.700; -389.000; -598.000
361.261;   18.900;  110.000; -113.000
361.393;  -81.900; -252.000; -214.000
361.525;   12.900;   94.000;  244.000
361.657; -121.600; -821.000; -703.000
361.789;  -23.500; -139.000; -155.000
361.921;   69.100; -642.000; -593.000
362.053;  287.800;  524.000;  541.000
362.185;   46.400;  288.000;   72.000
362.318; -188.900; -709.000; -705.000
362.450;  131.000;  294.000;  444.000
362.582;  -50.700; -913.000; -870.000
362.714;  -92.800; -353.000; -332.000
362.846; -181.900; -606.000; -490.000
362.978; -244.200; -941.000; -811.000
363.109;   -2.000; -161.000; -260.000
363.241;  152.400; -739.000; -749.000
363.373;  172.200; -649.000; -564.000
363.505;  454.700; -186.000;  -91.000
363.637;   21.400; -787.000; -601.000
363.769; -287.500;-1067.000;-1080.000
363.901; -114.700; -596.000; -654.000
364.033; -276.000;-1103.000;-1062.000
364.165;  -12.900; -283.000; -283.000
364.296;   -5.500; -316.000; -177.000
364.428; -158.600;-1344.000;-1220.000
364.560; -173.100; -679.000; -661.000
364.692; -152.200; -738.000; -835.000
364.824;   79.800; -588.000; -456.000
364.955;  269.600; -402.000; -564.000
365.087;  441.900;-1097.000; -852.000
365.219; -106.400; -686.000; -816.000
365.351; -162.200; -526.000; -572.000
365.482;   80.300;  300.000;  240.000
365.614; -105.900; -402.000; -314.000
365.746; -199.300; -729.000; -752.000
365.877; -207.900; -706.000; -672.000
366.009;  175.200;  -35.000;  -62.000
366.141; -293.700;-1249.000;-1134.000
366.272; -230.600; -803.000; -719.000
366.404; -236.700;-1005.000; -874.000
366.535;  -16.800; -139.000;  -12.000
366.667; -191.300; -644.000; -649.000
366.799;  113.200;  353.000;  203.000
366.930; -240.200; -862.000; -996.000
367.062;    6.800; -639.000; -613.000
367.193;  -57.400; -872.000; -842.000
367.325; -138.800; -580.000; -684.000
367.456;    1.200; -246.000;   31.000
367.588;   53.300; -371.000; -318.000
367.719;  -48.600;  -44.000;  -45.000
367.851;  -36.500; -222.000; -241.000
367.982; -186.700; -875.000; -732.000
368.113;   31.600; -475.000; -358.000
368.245; -260.000; -960.000; -841.000
368.376;  -51.800; -254.000; -302.000
368.508;  -75.300; -188.000; -263.000
368.639; -263.500;-1166.000;-1034.000
368.770; -151.400; -670.000; -589.000
368.902; -179.900; -836.000; -926.000
369.033; -235.600; -906.000; -855.000
369.164; -124.300; -720.000; -653.000
369.296; -224.700; -452.000; -601.000
369.427;  -16.900; -209.000; -144.000
369.558; -132.700; -593.000; -377.000
369.689; -174.100; -721.000; -569.000
369.821; -286.000; -951.000; -845.000
369.952;  -12.100;   42.000; -108.000
370.083;  -62.000; -229.000; -108.000
370.214; -164.000; -735.000; -650.000
370.345;   -2.000;   65.000;   81.000
370.477; -200.500; -810.000; -790.000
370.608;  140.400; -328.000; -264.000
370.739; -251.700;-1233.000;-1292.000
370.870; -208.000;-1102.000; -923.000
371.001;    0.800; -378.000; -467.000
371.132; -200.900; -754.000; -735.000
371.263;  -48.700;  -42.000; -148.000
371.394; -255.100; -841.000; -748.000
371.525;   82.100;  345.000;  225.000
371.657; -205.600; -808.000; -670.000
371.788;  115.400;  103.000;  199.000
371.919;   95.100; -384.000; -304.000
372.050; 3104.500;  -91.000; -156.000
372.181;  855.800; -188.000; -294.000
372.311;  307.700;   42.000; -127.000
372.442;  -85.000; -457.000; -451.000
372.573;  -53.000; -444.000; -340.000
372.704; -276.300;-1008.000; -980.000
372.835;   13.600; -228.000; -289.000
372.966; -137.300; -646.000; -554.000
373.097; -157.800; -575.000; -711.000
373.228; -157.900; -717.000; -542.000
373.359;   29.300; -824.000; -536.000
373.490;  557.800; -881.000; -727.000
373.620;  671.300;-1001.000; -803.000
373.751; 1376.100; -332.000; -396.000
373.882;  524.600; -663.000; -733.000
374.013;  -11.000; -449.000; -262.000
374.143; -102.700; -581.000; -659.000
374.274; -237.300; -987.000; -908.000
374.405;   56.600; -388.000; -276.000
374.536;  257.700; -526.000; -387.000
374.666;  792.900; -759.000; -807.000
374.797;   46.400; -817.000; -868.000
374.928;  597.900; -710.000; -560.000
375.058;  539.200; -535.000; -500.000
375.189;   20.200;  -59.000;  -93.000
375.320; -244.500; -928.000;-1034.000
375.450; -120.200; -625.000; -616.000
375.581; -132.000; -526.000; -436.000
375.712;  -85.600; -574.000; -250.000
375.842;  111.300; -438.000; -415.000
375.973;   24.100; -554.000; -513.000
376.103; -160.100; -665.000; -648.000
376.234; -150.000; -531.000; -552.000
376.364; -183.000; -944.000; -867.000
376.495;  394.200;  925.000;  529.000
376.625; -108.000; -472.000; -485.000
376.756;  -86.800; -709.000; -678.000
376.886; -273.900;-1178.000;-1026.000
377.017; -134.800;-1048.000;-1061.000
377.147;  100.300; -786.000; -782.000
377.278;  102.000;  174.000;  228.000
377.408; -229.000; -801.000; -815.000
377.538; -186.800; -707.000; -693.000
377.669; -172.800; -537.000; -613.000
377.799; -180.400; -645.000; -635.000
377.929; -120.300; -610.000; -428.000
378.060; -242.000; -781.000; -847.000
378.190; -152.200; -726.000; -531.000
378.320; -100.000; -401.000; -406.000
378.451;  -17.600; -131.000;  -22.000
378.581;    2.900;  -67.000; -110.000
378.711;  268.100; 1035.000;  866.000
378.841; -100.500; -533.000; -675.000
378.972; -198.900; -871.000; -751.000
379.102;  -94.500; -652.000; -579.000
379.232;  -44.100; -126.000;  -73.000
379.362; -247.700;-1001.000; -885.000
379.492;  -73.800; -373.000; -424.000
379.623;   97.000;    0.000;  111.000
379.753; -247.500;-1107.000; -974.000
379.883;  203.400;   59.000;  156.000
380.013; -191.500;-1081.000;-1017.000
380.143; -276.300;-1097.000;-1056.000
380.273; -239.000; -985.000; -861.000
380.403;  -46.500; -344.000; -257.000
380.533; -196.200; -651.000; -664.000
380.663;  100.600;  173.000;  128.000
380.793; -280.900;-1027.000;-1074.000
380.923;  -24.400; -103.000;  -34.000
381.053; -178.800; -613.000; -623.000
381.183;  -49.900; -106.000; -248.000
381.313;  -55.800; -656.000; -470.000
381.443;  -47.900; -692.000; -473.000
381.573;   88.500; -402.000; -409.000
381.703;    4.300;-1249.000;-1095.000
381.833; -336.400;-1454.000;-1336.000
381.963;  105.800; -134.000;  -87.000
382.093;  872.200; -925.000; -909.000
382.223;  189.800; -713.000; -602.000
382.353; -146.500; -801.000; -608.000
382.482;  160.100;-1091.000; -964.000
382.612;  448.800; -872.000; -644.000
382.742;  196.200; -695.000; -622.000
382.872;   99.900; -565.000; -551.000
383.002;   66.200;  347.000; -132.000
383.131;  -48.200; -226.000; -160.000
383.261; -147.000; -706.000; -768.000
383.391;   90.300; -552.000; -377.000
383.521; 2259.200;  451.000;  263.000
383.650;  314.600; -947.000; -904.000
383.780; -125.200; -783.000; -656.000
383.910;  184.400;  880.000;  802.000
384.039; -114.600; -794.000; -656.000
384.169; -113.600;-1205.000;-1017.000
384.299; -117.500; -650.000; -662.000
384.428; -189.000; -764.000; -680.000
384.558;  -78.700; -308.000; -275.000
384.687;  -89.700; -414.000; -334.000
384.817;   51.900;   75.000;   -2.000
384.947;  -26.500; -234.000; -141.000
385.076;  421.200;  982.000;  912.000
385.206;  167.900;  369.000;  480.000
385.335;  -94.700; -549.000; -417.000
385.465; -209.800; -655.000; -663.000
385.594;  133.300;  -53.000;  -44.000
385.724;  188.200; -868.000; -838.000
385.853;   54.000; -296.000; -270.000
385.982; 1058.000; -743.000; -787.000
386.112; 1696.900;-1052.000; -871.000
386.241;   72.100; -307.000; -312.000
386.371;   18.400; -174.000;  -87.000
386.500; -150.800; -825.000; -789.000
386.629; -106.300; -874.000; -817.000
386.759;   69.800;  -43.000;   68.000
386.888;    8.400; -170.000; -250.000
387.017; -188.000; -648.000; -620.000
387.147; -195.100; -771.000; -798.000
387.276; -102.800; -410.000; -397.000
387.405;  -32.100; -398.000; -342.000
387.535; -119.600; -452.000; -361.000
387.664; -140.100; -692.000; -620.000
387.793;   12.800; -198.000; -113.000
387.922;  452.300;  255.000;  200.000
388.052;  -59.000; -576.000; -423.000
388.181;  -64.200; -342.000; -472.000
388.310; -151.600; -889.000; -710.000
388.439; -158.400; -749.000; -742.000
388.568;  220.700;  365.000;  244.000
388.697;  773.600; -756.000; -653.000
388.826;   65.500; -768.000; -666.000
388.956;   23.300; -285.000; -307.000
389.085;  -71.300; -347.000; -287.000
389.214; -200.000; -842.000; -872.000
389.343; -161.700; -645.000; -413.000
389.472;  320.400;  126.000;  149.000
389.601;  359.200;   91.000;    0.000
389.730;  -69.400; -568.000; -687.000
389.859;   98.700;  226.000;   46.000
389.988;  116.500; -423.000; -408.000
390.117;   85.000; -168.000; -146.000
390.246;  -34.500; -331.000; -320.000
390.375;  -18.500; -673.000; -626.000
390.504; -140.100; -703.000; -621.000
390.633; -209.900; -672.000; -726.000
390.761; -179.300; -732.000; -645.000
390.890;  -19.100;   -4.000; -130.000
391.019;  -62.400; -421.000; -441.000
391.148; -243.500; -826.000; -855.000
391.277; -144.800; -576.000; -493.000
391.406; -202.100; -821.000; -805.000
391.534;   80.600;  574.000; -301.000
391.663; -121.900; -583.000; -645.000
391.792; -181.200; -673.000; -701.000
391.921;   72.500;   -3.000;   15.000
392.050;   99.900; -287.000; -228.000
392.178; -222.800;-1206.000;-1061.000
392.307;   20.300; -758.000; -712.000
392.436;  -49.200; -427.000; -641.000
392.564;   29.700;  166.000;   -6.000
392.693; -189.700; -860.000; -682.000
392.822;   90.300; -529.000; -534.000
392.950;  -52.000; -880.000; -714.000
393.079;  245.400; -188.000; -328.000
393.208;  -47.600; -488.000; -511.000
393.336;  -44.500; -170.000; -145.000
393.465;  -47.200; -317.000; -199.000
393.593;   31.400;   62.000;   79.000
393.722; -276.400;-1121.000; -916.000
393.850;  -25.500; -188.000;  -61.000
393.979; -297.000; -926.000; -805.000
394.107; -113.300; -517.000; -537.000
394.236; -107.900; -570.000; -507.000
394.364;  253.500;  383.000;  206.000
394.493;  176.500; -911.000; -767.000
394.621; -141.900; -955.000; -916.000
394.750;  280.900; -873.000; -923.000
394.878; 1853.400; -247.000; -149.000
395.007; 2287.400; -721.000; -807.000
395.135;   58.000; -790.000; -721.000
395.263; -275.100;-1038.000;-1040.000
395.392;   27.100;  -25.000; -107.000
395.520; -168.400; -818.000; -679.000
395.648; -217.300; -865.000; -915.000
395.777;  -69.500; -366.000; -405.000
395.905; -106.700; -449.000; -564.000
396.033;   45.900;  217.000;  172.000
396.162;  476.100; -399.000; -453.000
396.290;  430.400;  -17.000;   -2.000
396.418;   -3.000; -555.000; -514.000
396.546; -233.100; -571.000; -466.000
396.674; -215.900; -850.000; -878.000
396.803;    5.400;  -72.000;  -23.000
396.931;   41.500; -179.000; -199.000
397.059; -210.600;-1026.000; -989.000
397.187; -236.900;-1026.000; -975.000
397.315; -239.800; -884.000; -649.000
397.443; -161.600; -592.000; -443.000
397.572; -178.000; -578.000; -424.000
397.700; -119.500; -607.000; -614.000
397.828;  -31.100;  120.000;  -90.000
397.956; -123.900; -508.000; -478.000
398.084; -184.500; -767.000; -626.000
398.212;   66.300;  137.000;  124.000
398.340;  -13.000;  -56.000;  159.000
398.468;  -38.000; -390.000; -169.000
398.596; -279.200; -993.000; -953.000
398.724; -213.700; -762.000; -767.000
398.852; -306.000;-1024.000; -976.000
398.980; -121.400; -560.000; -560.000
399.108; -148.900; -982.000; -735.000
399.236;   54.100;   13.000;    8.000
399.363;   57.200;  222.000;  196.000
399.491; -136.300; -404.000; -398.000
399.619; -275.800; -829.000; -800.000
399.747; -220.200; -859.000; -771.000
399.875;  105.900;  220.000;  234.000
400.003;  -72.300; -359.000; -284.000
400.130; -166.900; -421.000; -341.000
400.258;   -6.400;  -83.000;   38.000
400.386; -100.500; -352.000; -168.000
400.514; -110.900; -526.000; -587.000
400.641; -259.900; -928.000; -802.000
400.769; -265.500; -979.000; -888.000
400.897; -225.200; -838.000; -793.000
401.025;   12.200; -166.000; -152.000
401.152;   19.100;  220.000;   38.000
401.280; -155.300; -430.000; -429.000
401.408; -205.700; -712.000; -576.000
401.535; -190.500; -735.000; -758.000
401.663; -363.400;-1134.000;-1054.000
401.790; -148.600; -514.000; -525.000
401.918;  100.200;  436.000;  405.000
402.046;   -9.300;  134.000;  122.000
402.173;  -66.800;  -18.000;    7.000
402.301; -112.600; -519.000; -397.000
402.428;  124.100;  528.000;  383.000
402.556; -276.400;-1188.000; -913.000
402.683;  -34.400;  -20.000;   -1.000
402.811;  -16.100;  -37.000; -206.000
402.938;   24.100;   20.000;   27.000
403.066;   67.100; -574.000; -558.000
403.193;  249.800;  299.000;  239.000
403.321;  118.800; -396.000; -574.000
403.448;  220.300;   83.000;   27.000
403.575;  132.800;  -90.000;  -46.000
403.703; -207.100; -732.000; -557.000
403.830;  -88.500; -531.000; -496.000
403.957; -281.400;-1117.000;-1023.000
404.085;   -3.500;  -61.000; -172.000
404.212;   52.100;  -50.000;   63.000
404.339;  106.400; -566.000; -306.000
404.467; 3605.300; -612.000; -524.000
404.594; 2293.900; -287.000; -227.000
404.721;  415.300; -869.000; -764.000
404.848;   63.700; -113.000; -202.000
404.976; -236.000; -856.000; -783.000
405.103;   28.600;  -14.000;  -82.000
405.230;   27.800;  190.000;  226.000
405.357;   28.000;  117.000;   44.000
405.484;  149.400;  -49.000;    5.000
405.612;  -66.600; -548.000; -563.000
405.739; -129.300; -488.000; -243.000
405.866;  169.500;  669.000;  385.000
405.993;  -83.300; -398.000; -102.000
406.120; -240.500; -801.000; -887.000
406.247; -145.200; -323.000; -342.000
406.374;  417.600;  540.000;  629.000
406.501;  -81.300; -632.000; -702.000
406.628; -127.800; -621.000; -589.000
406.755; -199.800; -803.000; -620.000
406.882;  -85.000; -228.000; -277.000
407.009; -165.200; -719.000; -628.000
407.136;  -36.400; -480.000; -401.000
407.263;  -73.800; -939.000; -829.000
407.390; -152.200; -692.000; -614.000
407.517; -346.300;-1139.000;-1187.000
407.644; -109.400; -332.000; -256.000
407.771; -127.900; -249.000; -287.000
407.898;   85.300;  168.000;  328.000
408.025; -138.500; -421.000; -313.000
408.151;   20.600;   82.000;  153.000
408.278;  -91.800; -267.000; -216.000
408.405; -266.400; -931.000; -899.000
408.532; -152.900; -549.000; -542.000
408.659; -229.100; -677.000; -648.000
408.785; -352.500;-1298.000;-1170.000
408.912;  -62.600; -412.000; -296.000
409.039; -175.500; -610.000; -686.000
409.166; -179.500; -591.000; -555.000
409.292; -191.200; -571.000; -534.000
409.419; -197.600; -665.000; -649.000
409.546; -118.600; -431.000; -192.000
409.672; -200.900; -713.000; -545.000
409.799;  -23.200;  -36.000;   34.000
409.926;  -50.000; -180.000; -179.000
410.052; -333.800;-1127.000;-1091.000
410.179; -116.200; -368.000; -392.000
410.305; -157.300; -375.000; -493.000
410.432;  -79.200; -220.000; -333.000
410.558; -194.500; -305.000; -380.000
410.685; -178.800; -688.000; -431.000
410.812; -144.900; -409.000; -588.000
410.938; -229.100; -964.000; -808.000
411.065; -191.300; -671.000; -645.000
411.191;  -17.300; -189.000; -174.000
411.317; -217.100; -823.000; -742.000
411.444;  -81.500; -317.000; -246.000
411.570; -123.100; -339.000; -294.000
411.697; -208.900; -758.000; -752.000
411.823; -328.400; -989.000; -999.000
411.949;  -20.400;  -56.000;   17.000
412.076; -200.200; -539.000; -519.000
412.202; -190.700; -758.000; -757.000
412.329; -237.900; -798.000; -752.000
412.455; -209.700; -821.000; -657.000
412.581;  -27.400;  -15.000;  172.000
412.707; -146.800; -540.000; -457.000
412.834;   59.700;  156.000;  219.000
412.960; -183.400; -785.000; -784.000
413.086; -226.500; -743.000; -701.000
413.212;  229.800;  604.000;  578.000
413.339; -184.900; -685.000; -701.000
413.465;  -55.500; -364.000; -310.000
413.591; -197.300; -757.000; -474.000
413.717;  -86.400; -358.000; -366.000
413.843; -286.100; -839.000; -861.000
413.969; -115.200;  -47.000; -292.000
414.096; -197.200; -679.000; -679.000
414.222;    9.200;  -33.000;   85.000
414.348; -141.600; -652.000; -385.000
414.474;   63.600;   38.000;  -52.000
414.600;  -11.700; -126.000; -144.000
414.726;    3.100;  -96.000;  -55.000
414.852; -143.500; -365.000; -342.000
414.978;   52.900;  104.000;  -18.000
415.104;   23.900;   38.000;   80.000
415.230;  -46.300; -329.000; -330.000
415.356;  -77.900; -409.000; -514.000
415.482;  125.300;   13.000;  -35.000
415.608;  129.800; -247.000; -323.000
415.734;  672.400;   67.000;   38.000
415.860;13683.100; -875.000; -767.000
415.986; 9175.700; -685.000; -607.000
416.111;  571.100; -798.000; -652.000
416.237;   90.000; -424.000; -571.000
416.363;  647.500; -765.000; -733.000
416.489; 2729.100; -324.000; -251.000
416.615;  146.600; -707.000; -742.000
416.741; -152.300; -677.000; -784.000
416.866; -192.600; -673.000; -736.000
416.992; -242.700; -801.000; -818.000
417.118;  -62.400;  -41.000;  -80.000
417.244; -159.200; -798.000; -531.000
417.369; -177.300; -801.000; -612.000
417.495;  -33.900; -325.000; -254.000
417.621; -232.900;-1015.000; -803.000
417.746;  -87.400; -579.000; -572.000
417.872;   22.400; -254.000; -144.000
417.998;  -33.200; -515.000; -530.000
418.123;  566.800;-1073.000; -845.000
418.249; 3279.400; -512.000; -601.000
418.374;  298.100; -916.000; -824.000
418.500;  -27.700; -383.000; -482.000
418.626;  104.400;   70.000;  -59.000
418.751;   10.900; -549.000; -448.000
418.877;   31.700; -637.000; -643.000
419.002; 1172.500; -688.000; -560.000
419.128; 8077.800; -930.000; -721.000
419.253; 1669.600; -967.000; -837.000
419.379;  153.000; -391.000; -338.000
419.504;  323.400;  325.000;  415.000
419.629;  253.900; -393.000; -212.000
419.755; 2416.100; -317.000; -254.000
419.880;13132.100;  -98.000;   67.000
420.006; 7589.600; -280.000; -221.000
420.131;19215.800; -662.000; -775.000
420.256; 2521.500; -315.000; -316.000
420.382;  180.300; -665.000; -687.000
420.507;  -84.500; -649.000; -778.000
420.632;   64.700; -337.000; -339.000
420.758;  164.300; -251.000; -425.000
420.883; -187.000; -876.000; -672.000
421.008; -181.800; -775.000; -619.000
421.133; -209.500; -509.000; -467.000
421.259;  -53.100; -325.000; -259.000
421.384; -216.000; -834.000; -693.000
421.509; -152.800;-1052.000; -862.000
421.634;  896.000; -936.000; -820.000
421.759;  346.300; -359.000; -327.000
421.885; -162.300; -717.000; -656.000
422.010; -145.900; -673.000; -542.000
422.135; -234.900; -695.000; -727.000
422.260;   97.800;  340.000;  280.000
422.385;  -53.500;   12.000;  -98.000
422.510;   40.500;  151.000;  -26.000
422.635;   15.700;  -87.000;  -43.000
422.760;  -60.500; -766.000; -791.000
422.885;   34.500;  -57.000;  -80.000
423.010;  -61.000; -112.000; -169.000
423.135; -183.900; -481.000; -561.000
423.260;  -22.500; -150.000; -245.000
423.385;  118.800;  476.000;  222.000
423.510;   52.000;   71.000;  -22.000
423.635;   68.500;  133.000;   45.000
423.760;  135.900;  383.000;  328.000
423.885;   88.600;  336.000;  391.000
424.010;   11.900;  -68.000;  -13.000
424.135;  -23.400;    5.000;  -33.000
424.259; -129.900; -654.000; -457.000
424.384; -103.500; -279.000; -272.000
424.509;  -63.900; -260.000; -186.000
424.634; -219.900; -761.000; -623.000
424.759;  -93.300; -688.000; -544.000
424.883;  -90.600; -506.000; -527.000
425.008;   39.300; -502.000; -410.000
425.133; 1182.600; -679.000; -653.000
425.258;  498.600; -517.000; -381.000
425.382;  706.900; -867.000; -774.000
425.507; 1822.400; -487.000; -543.000
425.632;  113.000; -802.000; -663.000
425.756;  239.500; -256.000; -146.000
425.881; 4234.600; -831.000; -857.000
426.006;10524.600; -604.000; -355.000
426.130; 1465.200; -696.000; -508.000
426.255;  115.900; -611.000; -491.000
426.379;   48.600; -189.000; -577.000
426.504;  400.100;  660.000;  544.000
426.629; 2700.400; -519.000; -466.000
426.753; 1693.000;   64.000;  -46.000
426.878;  155.900; -252.000; -288.000
427.002;  -23.700; -651.000; -668.000
427.127; 1154.000;  -35.000; -158.000
427.251; 7965.500;  372.000;  401.000
427.375; 1994.800; -191.000; -173.000
427.500; 1653.000; -616.000; -610.000
427.624;  454.500; -234.000; -400.000
427.749;   18.000; -216.000; -225.000
427.873; -111.900; -499.000; -412.000
427.997;  -35.000; -222.000; -230.000
428.122;  173.600;  795.000;  703.000
428.246;  156.200;  433.000;  434.000
428.371; -219.000; -869.000; -773.000
428.495; -168.200; -624.000; -646.000
428.619;  -68.000; -186.000; -117.000
428.743;   89.400;   65.000;  132.000
428.868;  -87.500; -732.000; -643.000
428.992; 1062.100; -219.000; -326.000
429.116;  401.800; -329.000; -357.000
429.240;  324.500;  419.000;  426.000
429.365;  -73.900; -454.000; -574.000
429.489; -130.400; -638.000; -647.000
429.613;  -16.200; -236.000; -177.000
429.737;  -42.500; -563.000; -432.000
429.861;  147.400; -247.000; -133.000
429.985; 3849.800; -425.000; -305.000
430.109; 3670.700; -770.000; -908.000
430.234;  448.400;   76.000;  -50.000
430.358;   -4.000; -250.000; -160.000
430.482; -151.800; -672.000; -564.000
430.606; -111.300; -655.000; -375.000
430.730;  -40.300; -437.000; -388.000
430.854;  -56.600; -909.000; -835.000
430.978; -136.500; -795.000; -764.000
431.102; -151.600; -499.000; -422.000
431.226; -164.600; -874.000; -815.000
431.350;  118.800;  345.000;  422.000
431.474; -115.200; -661.000; -373.000
431.597; -324.900;-1060.000; -848.000
431.721;  -98.700; -276.000; -267.000
431.845; -239.200; -704.000; -472.000
431.969;  -78.000; -304.000; -349.000
432.093; -139.200; -395.000; -317.000
432.217;    2.200;   32.000;   82.000
432.341; -159.500; -523.000; -518.000
432.464;   18.000;   96.000;   40.000
432.588;   59.600; -401.000; -329.000
432.712;   48.400;  -52.000;  -52.000
432.836;   61.600;  213.000;  263.000
432.959;  -51.600; -372.000; -311.000
433.083;   41.600;   11.000;    2.000
433.207;  326.300;  285.000;  930.000
433.330; 3264.700; -391.000; -200.000
433.454; 3762.900; -654.000; -638.000
433.578; 2265.800;  583.000;  278.000
433.701;  239.600; -623.000; -675.000
433.825;   -5.100; -292.000; -299.000
433.949;  106.200;   28.000;  -72.000
434.072;  -15.100; -410.000; -323.000
434.196;  -38.400; -309.000; -117.000
434.319; 7552.300;25482.000;25124.000
434.443;  428.500; -656.000; -603.000
434.566; 1662.400;  281.000;   62.000
434.690;  167.300; -637.000; -383.000
434.813;  -36.100; -251.000; -173.000
434.937; -155.200; -569.000; -696.000
435.060; -113.500; -423.000; -332.000
435.184;  182.400; -492.000; -217.000
435.307;  120.400;  159.000;  102.000
435.431;  -19.700;  -40.000;   24.000
435.554; -125.400; -399.000; -240.000
435.677;  -88.800; -350.000; -258.000
435.801;  -18.000;  -25.000;   49.000
435.924;   -7.300;    1.000;  -67.000
436.048; -257.700;-1019.000; -732.000
436.171;  -78.500; -240.000;  -66.000
436.294;  -82.500; -248.000; -229.000
436.417; -108.100; -963.000; -849.000
436.541; -193.200; -814.000; -840.000
436.664;  -38.400; -242.000; -316.000
436.787;  -14.300;   13.000;  113.000
436.910; -192.100; -792.000; -422.000
437.034;   46.300;  142.000;  143.000
437.157;   57.200;  -11.000;    0.000
437.280; -107.600; -392.000; -292.000
437.403; -199.400; -982.000; -869.000
437.526;  456.600; -903.000; -865.000
437.649; 1882.200; -505.000; -332.000
437.772;  168.400; -692.000; -540.000
437.896;  178.300;  700.000;  544.000
438.019; -170.000; -758.000; -503.000
438.142; -154.200; -596.000; -506.000
438.265; -131.800; -639.000; -670.000
438.388;  303.800; -520.000; -410.000
438.511;  -58.100; -597.000; -394.000
438.634;  -86.900; -247.000; -125.000
438.757; -233.500; -693.000; -619.000
438.880;  -10.300;  -34.000;  -57.000
439.003; -125.600; -417.000; -437.000
439.126;  -89.800; -287.000; -167.000
439.248;  -57.300;  -98.000; -139.000
439.371;  -17.700;    9.000;  -53.000
439.494;  107.400;  510.000;  439.000
439.617;  -43.900;   65.000;  -88.000
439.740; -308.700; -968.000; -816.000
439.863; -230.100; -755.000; -595.000
439.986; -187.500; -476.000; -431.000
440.108;  -70.100; -161.000; -112.000
440.231; -310.400; -950.000; -836.000
440.354;  -31.800;  -64.000; -150.000
440.477;  -63.200; -566.000; -542.000
440.599;  -47.300; -200.000; -225.000
440.722; -224.400; -709.000; -586.000
440.845;  218.800;  751.000;  928.000
440.968; -188.500; -415.000; -311.000
441.090;  -76.600; -199.000;  -33.000
441.213; -272.300;-1021.000; -825.000
441.336;  -34.100; -159.000;   -5.000
441.458; -161.300; -549.000; -396.000
441.581; -195.400; -628.000; -629.000
441.703; -112.700; -152.000;   13.000
441.826; -182.900; -557.000; -400.000
441.948;  -86.400;   56.000;   51.000
442.071;  125.700;  555.000;  424.000
442.193; -224.600; -531.000; -485.000
442.316;   50.800;  152.000;   97.000
442.438;  -52.600; -233.000;  -10.000
442.561;  106.500;  272.000;  262.000
442.683;  382.600; -809.000; -522.000
442.806;  968.400;   -8.000;   74.000
442.928; -143.700; -859.000; -604.000
443.051; -121.900; -577.000; -373.000
443.173; -142.700; -341.000; -339.000
443.295; -138.100; -263.000; -371.000
443.418; -123.600; -321.000;  -29.000
443.540;    4.200; -106.000;   -4.000
443.662; -217.800; -563.000; -465.000
443.785;   14.000;  335.000;  199.000
443.907; -181.100; -362.000; -208.000
444.029; -213.600; -767.000; -494.000
444.152; -249.900; -644.000; -554.000
444.274;   16.100;  -18.000;  -24.000
444.396; -189.200; -461.000; -221.000
444.518; -214.400; -691.000; -454.000
444.640; -147.600; -268.000; -111.000
444.763;   17.000;  388.000;  249.000
444.885; -188.500; -432.000; -392.000
445.007;  -16.800;   35.000;   86.000
445.129; -220.500; -610.000; -515.000
445.251; -164.900; -372.000; -439.000
445.373; -234.600; -537.000; -386.000
445.495;   28.400;  242.000;  350.000
445.617;  182.000;  853.000;  753.000
445.739; -105.100; -215.000;  -97.000
445.861;  -34.100; -245.000; -112.000
445.984;  -92.800; -267.000; -101.000
446.105;  101.500; -418.000; -251.000
446.227;  499.500; -176.000;  -19.000
446.349;  -61.100; -358.000; -249.000
446.471; -179.800; -615.000; -448.000
446.593; -143.100; -316.000;   19.000
446.715;  -17.800;  -67.000;   41.000
446.837;  177.300;  697.000;  832.000
446.959; -150.200; -457.000; -478.000
447.081; -221.800; -628.000; -518.000
447.203;  177.900;  862.000;  834.000
447.325; -137.700; -270.000;   42.000
447.446;   41.800;  286.000;  530.000
447.568; -262.500; -921.000; -803.000
447.690; -124.800; -236.000; -245.000
447.812; -228.300; -798.000; -519.000
447.933;   32.200;  155.000;  127.000
448.055; -113.600; -306.000; -261.000
448.177;  176.900;   31.000;   79.000
448.299; -110.500; -935.000; -727.000
448.420;   44.100;  -25.000;  159.000
448.542;  -21.900;   -3.000;   33.000
448.664;    1.000;  109.000;  322.000
448.785;  -21.200;  265.000;   83.000
448.907; -123.400; -614.000; -353.000
449.028; -151.100; -771.000; -471.000
449.150;  146.500;  492.000;  589.000
449.272; -321.400;-1044.000; -913.000
449.393;  120.300;  612.000;  694.000
449.515; -259.100; -634.000; -581.000
449.636;  -80.700; -264.000; -155.000
449.758;  169.000;  763.000;  622.000
449.879; -158.400; -498.000; -396.000
450.001;  -99.900; -149.000;  -49.000
450.122;  -32.800;  -95.000;  162.000
450.244;   -4.400;   37.000;  364.000
450.365; -161.500; -495.000; -301.000
450.486;  -54.700;   80.000;  268.000
450.608;   45.700;  393.000;  326.000
450.729;  179.000;  578.000;  645.000
450.850;  -92.400; -574.000; -466.000
450.972;  354.500; -552.000; -389.000
451.093; 3244.700;  190.000;  588.000
451.214; 1100.800; -516.000; -337.000
451.336;  348.300;  773.000;  579.000
451.457;   72.900;  264.000;  393.000
451.578;  -48.900; -118.000;  -74.000
451.699; -231.900; -546.000; -540.000
451.821;  -89.100; -284.000;  -50.000
451.942;    0.400;  278.000;  285.000
452.063;   79.800;  228.000;  419.000
452.184;  334.800;  -54.000;  -49.000
452.305;  736.900;  103.000;  170.000
452.427;  -24.300; -549.000; -301.000
452.548;  -24.500;   23.000;   79.000
452.669;  -76.800; -257.000;  -89.000
452.790;  -70.800;    3.000;  -18.000
452.911;   32.200;  195.000;  259.000
453.032;  -80.000; -289.000;  -60.000
453.153;  -51.500;  -29.000;   81.000
453.274;  188.700;  737.000;  868.000
453.395;  -40.300;  -51.000;  175.000
453.516;  266.500; 1317.000; 1388.000
453.637; -114.000; -205.000; -150.000
453.758;  -43.500;   15.000;   69.000
453.879; -185.200; -462.000; -250.000
454.000;  224.000; 1086.000;  948.000
454.121; -198.400; -554.000; -326.000
454.242; -218.500; -599.000; -383.000
454.362;  -57.200;  -99.000;  114.000
454.483;  -87.200; -309.000; -229.000
454.604;  107.500;  512.000;  580.000
454.725; -250.900; -627.000; -555.000
454.846; -200.700; -474.000; -406.000
454.967;   22.300;  230.000;  539.000
455.087;  -36.900;  179.000;  153.000
455.208;   92.100;  554.000;  856.000
455.329;  -70.700;  -22.000;   82.000
455.450;  116.100;  473.000;  633.000
455.570; -119.700; -234.000; -211.000
455.691;    7.800;  201.000;  407.000
455.812; -175.300; -270.000;  -92.000
455.932;  -60.900;  107.000;  -97.000
456.053; -109.700;   36.000;   24.000
456.173; -161.600; -433.000; -355.000
456.294; -208.500; -476.000; -303.000
456.415;  -73.400;  -73.000;   70.000
456.535;  -14.900;  297.000;  273.000
456.656;  -30.800;  132.000;  240.000
456.776;  -69.300;    3.000;  298.000
456.897;   51.500;  308.000;  513.000
457.017; -118.400; -153.000;   -3.000
457.138; -175.600; -402.000; -249.000
457.258;  -24.000;  263.000;  224.000
457.379;   29.900;  509.000;  521.000
457.499;   15.500;  443.000;  432.000
457.620; -184.600; -407.000; -231.000
457.740; -101.800; -132.000;  -11.000
457.860;  -56.200;   87.000;   44.000
457.981;  -76.400;  132.000;  124.000
458.101; -119.400;  -89.000;   40.000
458.221;    8.200;  336.000;  402.000
458.342;  -66.300;   -4.000;  -37.000
458.462;   49.000;  617.000;  352.000
458.582; -107.600; -302.000; -294.000
458.703;   22.100;  303.000;  154.000
458.823;  -53.500;   22.000;  163.000
458.943;   67.200;  341.000;  467.000
459.063;  -14.300; 1124.000;  192.000
459.183;  -40.100;  328.000;  313.000
459.304;   44.900;  315.000;  517.000
459.424; -125.900; -246.000;  -89.000
459.544;  319.600;  388.000;  764.000
459.664;  625.600;  499.000;  506.000
459.784;  318.700; 1004.000; 1175.000
459.904;  118.700;  867.000;  744.000
460.024;  150.700;  867.000;  684.000
460.144;   40.500;  449.000;  554.000
460.264;   43.600;  515.000;  327.000
460.385; -143.700; -145.000; -119.000
460.505;  116.100;  905.000;  858.000
460.625; -140.000;  -17.000;  -68.000
460.745;   37.600;  396.000;  541.000
460.864;  -42.000;  153.000;  469.000
460.984;   33.100;  499.000;  573.000
461.104;  307.000; 1656.000; 1775.000
461.224;   81.600;  657.000;  650.000
461.344;   -6.800;  431.000;  360.000
461.464;    4.100;  258.000;  513.000
461.584;   15.600;  283.000;  466.000
461.704;  -54.200;   58.000;  108.000
461.824;  -59.000;  238.000;  259.000
461.943;  -44.700;  191.000;  130.000
462.063; -103.200;    2.000;  324.000
462.183;  123.100;  639.000;  717.000
462.303;  273.300; 1678.000; 1230.000
462.422;  118.800;  781.000;  840.000
462.542;  -32.500;  271.000;  391.000
462.662;   76.900;  353.000;  380.000
462.782;  177.800;  833.000;  572.000
462.901;  387.100;  545.000;  717.000
463.021;  419.200; 1702.000; 1638.000
463.141;   21.800;  337.000;  770.000
463.260;   29.600;  614.000;  474.000
463.380;   74.300;  902.000;  884.000
463.499;  -39.300;  342.000;  332.000
463.619;    3.700;  581.000;  559.000
463.738;  297.400; 1644.000;  903.000
463.858;  111.800;  657.000;  811.000
463.978;  -16.100;  542.000;  396.000
464.097;  168.700;  921.000; 1114.000
464.217;  229.600; 1196.000; 1143.000
464.336;  245.800; 1068.000; 1130.000
464.455;  -21.300;  328.000;  659.000
464.575;   96.500;  597.000;  602.000
464.694;  276.600; 1204.000; 1179.000
464.814;  244.500; 1190.000; 1138.000
464.933;  194.600; 1095.000; 1027.000
465.052;  225.800; 1412.000; 1054.000
465.172;  146.200;  922.000;  799.000
465.291;  274.000; 1376.000; 1320.000
465.410;   40.600;  462.000;  735.000
465.530;  230.600; 1355.000; 1310.000
465.649;  160.700; 1209.000; 1273.000
465.768;  305.600; 1673.000; 1508.000
465.888;  138.500;  941.000; 1174.000
466.007;  285.700; 1335.000; 1440.000
466.126;   77.700;  721.000;  641.000
466.245;  143.900; 1176.000; 1187.000
466.364;   74.100;  950.000; 1060.000
466.484;  214.500; 1024.000; 1213.000
466.603;  121.200; 1101.000; 1222.000
466.722;  311.300; 1490.000; 1769.000
466.841;  227.200; 1151.000; 1401.000
466.960;  123.500; 1069.000;  972.000
467.079;  336.000; 1971.000; 1786.000
467.198;  192.100; 1238.000; 1181.000
467.317;  209.000; 1768.000; 1162.000
467.436;  192.400; 1709.000; 1261.000
467.555;  327.100; 1796.000; 1746.000
467.674;  171.400; 1227.000; 1329.000
467.793;  166.300; 1376.000; 1374.000
467.912;  281.000; 1658.000; 1539.000
468.031;  309.200; 2038.000; 1930.000
468.150;  334.400; 1842.000; 1837.000
468.269;  443.900; 2313.000; 2090.000
468.388;  413.800; 2168.000; 2339.000
468.507;  565.500; 2884.000; 2903.000
468.626;  617.600; 2555.000; 2541.000
468.744;  297.700; 2018.000; 2174.000
468.863;  490.400; 2312.000; 2523.000
468.982;  225.600; 1503.000; 1555.000
469.101;  506.800; 2788.000; 2692.000
469.220;  366.300; 2333.000; 2176.000
469.338;  531.400; 2935.000; 3051.000
469.457;  443.900; 2719.000; 2545.000
469.576;  782.100; 3953.000; 3784.000
469.695;  521.100; 2877.000; 3066.000
469.813;  893.700; 4148.000; 4192.000
469.932;  804.300; 4255.000; 4485.000
470.051;  861.400; 4075.000; 4161.000
470.169; 1212.000; 4470.000; 4338.000
470.288; 1670.600; 4700.000; 4809.000
470.406; 1229.100; 5059.000; 5194.000
470.525; 1248.300; 6101.000; 5787.000
470.644; 1362.400; 6847.000; 6794.000
470.762; 1711.900; 8397.000; 7873.000
470.881; 1784.700; 8651.000; 8464.000
470.999; 2131.800; 9685.000; 9151.000
471.118; 2275.100;11174.000;10711.000

