
Integration time [ms]: 100.000
Averaging Nr. [scans]: 40
Smoothing Nr. [pixels]: 0
Data measured with spectrometer [name]: 2101012U2
Wave   ;Sample   ;Dark     ;Reference
[nm]   ;[counts] ;[counts] ;[counts] 

197.733;   51.425;  516.000;  404.000
197.879;  -77.300; -610.000; -634.000
198.025;  -45.700; -475.000; -420.000
198.171;  -70.825; -602.000; -612.000
198.317;  -31.725; -401.000; -316.000
198.463;  -55.825; -655.000; -404.000
198.609;   37.250;  181.000; -137.000
198.755;  -79.250; -644.000; -410.000
198.901;  -61.650; -505.000; -424.000
199.047;  -55.750; -615.000; -488.000
199.193;  -36.300; -230.000; -468.000
199.339;  -46.250; -222.000; -369.000
199.485;   32.575;  330.000;  271.000
199.631;   20.425;  227.000;  310.000
199.777;  -40.900; -466.000; -398.000
199.923;  -56.950; -610.000; -424.000
200.069;    0.375; -141.000;  -58.000
200.215;   47.500;  128.000;  453.000
200.361;   55.000;  243.000;  477.000
200.507;  -53.550; -600.000; -373.000
200.653;  -28.075; -371.000; -194.000
200.798;  -36.025; -215.000; -125.000
200.944;    3.400; -146.000;  -41.000
201.090;   33.800;   61.000;  222.000
201.236;    0.425; -116.000; -158.000
201.382;  121.150;  874.000;  903.000
201.528;   -0.150;  -58.000;  -48.000
201.674;  -63.575; -386.000; -293.000
201.819;  -56.100; -540.000; -439.000
201.965;  -83.225; -699.000; -447.000
202.111;  -19.500; -273.000; -226.000
202.257;  -30.250; -250.000; -238.000
202.402;   12.375;   13.000;  -36.000
202.548;  -21.600; -169.000; -116.000
202.694;   80.850;  410.000; -183.000
202.840;  -74.375; -603.000; -531.000
202.985;  -71.575; -681.000; -639.000
203.131;  -92.225; -832.000; -666.000
203.277;  -28.725; -199.000; -262.000
203.423;  -54.600; -434.000; -520.000
203.568;  -31.325; -462.000; -237.000
203.714;  -53.125; -535.000; -542.000
203.860;  -84.300; -682.000; -641.000
204.005;    6.275;  112.000;  167.000
204.151;   63.475;  561.000;  556.000
204.296;  -32.525; -354.000; -221.000
204.442;  -69.575; -600.000; -547.000
204.588;  -71.400; -592.000; -579.000
204.733;   32.125;  178.000;  168.000
204.879; -125.950;-1018.000; -822.000
205.025;    7.625;  -99.000;  126.000
205.170;    2.825;  -17.000;   94.000
205.316;   76.850;  438.000;  661.000
205.461;  -85.500; -698.000; -554.000
205.607;   82.325;  609.000;  665.000
205.752;  -76.950; -626.000; -551.000
205.898;  -55.275; -501.000; -391.000
206.043;  -66.950; -578.000; -506.000
206.189;  -51.450; -243.000; -285.000
206.334;   79.775;  554.000;  606.000
206.480;   70.225;  409.000;  239.000
206.625;  -86.325; -529.000; -552.000
206.771;  -51.525; -451.000; -373.000
206.916;  -33.950; -210.000; -537.000
207.062;  -59.475; -545.000; -591.000
207.207;  -57.950; -546.000; -443.000
207.353;   48.275;  185.000;  460.000
207.498;    7.975;  196.000;   85.000
207.643;  -44.075; -501.000; -370.000
207.789; -116.375;-1069.000; -910.000
207.934;  -91.225; -665.000; -713.000
208.080;  -21.125; -154.000;   66.000
208.225;   -2.250;  -22.000;  -57.000
208.370;  -82.250; -727.000; -619.000
208.516;  -75.775; -741.000; -487.000
208.661;  -29.975; -127.000;  -69.000
208.806;  -16.175; -165.000; -171.000
208.952; -105.350;-1044.000; -731.000
209.097;   68.250;  378.000;  349.000
209.242;  -48.475; -307.000; -382.000
209.387;   64.325;  392.000;  350.000
209.533;  -45.850; -321.000; -350.000
209.678;   81.600;  472.000;  543.000
209.823;  -60.475; -408.000; -310.000
209.969;  -98.225; -860.000; -757.000
210.114; -103.225; -907.000; -719.000
210.259; -112.725; -939.000; -889.000
210.404;  -13.025; -171.000;  103.000
210.549;   12.300;  108.000;    3.000
210.695;   -9.650;   -3.000;  -95.000
210.840;   43.100;   94.000;   67.000
210.985;  -64.200; -484.000; -303.000
211.130;   72.275;  268.000;  406.000
211.275;   29.850;  207.000;  199.000
211.420;  -50.800; -300.000; -289.000
211.566;  -71.525; -536.000; -489.000
211.711;   23.325;  218.000;  157.000
211.856;  -74.225; -545.000; -519.000
212.001;   25.550;  151.000;   44.000
212.146;   21.425;  153.000;   49.000
212.291;  -23.550; -210.000; -186.000
212.436;  -32.800; -280.000;   -6.000
212.581;  -79.850; -685.000; -653.000
212.726;  -78.150; -487.000; -538.000
212.871;  -42.350; -552.000; -217.000
213.016; -150.550;-1172.000;-1029.000
213.161;   68.400;  406.000;  291.000
213.306;  -80.875; -435.000; -577.000
213.451;  -98.075; -778.000; -689.000
213.596;  -43.600; -455.000; -347.000
213.741;  -53.300; -448.000; -538.000
213.886;  -71.275; -498.000; -517.000
214.031;   -8.700; -294.000; -124.000
214.176;  -51.850; -408.000; -341.000
214.321;  -10.600; -296.000; -157.000
214.466;  -20.600; -163.000;  -43.000
214.611;    7.375;  -61.000;  -10.000
214.756; -113.100; -948.000; -858.000
214.901;  -20.300; -388.000; -226.000
215.046; -120.025; -797.000; -825.000
215.191;   20.150;  128.000;   35.000
215.336;  -11.150; -157.000;  -19.000
215.480;  -59.500; -684.000; -505.000
215.625;  -12.200; -175.000;  -19.000
215.770;  -72.650; -757.000; -662.000
215.915;   -9.450;   -5.000;  -97.000
216.060;   -3.125; -113.000;  -21.000
216.205; -127.350; -731.000; -779.000
216.349;  -64.525; -470.000; -533.000
216.494; -137.675; -939.000; -867.000
216.639; -118.700; -823.000; -888.000
216.784;  -88.700; -577.000; -525.000
216.929;   48.850;  392.000;  281.000
217.073;  -11.100; -244.000;  -31.000
217.218;   16.575;   78.000;  -47.000
217.363;  -88.450; -656.000; -618.000
217.507;  -86.250; -623.000; -588.000
217.652; -121.050; -845.000; -874.000
217.797;  -84.950; -708.000; -659.000
217.942; -111.750; -856.000; -720.000
218.086;   78.325;  608.000;  539.000
218.231;  -35.850; -174.000;  -26.000
218.376;  -21.425; -337.000; -229.000
218.520;   -7.100;  -41.000;   96.000
218.665;  -28.350; -338.000; -204.000
218.810;  -43.650; -275.000; -233.000
218.954;    6.675;  201.000;   35.000
219.099; -112.800; -713.000; -963.000
219.243;  -79.700; -589.000; -554.000
219.388;  -23.800; -264.000; -136.000
219.532;   -4.200; -116.000; -116.000
219.677;  -66.950; -564.000; -521.000
219.822;    7.525;   33.000;   89.000
219.966;   11.475;   17.000;  -99.000
220.111;  -13.250; -328.000;  -40.000
220.255;  -89.300; -797.000; -750.000
220.400;  -19.500; -180.000; -146.000
220.544;  -70.150; -516.000; -450.000
220.689;  -36.625; -422.000; -451.000
220.833;  -24.375; -123.000;  -58.000
220.978;  -35.325; -393.000; -563.000
221.122;   16.650;  319.000;  307.000
221.267; -108.100; -906.000; -837.000
221.411;  -68.600; -478.000; -394.000
221.555;   -6.150; -104.000;  -23.000
221.700;  -38.125; -329.000; -222.000
221.844;   43.975;  255.000;  272.000
221.989;  -45.475; -328.000; -311.000
222.133;  -37.000; -289.000; -307.000
222.277;   -9.250;    5.000;   78.000
222.422;   25.275;  227.000;  113.000
222.566;  -38.675; -381.000; -214.000
222.711;  -60.675; -414.000; -479.000
222.855;  -84.600; -643.000; -586.000
222.999;  -87.150; -642.000; -717.000
223.144;  -20.925; -195.000; -194.000
223.288;   59.525;  423.000;  251.000
223.432;   26.425;  184.000;  230.000
223.576;   22.300;  152.000;  -21.000
223.721;   38.300;  364.000;  273.000
223.865;  -54.400; -472.000; -475.000
224.009;  211.975; 1673.000; 1631.000
224.153;  -89.650; -660.000; -671.000
224.298;  -61.325; -531.000; -489.000
224.442;  -13.500;  -74.000;  -33.000
224.586;  -18.975; -169.000; -106.000
224.730;  -89.775; -858.000; -670.000
224.875; -114.225; -739.000; -688.000
225.019;   -1.500;  102.000;  188.000
225.163;   51.675;  208.000;  341.000
225.307;   21.150;   97.000;  -91.000
225.451;   41.125;  360.000;  481.000
225.595;   39.175;  264.000;  176.000
225.739;  -25.625; -170.000;  -94.000
225.884;   -1.000;   86.000;    5.000
226.028; -100.575; -760.000; -626.000
226.172;  -35.250; -260.000; -273.000
226.316; -108.300; -941.000; -902.000
226.460;  -67.250; -645.000; -493.000
226.604;  -51.075; -406.000; -400.000
226.748; -104.300; -836.000; -733.000
226.892;  -35.725; -227.000; -181.000
227.036;  -49.400; -537.000; -447.000
227.180;  -60.075; -551.000; -375.000
227.324;  -57.575; -561.000; -580.000
227.468; -112.475; -819.000; -717.000
227.612;    2.500;  242.000;  -28.000
227.756; -104.275; -845.000; -698.000
227.900;   59.825;  342.000;  441.000
228.044;  -64.975; -509.000; -290.000
228.188;   63.900;  448.000;  568.000
228.332;  -84.100; -546.000; -472.000
228.476;  -30.400; -223.000; -149.000
228.620;  -24.375; -210.000; -150.000
228.764;   73.975;  431.000;  349.000
228.908;  -23.625; -155.000;   30.000
229.052;  -67.300; -615.000; -528.000
229.195;  -20.300; -172.000;   13.000
229.339;  -41.200; -235.000; -305.000
229.483;  -33.900;    5.000; -162.000
229.627;   -3.800; -156.000;  139.000
229.771;  -53.175; -218.000; -294.000
229.915;   15.475;  230.000;   79.000
230.059;  -95.825; -648.000; -663.000
230.202;  -32.250; -370.000; -317.000
230.346;  -13.875; -107.000;  107.000
230.490;  -64.075; -489.000; -521.000
230.634; -106.375; -736.000; -553.000
230.777;   85.450;  478.000;  509.000
230.921;  -54.500; -450.000; -359.000
231.065;  -34.775; -246.000; -286.000
231.209;   13.575;  261.000;  265.000
231.352;   17.950;   54.000;   40.000
231.496;   17.475;  568.000;  188.000
231.640;  -68.650; -693.000; -621.000
231.783;   50.775;  546.000;  525.000
231.927;  -43.150; -294.000; -365.000
232.071; -109.425; -962.000; -736.000
232.214; -114.750; -980.000; -764.000
232.358;  -92.825; -683.000; -599.000
232.502;  -10.000;  -19.000;    7.000
232.645; -138.050;-1090.000; -927.000
232.789;  -30.875; -257.000; -218.000
232.933;  -42.875; -407.000; -224.000
233.076; -110.350;-1038.000; -897.000
233.220;  -99.275; -752.000; -777.000
233.363;  -71.650; -669.000; -477.000
233.507;   51.400;  371.000;  129.000
233.650; -100.225; -764.000; -834.000
233.794;   34.525;  438.000;  461.000
233.938;  -53.050; -530.000; -362.000
234.081;  -30.625;  -93.000;   31.000
234.225;  -56.325; -631.000; -539.000
234.368; -109.425; -773.000; -723.000
234.512;  -34.125; -385.000; -299.000
234.655;  -89.050; -582.000; -555.000
234.798;  -59.950; -493.000; -466.000
234.942; -122.075; -884.000;-1002.000
235.085;  -73.550; -651.000; -443.000
235.229;  -86.525; -405.000; -410.000
235.372;  -45.700; -247.000; -191.000
235.516;  -61.675; -397.000; -321.000
235.659;   22.350;   92.000;  121.000
235.802;  -10.550;  -38.000;  -22.000
235.946;   39.225;  335.000;  215.000
236.089;   16.175;  126.000;  250.000
236.233;   43.025;  275.000;  298.000
236.376;  -59.150; -235.000; -378.000
236.519;  -43.550; -297.000; -319.000
236.663;  -28.150; -215.000; -117.000
236.806; -130.325;-1029.000; -999.000
236.949;   46.025;  543.000;  431.000
237.092;   50.125;  412.000;  391.000
237.236;  -79.200; -589.000; -502.000
237.379;   59.125;  352.000;  428.000
237.522; -114.325; -879.000; -768.000
237.666;  -24.925; -271.000;   18.000
237.809; -115.225; -851.000; -823.000
237.952;   29.550;  469.000;  271.000
238.095;  -56.100; -447.000; -442.000
238.238;   91.225;  688.000;  700.000
238.382;    3.675;  166.000;  103.000
238.525;  -65.250; -598.000; -511.000
238.668; -133.875;-1060.000; -985.000
238.811;  -81.450; -638.000; -643.000
238.954;  -70.800; -483.000; -334.000
239.097;   91.875;  617.000;  664.000
239.241;   25.975;  394.000;  326.000
239.384;  -38.050; -254.000; -214.000
239.527;  -63.425; -424.000; -224.000
239.670; -132.000; -994.000;-1091.000
239.813; -109.075; -696.000; -658.000
239.956;   79.150;  579.000;  473.000
240.099; -115.425; -778.000; -725.000
240.242;   53.100;  428.000;  432.000
240.385;   38.325;  466.000;  450.000
240.528;  -72.375; -706.000; -473.000
240.671;   25.700;  189.000;  134.000
240.814;  -35.550; -441.000; -158.000
240.957;  -96.500; -767.000; -578.000
241.100;  -87.950; -779.000; -755.000
241.243; -154.725;-1234.000; -893.000
241.386;  -56.925; -508.000; -379.000
241.529;  -92.425; -735.000; -547.000
241.672;  -63.825; -566.000; -495.000
241.815; -125.150; -832.000; -808.000
241.958;  -32.600; -125.000; -182.000
242.101;  -81.400; -545.000; -390.000
242.244;  -32.375; -270.000; -325.000
242.387;  -39.075; -304.000; -246.000
242.530;   63.025;  470.000;  134.000
242.673;  -51.000; -381.000; -309.000
242.815; -119.550; -925.000; -899.000
242.958;  -73.875; -482.000; -381.000
243.101;   11.900;  132.000;  187.000
243.244;  -87.025; -564.000; -521.000
243.387;  -40.100; -313.000; -316.000
243.530;  -88.125; -657.000; -674.000
243.672;    1.875;   43.000;  -92.000
243.815;  -52.550; -355.000; -283.000
243.958;    6.600;   98.000;  -26.000
244.101;  -14.825;   59.000;  -16.000
244.243;  -10.775;  -47.000;  101.000
244.386; -108.325; -761.000; -630.000
244.529;  -23.700; -132.000; -139.000
244.672; -156.875;-1154.000; -951.000
244.814;  -98.475; -621.000; -794.000
244.957;  -35.375; -380.000; -304.000
245.100;  -83.200; -489.000; -489.000
245.242;  -75.625; -387.000; -374.000
245.385;    1.500;  -59.000;  -39.000
245.528; -122.625; -871.000; -705.000
245.670;   82.300;  612.000;  634.000
245.813;  -85.925; -599.000; -547.000
245.956;  -24.850; -324.000; -275.000
246.098;  -65.250; -508.000; -650.000
246.241;   -2.025;  194.000;   48.000
246.383;  -12.975; -119.000;  -73.000
246.526;  -76.700; -454.000; -525.000
246.669; -130.375; -889.000; -780.000
246.811;    8.625;  172.000;   -1.000
246.954;  -61.150; -512.000; -426.000
247.096;  -12.450;  -84.000;   -6.000
247.239;  -73.200; -482.000; -445.000
247.381;  -60.300; -647.000; -488.000
247.524;   95.875;  645.000;  679.000
247.666;  -15.450;   58.000;   11.000
247.809; -117.500; -887.000; -691.000
247.951;  -14.525;  -75.000;  138.000
248.094;   38.175;  432.000;  308.000
248.236; -152.300;-1262.000;-1238.000
248.378;    5.450; -356.000;  -81.000
248.521;  -21.700; -334.000; -337.000
248.663;  -30.025; -236.000; -267.000
248.806;  -17.050; -300.000; -266.000
248.948;  -83.175; -886.000; -763.000
249.090;  -36.300; -428.000; -398.000
249.233;  -40.150; -344.000; -381.000
249.375;  -61.425; -474.000; -451.000
249.518;  -31.775;  -83.000; -133.000
249.660;    4.325; -103.000;    3.000
249.802; -171.050;-1303.000;-1189.000
249.945;  -65.575; -612.000; -540.000
250.087; -120.650; -834.000; -768.000
250.229;  -54.250; -362.000; -480.000
250.371;  -76.025; -494.000; -439.000
250.514;  -50.375; -310.000; -244.000
250.656;  -14.625;   69.000;  102.000
250.798; -101.725; -849.000; -800.000
250.940;  -68.000; -322.000; -322.000
251.083;  -30.375; -335.000; -111.000
251.225;   64.175;  338.000;  310.000
251.367;  -34.275; -274.000; -373.000
251.509;  -48.175; -265.000; -210.000
251.651;  -87.700; -731.000; -671.000
251.794;   41.725;  538.000;  632.000
251.936;  -99.125; -821.000; -747.000
252.078;  -78.225; -540.000; -461.000
252.220;  -56.500; -645.000; -477.000
252.362;   85.550;  344.000;  462.000
252.504;  -58.075; -677.000; -584.000
252.646; -119.575; -875.000; -722.000
252.788;    3.100;   14.000; -128.000
252.931;  -36.375; -257.000; -253.000
253.073;  -27.275; -376.000; -317.000
253.215;  -11.275;  141.000;  122.000
253.357;  -20.175;   82.000; -153.000
253.499;  -48.500; -374.000; -234.000
253.641;  -73.200; -749.000; -594.000
253.783;  -87.125; -609.000; -527.000
253.925;  -80.775; -586.000; -591.000
254.067;  -97.075; -744.000; -667.000
254.209;  -12.175; -391.000; -259.000
254.351; -120.950; -865.000; -883.000
254.493;  -56.550; -441.000; -417.000
254.635; -127.900; -936.000; -818.000
254.777;  -83.300; -752.000; -687.000
254.918;  -61.050; -512.000; -430.000
255.060;  -49.675; -551.000; -395.000
255.202;  -55.825; -473.000; -261.000
255.344;  -75.150; -658.000; -455.000
255.486;  -73.225; -471.000; -406.000
255.628; -113.225; -780.000; -781.000
255.770;  -84.425; -676.000; -536.000
255.912;  -63.875; -559.000; -468.000
256.053;  -83.650; -730.000; -508.000
256.195;  154.175; 1008.000;  903.000
256.337; -106.475; -861.000; -595.000
256.479;   56.725;  532.000;  416.000
256.621;  -58.175; -394.000; -212.000
256.762;  -92.700; -789.000; -742.000
256.904;   52.450;  485.000;  487.000
257.046;  -45.950; -381.000; -271.000
257.188;  -40.275; -351.000; -264.000
257.329;  -67.625; -525.000; -464.000
257.471; -113.025; -939.000; -807.000
257.613;  -59.800; -584.000; -498.000
257.755; -145.525;-1073.000; -982.000
257.896;   39.275;  286.000;  392.000
258.038;  -78.500; -403.000; -352.000
258.180;  -46.900; -354.000; -279.000
258.321;  -83.525; -581.000; -457.000
258.463;   10.175;  -71.000;  133.000
258.605;  -94.800; -562.000; -570.000
258.746; -112.225; -886.000; -772.000
258.888; -150.325;-1026.000;-1020.000
259.029;   13.475;  121.000;   -8.000
259.171;  -78.025; -614.000; -550.000
259.313;    9.025;  -49.000;  -47.000
259.454;  -72.850; -536.000; -414.000
259.596;  -57.150; -483.000; -390.000
259.737;  -69.950; -590.000; -474.000
259.879;   27.100;  217.000;  311.000
260.020;   83.725;  901.000;  636.000
260.162;  -28.900; -146.000; -253.000
260.303; -125.025; -768.000; -687.000
260.445;  -79.350; -609.000; -613.000
260.586;   26.475;  392.000;  157.000
260.728;  -38.400; -360.000; -248.000
260.869; -112.300; -350.000; -343.000
261.011;   74.175;  706.000;  537.000
261.152;  -74.300; -479.000; -319.000
261.293;  -71.350; -576.000; -595.000
261.435;  -33.700; -219.000; -184.000
261.576;  -33.250; -455.000; -325.000
261.718;   56.000;  420.000;  470.000
261.859; -119.925; -940.000; -949.000
262.000; -125.600; -951.000;-1016.000
262.142;  -19.450;  -52.000;  -60.000
262.283; -114.200; -808.000; -691.000
262.424;  -88.825; -666.000; -625.000
262.566; -135.975;-1161.000; -983.000
262.707; -113.000; -840.000; -830.000
262.848; -129.325; -769.000; -726.000
262.990;  -44.725; -362.000; -345.000
263.131;   73.575;  650.000;  681.000
263.272;    6.025;  -61.000;  -41.000
263.413; -105.675; -589.000; -561.000
263.555;  -57.850; -669.000; -143.000
263.696;  -88.775; -550.000; -641.000
263.837;  -57.350; -449.000; -551.000
263.978;   -6.750;   -5.000;  -77.000
264.119;  -40.375; -283.000; -264.000
264.261; -104.700; -847.000; -630.000
264.402;    6.275;   33.000;   40.000
264.543;  -81.325; -509.000; -524.000
264.684;  -13.225;   61.000;  -50.000
264.825;  -81.600; -816.000; -538.000
264.966;    2.300;  -84.000;  -67.000
265.107; -115.700; -646.000; -670.000
265.248; -113.375; -825.000; -812.000
265.390;   -1.825;  152.000;   -9.000
265.531;  -20.250; -238.000; -107.000
265.672;  -88.975; -557.000; -630.000
265.813;   64.025;  563.000;  439.000
265.954; -158.500; -959.000; -940.000
266.095;  -17.175; -372.000; -322.000
266.236;  -91.625; -686.000; -548.000
266.377;  -47.075; -243.000; -297.000
266.518;  -64.600; -619.000; -547.000
266.659;   35.850;  170.000;  268.000
266.800;    6.050;   83.000;   85.000
266.941;  -72.250; -487.000; -478.000
267.082;    3.200;  354.000;   99.000
267.223;  -52.025; -344.000; -273.000
267.364;  -96.950; -892.000; -686.000
267.504;  -15.600;    3.000;  135.000
267.645;   -7.000;  160.000;   67.000
267.786;  -34.900; -147.000;  -86.000
267.927;  -66.825; -473.000; -379.000
268.068;  -10.300; -186.000;  -61.000
268.209;  -46.375; -175.000; -413.000
268.350;  -47.350; -388.000; -532.000
268.490;  -94.125; -648.000; -521.000
268.631;   21.175;  127.000;  225.000
268.772; -114.950; -874.000; -647.000
268.913;  -43.475; -328.000; -476.000
269.054;  -24.250; -117.000;   12.000
269.194;  -43.725; -418.000; -402.000
269.335; -159.400;-1137.000;-1074.000
269.476;  -25.650;   33.000;  -35.000
269.617;  -48.675; -347.000; -392.000
269.757;  -85.850; -713.000; -646.000
269.898; -102.275; -856.000; -613.000
270.039;  -53.025; -415.000; -405.000
270.180; -117.900; -952.000; -816.000
270.320;  -22.300; -190.000; -250.000
270.461;  -53.000; -277.000; -249.000
270.602;  -20.525; -186.000; -156.000
270.742; -105.925; -868.000; -943.000
270.883;  -47.525; -442.000; -390.000
271.023;  -55.275; -358.000; -357.000
271.164;  -58.375; -607.000; -528.000
271.305;  -91.975; -666.000; -654.000
271.445;  -85.250; -722.000; -683.000
271.586;  -59.775; -462.000; -283.000
271.726;  -39.125; -397.000; -322.000
271.867;  -43.450; -594.000; -534.000
272.008;  219.575; -473.000; -285.000
272.148;  146.425;  462.000;  468.000
272.289;   21.700; -113.000; -181.000
272.429;   29.025;   19.000;  185.000
272.570;  -80.175; -633.000; -737.000
272.710;  -97.700; -825.000; -775.000
272.851;  -21.375;  113.000; -130.000
272.991; -153.625;-1173.000;-1077.000
273.131;  -83.275; -419.000; -459.000
273.272;  -90.300; -683.000; -723.000
273.412;   26.600; -143.000;  -31.000
273.553;  -60.125; -488.000; -507.000
273.693;  147.050;  913.000;  858.000
273.834;  -72.175; -894.000; -692.000
273.974;  -56.900; -664.000; -615.000
274.114;  -91.100; -772.000; -560.000
274.255;   76.275;  414.000;  373.000
274.395;   15.900; -180.000; -125.000
274.535;   39.650;  199.000;  350.000
274.676;   17.550;  225.000;   94.000
274.816;    3.125;  110.000;   34.000
274.956;  -76.800; -624.000; -690.000
275.097;  -35.975;-1014.000; -922.000
275.237; -104.600; -913.000; -803.000
275.377;  -83.725; -778.000; -689.000
275.517; -139.750; -878.000; -937.000
275.658;  -42.125; -590.000; -555.000
275.798;  -65.650; -606.000; -413.000
275.938;   19.025;  215.000;  323.000
276.078;  -85.950; -626.000; -395.000
276.218;   17.650;   99.000;  104.000
276.359; -113.925;-1026.000;-1024.000
276.499;  -63.050; -605.000; -446.000
276.639;  -26.950; -305.000; -151.000
276.779;  -31.675; -475.000; -357.000
276.919;  -95.875; -783.000; -624.000
277.059;  -21.350; -261.000; -212.000
277.199;  -37.950; -357.000; -259.000
277.340;   53.625;  287.000;  175.000
277.480; -107.700; -840.000; -693.000
277.620;   15.625;  192.000;   16.000
277.760; -196.325;-1533.000;-1294.000
277.900;   31.500;  113.000;   33.000
278.040;   16.000;  137.000;  159.000
278.180;   58.100;  270.000;  170.000
278.320;   -0.475;   21.000;   56.000
278.460;  -75.850; -443.000; -469.000
278.600;  -94.575; -708.000; -598.000
278.740;   44.050;  448.000;  224.000
278.880;   -8.775; -768.000; -791.000
279.020;    5.750; -194.000; -144.000
279.160;  -91.625; -672.000; -595.000
279.300; -113.875; -926.000; -873.000
279.440;  -87.050; -709.000; -622.000
279.579;    8.625;-1014.000; -929.000
279.719;  -35.350; -410.000; -394.000
279.859;   84.725;   -4.000;   41.000
279.999;   37.475; -208.000;  101.000
280.139;   -2.525; -435.000; -387.000
280.279;  -67.525; -708.000; -745.000
280.419;   -9.025; -229.000; -147.000
280.559;  -34.000; -259.000; -180.000
280.698;  -63.650; -790.000; -639.000
280.838;  -82.600; -778.000; -800.000
280.978; -100.625; -846.000; -790.000
281.118; -117.825; -811.000; -704.000
281.257;   15.950;   24.000;    6.000
281.397;  -83.625;-1094.000; -960.000
281.537;  -72.525; -599.000; -712.000
281.677;  -23.725; -150.000; -101.000
281.816;  -90.300; -700.000; -630.000
281.956;  -45.175; -193.000; -257.000
282.096;  -64.800; -539.000; -396.000
282.235;  -92.425; -672.000; -638.000
282.375;  -15.175; -243.000;  -98.000
282.515;  -91.000; -715.000; -707.000
282.654;   38.775;   29.000;  106.000
282.794;   24.475;  388.000;  244.000
282.934;  -37.750; -530.000; -491.000
283.073; -128.350;-1030.000; -857.000
283.213;  -51.050; -460.000; -467.000
283.353;  -16.800; -408.000; -349.000
283.492;  -20.425; -264.000; -296.000
283.632;  -27.875; -254.000; -168.000
283.771;  -91.650; -859.000; -730.000
283.911;  -34.075; -369.000; -260.000
284.050; -105.400; -794.000; -748.000
284.190; -154.175;-1229.000;-1096.000
284.329; -131.425;-1055.000; -964.000
284.469;  -39.900; -516.000; -591.000
284.608;  -49.875; -559.000; -598.000
284.748;  -84.575; -614.000; -570.000
284.887;   -6.450;  -87.000;  -20.000
285.027; -133.700; -844.000; -892.000
285.166;  -14.300; -192.000; -249.000
285.306;   34.025; -116.000;  -33.000
285.445;  -25.275; -229.000; -343.000
285.584;  -91.550; -630.000; -494.000
285.724;  -33.425; -282.000; -322.000
285.863; -112.850; -857.000; -507.000
286.002;  -43.575; -366.000; -276.000
286.142;  -99.975; -715.000; -622.000
286.281;  -73.700; -525.000; -493.000
286.420;  -79.800; -554.000; -417.000
286.560;  100.450;  653.000;  623.000
286.699; -135.125; -958.000; -912.000
286.838;  -67.775; -590.000; -591.000
286.978;  -96.250; -533.000; -537.000
287.117; -130.300;-1085.000; -950.000
287.256;  -43.575; -228.000; -211.000
287.395;  -40.875; -197.000; -378.000
287.535;  -49.750; -370.000; -298.000
287.674;  -70.875; -509.000; -484.000
287.813;   49.400;  661.000;  533.000
287.952; -118.975;-1010.000; -871.000
288.091; -139.225;-1049.000; -915.000
288.231;   34.450;   13.000;   15.000
288.370; -171.775;-1217.000;-1200.000
288.509;  -81.300; -728.000; -645.000
288.648;  -77.900; -770.000; -548.000
288.787;  -25.775; -243.000;  -87.000
288.926;  -54.425; -454.000; -475.000
289.065;  114.450;  859.000;  672.000
289.204;  -45.250; -377.000; -217.000
289.344;  -85.925; -791.000; -690.000
289.483;   39.475;  416.000;  304.000
289.622;  -18.550; -291.000; -149.000
289.761;  -25.975; -309.000; -166.000
289.900; -107.250; -785.000; -626.000
290.039;   -9.800;  -12.000;  -95.000
290.178;  -29.700; -274.000; -180.000
290.317;  -77.850; -618.000; -479.000
290.456;  -62.400; -463.000; -451.000
290.595; -124.200; -961.000; -833.000
290.734; -125.225; -904.000; -891.000
290.873;  -79.475; -456.000; -420.000
291.011; -102.050; -833.000; -843.000
291.150;  -94.850; -770.000; -682.000
291.289;  -13.225; -343.000; -110.000
291.428;  -92.150; -599.000; -480.000
291.567;  -49.900; -370.000; -442.000
291.706;   12.350;  109.000;  154.000
291.845;  -77.825; -597.000; -505.000
291.984; -153.775;-1234.000;-1061.000
292.122;   76.975;  602.000;  582.000
292.261;   45.575;  620.000;  463.000
292.400;   20.175; -144.000;  211.000
292.539; -121.825; -959.000; -813.000
292.678;  -29.175; -325.000; -300.000
292.816; -140.850;-1136.000; -965.000
292.955;  -72.350; -844.000; -684.000
293.094;  -17.100; -173.000; -337.000
293.233;  -48.350; -556.000; -400.000
293.371;  -25.300; -225.000;  -84.000
293.510; -101.825; -866.000; -780.000
293.649; -114.150; -959.000; -924.000
293.787;  -21.000;-1083.000;-1012.000
293.926;    1.475; -113.000;  -32.000
294.065;  -41.325; -379.000; -290.000
294.203;   55.325;  298.000;  406.000
294.342;   35.775;   74.000;  156.000
294.481; 5276.800;51180.000; -836.000
294.619;  -21.875; -425.000; -582.000
294.758; -126.225;-1230.000;-1137.000
294.896;  102.850; -125.000;    5.000
295.035; -108.175;-1040.000;-1006.000
295.174; -101.950;-1082.000; -954.000
295.312;  -32.100; -323.000; -203.000
295.451;    3.175; -307.000; -428.000
295.589;  -45.050; -389.000; -518.000
295.728;   35.925; -292.000; -165.000
295.866;   17.225;  -36.000;  -51.000
296.005;  -40.200; -584.000; -341.000
296.143;  -60.525; -558.000; -596.000
296.282;  -92.925; -957.000; -881.000
296.420;  -70.100; -657.000; -557.000
296.559;  -70.800; -892.000; -633.000
296.697;  101.400; -847.000; -665.000
296.835;  144.075;-1141.000;-1002.000
296.974;   55.700;  -23.000;   39.000
297.112;   38.900; -443.000; -504.000
297.251;  -58.325; -815.000; -755.000
297.389;  154.275; -576.000; -438.000
297.527;   55.675; -145.000;  -83.000
297.666;  -25.725; -486.000; -438.000
297.804;  -53.950; -404.000; -264.000
297.942;   -3.875; -136.000; -161.000
298.081;    4.400; -183.000;   63.000
298.219;  105.700;  -17.000;  -19.000
298.357;   91.700; -144.000;  -71.000
298.495;   84.525; -810.000; -812.000
298.634;  108.750;  245.000;  219.000
298.772;  112.150; -220.000; -338.000
298.910;  -29.000; -309.000; -182.000
299.048;   -6.225; -130.000; -153.000
299.187;  -20.800; -350.000; -250.000
299.325;   24.525;   52.000;  122.000
299.463;  105.200; -389.000; -299.000
299.601;  177.100; -327.000; -271.000
299.739;  -87.475; -908.000; -883.000
299.877;  -61.950; -791.000; -703.000
300.016;  -19.500;-1095.000; -935.000
300.154;  226.175;  -19.000; -161.000
300.292;  102.450; -428.000; -348.000
300.430;   80.300; -408.000; -291.000
300.568;  -89.475; -940.000; -874.000
300.706;  -37.925; -366.000; -469.000
300.844;  -31.925;-1108.000; -979.000
300.982;  143.775;  246.000;  282.000
301.120; -104.725; -965.000; -866.000
301.258;  -49.625; -812.000; -705.000
301.396;   70.525;  104.000;  -41.000
301.534;  164.850; -218.000; -293.000
301.672;   41.450; -664.000; -521.000
301.810;   94.325; -613.000; -545.000
301.948;  164.625;   53.000;  149.000
302.086;  836.750; -250.000;  -32.000
302.224; 1270.950; -610.000; -585.000
302.362;   81.700; -558.000; -622.000
302.500;   32.375; -923.000; -893.000
302.638;  153.325;  128.000;  245.000
302.776;    9.950; -352.000; -408.000
302.913;   45.775;  447.000;  236.000
303.051;   20.800;  -86.000;  -23.000
303.189;   83.875;   90.000;  118.000
303.327;  -24.750; -341.000; -256.000
303.465;  -66.375; -832.000; -588.000
303.603;  -75.300; -805.000; -604.000
303.740;  129.500;  417.000;  241.000
303.878;   74.825; -800.000; -759.000
304.016;  -62.025; -915.000; -790.000
304.154; -111.250;-1123.000;-1152.000
304.291;  -11.375; -505.000; -554.000
304.429;    4.000;  102.000;   74.000
304.567; -107.650; -908.000; -893.000
304.705;  -53.275; -408.000; -515.000
304.842;  134.675; -616.000; -540.000
304.980;   62.625;  215.000;   35.000
305.118;   89.775; -367.000; -365.000
305.255;  -41.425; -945.000; -927.000
305.393;   77.350;  178.000;  239.000
305.531;  -58.975;-1173.000; -956.000
305.668;  -57.900; -663.000; -582.000
305.806;  145.850; -358.000; -439.000
305.943;  168.375; -629.000; -637.000
306.081;   97.525; -378.000; -267.000
306.219;  -92.400; -863.000; -748.000
306.356;    0.975;  158.000;   27.000
306.494;  119.050;  981.000;  761.000
306.631;    9.775;  -11.000;  -55.000
306.769;   37.475; -613.000; -485.000
306.906;    0.250; -284.000; -258.000
307.044;  -51.500; -473.000; -488.000
307.181;  -58.650; -410.000; -332.000
307.319;    9.925;  112.000;   87.000
307.456; -156.975;-1191.000;-1153.000
307.594;  -83.175; -980.000; -727.000
307.731;   -1.450; -371.000; -164.000
307.868;    0.200;  -15.000;   20.000
308.006; -120.425; -961.000; -847.000
308.143;  -46.025; -618.000; -330.000
308.281;  213.750;  -37.000; -254.000
308.418;   31.400; -748.000; -640.000
308.555;  -71.700; -400.000; -250.000
308.693;  -66.100; -577.000; -573.000
308.830; -105.100; -712.000; -657.000
308.967;   -3.125; -215.000;  -95.000
309.105;  -43.475; -507.000; -396.000
309.242;   85.475; -468.000; -367.000
309.379;  474.500; -577.000; -655.000
309.517;  -33.600; -936.000; -948.000
309.654; -103.825; -910.000; -734.000
309.791;  -59.225; -662.000; -580.000
309.928; -101.400; -977.000; -914.000
310.065;  200.250;  819.000;  697.000
310.203;   39.625; -825.000; -850.000
310.340;    7.300; -465.000; -321.000
310.477;  -71.725; -412.000; -516.000
310.614;  -65.700; -383.000; -473.000
310.751;  -73.225; -427.000; -518.000
310.889;  -18.750;    1.000;   11.000
311.026; -130.650;-1161.000; -939.000
311.163;  -37.400; -386.000; -380.000
311.300;  -72.750; -512.000; -479.000
311.437;  -57.750; -658.000; -619.000
311.574; -142.175;-1226.000; -985.000
311.711;  -35.625; -595.000; -433.000
311.848;  -40.950; -380.000; -388.000
311.985;   14.950;  270.000;   93.000
312.122; -103.325; -932.000; -762.000
312.259; -108.650; -941.000; -994.000
312.396;  -74.625; -508.000; -551.000
312.533;  -78.750; -812.000; -790.000
312.670; -117.000;-1070.000; -898.000
312.807;  -27.250; -352.000; -367.000
312.944;  -65.000; -513.000; -611.000
313.081;  -24.350; -150.000; -415.000
313.218;  -97.150;-1111.000; -867.000
313.355;   28.275; -531.000; -449.000
313.492;   42.425; -455.000; -292.000
313.629;  130.900;  815.000;  735.000
313.766; -148.125;-1176.000;-1008.000
313.902;   -8.750; -186.000;   21.000
314.039;  -36.350; -372.000; -289.000
314.176;   22.550;  286.000;  192.000
314.313;  -75.700; -569.000; -473.000
314.450;  -41.025; -788.000; -684.000
314.587;  -44.775; -468.000; -480.000
314.723;   16.300;  -78.000;  130.000
314.860;   41.000;  318.000;  332.000
314.997;   45.100;  223.000;  142.000
315.134;  -27.400; -385.000; -368.000
315.270;   -2.675; -480.000; -496.000
315.407; -123.825;-1094.000; -967.000
315.544;  -27.350; -657.000; -538.000
315.681;  -49.400; -681.000; -565.000
315.817;   62.950; -133.000; -176.000
315.954;   42.800; -613.000; -392.000
316.091; -112.025;-1045.000;-1023.000
316.227;  -13.000;  -71.000; -179.000
316.364;    4.550;   23.000;    6.000
316.500;  -30.525; -113.000; -300.000
316.637;  -26.275; -181.000; -302.000
316.774;  -95.450; -625.000; -358.000
316.910;  -82.950; -598.000; -629.000
317.047;  -69.900; -487.000; -351.000
317.183;  -34.450; -435.000; -566.000
317.320;  -21.100; -367.000; -321.000
317.456;  -72.400; -733.000; -805.000
317.593;  -90.625; -598.000; -641.000
317.729;   20.875;  168.000;  -67.000
317.866; -201.975;-1434.000;-1285.000
318.002;  -76.200; -708.000; -948.000
318.139;  -80.700; -883.000; -867.000
318.275;  -88.750;-1003.000; -738.000
318.412;  -45.625; -517.000; -336.000
318.548;   -2.325; -751.000; -720.000
318.685;  -83.625; -985.000; -888.000
318.821;  -92.050; -762.000; -735.000
318.957;  -14.450;   34.000;  -23.000
319.094;   45.700;  297.000;  154.000
319.230;  -33.200; -756.000; -742.000
319.367;  192.325; -471.000; -520.000
319.503;   77.800; -538.000; -436.000
319.639;  -80.750; -877.000; -793.000
319.775;  -40.550; -750.000; -685.000
319.912;  -32.750; -424.000; -519.000
320.048;  -61.175;-1184.000;-1184.000
320.184;   65.125;   59.000;   70.000
320.321;  -50.650; -497.000; -467.000
320.457;   57.325;  475.000;  662.000
320.593;  -61.275; -375.000; -382.000
320.729;  -90.100; -732.000; -734.000
320.866;  -58.325; -577.000; -635.000
321.002;  -71.550; -759.000; -809.000
321.138;   -7.875; -135.000; -211.000
321.274;   95.250; -148.000; -115.000
321.410;   -8.825; -585.000; -353.000
321.546;   22.000;-1011.000; -911.000
321.683;   45.875;  400.000;  185.000
321.819;   14.750;  -48.000; -117.000
321.955;  -94.475; -743.000; -722.000
322.091;  -35.200; -585.000; -540.000
322.227;   22.600; -382.000; -202.000
322.363;  -12.300; -320.000; -215.000
322.499;  -43.000; -343.000; -331.000
322.635;  199.375;  636.000;  443.000
322.771;   57.675; -139.000;   12.000
322.907;  121.225;  129.000;  327.000
323.043;  -14.225; -115.000; -206.000
323.179;  -13.800; -394.000; -363.000
323.315;   81.150; -401.000; -371.000
323.451;  160.925; -328.000; -236.000
323.587;   83.450;  -60.000;  -77.000
323.723;   53.875; -682.000; -601.000
323.859;    4.400; -258.000;  -76.000
323.995;  -24.550; -467.000; -409.000
324.131; -129.725; -967.000; -892.000
324.267;  -29.850; -254.000; -276.000
324.402; -126.075; -960.000; -983.000
324.538;    3.900; -279.000; -104.000
324.674;   38.125;  164.000;   77.000
324.810;  204.250;  226.000;  308.000
324.946;   53.175; -810.000; -658.000
325.082;  -60.800; -568.000; -475.000
325.217;   -7.000;  -62.000;   16.000
325.353; -101.800; -764.000; -659.000
325.489;  -77.400; -540.000; -506.000
325.625;  -72.650; -579.000; -525.000
325.760;   50.175;  517.000;  376.000
325.896;  -35.350; -515.000; -702.000
326.032;  -50.450; -403.000; -352.000
326.168;  -57.600; -462.000; -369.000
326.303;  -52.025; -352.000; -461.000
326.439;  -24.875; -336.000; -276.000
326.575;   13.450; -190.000;  -29.000
326.710;   -2.200; -156.000;  -30.000
326.846;  -20.275;  146.000;  103.000
326.982;  -77.575; -530.000; -548.000
327.117;  -75.000; -481.000; -442.000
327.253;  -70.275; -745.000; -742.000
327.388; -119.125;-1137.000;-1153.000
327.524;  -11.600; -811.000; -578.000
327.659;  -31.325;  -58.000;  -22.000
327.795;   -9.650;   69.000;   45.000
327.931;  -98.975; -723.000; -499.000
328.066;  -12.850; -417.000; -276.000
328.202;    0.550;   12.000; -129.000
328.337;  103.450;  957.000;  713.000
328.473;   55.000;  -12.000;  -74.000
328.608;   -8.975; -256.000; -267.000
328.743;  -72.825; -799.000; -664.000
328.879;   23.675;  214.000;  114.000
329.014;  -19.300; -102.000; -122.000
329.150;  -76.550; -358.000; -483.000
329.285;  -56.325; -465.000; -466.000
329.421;  -48.150; -548.000; -246.000
329.556;  -39.050;  -36.000;   85.000
329.691;  -92.500; -633.000; -615.000
329.827;  -75.200; -626.000; -480.000
329.962;  -31.150;  131.000; -301.000
330.097;  -98.250; -673.000; -585.000
330.233;  -38.125; -410.000; -223.000
330.368; -125.700; -839.000; -628.000
330.503;  -11.675;    3.000;   98.000
330.638;   13.150;  -93.000; -125.000
330.774;  -21.450; -609.000; -530.000
330.909;  -33.825; -434.000; -244.000
331.044;  -67.650; -714.000; -708.000
331.179; -165.200;-1217.000;-1109.000
331.315;   17.600;   77.000;   20.000
331.450;   31.050;  157.000;  285.000
331.585;  -55.050; -805.000; -706.000
331.720;  -81.225; -510.000; -460.000
331.855;  -14.050;  -35.000; -102.000
331.990;  195.575;   62.000;  138.000
332.126;   89.700; -110.000;   71.000
332.261;   -7.900; -379.000; -265.000
332.396;   -4.325; -135.000; -242.000
332.531; -112.550;-1074.000;-1031.000
332.666;   16.900; -519.000; -363.000
332.801;  -93.850; -726.000; -807.000
332.936;  -13.025; -192.000; -122.000
333.071; -146.850; -870.000; -817.000
333.206;   19.350;  307.000;  379.000
333.341;   31.350;  344.000;  418.000
333.476;  -80.900; -627.000; -623.000
333.611;  -18.575; -251.000; -173.000
333.746;  -29.725; -381.000; -464.000
333.881; -107.150; -973.000; -935.000
334.016; -114.925; -936.000; -917.000
334.151; -120.850; -746.000; -702.000
334.286;   40.700;  152.000;  186.000
334.421;   -2.700; -125.000; -178.000
334.556;  -64.475; -611.000; -567.000
334.690;  -72.925; -631.000; -577.000
334.825;   63.875;  381.000;   83.000
334.960;  -42.825; -285.000; -413.000
335.095;   16.000;  135.000;  -91.000
335.230;  -84.400; -722.000; -738.000
335.365; -116.075;-1084.000; -990.000
335.499;  -97.550;-1108.000;-1037.000
335.634;   42.825;    9.000;  534.000
335.769;  -76.225; -755.000; -720.000
335.904;  -30.550; -603.000; -561.000
336.038;  -26.150; -735.000; -657.000
336.173;  -76.975;-1206.000;-1194.000
336.308;   18.875; -116.000; -189.000
336.443;   10.575; -544.000; -634.000
336.577;  -43.025; -936.000; -787.000
336.712;   93.800;   -4.000;  -12.000
336.847;  -12.000; -724.000; -607.000
336.981;  131.875; -272.000; -208.000
337.116;  361.975;  615.000;  501.000
337.250;  234.375; -434.000; -421.000
337.385;  201.275; -297.000; -208.000
337.520;   55.850; -632.000; -603.000
337.654;  -32.325; -215.000; -126.000
337.789; -109.150; -989.000; -933.000
337.923;  -20.150; -104.000; -205.000
338.058;  -61.300; -673.000; -738.000
338.192;   -4.875; -611.000; -488.000
338.327;   -3.425;  -18.000; -155.000
338.461;  -57.800; -299.000; -469.000
338.596;  -94.900; -780.000; -638.000
338.730;  -84.550; -767.000; -803.000
338.865;   62.725;  -46.000; -140.000
338.999;  -61.425; -846.000; -702.000
339.134;  -22.575; -634.000; -536.000
339.268;   22.025; -741.000; -603.000
339.403;  326.500; -740.000; -775.000
339.537;   57.700; -894.000; -820.000
339.671; -106.400; -829.000; -813.000
339.806;  -83.875; -556.000; -512.000
339.940;   18.825; -261.000; -235.000
340.074;  -81.225; -685.000; -510.000
340.209;  -27.600; -351.000; -230.000
340.343;  -79.200; -517.000; -573.000
340.477;  160.050;  998.000; 1036.000
340.612;  -70.450;-1033.000; -900.000
340.746;  116.400; -199.000; -243.000
340.880;  -37.800; -924.000; -785.000
341.014;  -12.350;  -45.000; -154.000
341.149; -104.325; -756.000; -718.000
341.283;  -80.850; -839.000; -754.000
341.417;  -64.700;-1124.000; -938.000
341.551;  248.150; -768.000; -708.000
341.685;  -21.325; -633.000; -611.000
341.820;  -43.800; -562.000; -493.000
341.954;  -49.575; -218.000; -349.000
342.088; -151.700;-1102.000;-1019.000
342.222;   56.400;  565.000;  618.000
342.356;  -46.550; -395.000; -335.000
342.490;  -81.725; -880.000; -841.000
342.624;  -22.600; -339.000; -242.000
342.758;   26.875; -364.000; -312.000
342.892;  -46.150; -710.000; -585.000
343.026;  -26.275;  -58.000; -116.000
343.160;  -47.700; -426.000; -376.000
343.294;  -76.125; -474.000; -337.000
343.428;   10.550; -488.000; -448.000
343.562;   -3.700; -172.000;  -23.000
343.696;    4.425; -385.000; -314.000
343.830;    3.850; -362.000; -356.000
343.964;   26.825; -231.000; -168.000
344.098; 1247.875;  199.000;   70.000
344.232; 1039.925; -266.000; -127.000
344.366;  132.500; -567.000; -453.000
344.500;  140.450; -665.000; -744.000
344.634;   70.575; -324.000; -164.000
344.768;   28.025; -531.000; -341.000
344.902;   42.725;  278.000;  256.000
345.035;  -68.850; -556.000; -496.000
345.169; -115.600; -933.000; -656.000
345.303;    0.100; -308.000; -482.000
345.437;  -38.725; -826.000; -717.000
345.571;  -80.925; -675.000; -594.000
345.704;  -51.575; -309.000; -532.000
345.838;    5.400; -331.000; -284.000
345.972;  -22.525; -543.000; -495.000
346.106;  140.700; -179.000; -190.000
346.239;  462.175; -312.000; -243.000
346.373;   38.700; -343.000; -302.000
346.507; -138.900; -950.000; -962.000
346.640;  218.575;  -30.000;   13.000
346.774;  -11.950; -650.000; -797.000
346.908;   -3.500; -138.000;  -11.000
347.041;  -93.200; -646.000; -593.000
347.175;    4.550;  259.000;   27.000
347.309;  -48.025; -698.000; -628.000
347.442;  -77.800; -883.000; -732.000
347.576;  365.000;  670.000;  668.000
347.709;  288.450; -123.000;  -52.000
347.843;  -56.275; -933.000; -825.000
347.976;   46.000;  235.000;  294.000
348.110; -170.825;-1268.000;-1186.000
348.243;  -95.400; -679.000; -772.000
348.377;    9.675;  -26.000;   60.000
348.510;   57.550;  403.000;  540.000
348.644;  -27.525;  -37.000; -159.000
348.777;    4.950;  180.000;  191.000
348.911;  -48.200; -142.000; -112.000
349.044;  210.250;  471.000;  448.000
349.178;  277.875;-1069.000;-1006.000
349.311;  136.600;  141.000;  255.000
349.444;   -5.000; -927.000; -813.000
349.578;    0.975; -347.000; -200.000
349.711;  -78.050; -959.000; -862.000
349.845;   30.975; -661.000; -591.000
349.978; -135.975;-1224.000;-1137.000
350.111;  -69.575; -546.000; -612.000
350.244;  -60.525; -596.000; -700.000
350.378;   38.475; -392.000; -393.000
350.511;  -54.250; -393.000; -426.000
350.644;  -87.650; -808.000; -806.000
350.778;   16.975;  168.000;  104.000
350.911;    4.925;  134.000;  140.000
351.044;  -80.325; -685.000; -615.000
351.177;  -14.250; -321.000; -281.000
351.310;  -15.425;    3.000; -131.000
351.444;  -49.950; -888.000; -788.000
351.577;  166.075;  140.000;   90.000
351.710;  100.600;  593.000;  417.000
351.843;  -27.050; -165.000;  -77.000
351.976;   -0.500;  149.000;  -79.000
352.109;  -67.625; -621.000; -612.000
352.242;   11.325; -464.000; -419.000
352.376;  -23.700; -580.000; -636.000
352.509;  291.675; -437.000; -356.000
352.642;   79.500; -654.000; -604.000
352.775;  106.550; -141.000;  -98.000
352.908;  -96.250; -933.000; -904.000
353.041;  -98.550; -814.000; -824.000
353.174;  -34.500; -551.000; -424.000
353.307;  -58.275; -753.000; -764.000
353.440;   88.425;  541.000;  453.000
353.573; -106.950; -957.000;-1008.000
353.706;  -30.750; -384.000; -558.000
353.839;   -8.050; -264.000; -220.000
353.971;  -95.025; -657.000; -512.000
354.104;  -59.050; -896.000; -835.000
354.237;  -11.550; -627.000; -662.000
354.370;  -68.100; -846.000; -879.000
354.503; -163.825;-1231.000;-1308.000
354.636;  -21.900; -529.000; -348.000
354.769; -124.900; -937.000; -860.000
354.902;   16.900; -230.000; -139.000
355.034;   10.025; -164.000; -220.000
355.167;   -5.350; -262.000; -162.000
355.300;  -69.850;-1061.000; -880.000
355.433;  846.075;  -71.000;  -14.000
355.565; 1319.275; -402.000; -384.000
355.698;  324.025; -356.000; -296.000
355.831;   35.375; -882.000; -801.000
355.964;  146.075; -285.000; -170.000
356.096;  -74.450; -856.000; -843.000
356.229;   50.950; -523.000; -530.000
356.362;  273.025; -373.000; -266.000
356.494;  516.225; -229.000; -162.000
356.627;  614.925;  269.000;  377.000
356.760;  634.250;  120.000;   53.000
356.892;  803.275; -286.000; -601.000
357.025;  857.575;  403.000;  389.000
357.157;  863.050; -167.000; -179.000
357.290;  523.600; -856.000; -713.000
357.423;  185.525; -667.000; -556.000
357.555;  169.075; -217.000; -228.000
357.688;  174.850; -483.000; -364.000
357.820;  604.450; -870.000; -877.000
357.953; 4547.575; -563.000; -589.000
358.085; 1126.225; -632.000; -612.000
358.218; 1833.700;-1131.000; -932.000
358.350;  335.075;  -58.000;  312.000
358.483;  -85.525;-1300.000;-1187.000
358.615;   55.600;-1182.000;-1078.000
358.747;    7.750;-1187.000;-1058.000
358.880;   99.375; -810.000; -744.000
359.012;   15.775; -376.000; -202.000
359.145;  -19.000; -480.000; -511.000
359.277;  130.050; -962.000; -913.000
359.409; 3770.600;  536.000;  231.000
359.542; 1066.625; -738.000; -688.000
359.674;   94.450;   46.000;   13.000
359.806;  -59.650; -565.000; -438.000
359.939;  -45.125; -617.000; -516.000
360.071;  -23.700; -583.000; -579.000
360.203;   -0.900; -411.000; -364.000
360.335;   62.550;  164.000;  -16.000
360.468;  254.450; -249.000; -307.000
360.600; 2908.650; -547.000; -454.000
360.732; 2412.900; -546.000; -423.000
360.864;  357.250;-1216.000;-1044.000
360.996;  437.050; -516.000; -554.000
361.129;  104.300; -389.000; -598.000
361.261;   23.675;  110.000; -113.000
361.393;  -13.550; -252.000; -214.000
361.525;   35.875;   94.000;  244.000
361.657;   -9.225; -821.000; -703.000
361.789;   36.925; -139.000; -155.000
361.921;  386.925; -642.000; -593.000
362.053;  372.575;  524.000;  541.000
362.185;   81.925;  288.000;   72.000
362.318;  -58.650; -709.000; -705.000
362.450;  202.825;  294.000;  444.000
362.582;  297.875; -913.000; -870.000
362.714;  -11.900; -353.000; -332.000
362.846;  -74.125; -606.000; -490.000
362.978; -121.400; -941.000; -811.000
363.109;   94.175; -161.000; -260.000
363.241;  647.025; -739.000; -749.000
363.373;  395.525; -649.000; -564.000
363.505;  534.850; -186.000;  -91.000
363.637;  148.025; -787.000; -601.000
363.769; -106.950;-1067.000;-1080.000
363.901;  -52.225; -596.000; -654.000
364.033;  -90.150;-1103.000;-1062.000
364.165;   20.650; -283.000; -283.000
364.296;   73.200; -316.000; -177.000
364.428;   52.350;-1344.000;-1220.000
364.560;  -66.100; -679.000; -661.000
364.692;  -50.550; -738.000; -835.000
364.824;  445.750; -588.000; -456.000
364.955;  463.025; -402.000; -564.000
365.087;  677.100;-1097.000; -852.000
365.219;   39.400; -686.000; -816.000
365.351;  -72.050; -526.000; -572.000
365.482;   71.175;  300.000;  240.000
365.614;  -47.100; -402.000; -314.000
365.746;  -76.525; -729.000; -752.000
365.877;  -98.725; -706.000; -672.000
366.009;  220.000;  -35.000;  -62.000
366.141;  -94.900;-1249.000;-1134.000
366.272; -100.700; -803.000; -719.000
366.404; -106.625;-1005.000; -874.000
366.535;   -8.225; -139.000;  -12.000
366.667;  -87.575; -644.000; -649.000
366.799;   45.250;  353.000;  203.000
366.930;  -90.975; -862.000; -996.000
367.062;  122.375; -639.000; -613.000
367.193;  113.125; -872.000; -842.000
367.325;  -57.275; -580.000; -684.000
367.456;  121.650; -246.000;   31.000
367.588;  158.425; -371.000; -318.000
367.719;   40.350;  -44.000;  -45.000
367.851;   17.950; -222.000; -241.000
367.982;   -0.800; -875.000; -732.000
368.113;  187.925; -475.000; -358.000
368.245; -102.125; -960.000; -841.000
368.376;   11.000; -254.000; -302.000
368.508;  -12.350; -188.000; -263.000
368.639; -111.400;-1166.000;-1034.000
368.770;    6.750; -670.000; -589.000
368.902;   -9.375; -836.000; -926.000
369.033;  -90.375; -906.000; -855.000
369.164;  -50.650; -720.000; -653.000
369.296;  -99.425; -452.000; -601.000
369.427;   28.800; -209.000; -144.000
369.558;  -32.775; -593.000; -377.000
369.689;  -83.250; -721.000; -569.000
369.821; -125.250; -951.000; -845.000
369.952;   -1.825;   42.000; -108.000
370.083;  -40.725; -229.000; -108.000
370.214;  -83.075; -735.000; -650.000
370.345;    4.775;   65.000;   81.000
370.477;  -51.175; -810.000; -790.000
370.608;  363.025; -328.000; -264.000
370.739;   13.575;-1233.000;-1292.000
370.870;    8.675;-1102.000; -923.000
371.001;  169.200; -378.000; -467.000
371.132;  -56.675; -754.000; -735.000
371.263;   -5.075;  -42.000; -148.000
371.394; -128.275; -841.000; -748.000
371.525;   46.600;  345.000;  225.000
371.657;  -76.950; -808.000; -670.000
371.788;  112.300;  103.000;  199.000
371.919;  263.025; -384.000; -304.000
372.050; 4844.025;  -91.000; -156.000
372.181; 1529.900; -188.000; -294.000
372.311;  538.350;   42.000; -127.000
372.442;   98.375; -457.000; -451.000
372.573;   -0.900; -444.000; -340.000
372.704; -111.800;-1008.000; -980.000
372.835;  133.025; -228.000; -289.000
372.966;  -36.025; -646.000; -554.000
373.097;  -24.150; -575.000; -711.000
373.228;  -20.500; -717.000; -542.000
373.359;  245.225; -824.000; -536.000
373.490; 1333.550; -881.000; -727.000
373.620; 1692.575;-1001.000; -803.000
373.751; 2513.200; -332.000; -396.000
373.882; 1200.100; -663.000; -733.000
374.013;  142.050; -449.000; -262.000
374.143;  -11.175; -581.000; -659.000
374.274;  -77.375; -987.000; -908.000
374.405;  252.400; -388.000; -276.000
374.536;  661.875; -526.000; -387.000
374.666; 1637.300; -759.000; -807.000
374.797;  388.425; -817.000; -868.000
374.928; 1283.850; -710.000; -560.000
375.058; 1316.400; -535.000; -500.000
375.189;  134.650;  -59.000;  -93.000
375.320;  -82.550; -928.000;-1034.000
375.450;  -16.825; -625.000; -616.000
375.581;  -30.750; -526.000; -436.000
375.712;  -24.575; -574.000; -250.000
375.842;  449.225; -438.000; -415.000
375.973;  361.075; -554.000; -513.000
376.103;   16.025; -665.000; -648.000
376.234;  -54.225; -531.000; -552.000
376.364;   16.250; -944.000; -867.000
376.495;  414.750;  925.000;  529.000
376.625;   56.775; -472.000; -485.000
376.756;  148.025; -709.000; -678.000
376.886;  -29.175;-1178.000;-1026.000
377.017;   15.150;-1048.000;-1061.000
377.147;  265.475; -786.000; -782.000
377.278;   57.825;  174.000;  228.000
377.408; -114.300; -801.000; -815.000
377.538;  -95.450; -707.000; -693.000
377.669;  -73.625; -537.000; -613.000
377.799;  -69.100; -645.000; -635.000
377.929;  -30.550; -610.000; -428.000
378.060; -116.950; -781.000; -847.000
378.190;  -47.400; -726.000; -531.000
378.320;  -27.850; -401.000; -406.000
378.451;    6.850; -131.000;  -22.000
378.581;   21.100;  -67.000; -110.000
378.711;  216.600; 1035.000;  866.000
378.841;    9.100; -533.000; -675.000
378.972;  -22.500; -871.000; -751.000
379.102;   51.925; -652.000; -579.000
379.232;    8.625; -126.000;  -73.000
379.362;  -73.100;-1001.000; -885.000
379.492;   57.050; -373.000; -424.000
379.623;  159.400;    0.000;  111.000
379.753;  -60.375;-1107.000; -974.000
379.883;  262.500;   59.000;  156.000
380.013;   70.150;-1081.000;-1017.000
380.143;  -66.675;-1097.000;-1056.000
380.273;  -80.450; -985.000; -861.000
380.403;   14.400; -344.000; -257.000
380.533;    8.900; -651.000; -664.000
380.663;  108.325;  173.000;  128.000
380.793;  -52.500;-1027.000;-1074.000
380.923;   -9.750; -103.000;  -34.000
381.053;  -76.250; -613.000; -623.000
381.183;  -15.975; -106.000; -248.000
381.313;   74.100; -656.000; -470.000
381.443;  109.075; -692.000; -473.000
381.573;  330.200; -402.000; -409.000
381.703;  531.125;-1249.000;-1095.000
381.833;  -70.150;-1454.000;-1336.000
381.963;  156.600; -134.000;  -87.000
382.093; 1835.325; -925.000; -909.000
382.223;  642.375; -713.000; -602.000
382.353;   39.725; -801.000; -608.000
382.482;  620.050;-1091.000; -964.000
382.612; 1059.325; -872.000; -644.000
382.742;  631.675; -695.000; -622.000
382.872;  440.850; -565.000; -551.000
383.002;  115.525;  347.000; -132.000
383.131;   -0.350; -226.000; -160.000
383.261;  -17.875; -706.000; -768.000
383.391;  297.525; -552.000; -377.000
383.521; 2561.150;  451.000;  263.000
383.650;  587.400; -947.000; -904.000
383.780;  -13.475; -783.000; -656.000
383.910;  115.625;  880.000;  802.000
384.039;   86.550; -794.000; -656.000
384.169;  391.850;-1205.000;-1017.000
384.299;   35.600; -650.000; -662.000
384.428;  -58.375; -764.000; -680.000
384.558;  -16.950; -308.000; -275.000
384.687;  -11.425; -414.000; -334.000
384.817;   36.475;   75.000;   -2.000
384.947;   51.850; -234.000; -141.000
385.076;  375.200;  982.000;  912.000
385.206;  127.075;  369.000;  480.000
385.335;   -1.450; -549.000; -417.000
385.465;  -50.150; -655.000; -663.000
385.594;  205.075;  -53.000;  -44.000
385.724;  696.000; -868.000; -838.000
385.853;  197.725; -296.000; -270.000
385.982; 1897.025; -743.000; -787.000
386.112; 3078.650;-1052.000; -871.000
386.241;  236.750; -307.000; -312.000
386.371;   46.625; -174.000;  -87.000
386.500;   36.425; -825.000; -789.000
386.629;   70.475; -874.000; -817.000
386.759;   81.125;  -43.000;   68.000
386.888;   48.875; -170.000; -250.000
387.017;  -52.025; -648.000; -620.000
387.147;  -49.950; -771.000; -798.000
387.276;   28.175; -410.000; -397.000
387.405;   48.175; -398.000; -342.000
387.535;   -8.075; -452.000; -361.000
387.664;  -43.325; -692.000; -620.000
387.793;  103.850; -198.000; -113.000
387.922;  740.750;  255.000;  200.000
388.052;   95.850; -576.000; -423.000
388.181;   73.225; -342.000; -472.000
388.310;   88.250; -889.000; -710.000
388.439;   14.325; -749.000; -742.000
388.568;  269.600;  365.000;  244.000
388.697; 1540.350; -756.000; -653.000
388.826;  376.400; -768.000; -666.000
388.956;  109.975; -285.000; -307.000
389.085;   -0.775; -347.000; -287.000
389.214;  -91.275; -842.000; -872.000
389.343;  -40.925; -645.000; -413.000
389.472;  343.200;  126.000;  149.000
389.601;  528.000;   91.000;    0.000
389.730;   62.275; -568.000; -687.000
389.859;  103.200;  226.000;   46.000
389.988;  284.950; -423.000; -408.000
390.117;  243.650; -168.000; -146.000
390.246;   34.825; -331.000; -320.000
390.375;  217.775; -673.000; -626.000
390.504;  -29.025; -703.000; -621.000
390.633;  -78.525; -672.000; -726.000
390.761;  -27.800; -732.000; -645.000
390.890;   58.175;   -4.000; -130.000
391.019;   17.350; -421.000; -441.000
391.148; -119.650; -826.000; -855.000
391.277;  -35.250; -576.000; -493.000
391.406;  -42.275; -821.000; -805.000
391.534;   29.825;  574.000; -301.000
391.663;  -36.825; -583.000; -645.000
391.792;  -53.250; -673.000; -701.000
391.921;  182.925;   -3.000;   15.000
392.050;  335.050; -287.000; -228.000
392.178;   35.050;-1206.000;-1061.000
392.307;  271.650; -758.000; -712.000
392.436;  153.475; -427.000; -641.000
392.564;   40.625;  166.000;   -6.000
392.693;  -75.250; -860.000; -682.000
392.822;  338.625; -529.000; -534.000
392.950;  206.875; -880.000; -714.000
393.079;  491.750; -188.000; -328.000
393.208;   78.425; -488.000; -511.000
393.336;   -5.700; -170.000; -145.000
393.465;  -50.700; -317.000; -199.000
393.593;   13.150;   62.000;   79.000
393.722; -130.150;-1121.000; -916.000
393.850;  -18.100; -188.000;  -61.000
393.979; -151.000; -926.000; -805.000
394.107;  -69.050; -517.000; -537.000
394.236;   -8.875; -570.000; -507.000
394.364;  294.450;  383.000;  206.000
394.493;  536.275; -911.000; -767.000
394.621;    9.750; -955.000; -916.000
394.750;  587.500; -873.000; -923.000
394.878; 2489.850; -247.000; -149.000
395.007; 3474.250; -721.000; -807.000
395.135;  289.700; -790.000; -721.000
395.263;  -95.725;-1038.000;-1040.000
395.392;   12.800;  -25.000; -107.000
395.520; -129.750; -818.000; -679.000
395.648;  -49.575; -865.000; -915.000
395.777;   16.200; -366.000; -405.000
395.905;  -38.475; -449.000; -564.000
396.033;   31.850;  217.000;  172.000
396.162;  805.500; -399.000; -453.000
396.290;  755.000;  -17.000;   -2.000
396.418;  196.950; -555.000; -514.000
396.546;  -28.300; -571.000; -466.000
396.674;  -77.725; -850.000; -878.000
396.803;   33.750;  -72.000;  -23.000
396.931;  155.375; -179.000; -199.000
397.059;  170.875;-1026.000; -989.000
397.187;  -80.625;-1026.000; -975.000
397.315; -116.925; -884.000; -649.000
397.443;  -86.100; -592.000; -443.000
397.572;  -92.700; -578.000; -424.000
397.700;   33.650; -607.000; -614.000
397.828;   38.800;  120.000;  -90.000
397.956;  -37.275; -508.000; -478.000
398.084;  -69.725; -767.000; -626.000
398.212;   61.325;  137.000;  124.000
398.340;   34.650;  -56.000;  159.000
398.468;   87.825; -390.000; -169.000
398.596; -116.450; -993.000; -953.000
398.724;  -99.200; -762.000; -767.000
398.852; -163.625;-1024.000; -976.000
398.980;  -41.275; -560.000; -560.000
399.108;  -12.875; -982.000; -735.000
399.236;   75.575;   13.000;    8.000
399.363;   27.850;  222.000;  196.000
399.491;  -64.350; -404.000; -398.000
399.619; -116.650; -829.000; -800.000
399.747;  -76.300; -859.000; -771.000
399.875;   95.250;  220.000;  234.000
400.003;  -30.850; -359.000; -284.000
400.130;  -93.350; -421.000; -341.000
400.258;  -26.200;  -83.000;   38.000
400.386;  -61.075; -352.000; -168.000
400.514;    3.750; -526.000; -587.000
400.641;  -50.000; -928.000; -802.000
400.769; -125.400; -979.000; -888.000
400.897;  -89.025; -838.000; -793.000
401.025;   -2.850; -166.000; -152.000
401.152;   11.475;  220.000;   38.000
401.280;  -74.825; -430.000; -429.000
401.408; -113.075; -712.000; -576.000
401.535;  -80.425; -735.000; -758.000
401.663; -190.600;-1134.000;-1054.000
401.790;  -75.300; -514.000; -525.000
401.918;   48.325;  436.000;  405.000
402.046;   -8.225;  134.000;  122.000
402.173;  -32.625;  -18.000;    7.000
402.301;  -56.100; -519.000; -397.000
402.428;   25.425;  528.000;  383.000
402.556; -127.825;-1188.000; -913.000
402.683;  -14.350;  -20.000;   -1.000
402.811;  -11.525;  -37.000; -206.000
402.938;   -7.700;   20.000;   27.000
403.066;  308.025; -574.000; -558.000
403.193;  494.525;  299.000;  239.000
403.321;  387.525; -396.000; -574.000
403.448;  473.700;   83.000;   27.000
403.575;  228.700;  -90.000;  -46.000
403.703;  -74.925; -732.000; -557.000
403.830;  -53.275; -531.000; -496.000
403.957; -129.375;-1117.000;-1023.000
404.085;   14.175;  -61.000; -172.000
404.212;  109.225;  -50.000;   63.000
404.339;  221.125; -566.000; -306.000
404.467; 4851.425; -612.000; -524.000
404.594; 3808.700; -287.000; -227.000
404.721; 1128.900; -869.000; -764.000
404.848;  118.700; -113.000; -202.000
404.976;  -79.525; -856.000; -783.000
405.103;   -8.800;  -14.000;  -82.000
405.230;   -1.900;  190.000;  226.000
405.357;   37.725;  117.000;   44.000
405.484;  225.050;  -49.000;    5.000
405.612;   55.575; -548.000; -563.000
405.739;  -63.025; -488.000; -243.000
405.866;   95.400;  669.000;  385.000
405.993;  -18.800; -398.000; -102.000
406.120; -127.150; -801.000; -887.000
406.247;  -49.125; -323.000; -342.000
406.374;  628.900;  540.000;  629.000
406.501;  251.250; -632.000; -702.000
406.628;  -55.550; -621.000; -589.000
406.755;  -76.025; -803.000; -620.000
406.882;  -34.575; -228.000; -277.000
407.009;  -97.050; -719.000; -628.000
407.136;   95.775; -480.000; -401.000
407.263;  296.350; -939.000; -829.000
407.390;  -52.900; -692.000; -614.000
407.517; -135.775;-1139.000;-1187.000
407.644;  -52.650; -332.000; -256.000
407.771;  -71.625; -249.000; -287.000
407.898;   14.025;  168.000;  328.000
408.025;  -52.150; -421.000; -313.000
408.151;   -0.025;   82.000;  153.000
408.278;  -72.950; -267.000; -216.000
408.405;  -99.200; -931.000; -899.000
408.532;  -53.500; -549.000; -542.000
408.659; -109.575; -677.000; -648.000
408.785; -196.225;-1298.000;-1170.000
408.912;  -58.600; -412.000; -296.000
409.039; -110.625; -610.000; -686.000
409.166; -101.375; -591.000; -555.000
409.292;  -92.600; -571.000; -534.000
409.419; -120.900; -665.000; -649.000
409.546;  -95.775; -431.000; -192.000
409.672; -100.000; -713.000; -545.000
409.799;  -14.500;  -36.000;   34.000
409.926;  -36.575; -180.000; -179.000
410.052; -159.825;-1127.000;-1091.000
410.179;  -42.875; -368.000; -392.000
410.305;  -78.300; -375.000; -493.000
410.432;  -32.125; -220.000; -333.000
410.558;  -90.575; -305.000; -380.000
410.685; -106.525; -688.000; -431.000
410.812;  -78.750; -409.000; -588.000
410.938; -123.725; -964.000; -808.000
411.065;  -97.175; -671.000; -645.000
411.191;  -13.525; -189.000; -174.000
411.317; -103.675; -823.000; -742.000
411.444;  -48.150; -317.000; -246.000
411.570;  -66.025; -339.000; -294.000
411.697; -116.425; -758.000; -752.000
411.823; -172.950; -989.000; -999.000
411.949;  -19.775;  -56.000;   17.000
412.076; -110.800; -539.000; -519.000
412.202; -112.600; -758.000; -757.000
412.329; -115.650; -798.000; -752.000
412.455;  -88.625; -821.000; -657.000
412.581;  -16.400;  -15.000;  172.000
412.707;  -39.175; -540.000; -457.000
412.834;   20.825;  156.000;  219.000
412.960;  -72.800; -785.000; -784.000
413.086; -112.175; -743.000; -701.000
413.212;  192.825;  604.000;  578.000
413.339;  -36.150; -685.000; -701.000
413.465;   38.000; -364.000; -310.000
413.591;  -66.675; -757.000; -474.000
413.717;  -38.625; -358.000; -366.000
413.843; -124.250; -839.000; -861.000
413.969;  -44.350;  -47.000; -292.000
414.096;  -95.400; -679.000; -679.000
414.222;    4.650;  -33.000;   85.000
414.348;   21.150; -652.000; -385.000
414.474;  158.325;   38.000;  -52.000
414.600;   -3.400; -126.000; -144.000
414.726;  -14.925;  -96.000;  -55.000
414.852;  -45.525; -365.000; -342.000
414.978;   36.825;  104.000;  -18.000
415.104;   38.875;   38.000;   80.000
415.230;   25.850; -329.000; -330.000
415.356;   52.700; -409.000; -514.000
415.482;  219.650;   13.000;  -35.000
415.608;  253.100; -247.000; -323.000
415.734;  896.875;   67.000;   38.000
415.860;17756.700; -875.000; -767.000
415.986;13861.625; -685.000; -607.000
416.111; 1215.650; -798.000; -652.000
416.237;  236.800; -424.000; -571.000
416.363;  882.850; -765.000; -733.000
416.489; 3603.100; -324.000; -251.000
416.615;  398.850; -707.000; -742.000
416.741;  -19.550; -677.000; -784.000
416.866;  -98.825; -673.000; -736.000
416.992; -118.425; -801.000; -818.000
417.118;  -24.750;  -41.000;  -80.000
417.244;  -45.650; -798.000; -531.000
417.369;  -71.300; -801.000; -612.000
417.495;   14.600; -325.000; -254.000
417.621;  -50.050;-1015.000; -803.000
417.746;   21.600; -579.000; -572.000
417.872;   38.000; -254.000; -144.000
417.998;   37.250; -515.000; -530.000
418.123;  834.125;-1073.000; -845.000
418.249; 4731.350; -512.000; -601.000
418.374;  688.300; -916.000; -824.000
418.500;   94.200; -383.000; -482.000
418.626;   93.750;   70.000;  -59.000
418.751;  125.800; -549.000; -448.000
418.877;  183.325; -637.000; -643.000
419.002; 1468.225; -688.000; -560.000
419.128;10805.525; -930.000; -721.000
419.253; 2812.125; -967.000; -837.000
419.379;  362.300; -391.000; -338.000
419.504;  329.275;  325.000;  415.000
419.629;  418.425; -393.000; -212.000
419.755; 2776.050; -317.000; -254.000
419.880;17118.050;  -98.000;   67.000
420.006; 9706.500; -280.000; -221.000
420.131;26436.075; -662.000; -775.000
420.256; 4126.475; -315.000; -316.000
420.382;  538.950; -665.000; -687.000
420.507;   75.125; -649.000; -778.000
420.632;  194.250; -337.000; -339.000
420.758;  416.425; -251.000; -425.000
420.883;  -49.425; -876.000; -672.000
421.008;  -95.775; -775.000; -619.000
421.133;  -69.350; -509.000; -467.000
421.259;  -26.450; -325.000; -259.000
421.384; -106.600; -834.000; -693.000
421.509;    7.175;-1052.000; -862.000
421.634; 1787.575; -936.000; -820.000
421.759;  861.750; -359.000; -327.000
421.885;   -5.375; -717.000; -656.000
422.010;  -47.525; -673.000; -542.000
422.135; -142.775; -695.000; -727.000
422.260;   33.025;  340.000;  280.000
422.385;  -29.100;   12.000;  -98.000
422.510;   12.775;  151.000;  -26.000
422.635;   47.075;  -87.000;  -43.000
422.760;  159.750; -766.000; -791.000
422.885;   80.125;  -57.000;  -80.000
423.010;  -18.450; -112.000; -169.000
423.135;  -91.350; -481.000; -561.000
423.260;   19.475; -150.000; -245.000
423.385;   96.025;  476.000;  222.000
423.510;   43.450;   71.000;  -22.000
423.635;  115.900;  133.000;   45.000
423.760;   74.600;  383.000;  328.000
423.885;   58.875;  336.000;  391.000
424.010;   26.200;  -68.000;  -13.000
424.135;  -16.425;    5.000;  -33.000
424.259;  -88.200; -654.000; -457.000
424.384;  -46.725; -279.000; -272.000
424.509;   -9.625; -260.000; -186.000
424.634; -100.950; -761.000; -623.000
424.759;  -22.825; -688.000; -544.000
424.883;  -13.175; -506.000; -527.000
425.008;  153.225; -502.000; -410.000
425.133; 1730.575; -679.000; -653.000
425.258;  892.275; -517.000; -381.000
425.382; 1261.700; -867.000; -774.000
425.507; 3498.175; -487.000; -543.000
425.632;  558.100; -802.000; -663.000
425.756;  418.100; -256.000; -146.000
425.881; 4860.800; -831.000; -857.000
426.006;14005.175; -604.000; -355.000
426.130; 2469.775; -696.000; -508.000
426.255;  320.025; -611.000; -491.000
426.379;  143.025; -189.000; -577.000
426.504;  342.250;  660.000;  544.000
426.629; 3552.375; -519.000; -466.000
426.753; 2694.525;   64.000;  -46.000
426.878;  306.625; -252.000; -288.000
427.002;  155.850; -651.000; -668.000
427.127; 1389.325;  -35.000; -158.000
427.251; 9872.775;  372.000;  401.000
427.375; 3077.650; -191.000; -173.000
427.500; 2884.225; -616.000; -610.000
427.624; 1100.250; -234.000; -400.000
427.749;  147.850; -216.000; -225.000
427.873;  -11.300; -499.000; -412.000
427.997;  -29.475; -222.000; -230.000
428.122;   82.325;  795.000;  703.000
428.246;   93.775;  433.000;  434.000
428.371;  -98.175; -869.000; -773.000
428.495;  -89.525; -624.000; -646.000
428.619;  -25.275; -186.000; -117.000
428.743;   39.350;   65.000;  132.000
428.868;   45.825; -732.000; -643.000
428.992; 1875.050; -219.000; -326.000
429.116;  837.850; -329.000; -357.000
429.240;  395.000;  419.000;  426.000
429.365;   -1.050; -454.000; -574.000
429.489;  -14.225; -638.000; -647.000
429.613;   31.375; -236.000; -177.000
429.737;   41.000; -563.000; -432.000
429.861;  251.750; -247.000; -133.000
429.985; 4741.575; -425.000; -305.000
430.109; 5593.100; -770.000; -908.000
430.234;  682.675;   76.000;  -50.000
430.358;   76.975; -250.000; -160.000
430.482;  -74.475; -672.000; -564.000
430.606;  -60.225; -655.000; -375.000
430.730;   54.050; -437.000; -388.000
430.854;  266.625; -909.000; -835.000
430.978;  -37.350; -795.000; -764.000
431.102;  -68.250; -499.000; -422.000
431.226;  -89.075; -874.000; -815.000
431.350;   32.700;  345.000;  422.000
431.474;  -57.950; -661.000; -373.000
431.597; -131.050;-1060.000; -848.000
431.721;  -64.500; -276.000; -267.000
431.845; -134.900; -704.000; -472.000
431.969;  -69.650; -304.000; -349.000
432.093;  -90.000; -395.000; -317.000
432.217;  -17.500;   32.000;   82.000
432.341;  -93.025; -523.000; -518.000
432.464;   38.125;   96.000;   40.000
432.588;  350.225; -401.000; -329.000
432.712;  171.975;  -52.000;  -52.000
432.836;   34.000;  213.000;  263.000
432.959;  -13.650; -372.000; -311.000
433.083;   69.150;   11.000;    2.000
433.207;  323.700;  285.000;  930.000
433.330; 4142.050; -391.000; -200.000
433.454; 5434.400; -654.000; -638.000
433.578; 3147.400;  583.000;  278.000
433.701;  670.700; -623.000; -675.000
433.825;  230.450; -292.000; -299.000
433.949;  320.225;   28.000;  -72.000
434.072;  153.200; -410.000; -323.000
434.196;   -0.825; -309.000; -117.000
434.319; 3619.175;25482.000;25124.000
434.443;  728.275; -656.000; -603.000
434.566; 2352.350;  281.000;   62.000
434.690;  431.025; -637.000; -383.000
434.813;   57.550; -251.000; -173.000
434.937;  -60.725; -569.000; -696.000
435.060;   -9.725; -423.000; -332.000
435.184;  565.950; -492.000; -217.000
435.307;  334.175;  159.000;  102.000
435.431;   12.625;  -40.000;   24.000
435.554;  -70.625; -399.000; -240.000
435.677;  -81.650; -350.000; -258.000
435.801;  -58.675;  -25.000;   49.000
435.924;   16.975;    1.000;  -67.000
436.048;  -66.800;-1019.000; -732.000
436.171;  -70.725; -240.000;  -66.000
436.294;  -22.750; -248.000; -229.000
436.417;   65.675; -963.000; -849.000
436.541;  -72.300; -814.000; -840.000
436.664;  -46.050; -242.000; -316.000
436.787;  -26.100;   13.000;  113.000
436.910;  -95.550; -792.000; -422.000
437.034;   31.550;  142.000;  143.000
437.157;  123.000;  -11.000;    0.000
437.280;  -17.225; -392.000; -292.000
437.403;  -45.175; -982.000; -869.000
437.526;  998.875; -903.000; -865.000
437.649; 3683.950; -505.000; -332.000
437.772;  673.200; -692.000; -540.000
437.896;  158.025;  700.000;  544.000
438.019;  -74.000; -758.000; -503.000
438.142;  -77.425; -596.000; -506.000
438.265;   48.775; -639.000; -670.000
438.388;  912.950; -520.000; -410.000
438.511;  248.450; -597.000; -394.000
438.634;  -12.925; -247.000; -125.000
438.757; -115.900; -693.000; -619.000
438.880;   -3.025;  -34.000;  -57.000
439.003;  -74.175; -417.000; -437.000
439.126;  -52.100; -287.000; -167.000
439.248;  -65.575;  -98.000; -139.000
439.371;  -31.575;    9.000;  -53.000
439.494;   17.225;  510.000;  439.000
439.617;  -46.225;   65.000;  -88.000
439.740; -182.300; -968.000; -816.000
439.863; -144.825; -755.000; -595.000
439.986; -125.125; -476.000; -431.000
440.108;  -47.350; -161.000; -112.000
440.231; -146.575; -950.000; -836.000
440.354;  -23.350;  -64.000; -150.000
440.477;  102.525; -566.000; -542.000
440.599;   61.075; -200.000; -225.000
440.722; -115.650; -709.000; -586.000
440.845;   64.300;  751.000;  928.000
440.968; -103.450; -415.000; -311.000
441.090;  -59.175; -199.000;  -33.000
441.213; -166.625;-1021.000; -825.000
441.336;  -50.725; -159.000;   -5.000
441.458;  -79.900; -549.000; -396.000
441.581;  -54.000; -628.000; -629.000
441.703;  -56.600; -152.000;   13.000
441.826; -103.325; -557.000; -400.000
441.948;  -50.450;   56.000;   51.000
442.071;   28.575;  555.000;  424.000
442.193; -112.575; -531.000; -485.000
442.316;   26.975;  152.000;   97.000
442.438;   44.775; -233.000;  -10.000
442.561;  103.475;  272.000;  262.000
442.683;  859.050; -809.000; -522.000
442.806; 1870.275;   -8.000;   74.000
442.928;  170.350; -859.000; -604.000
443.051;  -33.950; -577.000; -373.000
443.173;  -81.225; -341.000; -339.000
443.295;  -92.125; -263.000; -371.000
443.418;  -78.050; -321.000;  -29.000
443.540;   -7.000; -106.000;   -4.000
443.662;  -97.675; -563.000; -465.000
443.785;   -9.450;  335.000;  199.000
443.907;  -99.275; -362.000; -208.000
444.029; -146.050; -767.000; -494.000
444.152; -133.375; -644.000; -554.000
444.274;  -28.000;  -18.000;  -24.000
444.396; -109.525; -461.000; -221.000
444.518; -123.200; -691.000; -454.000
444.640; -107.550; -268.000; -111.000
444.763;  -17.250;  388.000;  249.000
444.885; -111.800; -432.000; -392.000
445.007;  -35.500;   35.000;   86.000
445.129;  -98.450; -610.000; -515.000
445.251;  -98.325; -372.000; -439.000
445.373; -137.325; -537.000; -386.000
445.495;    3.775;  242.000;  350.000
445.617;   63.775;  853.000;  753.000
445.739;  -62.325; -215.000;  -97.000
445.861;  -32.050; -245.000; -112.000
445.984;   -6.150; -267.000; -101.000
446.105;  315.750; -418.000; -251.000
446.227;  928.350; -176.000;  -19.000
446.349;   75.300; -358.000; -249.000
446.471;  -67.575; -615.000; -448.000
446.593;  -41.525; -316.000;   19.000
446.715;   -1.300;  -67.000;   41.000
446.837;   79.175;  697.000;  832.000
446.959;  -89.850; -457.000; -478.000
447.081; -119.725; -628.000; -518.000
447.203;   55.900;  862.000;  834.000
447.325;  -92.100; -270.000;   42.000
447.446;   -9.500;  286.000;  530.000
447.568; -152.200; -921.000; -803.000
447.690;  -65.825; -236.000; -245.000
447.812; -143.850; -798.000; -519.000
447.933;  -30.250;  155.000;  127.000
448.055;  -69.375; -306.000; -261.000
448.177;  207.550;   31.000;   79.000
448.299;  211.700; -935.000; -727.000
448.420;   66.575;  -25.000;  159.000
448.542;  -32.625;   -3.000;   33.000
448.664;  -23.900;  109.000;  322.000
448.785;  -33.875;  265.000;   83.000
448.907;  -56.175; -614.000; -353.000
449.028;   -6.450; -771.000; -471.000
449.150;   66.900;  492.000;  589.000
449.272; -170.175;-1044.000; -913.000
449.393;   34.325;  612.000;  694.000
449.515; -148.750; -634.000; -581.000
449.636;  -43.750; -264.000; -155.000
449.758;   90.725;  763.000;  622.000
449.879;  -86.750; -498.000; -396.000
450.001;  -85.850; -149.000;  -49.000
450.122;  -37.500;  -95.000;  162.000
450.244;  -21.500;   37.000;  364.000
450.365;  -84.400; -495.000; -301.000
450.486;  -36.700;   80.000;  268.000
450.608;   16.925;  393.000;  326.000
450.729;   54.350;  578.000;  645.000
450.850;  -21.625; -574.000; -466.000
450.972;  548.300; -552.000; -389.000
451.093; 3923.575;  190.000;  588.000
451.214; 1852.275; -516.000; -337.000
451.336;  363.525;  773.000;  579.000
451.457;   42.600;  264.000;  393.000
451.578;  -39.825; -118.000;  -74.000
451.699; -105.300; -546.000; -540.000
451.821;  -62.550; -284.000;  -50.000
451.942;  -10.600;  278.000;  285.000
452.063;   25.550;  228.000;  419.000
452.184;  447.450;  -54.000;  -49.000
452.305;  958.500;  103.000;  170.000
452.427;  113.650; -549.000; -301.000
452.548;  -11.675;   23.000;   79.000
452.669;  -40.550; -257.000;  -89.000
452.790;  -24.550;    3.000;  -18.000
452.911;   -9.350;  195.000;  259.000
453.032;  -45.675; -289.000;  -60.000
453.153;  -41.450;  -29.000;   81.000
453.274;   58.300;  737.000;  868.000
453.395;  -34.150;  -51.000;  175.000
453.516;  143.600; 1317.000; 1388.000
453.637;  -55.575; -205.000; -150.000
453.758;  -25.350;   15.000;   69.000
453.879; -109.500; -462.000; -250.000
454.000;   70.350; 1086.000;  948.000
454.121; -104.125; -554.000; -326.000
454.242; -115.525; -599.000; -383.000
454.362;  -45.825;  -99.000;  114.000
454.483;  -40.275; -309.000; -229.000
454.604;   75.025;  512.000;  580.000
454.725; -116.525; -627.000; -555.000
454.846; -121.400; -474.000; -406.000
454.967;   -8.225;  230.000;  539.000
455.087;  -50.850;  179.000;  153.000
455.208;   20.450;  554.000;  856.000
455.329;  -72.200;  -22.000;   82.000
455.450;   39.675;  473.000;  633.000
455.570;  -81.825; -234.000; -211.000
455.691;  -34.450;  201.000;  407.000
455.812; -111.800; -270.000;  -92.000
455.932;  -58.375;  107.000;  -97.000
456.053;  -79.275;   36.000;   24.000
456.173; -111.125; -433.000; -355.000
456.294; -132.575; -476.000; -303.000
456.415;  -61.675;  -73.000;   70.000
456.535;  -35.300;  297.000;  273.000
456.656;  -35.800;  132.000;  240.000
456.776;  -74.775;    3.000;  298.000
456.897;  -13.200;  308.000;  513.000
457.017;  -80.425; -153.000;   -3.000
457.138;  -95.025; -402.000; -249.000
457.258;  -16.250;  263.000;  224.000
457.379;  -22.575;  509.000;  521.000
457.499;  -19.575;  443.000;  432.000
457.620; -123.825; -407.000; -231.000
457.740;  -86.075; -132.000;  -11.000
457.860;  -58.675;   87.000;   44.000
457.981;  -46.725;  132.000;  124.000
458.101;  -79.150;  -89.000;   40.000
458.221;  -16.475;  336.000;  402.000
458.342;  -68.175;   -4.000;  -37.000
458.462;    8.475;  617.000;  352.000
458.582;  -67.475; -302.000; -294.000
458.703;   -3.975;  303.000;  154.000
458.823;  -34.500;   22.000;  163.000
458.943;   13.050;  341.000;  467.000
459.063;   -8.075; 1124.000;  192.000
459.183;  -12.125;  328.000;  313.000
459.304;   16.350;  315.000;  517.000
459.424;  -75.250; -246.000;  -89.000
459.544;  263.325;  388.000;  764.000
459.664;  709.225;  499.000;  506.000
459.784;  293.325; 1004.000; 1175.000
459.904;   63.300;  867.000;  744.000
460.024;   63.975;  867.000;  684.000
460.144;   34.400;  449.000;  554.000
460.264;    0.750;  515.000;  327.000
460.385;  -96.800; -145.000; -119.000
460.505;   38.975;  905.000;  858.000
460.625;  -92.050;  -17.000;  -68.000
460.745;  -23.100;  396.000;  541.000
460.864;  -46.450;  153.000;  469.000
460.984;   13.575;  499.000;  573.000
461.104;  142.975; 1656.000; 1775.000
461.224;   14.625;  657.000;  650.000
461.344;  -25.500;  431.000;  360.000
461.464;  -26.100;  258.000;  513.000
461.584;   -6.225;  283.000;  466.000
461.704;  -45.625;   58.000;  108.000
461.824;  -52.525;  238.000;  259.000
461.943;  -41.325;  191.000;  130.000
462.063;  -74.525;    2.000;  324.000
462.183;   32.125;  639.000;  717.000
462.303;  103.925; 1678.000; 1230.000
462.422;   40.850;  781.000;  840.000
462.542;  -45.325;  271.000;  391.000
462.662;   51.675;  353.000;  380.000
462.782;  219.725;  833.000;  572.000
462.901;  416.875;  545.000;  717.000
463.021;  266.225; 1702.000; 1638.000
463.141;   -3.800;  337.000;  770.000
463.260;  -26.300;  614.000;  474.000
463.380;    4.075;  902.000;  884.000
463.499;  -39.725;  342.000;  332.000
463.619;  -23.600;  581.000;  559.000
463.738;  105.225; 1644.000;  903.000
463.858;   21.550;  657.000;  811.000
463.978;  -34.675;  542.000;  396.000
464.097;   51.000;  921.000; 1114.000
464.217;   88.100; 1196.000; 1143.000
464.336;  121.850; 1068.000; 1130.000
464.455;  -20.975;  328.000;  659.000
464.575;   67.675;  597.000;  602.000
464.694;  191.450; 1204.000; 1179.000
464.814;  130.675; 1190.000; 1138.000
464.933;   71.850; 1095.000; 1027.000
465.052;  111.000; 1412.000; 1054.000
465.172;   73.850;  922.000;  799.000
465.291;  152.175; 1376.000; 1320.000
465.410;   18.675;  462.000;  735.000
465.530;   91.325; 1355.000; 1310.000
465.649;   65.500; 1209.000; 1273.000
465.768;  150.450; 1673.000; 1508.000
465.888;   47.725;  941.000; 1174.000
466.007;  105.525; 1335.000; 1440.000
466.126;  -11.375;  721.000;  641.000
466.245;   44.575; 1176.000; 1187.000
466.364;   33.300;  950.000; 1060.000
466.484;   72.450; 1024.000; 1213.000
466.603;   32.525; 1101.000; 1222.000
466.722;  138.650; 1490.000; 1769.000
466.841;   79.400; 1151.000; 1401.000
466.960;   48.500; 1069.000;  972.000
467.079;  134.075; 1971.000; 1786.000
467.198;   55.550; 1238.000; 1181.000
467.317;   98.100; 1768.000; 1162.000
467.436;   62.325; 1709.000; 1261.000
467.555;  134.825; 1796.000; 1746.000
467.674;   69.075; 1227.000; 1329.000
467.793;   45.875; 1376.000; 1374.000
467.912;   99.000; 1658.000; 1539.000
468.031;  146.025; 2038.000; 1930.000
468.150;  146.600; 1842.000; 1837.000
468.269;  196.675; 2313.000; 2090.000
468.388;  198.750; 2168.000; 2339.000
468.507;  253.500; 2884.000; 2903.000
468.626;  264.350; 2555.000; 2541.000
468.744;  131.725; 2018.000; 2174.000
468.863;  207.075; 2312.000; 2523.000
468.982;   92.475; 1503.000; 1555.000
469.101;  210.800; 2788.000; 2692.000
469.220;  152.450; 2333.000; 2176.000
469.338;  250.175; 2935.000; 3051.000
469.457;  215.850; 2719.000; 2545.000
469.576;  348.500; 3953.000; 3784.000
469.695;  256.175; 2877.000; 3066.000
469.813;  423.475; 4148.000; 4192.000
469.932;  398.700; 4255.000; 4485.000
470.051;  417.725; 4075.000; 4161.000
470.169;  754.475; 4470.000; 4338.000
470.288; 1334.000; 4700.000; 4809.000
470.406;  850.750; 5059.000; 5194.000
470.525;  625.200; 6101.000; 5787.000
470.644;  639.800; 6847.000; 6794.000
470.762;  834.800; 8397.000; 7873.000
470.881;  895.325; 8651.000; 8464.000
470.999; 1043.350; 9685.000; 9151.000
471.118; 1088.950;11174.000;10711.000

