
Integration time [ms]: 100.000
Averaging Nr. [scans]: 40
Smoothing Nr. [pixels]: 0
Data measured with spectrometer [name]: 2101012U2
Wave   ;Sample   ;Dark     ;Reference
[nm]   ;[counts] ;[counts] ;[counts] 

197.733;   54.550;  516.000;  404.000
197.879;  -91.875; -610.000; -634.000
198.025;  -55.950; -475.000; -420.000
198.171;  -68.275; -602.000; -612.000
198.317;  -25.600; -401.000; -316.000
198.463;  -50.425; -655.000; -404.000
198.609;   18.225;  181.000; -137.000
198.755;  -70.675; -644.000; -410.000
198.901;  -58.600; -505.000; -424.000
199.047;  -61.200; -615.000; -488.000
199.193;  -42.675; -230.000; -468.000
199.339;  -34.825; -222.000; -369.000
199.485;   33.825;  330.000;  271.000
199.631;   18.125;  227.000;  310.000
199.777;  -59.525; -466.000; -398.000
199.923;  -75.325; -610.000; -424.000
200.069;    7.975; -141.000;  -58.000
200.215;   52.275;  128.000;  453.000
200.361;   38.725;  243.000;  477.000
200.507;  -69.350; -600.000; -373.000
200.653;  -27.525; -371.000; -194.000
200.798;  -17.825; -215.000; -125.000
200.944;   -5.275; -146.000;  -41.000
201.090;   51.925;   61.000;  222.000
201.236;    5.000; -116.000; -158.000
201.382;  141.725;  874.000;  903.000
201.528;    0.025;  -58.000;  -48.000
201.674;  -66.325; -386.000; -293.000
201.819;  -70.750; -540.000; -439.000
201.965;  -93.725; -699.000; -447.000
202.111;  -21.625; -273.000; -226.000
202.257;  -33.425; -250.000; -238.000
202.402;    9.750;   13.000;  -36.000
202.548;  -26.125; -169.000; -116.000
202.694;   70.725;  410.000; -183.000
202.840;  -79.850; -603.000; -531.000
202.985;  -70.900; -681.000; -639.000
203.131; -108.800; -832.000; -666.000
203.277;  -26.250; -199.000; -262.000
203.423;  -52.400; -434.000; -520.000
203.568;  -42.600; -462.000; -237.000
203.714;  -67.775; -535.000; -542.000
203.860;  -88.000; -682.000; -641.000
204.005;   21.700;  112.000;  167.000
204.151;   75.375;  561.000;  556.000
204.296;  -60.050; -354.000; -221.000
204.442;  -75.375; -600.000; -547.000
204.588;  -93.000; -592.000; -579.000
204.733;   13.100;  178.000;  168.000
204.879; -132.275;-1018.000; -822.000
205.025;    9.875;  -99.000;  126.000
205.170;    8.750;  -17.000;   94.000
205.316;   80.000;  438.000;  661.000
205.461;  -80.425; -698.000; -554.000
205.607;   91.675;  609.000;  665.000
205.752;  -83.800; -626.000; -551.000
205.898;  -57.500; -501.000; -391.000
206.043;  -51.600; -578.000; -506.000
206.189;  -44.175; -243.000; -285.000
206.334;   80.675;  554.000;  606.000
206.480;   85.800;  409.000;  239.000
206.625;  -74.000; -529.000; -552.000
206.771;  -44.550; -451.000; -373.000
206.916;  -42.575; -210.000; -537.000
207.062;  -82.900; -545.000; -591.000
207.207;  -64.700; -546.000; -443.000
207.353;   59.350;  185.000;  460.000
207.498;   20.200;  196.000;   85.000
207.643;  -59.375; -501.000; -370.000
207.789; -135.475;-1069.000; -910.000
207.934;  -93.000; -665.000; -713.000
208.080;  -16.750; -154.000;   66.000
208.225;   -1.375;  -22.000;  -57.000
208.370;  -74.850; -727.000; -619.000
208.516;  -81.525; -741.000; -487.000
208.661;  -20.050; -127.000;  -69.000
208.806;  -30.475; -165.000; -171.000
208.952; -136.850;-1044.000; -731.000
209.097;   80.375;  378.000;  349.000
209.242;  -42.925; -307.000; -382.000
209.387;   51.075;  392.000;  350.000
209.533;  -57.075; -321.000; -350.000
209.678;   81.200;  472.000;  543.000
209.823;  -52.725; -408.000; -310.000
209.969; -104.675; -860.000; -757.000
210.114; -112.225; -907.000; -719.000
210.259; -111.650; -939.000; -889.000
210.404;   -5.150; -171.000;  103.000
210.549;    8.225;  108.000;    3.000
210.695;  -27.250;   -3.000;  -95.000
210.840;   24.775;   94.000;   67.000
210.985;  -63.925; -484.000; -303.000
211.130;   61.100;  268.000;  406.000
211.275;   25.475;  207.000;  199.000
211.420;  -53.050; -300.000; -289.000
211.566;  -77.050; -536.000; -489.000
211.711;   20.425;  218.000;  157.000
211.856;  -59.875; -545.000; -519.000
212.001;   16.475;  151.000;   44.000
212.146;    9.275;  153.000;   49.000
212.291;  -31.575; -210.000; -186.000
212.436;  -23.100; -280.000;   -6.000
212.581;  -79.225; -685.000; -653.000
212.726;  -70.100; -487.000; -538.000
212.871;  -55.025; -552.000; -217.000
213.016; -149.600;-1172.000;-1029.000
213.161;   61.300;  406.000;  291.000
213.306;  -73.725; -435.000; -577.000
213.451;  -98.475; -778.000; -689.000
213.596;  -43.525; -455.000; -347.000
213.741;  -43.200; -448.000; -538.000
213.886;  -81.200; -498.000; -517.000
214.031;  -21.475; -294.000; -124.000
214.176;  -57.500; -408.000; -341.000
214.321;  -20.050; -296.000; -157.000
214.466;  -26.550; -163.000;  -43.000
214.611;   -6.325;  -61.000;  -10.000
214.756; -124.550; -948.000; -858.000
214.901;  -32.450; -388.000; -226.000
215.046; -120.525; -797.000; -825.000
215.191;   15.275;  128.000;   35.000
215.336;  -14.850; -157.000;  -19.000
215.480;  -68.050; -684.000; -505.000
215.625;  -18.525; -175.000;  -19.000
215.770;  -87.650; -757.000; -662.000
215.915;   -6.825;   -5.000;  -97.000
216.060;    9.675; -113.000;  -21.000
216.205; -102.125; -731.000; -779.000
216.349;  -81.400; -470.000; -533.000
216.494; -132.800; -939.000; -867.000
216.639; -123.975; -823.000; -888.000
216.784;  -87.775; -577.000; -525.000
216.929;   44.825;  392.000;  281.000
217.073;   -9.725; -244.000;  -31.000
217.218;   21.100;   78.000;  -47.000
217.363;  -84.550; -656.000; -618.000
217.507;  -90.100; -623.000; -588.000
217.652; -126.325; -845.000; -874.000
217.797;  -93.025; -708.000; -659.000
217.942; -107.950; -856.000; -720.000
218.086;   84.300;  608.000;  539.000
218.231;  -29.100; -174.000;  -26.000
218.376;  -51.275; -337.000; -229.000
218.520;    8.200;  -41.000;   96.000
218.665;  -33.875; -338.000; -204.000
218.810;  -41.200; -275.000; -233.000
218.954;   12.700;  201.000;   35.000
219.099; -111.625; -713.000; -963.000
219.243;  -70.600; -589.000; -554.000
219.388;  -24.825; -264.000; -136.000
219.532;  -12.325; -116.000; -116.000
219.677;  -80.075; -564.000; -521.000
219.822;    8.700;   33.000;   89.000
219.966;   12.275;   17.000;  -99.000
220.111;  -32.275; -328.000;  -40.000
220.255;  -94.350; -797.000; -750.000
220.400;  -23.525; -180.000; -146.000
220.544;  -75.875; -516.000; -450.000
220.689;  -66.675; -422.000; -451.000
220.833;  -19.025; -123.000;  -58.000
220.978;  -46.575; -393.000; -563.000
221.122;   13.700;  319.000;  307.000
221.267; -121.275; -906.000; -837.000
221.411;  -64.875; -478.000; -394.000
221.555;  -18.675; -104.000;  -23.000
221.700;  -57.500; -329.000; -222.000
221.844;   37.225;  255.000;  272.000
221.989;  -38.575; -328.000; -311.000
222.133;  -46.250; -289.000; -307.000
222.277;    1.050;    5.000;   78.000
222.422;   15.150;  227.000;  113.000
222.566;  -44.625; -381.000; -214.000
222.711;  -55.750; -414.000; -479.000
222.855;  -79.125; -643.000; -586.000
222.999;  -85.525; -642.000; -717.000
223.144;  -28.750; -195.000; -194.000
223.288;   49.150;  423.000;  251.000
223.432;   16.000;  184.000;  230.000
223.576;    3.500;  152.000;  -21.000
223.721;   41.900;  364.000;  273.000
223.865;  -63.375; -472.000; -475.000
224.009;  243.400; 1673.000; 1631.000
224.153;  -88.900; -660.000; -671.000
224.298;  -66.525; -531.000; -489.000
224.442;  -11.050;  -74.000;  -33.000
224.586;  -15.800; -169.000; -106.000
224.730; -108.675; -858.000; -670.000
224.875; -112.675; -739.000; -688.000
225.019;   22.550;  102.000;  188.000
225.163;   38.050;  208.000;  341.000
225.307;   21.900;   97.000;  -91.000
225.451;   46.125;  360.000;  481.000
225.595;   37.625;  264.000;  176.000
225.739;  -28.825; -170.000;  -94.000
225.884;    4.500;   86.000;    5.000
226.028; -103.175; -760.000; -626.000
226.172;  -38.000; -260.000; -273.000
226.316; -126.200; -941.000; -902.000
226.460;  -72.825; -645.000; -493.000
226.604;  -58.475; -406.000; -400.000
226.748; -111.950; -836.000; -733.000
226.892;  -26.150; -227.000; -181.000
227.036;  -54.375; -537.000; -447.000
227.180;  -61.100; -551.000; -375.000
227.324;  -77.750; -561.000; -580.000
227.468; -116.400; -819.000; -717.000
227.612;    8.400;  242.000;  -28.000
227.756;  -96.750; -845.000; -698.000
227.900;   55.900;  342.000;  441.000
228.044;  -60.775; -509.000; -290.000
228.188;   57.100;  448.000;  568.000
228.332;  -73.125; -546.000; -472.000
228.476;  -27.125; -223.000; -149.000
228.620;  -36.175; -210.000; -150.000
228.764;   67.325;  431.000;  349.000
228.908;  -14.725; -155.000;   30.000
229.052;  -75.025; -615.000; -528.000
229.195;  -17.000; -172.000;   13.000
229.339;  -17.325; -235.000; -305.000
229.483;  -32.900;    5.000; -162.000
229.627;    4.050; -156.000;  139.000
229.771;  -53.875; -218.000; -294.000
229.915;    2.900;  230.000;   79.000
230.059;  -94.325; -648.000; -663.000
230.202;  -46.000; -370.000; -317.000
230.346;  -17.300; -107.000;  107.000
230.490;  -70.150; -489.000; -521.000
230.634; -108.775; -736.000; -553.000
230.777;   76.200;  478.000;  509.000
230.921;  -65.350; -450.000; -359.000
231.065;  -40.950; -246.000; -286.000
231.209;   24.325;  261.000;  265.000
231.352;   17.650;   54.000;   40.000
231.496;   25.375;  568.000;  188.000
231.640;  -82.750; -693.000; -621.000
231.783;   53.775;  546.000;  525.000
231.927;  -63.000; -294.000; -365.000
232.071; -131.450; -962.000; -736.000
232.214; -120.050; -980.000; -764.000
232.358; -109.075; -683.000; -599.000
232.502;   -0.650;  -19.000;    7.000
232.645; -141.525;-1090.000; -927.000
232.789;  -31.250; -257.000; -218.000
232.933;  -41.100; -407.000; -224.000
233.076; -126.350;-1038.000; -897.000
233.220; -116.475; -752.000; -777.000
233.363;  -72.675; -669.000; -477.000
233.507;   50.950;  371.000;  129.000
233.650;  -98.275; -764.000; -834.000
233.794;   45.075;  438.000;  461.000
233.938;  -64.150; -530.000; -362.000
234.081;  -17.150;  -93.000;   31.000
234.225;  -80.475; -631.000; -539.000
234.368; -104.725; -773.000; -723.000
234.512;  -55.100; -385.000; -299.000
234.655; -102.075; -582.000; -555.000
234.798;  -80.575; -493.000; -466.000
234.942; -126.775; -884.000;-1002.000
235.085;  -70.025; -651.000; -443.000
235.229;  -75.550; -405.000; -410.000
235.372;  -49.425; -247.000; -191.000
235.516;  -72.225; -397.000; -321.000
235.659;   14.050;   92.000;  121.000
235.802;  -22.675;  -38.000;  -22.000
235.946;   20.175;  335.000;  215.000
236.089;   29.200;  126.000;  250.000
236.233;   49.325;  275.000;  298.000
236.376;  -61.425; -235.000; -378.000
236.519;  -54.425; -297.000; -319.000
236.663;  -26.900; -215.000; -117.000
236.806; -141.650;-1029.000; -999.000
236.949;   68.300;  543.000;  431.000
237.092;   56.850;  412.000;  391.000
237.236;  -91.275; -589.000; -502.000
237.379;   74.100;  352.000;  428.000
237.522; -115.925; -879.000; -768.000
237.666;  -13.050; -271.000;   18.000
237.809; -127.900; -851.000; -823.000
237.952;   34.050;  469.000;  271.000
238.095;  -66.975; -447.000; -442.000
238.238;   72.050;  688.000;  700.000
238.382;   -5.175;  166.000;  103.000
238.525;  -66.250; -598.000; -511.000
238.668; -145.200;-1060.000; -985.000
238.811;  -88.350; -638.000; -643.000
238.954;  -57.800; -483.000; -334.000
239.097;   99.400;  617.000;  664.000
239.241;   26.750;  394.000;  326.000
239.384;  -42.550; -254.000; -214.000
239.527;  -64.000; -424.000; -224.000
239.670; -157.475; -994.000;-1091.000
239.813; -126.125; -696.000; -658.000
239.956;   77.725;  579.000;  473.000
240.099; -120.925; -778.000; -725.000
240.242;   60.300;  428.000;  432.000
240.385;   32.625;  466.000;  450.000
240.528;  -69.300; -706.000; -473.000
240.671;   16.975;  189.000;  134.000
240.814;  -42.775; -441.000; -158.000
240.957;  -87.400; -767.000; -578.000
241.100; -110.625; -779.000; -755.000
241.243; -145.175;-1234.000; -893.000
241.386;  -70.300; -508.000; -379.000
241.529;  -80.375; -735.000; -547.000
241.672;  -67.775; -566.000; -495.000
241.815; -125.500; -832.000; -808.000
241.958;  -33.425; -125.000; -182.000
242.101;  -76.200; -545.000; -390.000
242.244;  -46.100; -270.000; -325.000
242.387;  -41.950; -304.000; -246.000
242.530;   55.200;  470.000;  134.000
242.673;  -60.050; -381.000; -309.000
242.815; -122.525; -925.000; -899.000
242.958;  -66.675; -482.000; -381.000
243.101;   10.425;  132.000;  187.000
243.244;  -87.300; -564.000; -521.000
243.387;  -58.925; -313.000; -316.000
243.530; -102.250; -657.000; -674.000
243.672;    7.525;   43.000;  -92.000
243.815;  -44.025; -355.000; -283.000
243.958;   -7.150;   98.000;  -26.000
244.101;    0.900;   59.000;  -16.000
244.243;   -9.900;  -47.000;  101.000
244.386; -107.650; -761.000; -630.000
244.529;  -35.200; -132.000; -139.000
244.672; -173.750;-1154.000; -951.000
244.814; -117.850; -621.000; -794.000
244.957;  -52.400; -380.000; -304.000
245.100;  -88.500; -489.000; -489.000
245.242;  -68.625; -387.000; -374.000
245.385;    9.850;  -59.000;  -39.000
245.528; -122.175; -871.000; -705.000
245.670;   87.400;  612.000;  634.000
245.813;  -92.250; -599.000; -547.000
245.956;  -41.175; -324.000; -275.000
246.098;  -87.125; -508.000; -650.000
246.241;   -9.475;  194.000;   48.000
246.383;  -26.275; -119.000;  -73.000
246.526;  -76.150; -454.000; -525.000
246.669; -121.775; -889.000; -780.000
246.811;   25.725;  172.000;   -1.000
246.954;  -72.200; -512.000; -426.000
247.096;  -25.150;  -84.000;   -6.000
247.239;  -70.475; -482.000; -445.000
247.381;  -83.625; -647.000; -488.000
247.524;   95.000;  645.000;  679.000
247.666;   -7.000;   58.000;   11.000
247.809; -125.700; -887.000; -691.000
247.951;  -16.900;  -75.000;  138.000
248.094;   30.050;  432.000;  308.000
248.236; -158.950;-1262.000;-1238.000
248.378;    8.225; -356.000;  -81.000
248.521;  -32.050; -334.000; -337.000
248.663;  -33.925; -236.000; -267.000
248.806;  -30.225; -300.000; -266.000
248.948;  -99.950; -886.000; -763.000
249.090;  -56.400; -428.000; -398.000
249.233;  -55.175; -344.000; -381.000
249.375;  -76.225; -474.000; -451.000
249.518;  -29.950;  -83.000; -133.000
249.660;  -13.625; -103.000;    3.000
249.802; -166.200;-1303.000;-1189.000
249.945;  -80.350; -612.000; -540.000
250.087; -127.550; -834.000; -768.000
250.229;  -52.375; -362.000; -480.000
250.371;  -72.400; -494.000; -439.000
250.514;  -40.175; -310.000; -244.000
250.656;  -74.750;   69.000;  102.000
250.798; -109.375; -849.000; -800.000
250.940;  -64.525; -322.000; -322.000
251.083;  -47.750; -335.000; -111.000
251.225;   63.800;  338.000;  310.000
251.367;  -47.900; -274.000; -373.000
251.509;  -30.275; -265.000; -210.000
251.651; -102.850; -731.000; -671.000
251.794;   58.375;  538.000;  632.000
251.936; -110.400; -821.000; -747.000
252.078;  -78.950; -540.000; -461.000
252.220;  -75.925; -645.000; -477.000
252.362;   68.100;  344.000;  462.000
252.504;  -78.675; -677.000; -584.000
252.646; -116.100; -875.000; -722.000
252.788;  -15.850;   14.000; -128.000
252.931;  -36.475; -257.000; -253.000
253.073;  -46.700; -376.000; -317.000
253.215;  -12.675;  141.000;  122.000
253.357;  -27.075;   82.000; -153.000
253.499;  -53.300; -374.000; -234.000
253.641;  -89.525; -749.000; -594.000
253.783; -100.875; -609.000; -527.000
253.925;  -94.925; -586.000; -591.000
254.067; -120.850; -744.000; -667.000
254.209;  -25.650; -391.000; -259.000
254.351; -139.375; -865.000; -883.000
254.493;  -79.925; -441.000; -417.000
254.635; -136.525; -936.000; -818.000
254.777;  -91.500; -752.000; -687.000
254.918;  -78.525; -512.000; -430.000
255.060;  -61.525; -551.000; -395.000
255.202;  -67.000; -473.000; -261.000
255.344;  -81.950; -658.000; -455.000
255.486;  -73.950; -471.000; -406.000
255.628; -123.575; -780.000; -781.000
255.770;  -79.575; -676.000; -536.000
255.912;  -72.000; -559.000; -468.000
256.053;  -90.250; -730.000; -508.000
256.195;  157.250; 1008.000;  903.000
256.337; -102.375; -861.000; -595.000
256.479;   61.550;  532.000;  416.000
256.621;  -49.950; -394.000; -212.000
256.762; -101.300; -789.000; -742.000
256.904;   45.000;  485.000;  487.000
257.046;  -50.425; -381.000; -271.000
257.188;  -54.725; -351.000; -264.000
257.329;  -73.425; -525.000; -464.000
257.471; -113.850; -939.000; -807.000
257.613;  -80.625; -584.000; -498.000
257.755; -146.275;-1073.000; -982.000
257.896;   26.475;  286.000;  392.000
258.038;  -82.000; -403.000; -352.000
258.180;  -45.400; -354.000; -279.000
258.321;  -94.050; -581.000; -457.000
258.463;  -21.075;  -71.000;  133.000
258.605;  -88.725; -562.000; -570.000
258.746; -111.975; -886.000; -772.000
258.888; -158.025;-1026.000;-1020.000
259.029;    5.350;  121.000;   -8.000
259.171;  -84.225; -614.000; -550.000
259.313;  -11.575;  -49.000;  -47.000
259.454;  -77.425; -536.000; -414.000
259.596;  -59.800; -483.000; -390.000
259.737;  -79.550; -590.000; -474.000
259.879;   47.075;  217.000;  311.000
260.020;   97.900;  901.000;  636.000
260.162;  -28.825; -146.000; -253.000
260.303; -112.825; -768.000; -687.000
260.445;  -83.975; -609.000; -613.000
260.586;   22.825;  392.000;  157.000
260.728;  -43.600; -360.000; -248.000
260.869; -121.150; -350.000; -343.000
261.011;   78.875;  706.000;  537.000
261.152;  -61.375; -479.000; -319.000
261.293;  -94.925; -576.000; -595.000
261.435;  -40.275; -219.000; -184.000
261.576;  -59.775; -455.000; -325.000
261.718;   57.175;  420.000;  470.000
261.859; -142.725; -940.000; -949.000
262.000; -142.350; -951.000;-1016.000
262.142;  -29.025;  -52.000;  -60.000
262.283; -123.300; -808.000; -691.000
262.424;  -86.500; -666.000; -625.000
262.566; -165.025;-1161.000; -983.000
262.707; -126.725; -840.000; -830.000
262.848; -125.175; -769.000; -726.000
262.990;  -52.200; -362.000; -345.000
263.131;   58.100;  650.000;  681.000
263.272;  -17.175;  -61.000;  -41.000
263.413;  -93.450; -589.000; -561.000
263.555;  -70.425; -669.000; -143.000
263.696;  -78.650; -550.000; -641.000
263.837;  -59.325; -449.000; -551.000
263.978;  -14.975;   -5.000;  -77.000
264.119;  -41.800; -283.000; -264.000
264.261; -118.875; -847.000; -630.000
264.402;   -1.675;   33.000;   40.000
264.543;  -80.000; -509.000; -524.000
264.684;  -17.150;   61.000;  -50.000
264.825;  -81.350; -816.000; -538.000
264.966;  -18.250;  -84.000;  -67.000
265.107; -105.225; -646.000; -670.000
265.248; -125.500; -825.000; -812.000
265.390;  -12.425;  152.000;   -9.000
265.531;  -31.600; -238.000; -107.000
265.672;  -99.350; -557.000; -630.000
265.813;   58.475;  563.000;  439.000
265.954; -146.175; -959.000; -940.000
266.095;  -24.675; -372.000; -322.000
266.236; -104.725; -686.000; -548.000
266.377;  -40.650; -243.000; -297.000
266.518;  -66.400; -619.000; -547.000
266.659;   21.075;  170.000;  268.000
266.800;   10.175;   83.000;   85.000
266.941;  -76.725; -487.000; -478.000
267.082;    6.250;  354.000;   99.000
267.223;  -50.950; -344.000; -273.000
267.364; -125.850; -892.000; -686.000
267.504;  -23.700;    3.000;  135.000
267.645;   -9.000;  160.000;   67.000
267.786;  -32.625; -147.000;  -86.000
267.927;  -86.075; -473.000; -379.000
268.068;  -30.800; -186.000;  -61.000
268.209;  -57.175; -175.000; -413.000
268.350;  -71.200; -388.000; -532.000
268.490;  -69.975; -648.000; -521.000
268.631;   30.375;  127.000;  225.000
268.772; -116.250; -874.000; -647.000
268.913;  -66.400; -328.000; -476.000
269.054;  -23.425; -117.000;   12.000
269.194;  -57.175; -418.000; -402.000
269.335; -149.650;-1137.000;-1074.000
269.476;  -10.725;   33.000;  -35.000
269.617;  -56.275; -347.000; -392.000
269.757;  -97.750; -713.000; -646.000
269.898; -113.125; -856.000; -613.000
270.039;  -66.725; -415.000; -405.000
270.180; -137.875; -952.000; -816.000
270.320;  -20.975; -190.000; -250.000
270.461;  -50.175; -277.000; -249.000
270.602;  -29.250; -186.000; -156.000
270.742; -130.100; -868.000; -943.000
270.883;  -61.425; -442.000; -390.000
271.023;  -70.175; -358.000; -357.000
271.164;  -81.800; -607.000; -528.000
271.305; -104.050; -666.000; -654.000
271.445;  -99.125; -722.000; -683.000
271.586;  -65.575; -462.000; -283.000
271.726;  -56.000; -397.000; -322.000
271.867;  -70.750; -594.000; -534.000
272.008;  123.425; -473.000; -285.000
272.148;   98.450;  462.000;  468.000
272.289;    8.475; -113.000; -181.000
272.429;   17.850;   19.000;  185.000
272.570; -100.250; -633.000; -737.000
272.710; -119.300; -825.000; -775.000
272.851;  -33.050;  113.000; -130.000
272.991; -156.000;-1173.000;-1077.000
273.131;  -82.000; -419.000; -459.000
273.272; -111.525; -683.000; -723.000
273.412;   -7.050; -143.000;  -31.000
273.553;  -55.100; -488.000; -507.000
273.693;  119.775;  913.000;  858.000
273.834; -112.225; -894.000; -692.000
273.974;  -80.600; -664.000; -615.000
274.114; -110.075; -772.000; -560.000
274.255;   61.950;  414.000;  373.000
274.395;   -7.825; -180.000; -125.000
274.535;   29.650;  199.000;  350.000
274.676;   13.725;  225.000;   94.000
274.816;   -4.350;  110.000;   34.000
274.956;  -85.425; -624.000; -690.000
275.097;  -94.750;-1014.000; -922.000
275.237; -120.150; -913.000; -803.000
275.377; -108.675; -778.000; -689.000
275.517; -161.375; -878.000; -937.000
275.658;  -80.350; -590.000; -555.000
275.798;  -78.125; -606.000; -413.000
275.938;   16.800;  215.000;  323.000
276.078;  -68.450; -626.000; -395.000
276.218;    2.650;   99.000;  104.000
276.359; -132.225;-1026.000;-1024.000
276.499;  -82.150; -605.000; -446.000
276.639;  -36.850; -305.000; -151.000
276.779;  -60.250; -475.000; -357.000
276.919;  -98.325; -783.000; -624.000
277.059;  -36.200; -261.000; -212.000
277.199;  -58.500; -357.000; -259.000
277.340;   44.875;  287.000;  175.000
277.480; -117.125; -840.000; -693.000
277.620;    9.825;  192.000;   16.000
277.760; -203.075;-1533.000;-1294.000
277.900;    9.725;  113.000;   33.000
278.040;   13.675;  137.000;  159.000
278.180;   30.025;  270.000;  170.000
278.320;   -1.750;   21.000;   56.000
278.460;  -83.150; -443.000; -469.000
278.600; -107.875; -708.000; -598.000
278.740;   40.250;  448.000;  224.000
278.880;  -83.050; -768.000; -791.000
279.020;  -17.925; -194.000; -144.000
279.160;  -94.350; -672.000; -595.000
279.300; -128.625; -926.000; -873.000
279.440;  -98.625; -709.000; -622.000
279.579;  -43.550;-1014.000; -929.000
279.719;  -57.500; -410.000; -394.000
279.859;   52.925;   -4.000;   41.000
279.999;   16.775; -208.000;  101.000
280.139;  -31.800; -435.000; -387.000
280.279;  -78.000; -708.000; -745.000
280.419;  -21.550; -229.000; -147.000
280.559;  -44.425; -259.000; -180.000
280.698;  -94.175; -790.000; -639.000
280.838; -102.200; -778.000; -800.000
280.978; -120.850; -846.000; -790.000
281.118; -126.900; -811.000; -704.000
281.257;   -6.550;   24.000;    6.000
281.397; -136.725;-1094.000; -960.000
281.537; -104.975; -599.000; -712.000
281.677;  -33.750; -150.000; -101.000
281.816; -102.800; -700.000; -630.000
281.956;  -46.250; -193.000; -257.000
282.096;  -64.850; -539.000; -396.000
282.235; -108.700; -672.000; -638.000
282.375;  -37.125; -243.000;  -98.000
282.515; -125.150; -715.000; -707.000
282.654;    2.200;   29.000;  106.000
282.794;   22.925;  388.000;  244.000
282.934;  -52.950; -530.000; -491.000
283.073; -139.625;-1030.000; -857.000
283.213;  -60.000; -460.000; -467.000
283.353;  -49.025; -408.000; -349.000
283.492;  -40.125; -264.000; -296.000
283.632;  -48.375; -254.000; -168.000
283.771;  -99.275; -859.000; -730.000
283.911;  -51.750; -369.000; -260.000
284.050; -114.875; -794.000; -748.000
284.190; -169.875;-1229.000;-1096.000
284.329; -150.800;-1055.000; -964.000
284.469;  -85.775; -516.000; -591.000
284.608;  -67.275; -559.000; -598.000
284.748;  -85.700; -614.000; -570.000
284.887;  -14.025;  -87.000;  -20.000
285.027; -134.025; -844.000; -892.000
285.166;  -41.100; -192.000; -249.000
285.306;    4.250; -116.000;  -33.000
285.445;  -44.575; -229.000; -343.000
285.584; -100.800; -630.000; -494.000
285.724;  -50.750; -282.000; -322.000
285.863; -112.550; -857.000; -507.000
286.002;  -61.900; -366.000; -276.000
286.142; -124.925; -715.000; -622.000
286.281;  -85.575; -525.000; -493.000
286.420;  -89.675; -554.000; -417.000
286.560;   93.750;  653.000;  623.000
286.699; -144.175; -958.000; -912.000
286.838;  -97.850; -590.000; -591.000
286.978;  -88.125; -533.000; -537.000
287.117; -142.100;-1085.000; -950.000
287.256;  -42.650; -228.000; -211.000
287.395;  -58.350; -197.000; -378.000
287.535;  -53.950; -370.000; -298.000
287.674;  -87.050; -509.000; -484.000
287.813;   50.900;  661.000;  533.000
287.952; -145.150;-1010.000; -871.000
288.091; -164.750;-1049.000; -915.000
288.231;  -13.600;   13.000;   15.000
288.370; -177.025;-1217.000;-1200.000
288.509;  -93.500; -728.000; -645.000
288.648; -105.950; -770.000; -548.000
288.787;  -52.750; -243.000;  -87.000
288.926;  -74.225; -454.000; -475.000
289.065;  100.450;  859.000;  672.000
289.204;  -66.875; -377.000; -217.000
289.344; -113.475; -791.000; -690.000
289.483;   15.425;  416.000;  304.000
289.622;  -37.875; -291.000; -149.000
289.761;  -28.650; -309.000; -166.000
289.900; -112.825; -785.000; -626.000
290.039;  -12.675;  -12.000;  -95.000
290.178;  -47.225; -274.000; -180.000
290.317; -101.900; -618.000; -479.000
290.456;  -69.375; -463.000; -451.000
290.595; -146.950; -961.000; -833.000
290.734; -140.100; -904.000; -891.000
290.873;  -75.100; -456.000; -420.000
291.011; -114.350; -833.000; -843.000
291.150; -119.600; -770.000; -682.000
291.289;  -33.550; -343.000; -110.000
291.428;  -92.775; -599.000; -480.000
291.567;  -62.500; -370.000; -442.000
291.706;   -0.900;  109.000;  154.000
291.845; -111.125; -597.000; -505.000
291.984; -177.425;-1234.000;-1061.000
292.122;   70.700;  602.000;  582.000
292.261;   40.025;  620.000;  463.000
292.400;   -2.100; -144.000;  211.000
292.539; -135.325; -959.000; -813.000
292.678;  -52.450; -325.000; -300.000
292.816; -161.875;-1136.000; -965.000
292.955;  -95.250; -844.000; -684.000
293.094;  -28.850; -173.000; -337.000
293.233;  -60.675; -556.000; -400.000
293.371;  -44.275; -225.000;  -84.000
293.510; -117.450; -866.000; -780.000
293.649; -133.875; -959.000; -924.000
293.787;  -98.950;-1083.000;-1012.000
293.926;  -12.025; -113.000;  -32.000
294.065;  -48.000; -379.000; -290.000
294.203;   46.700;  298.000;  406.000
294.342;    4.050;   74.000;  156.000
294.481; 5995.625;51180.000; -836.000
294.619;  -42.100; -425.000; -582.000
294.758; -159.300;-1230.000;-1137.000
294.896;   38.450; -125.000;    5.000
295.035; -136.225;-1040.000;-1006.000
295.174; -144.500;-1082.000; -954.000
295.312;  -54.150; -323.000; -203.000
295.451;  -30.775; -307.000; -428.000
295.589;  -72.125; -389.000; -518.000
295.728;    0.125; -292.000; -165.000
295.866;   -3.275;  -36.000;  -51.000
296.005;  -79.075; -584.000; -341.000
296.143;  -86.700; -558.000; -596.000
296.282; -123.050; -957.000; -881.000
296.420;  -88.275; -657.000; -557.000
296.559;  -98.000; -892.000; -633.000
296.697;  -16.350; -847.000; -665.000
296.835;   -7.675;-1141.000;-1002.000
296.974;   21.975;  -23.000;   39.000
297.112;  -16.625; -443.000; -504.000
297.251;  -89.500; -815.000; -755.000
297.389;   48.625; -576.000; -438.000
297.527;   13.675; -145.000;  -83.000
297.666;  -73.900; -486.000; -438.000
297.804;  -57.450; -404.000; -264.000
297.942;  -12.825; -136.000; -161.000
298.081;   -4.875; -183.000;   63.000
298.219;   34.350;  -17.000;  -19.000
298.357;   22.900; -144.000;  -71.000
298.495;  -15.300; -810.000; -812.000
298.634;   52.675;  245.000;  219.000
298.772;   26.375; -220.000; -338.000
298.910;  -54.450; -309.000; -182.000
299.048;  -16.150; -130.000; -153.000
299.187;  -39.175; -350.000; -250.000
299.325;    2.325;   52.000;  122.000
299.463;   13.600; -389.000; -299.000
299.601;   64.550; -327.000; -271.000
299.739; -125.950; -908.000; -883.000
299.877;  -95.100; -791.000; -703.000
300.016;  -76.575;-1095.000; -935.000
300.154;  102.875;  -19.000; -161.000
300.292;   16.775; -428.000; -348.000
300.430;    3.850; -408.000; -291.000
300.568; -118.800; -940.000; -874.000
300.706;  -58.250; -366.000; -469.000
300.844;  -99.375;-1108.000; -979.000
300.982;  104.200;  246.000;  282.000
301.120; -133.125; -965.000; -866.000
301.258;  -86.600; -812.000; -705.000
301.396;   19.625;  104.000;  -41.000
301.534;   41.425; -218.000; -293.000
301.672;  -41.575; -664.000; -521.000
301.810;  -12.025; -613.000; -545.000
301.948;   76.800;   53.000;  149.000
302.086;  467.225; -250.000;  -32.000
302.224;  725.100; -610.000; -585.000
302.362;    6.375; -558.000; -622.000
302.500;  -56.050; -923.000; -893.000
302.638;   77.825;  128.000;  245.000
302.776;  -16.675; -352.000; -408.000
302.913;   33.300;  447.000;  236.000
303.051;  -18.475;  -86.000;  -23.000
303.189;   28.075;   90.000;  118.000
303.327;  -38.375; -341.000; -256.000
303.465;  -99.725; -832.000; -588.000
303.603;  -95.525; -805.000; -604.000
303.740;   69.225;  417.000;  241.000
303.878;   -4.575; -800.000; -759.000
304.016; -104.350; -915.000; -790.000
304.154; -143.825;-1123.000;-1152.000
304.291;  -43.625; -505.000; -554.000
304.429;   -0.875;  102.000;   74.000
304.567; -140.550; -908.000; -893.000
304.705;  -66.725; -408.000; -515.000
304.842;   40.550; -616.000; -540.000
304.980;   52.475;  215.000;   35.000
305.118;   19.000; -367.000; -365.000
305.255;  -89.225; -945.000; -927.000
305.393;   42.925;  178.000;  239.000
305.531; -128.675;-1173.000; -956.000
305.668;  -80.525; -663.000; -582.000
305.806;   74.150; -358.000; -439.000
305.943;   56.950; -629.000; -637.000
306.081;   29.250; -378.000; -267.000
306.219; -127.300; -863.000; -748.000
306.356;   -9.725;  158.000;   27.000
306.494;   99.700;  981.000;  761.000
306.631;   -0.900;  -11.000;  -55.000
306.769;  -36.400; -613.000; -485.000
306.906;  -32.050; -284.000; -258.000
307.044;  -62.725; -473.000; -488.000
307.181;  -62.300; -410.000; -332.000
307.319;    3.800;  112.000;   87.000
307.456; -180.675;-1191.000;-1153.000
307.594; -115.175; -980.000; -727.000
307.731;  -25.900; -371.000; -164.000
307.868;    2.375;  -15.000;   20.000
308.006; -146.125; -961.000; -847.000
308.143;  -83.975; -618.000; -330.000
308.281;   75.175;  -37.000; -254.000
308.418;  -61.750; -748.000; -640.000
308.555;  -94.825; -400.000; -250.000
308.693; -104.000; -577.000; -573.000
308.830; -116.175; -712.000; -657.000
308.967;  -24.825; -215.000;  -95.000
309.105;  -41.475; -507.000; -396.000
309.242;   -6.850; -468.000; -367.000
309.379;  139.475; -577.000; -655.000
309.517; -111.250; -936.000; -948.000
309.654; -112.800; -910.000; -734.000
309.791;  -80.625; -662.000; -580.000
309.928; -139.650; -977.000; -914.000
310.065;  151.025;  819.000;  697.000
310.203;  -41.350; -825.000; -850.000
310.340;  -30.250; -465.000; -321.000
310.477;  -81.650; -412.000; -516.000
310.614;  -70.325; -383.000; -473.000
310.751;  -83.050; -427.000; -518.000
310.889;  -31.950;    1.000;   11.000
311.026; -169.350;-1161.000; -939.000
311.163;  -60.425; -386.000; -380.000
311.300;  -83.100; -512.000; -479.000
311.437;  -78.875; -658.000; -619.000
311.574; -179.100;-1226.000; -985.000
311.711;  -68.775; -595.000; -433.000
311.848;  -57.475; -380.000; -388.000
311.985;    3.450;  270.000;   93.000
312.122; -126.425; -932.000; -762.000
312.259; -135.825; -941.000; -994.000
312.396;  -99.900; -508.000; -551.000
312.533;  -99.775; -812.000; -790.000
312.670; -152.550;-1070.000; -898.000
312.807;  -44.650; -352.000; -367.000
312.944;  -94.550; -513.000; -611.000
313.081;  -41.875; -150.000; -415.000
313.218; -124.525;-1111.000; -867.000
313.355;  -24.400; -531.000; -449.000
313.492;  -13.775; -455.000; -292.000
313.629;  122.175;  815.000;  735.000
313.766; -178.350;-1176.000;-1008.000
313.902;  -17.500; -186.000;   21.000
314.039;  -44.025; -372.000; -289.000
314.176;   16.475;  286.000;  192.000
314.313;  -92.050; -569.000; -473.000
314.450;  -91.875; -788.000; -684.000
314.587;  -68.775; -468.000; -480.000
314.723;   -3.275;  -78.000;  130.000
314.860;   21.300;  318.000;  332.000
314.997;   15.800;  223.000;  142.000
315.134;  -55.500; -385.000; -368.000
315.270;  -46.900; -480.000; -496.000
315.407; -135.950;-1094.000; -967.000
315.544;  -67.050; -657.000; -538.000
315.681;  -81.375; -681.000; -565.000
315.817;    6.150; -133.000; -176.000
315.954;   -9.725; -613.000; -392.000
316.091; -129.075;-1045.000;-1023.000
316.227;  -28.775;  -71.000; -179.000
316.364;   -1.350;   23.000;    6.000
316.500;  -48.950; -113.000; -300.000
316.637;  -58.250; -181.000; -302.000
316.774;  -92.700; -625.000; -358.000
316.910;  -99.975; -598.000; -629.000
317.047;  -81.000; -487.000; -351.000
317.183;  -48.325; -435.000; -566.000
317.320;  -15.700; -367.000; -321.000
317.456;  -77.800; -733.000; -805.000
317.593; -110.900; -598.000; -641.000
317.729;    3.375;  168.000;  -67.000
317.866; -212.525;-1434.000;-1285.000
318.002; -101.875; -708.000; -948.000
318.139; -117.425; -883.000; -867.000
318.275; -114.650;-1003.000; -738.000
318.412;  -61.450; -517.000; -336.000
318.548;  -59.850; -751.000; -720.000
318.685; -109.925; -985.000; -888.000
318.821; -106.150; -762.000; -735.000
318.957;  -27.775;   34.000;  -23.000
319.094;   30.100;  297.000;  154.000
319.230;  -85.525; -756.000; -742.000
319.367;   82.025; -471.000; -520.000
319.503;   28.575; -538.000; -436.000
319.639; -110.725; -877.000; -793.000
319.775;  -84.450; -750.000; -685.000
319.912;  -61.225; -424.000; -519.000
320.048; -113.600;-1184.000;-1184.000
320.184;   65.775;   59.000;   70.000
320.321;  -61.825; -497.000; -467.000
320.457;   52.450;  475.000;  662.000
320.593;  -66.075; -375.000; -382.000
320.729; -104.475; -732.000; -734.000
320.866;  -81.525; -577.000; -635.000
321.002;  -96.825; -759.000; -809.000
321.138;  -28.500; -135.000; -211.000
321.274;   39.425; -148.000; -115.000
321.410;  -40.275; -585.000; -353.000
321.546;  -62.625;-1011.000; -911.000
321.683;   48.675;  400.000;  185.000
321.819;  -14.400;  -48.000; -117.000
321.955; -115.025; -743.000; -722.000
322.091;  -52.525; -585.000; -540.000
322.227;  -25.525; -382.000; -202.000
322.363;  -35.550; -320.000; -215.000
322.499;  -54.625; -343.000; -331.000
322.635;  132.400;  636.000;  443.000
322.771;    4.225; -139.000;   12.000
322.907;   64.700;  129.000;  327.000
323.043;  -38.925; -115.000; -206.000
323.179;  -45.925; -394.000; -363.000
323.315;  -15.450; -401.000; -371.000
323.451;   63.150; -328.000; -236.000
323.587;   55.000;  -60.000;  -77.000
323.723;  -13.000; -682.000; -601.000
323.859;  -24.975; -258.000;  -76.000
323.995;  -51.100; -467.000; -409.000
324.131; -125.225; -967.000; -892.000
324.267;  -53.550; -254.000; -276.000
324.402; -144.350; -960.000; -983.000
324.538;  -35.225; -279.000; -104.000
324.674;   13.500;  164.000;   77.000
324.810;   79.175;  226.000;  308.000
324.946;  -17.250; -810.000; -658.000
325.082;  -85.250; -568.000; -475.000
325.217;  -23.075;  -62.000;   16.000
325.353; -113.075; -764.000; -659.000
325.489; -107.600; -540.000; -506.000
325.625;  -89.275; -579.000; -525.000
325.760;   59.575;  517.000;  376.000
325.896;  -23.075; -515.000; -702.000
326.032;  -61.175; -403.000; -352.000
326.168;  -54.500; -462.000; -369.000
326.303;  -63.750; -352.000; -461.000
326.439;  -28.075; -336.000; -276.000
326.575;  -15.725; -190.000;  -29.000
326.710;  -19.700; -156.000;  -30.000
326.846;   -6.775;  146.000;  103.000
326.982; -106.550; -530.000; -548.000
327.117;  -84.875; -481.000; -442.000
327.253; -109.375; -745.000; -742.000
327.388; -141.100;-1137.000;-1153.000
327.524;  -83.000; -811.000; -578.000
327.659;  -24.600;  -58.000;  -22.000
327.795;  -19.575;   69.000;   45.000
327.931;  -96.225; -723.000; -499.000
328.066;  -42.950; -417.000; -276.000
328.202;  -26.200;   12.000; -129.000
328.337;   94.925;  957.000;  713.000
328.473;   35.400;  -12.000;  -74.000
328.608;  -35.750; -256.000; -267.000
328.743; -101.150; -799.000; -664.000
328.879;    4.275;  214.000;  114.000
329.014;  -47.550; -102.000; -122.000
329.150; -101.175; -358.000; -483.000
329.285;  -93.925; -465.000; -466.000
329.421;  -61.950; -548.000; -246.000
329.556;  -30.575;  -36.000;   85.000
329.691; -115.750; -633.000; -615.000
329.827;  -93.500; -626.000; -480.000
329.962;  -44.775;  131.000; -301.000
330.097; -112.675; -673.000; -585.000
330.233;  -68.500; -410.000; -223.000
330.368; -130.350; -839.000; -628.000
330.503;  -21.025;    3.000;   98.000
330.638;    0.725;  -93.000; -125.000
330.774;  -70.025; -609.000; -530.000
330.909;  -45.875; -434.000; -244.000
331.044; -102.000; -714.000; -708.000
331.179; -182.075;-1217.000;-1109.000
331.315;   -5.300;   77.000;   20.000
331.450;    2.600;  157.000;  285.000
331.585; -105.900; -805.000; -706.000
331.720; -100.025; -510.000; -460.000
331.855;   -7.075;  -35.000; -102.000
331.990;  255.850;   62.000;  138.000
332.126;  123.475; -110.000;   71.000
332.261;  -18.400; -379.000; -265.000
332.396;   -8.500; -135.000; -242.000
332.531; -114.150;-1074.000;-1031.000
332.666;   29.325; -519.000; -363.000
332.801; -108.100; -726.000; -807.000
332.936;  -40.250; -192.000; -122.000
333.071; -130.775; -870.000; -817.000
333.206;   17.050;  307.000;  379.000
333.341;   20.975;  344.000;  418.000
333.476;  -92.300; -627.000; -623.000
333.611;  -46.325; -251.000; -173.000
333.746;  -56.325; -381.000; -464.000
333.881; -125.800; -973.000; -935.000
334.016; -138.075; -936.000; -917.000
334.151; -133.350; -746.000; -702.000
334.286;   11.925;  152.000;  186.000
334.421;  -29.150; -125.000; -178.000
334.556;  -93.525; -611.000; -567.000
334.690; -102.075; -631.000; -577.000
334.825;   49.775;  381.000;   83.000
334.960;  -76.450; -285.000; -413.000
335.095;   -5.600;  135.000;  -91.000
335.230; -125.225; -722.000; -738.000
335.365; -158.200;-1084.000; -990.000
335.499; -142.325;-1108.000;-1037.000
335.634;   13.725;    9.000;  534.000
335.769; -104.500; -755.000; -720.000
335.904;  -76.000; -603.000; -561.000
336.038;  -62.700; -735.000; -657.000
336.173; -142.150;-1206.000;-1194.000
336.308;   -6.275; -116.000; -189.000
336.443;    7.625; -544.000; -634.000
336.577; -106.975; -936.000; -787.000
336.712;   49.550;   -4.000;  -12.000
336.847;  -61.050; -724.000; -607.000
336.981;   35.250; -272.000; -208.000
337.116;  251.775;  615.000;  501.000
337.250;  103.825; -434.000; -421.000
337.385;  270.275; -297.000; -208.000
337.520;   84.325; -632.000; -603.000
337.654;  -44.050; -215.000; -126.000
337.789; -132.225; -989.000; -933.000
337.923;  -45.425; -104.000; -205.000
338.058;  -91.825; -673.000; -738.000
338.192;  -56.250; -611.000; -488.000
338.327;  -23.400;  -18.000; -155.000
338.461;  -80.425; -299.000; -469.000
338.596; -105.800; -780.000; -638.000
338.730;  -94.600; -767.000; -803.000
338.865;   97.975;  -46.000; -140.000
338.999;  -59.725; -846.000; -702.000
339.134;  -28.300; -634.000; -536.000
339.268;  -14.825; -741.000; -603.000
339.403;  346.475; -740.000; -775.000
339.537;  119.775; -894.000; -820.000
339.671; -124.225; -829.000; -813.000
339.806;  -57.475; -556.000; -512.000
339.940;   19.925; -261.000; -235.000
340.074; -103.975; -685.000; -510.000
340.209;  -43.675; -351.000; -230.000
340.343;  -93.575; -517.000; -573.000
340.477;  140.350;  998.000; 1036.000
340.612;  -49.675;-1033.000; -900.000
340.746;  121.850; -199.000; -243.000
340.880;  -87.500; -924.000; -785.000
341.014;  -38.825;  -45.000; -154.000
341.149; -123.075; -756.000; -718.000
341.283; -124.125; -839.000; -754.000
341.417; -115.900;-1124.000; -938.000
341.551;   66.050; -768.000; -708.000
341.685;  -51.800; -633.000; -611.000
341.820;  -63.650; -562.000; -493.000
341.954;  -56.575; -218.000; -349.000
342.088; -158.700;-1102.000;-1019.000
342.222;   45.950;  565.000;  618.000
342.356;  -72.750; -395.000; -335.000
342.490; -106.175; -880.000; -841.000
342.624;  -60.000; -339.000; -242.000
342.758;  -27.050; -364.000; -312.000
342.892;  -87.950; -710.000; -585.000
343.026;  -49.250;  -58.000; -116.000
343.160;  -57.900; -426.000; -376.000
343.294;  -86.400; -474.000; -337.000
343.428;  -58.275; -488.000; -448.000
343.562;  -18.850; -172.000;  -23.000
343.696;  -23.425; -385.000; -314.000
343.830;  -33.550; -362.000; -356.000
343.964;   -6.800; -231.000; -168.000
344.098;  693.875;  199.000;   70.000
344.232;  557.775; -266.000; -127.000
344.366;   59.475; -567.000; -453.000
344.500;   10.675; -665.000; -744.000
344.634;   -9.975; -324.000; -164.000
344.768;  -41.550; -531.000; -341.000
344.902;   13.775;  278.000;  256.000
345.035;  -83.800; -556.000; -496.000
345.169; -146.950; -933.000; -656.000
345.303;  -36.275; -308.000; -482.000
345.437;  -95.925; -826.000; -717.000
345.571;  -96.100; -675.000; -594.000
345.704;  -67.750; -309.000; -532.000
345.838;  -27.425; -331.000; -284.000
345.972;  -46.000; -543.000; -495.000
346.106;  152.300; -179.000; -190.000
346.239;  376.650; -312.000; -243.000
346.373;    0.775; -343.000; -302.000
346.507; -150.700; -950.000; -962.000
346.640;   81.975;  -30.000;   13.000
346.774;  -60.675; -650.000; -797.000
346.908;  -18.150; -138.000;  -11.000
347.041; -108.650; -646.000; -593.000
347.175;   -3.025;  259.000;   27.000
347.309;  -90.725; -698.000; -628.000
347.442; -116.100; -883.000; -732.000
347.576;  236.650;  670.000;  668.000
347.709;  132.575; -123.000;  -52.000
347.843; -118.300; -933.000; -825.000
347.976;   20.675;  235.000;  294.000
348.110; -186.000;-1268.000;-1186.000
348.243; -116.000; -679.000; -772.000
348.377;   -9.025;  -26.000;   60.000
348.510;   51.450;  403.000;  540.000
348.644;  -44.925;  -37.000; -159.000
348.777;   -7.550;  180.000;  191.000
348.911;  -64.900; -142.000; -112.000
349.044;  140.200;  471.000;  448.000
349.178;   75.575;-1069.000;-1006.000
349.311;   82.075;  141.000;  255.000
349.444;  -20.800; -927.000; -813.000
349.578;  -16.425; -347.000; -200.000
349.711; -123.800; -959.000; -862.000
349.845;  -41.450; -661.000; -591.000
349.978; -168.475;-1224.000;-1137.000
350.111;  -97.850; -546.000; -612.000
350.244; -104.875; -596.000; -700.000
350.378;  -35.250; -392.000; -393.000
350.511;  -62.225; -393.000; -426.000
350.644; -117.600; -808.000; -806.000
350.778;    3.250;  168.000;  104.000
350.911;   -4.225;  134.000;  140.000
351.044;  -96.125; -685.000; -615.000
351.177;  -47.200; -321.000; -281.000
351.310;  -44.800;    3.000; -131.000
351.444;  -94.850; -888.000; -788.000
351.577;   89.875;  140.000;   90.000
351.710;   83.325;  593.000;  417.000
351.843;  -37.500; -165.000;  -77.000
351.976;    0.625;  149.000;  -79.000
352.109; -114.425; -621.000; -612.000
352.242;  -54.525; -464.000; -419.000
352.376;  -77.350; -580.000; -636.000
352.509;  104.750; -437.000; -356.000
352.642;  -35.325; -654.000; -604.000
352.775;   27.900; -141.000;  -98.000
352.908; -139.000; -933.000; -904.000
353.041; -118.900; -814.000; -824.000
353.174;  -69.575; -551.000; -424.000
353.307; -114.125; -753.000; -764.000
353.440;   65.625;  541.000;  453.000
353.573; -130.025; -957.000;-1008.000
353.706;  -35.050; -384.000; -558.000
353.839;  -38.250; -264.000; -220.000
353.971;  -90.425; -657.000; -512.000
354.104; -101.800; -896.000; -835.000
354.237;  -68.625; -627.000; -662.000
354.370;  -98.675; -846.000; -879.000
354.503; -193.175;-1231.000;-1308.000
354.636;  -46.675; -529.000; -348.000
354.769; -144.250; -937.000; -860.000
354.902;  -21.750; -230.000; -139.000
355.034;  -20.850; -164.000; -220.000
355.167;  -30.475; -262.000; -162.000
355.300;  -95.975;-1061.000; -880.000
355.433;  993.025;  -71.000;  -14.000
355.565; 1536.400; -402.000; -384.000
355.698;  377.850; -356.000; -296.000
355.831;  -34.850; -882.000; -801.000
355.964;   39.575; -285.000; -170.000
356.096; -101.075; -856.000; -843.000
356.229;  -27.775; -523.000; -530.000
356.362;  321.075; -373.000; -266.000
356.494;  606.700; -229.000; -162.000
356.627;  401.725;  269.000;  377.000
356.760;  660.075;  120.000;   53.000
356.892;  969.000; -286.000; -601.000
357.025;  527.050;  403.000;  389.000
357.157;  428.925; -167.000; -179.000
357.290;  711.050; -856.000; -713.000
357.423;  187.625; -667.000; -556.000
357.555;   79.150; -217.000; -228.000
357.688;   84.025; -483.000; -364.000
357.820;  340.425; -870.000; -877.000
357.953; 2984.125; -563.000; -589.000
358.085;  598.575; -632.000; -612.000
358.218;  731.325;-1131.000; -932.000
358.350;  131.375;  -58.000;  312.000
358.483; -146.475;-1300.000;-1187.000
358.615;  -83.975;-1182.000;-1078.000
358.747;  -91.925;-1187.000;-1058.000
358.880;  -19.875; -810.000; -744.000
359.012;  -17.425; -376.000; -202.000
359.145;  -45.025; -480.000; -511.000
359.277;   19.700; -962.000; -913.000
359.409; 2466.475;  536.000;  231.000
359.542;  591.100; -738.000; -688.000
359.674;   43.350;   46.000;   13.000
359.806;  -75.400; -565.000; -438.000
359.939;  -64.725; -617.000; -516.000
360.071;   -5.700; -583.000; -579.000
360.203;  -41.900; -411.000; -364.000
360.335;   38.925;  164.000;  -16.000
360.468;  129.975; -249.000; -307.000
360.600; 2067.225; -547.000; -454.000
360.732; 2910.050; -546.000; -423.000
360.864;  364.375;-1216.000;-1044.000
360.996;  165.700; -516.000; -554.000
361.129;    4.800; -389.000; -598.000
361.261;    1.050;  110.000; -113.000
361.393;  -36.650; -252.000; -214.000
361.525;   12.600;   94.000;  244.000
361.657;  -75.700; -821.000; -703.000
361.789;   -2.200; -139.000; -155.000
361.921;  113.000; -642.000; -593.000
362.053;  205.200;  524.000;  541.000
362.185;   23.475;  288.000;   72.000
362.318; -101.900; -709.000; -705.000
362.450;   77.875;  294.000;  444.000
362.582;    3.200; -913.000; -870.000
362.714;  -40.975; -353.000; -332.000
362.846;  -94.525; -606.000; -490.000
362.978; -144.650; -941.000; -811.000
363.109;   11.150; -161.000; -260.000
363.241;  301.600; -739.000; -749.000
363.373;  427.475; -649.000; -564.000
363.505;  681.075; -186.000;  -91.000
363.637;  136.225; -787.000; -601.000
363.769; -145.700;-1067.000;-1080.000
363.901;  -83.325; -596.000; -654.000
364.033; -132.950;-1103.000;-1062.000
364.165;  -20.925; -283.000; -283.000
364.296;   56.050; -316.000; -177.000
364.428;   72.850;-1344.000;-1220.000
364.560;  -87.450; -679.000; -661.000
364.692;  -76.100; -738.000; -835.000
364.824;  145.000; -588.000; -456.000
364.955;  406.850; -402.000; -564.000
365.087;  975.625;-1097.000; -852.000
365.219;   19.900; -686.000; -816.000
365.351;  -88.075; -526.000; -572.000
365.482;   36.225;  300.000;  240.000
365.614;  -55.725; -402.000; -314.000
365.746; -106.700; -729.000; -752.000
365.877; -102.950; -706.000; -672.000
366.009;  266.325;  -35.000;  -62.000
366.141;  -89.925;-1249.000;-1134.000
366.272; -125.975; -803.000; -719.000
366.404; -133.525;-1005.000; -874.000
366.535;  -15.625; -139.000;  -12.000
366.667; -112.325; -644.000; -649.000
366.799;   18.300;  353.000;  203.000
366.930; -135.025; -862.000; -996.000
367.062;  108.325; -639.000; -613.000
367.193;  152.475; -872.000; -842.000
367.325;  -71.350; -580.000; -684.000
367.456;   32.325; -246.000;   31.000
367.588;  165.700; -371.000; -318.000
367.719;   15.000;  -44.000;  -45.000
367.851;  -29.200; -222.000; -241.000
367.982;  -87.925; -875.000; -732.000
368.113;   39.450; -475.000; -358.000
368.245; -144.825; -960.000; -841.000
368.376;  -40.050; -254.000; -302.000
368.508;  -54.475; -188.000; -263.000
368.639; -164.625;-1166.000;-1034.000
368.770;  -32.175; -670.000; -589.000
368.902;  -88.050; -836.000; -926.000
369.033; -109.825; -906.000; -855.000
369.164;  -51.125; -720.000; -653.000
369.296; -113.800; -452.000; -601.000
369.427;  -31.200; -209.000; -144.000
369.558;  -74.900; -593.000; -377.000
369.689;  -94.525; -721.000; -569.000
369.821; -131.950; -951.000; -845.000
369.952;  -22.050;   42.000; -108.000
370.083;  -53.775; -229.000; -108.000
370.214; -101.075; -735.000; -650.000
370.345;  -15.300;   65.000;   81.000
370.477; -115.075; -810.000; -790.000
370.608;  161.600; -328.000; -264.000
370.739;  -96.225;-1233.000;-1292.000
370.870;  -79.725;-1102.000; -923.000
371.001;   24.600; -378.000; -467.000
371.132;  -92.175; -754.000; -735.000
371.263;  -23.325;  -42.000; -148.000
371.394; -142.125; -841.000; -748.000
371.525;   29.500;  345.000;  225.000
371.657;  -97.525; -808.000; -670.000
371.788;   50.075;  103.000;  199.000
371.919;  114.400; -384.000; -304.000
372.050; 2868.050;  -91.000; -156.000
372.181;  817.900; -188.000; -294.000
372.311;  262.425;   42.000; -127.000
372.442;    3.325; -457.000; -451.000
372.573;  -49.825; -444.000; -340.000
372.704; -138.000;-1008.000; -980.000
372.835;   45.400; -228.000; -289.000
372.966;  -88.000; -646.000; -554.000
373.097;  -88.975; -575.000; -711.000
373.228;  -69.200; -717.000; -542.000
373.359;   51.650; -824.000; -536.000
373.490;  640.675; -881.000; -727.000
373.620;  815.725;-1001.000; -803.000
373.751; 1333.400; -332.000; -396.000
373.882;  553.850; -663.000; -733.000
374.013;   11.400; -449.000; -262.000
374.143;  -59.350; -581.000; -659.000
374.274; -124.825; -987.000; -908.000
374.405;  111.425; -388.000; -276.000
374.536;  321.650; -526.000; -387.000
374.666;  802.800; -759.000; -807.000
374.797;  128.750; -817.000; -868.000
374.928;  601.575; -710.000; -560.000
375.058;  613.525; -535.000; -500.000
375.189;   39.025;  -59.000;  -93.000
375.320; -114.425; -928.000;-1034.000
375.450;  -60.275; -625.000; -616.000
375.581;  -62.175; -526.000; -436.000
375.712;  -43.325; -574.000; -250.000
375.842;  197.425; -438.000; -415.000
375.973;  129.475; -554.000; -513.000
376.103;  -67.850; -665.000; -648.000
376.234; -101.050; -531.000; -552.000
376.364;  -61.100; -944.000; -867.000
376.495;  252.825;  925.000;  529.000
376.625;  -59.650; -472.000; -485.000
376.756;    5.975; -709.000; -678.000
376.886; -102.075;-1178.000;-1026.000
377.017;   57.850;-1048.000;-1061.000
377.147;  356.775; -786.000; -782.000
377.278;   47.025;  174.000;  228.000
377.408; -135.900; -801.000; -815.000
377.538; -104.575; -707.000; -693.000
377.669;  -81.225; -537.000; -613.000
377.799; -117.125; -645.000; -635.000
377.929;  -70.825; -610.000; -428.000
378.060; -130.825; -781.000; -847.000
378.190;  -80.150; -726.000; -531.000
378.320;  -66.750; -401.000; -406.000
378.451;  -26.500; -131.000;  -22.000
378.581;  -19.250;  -67.000; -110.000
378.711;  124.000; 1035.000;  866.000
378.841;  -45.400; -533.000; -675.000
378.972; -103.475; -871.000; -751.000
379.102;  -42.275; -652.000; -579.000
379.232;  -37.975; -126.000;  -73.000
379.362; -132.925;-1001.000; -885.000
379.492;  -18.000; -373.000; -424.000
379.623;   61.725;    0.000;  111.000
379.753; -125.550;-1107.000; -974.000
379.883;  140.750;   59.000;  156.000
380.013;  -50.800;-1081.000;-1017.000
380.143; -123.900;-1097.000;-1056.000
380.273; -120.500; -985.000; -861.000
380.403;  -30.850; -344.000; -257.000
380.533;  -69.350; -651.000; -664.000
380.663;   46.975;  173.000;  128.000
380.793; -123.550;-1027.000;-1074.000
380.923;  -42.450; -103.000;  -34.000
381.053; -116.475; -613.000; -623.000
381.183;  -55.825; -106.000; -248.000
381.313;   -1.325; -656.000; -470.000
381.443;   -9.550; -692.000; -473.000
381.573;   99.100; -402.000; -409.000
381.703;  115.850;-1249.000;-1095.000
381.833; -161.475;-1454.000;-1336.000
381.963;   87.975; -134.000;  -87.000
382.093; 1102.925; -925.000; -909.000
382.223;  296.550; -713.000; -602.000
382.353;  -47.825; -801.000; -608.000
382.482;  242.000;-1091.000; -964.000
382.612;  564.525; -872.000; -644.000
382.742;  292.350; -695.000; -622.000
382.872;  148.075; -565.000; -551.000
383.002;   36.300;  347.000; -132.000
383.131;  -36.950; -226.000; -160.000
383.261;  -69.500; -706.000; -768.000
383.391;  254.500; -552.000; -377.000
383.521; 3403.625;  451.000;  263.000
383.650;  801.400; -947.000; -904.000
383.780;  -17.350; -783.000; -656.000
383.910;  101.800;  880.000;  802.000
384.039;  -26.625; -794.000; -656.000
384.169;  101.675;-1205.000;-1017.000
384.299;  -74.025; -650.000; -662.000
384.428; -100.725; -764.000; -680.000
384.558;  -58.625; -308.000; -275.000
384.687;  -56.725; -414.000; -334.000
384.817;   -4.775;   75.000;   -2.000
384.947;    1.425; -234.000; -141.000
385.076;  236.325;  982.000;  912.000
385.206;   73.500;  369.000;  480.000
385.335;  -50.725; -549.000; -417.000
385.465; -100.725; -655.000; -663.000
385.594;   94.025;  -53.000;  -44.000
385.724;  262.575; -868.000; -838.000
385.853;   60.075; -296.000; -270.000
385.982; 1014.750; -743.000; -787.000
386.112; 1603.725;-1052.000; -871.000
386.241;   74.150; -307.000; -312.000
386.371;   -3.975; -174.000;  -87.000
386.500;  -40.600; -825.000; -789.000
386.629;  -14.750; -874.000; -817.000
386.759;   54.425;  -43.000;   68.000
386.888;  -12.825; -170.000; -250.000
387.017; -100.575; -648.000; -620.000
387.147;  -98.325; -771.000; -798.000
387.276;  -24.700; -410.000; -397.000
387.405;  -12.450; -398.000; -342.000
387.535;  -50.100; -452.000; -361.000
387.664;  -81.100; -692.000; -620.000
387.793;   28.800; -198.000; -113.000
387.922;  364.100;  255.000;  200.000
388.052;  -14.375; -576.000; -423.000
388.181;  -19.850; -342.000; -472.000
388.310;  -64.550; -889.000; -710.000
388.439;  -76.725; -749.000; -742.000
388.568;  140.000;  365.000;  244.000
388.697;  747.350; -756.000; -653.000
388.826;  120.475; -768.000; -666.000
388.956;   19.000; -285.000; -307.000
389.085;  -47.725; -347.000; -287.000
389.214; -117.075; -842.000; -872.000
389.343;  -80.575; -645.000; -413.000
389.472;  409.000;  126.000;  149.000
389.601;  481.050;   91.000;    0.000
389.730;  -22.625; -568.000; -687.000
389.859;   47.475;  226.000;   46.000
389.988;  113.850; -423.000; -408.000
390.117;   89.425; -168.000; -146.000
390.246;  -29.575; -331.000; -320.000
390.375;   38.525; -673.000; -626.000
390.504;  -78.400; -703.000; -621.000
390.633; -108.200; -672.000; -726.000
390.761;  -96.550; -732.000; -645.000
390.890;  -26.325;   -4.000; -130.000
391.019;  -50.350; -421.000; -441.000
391.148; -148.500; -826.000; -855.000
391.277;  -91.600; -576.000; -493.000
391.406; -117.450; -821.000; -805.000
391.534;    1.200;  574.000; -301.000
391.663;  -89.350; -583.000; -645.000
391.792; -108.100; -673.000; -701.000
391.921;   53.125;   -3.000;   15.000
392.050;   91.500; -287.000; -228.000
392.178;  -86.825;-1206.000;-1061.000
392.307;   49.625; -758.000; -712.000
392.436;   15.675; -427.000; -641.000
392.564;   11.000;  166.000;   -6.000
392.693; -114.125; -860.000; -682.000
392.822;  129.900; -529.000; -534.000
392.950;   25.800; -880.000; -714.000
393.079;  225.600; -188.000; -328.000
393.208;    1.325; -488.000; -511.000
393.336;  -29.025; -170.000; -145.000
393.465;  -58.725; -317.000; -199.000
393.593;  -14.425;   62.000;   79.000
393.722; -165.075;-1121.000; -916.000
393.850;  -31.650; -188.000;  -61.000
393.979; -158.500; -926.000; -805.000
394.107;  -88.825; -517.000; -537.000
394.236;  -67.550; -570.000; -507.000
394.364;  150.250;  383.000;  206.000
394.493;  140.550; -911.000; -767.000
394.621;  -33.000; -955.000; -916.000
394.750;  744.725; -873.000; -923.000
394.878; 3077.350; -247.000; -149.000
395.007; 4034.075; -721.000; -807.000
395.135;  276.950; -790.000; -721.000
395.263;  -96.775;-1038.000;-1040.000
395.392;  -22.575;  -25.000; -107.000
395.520; -142.400; -818.000; -679.000
395.648; -115.175; -865.000; -915.000
395.777;  -42.550; -366.000; -405.000
395.905;  -75.475; -449.000; -564.000
396.033;   15.125;  217.000;  172.000
396.162;  294.275; -399.000; -453.000
396.290;  260.575;  -17.000;   -2.000
396.418;   24.250; -555.000; -514.000
396.546;  -91.850; -571.000; -466.000
396.674; -119.575; -850.000; -878.000
396.803;  -21.225;  -72.000;  -23.000
396.931;   40.800; -179.000; -199.000
397.059;  -42.850;-1026.000; -989.000
397.187; -136.850;-1026.000; -975.000
397.315; -132.625; -884.000; -649.000
397.443; -107.800; -592.000; -443.000
397.572;  -99.525; -578.000; -424.000
397.700;  -50.350; -607.000; -614.000
397.828;   -4.525;  120.000;  -90.000
397.956;  -68.575; -508.000; -478.000
398.084;  -61.475; -767.000; -626.000
398.212;   12.500;  137.000;  124.000
398.340;  -25.050;  -56.000;  159.000
398.468;  -12.450; -390.000; -169.000
398.596; -153.225; -993.000; -953.000
398.724; -131.425; -762.000; -767.000
398.852; -175.250;-1024.000; -976.000
398.980;  -86.175; -560.000; -560.000
399.108;  -88.000; -982.000; -735.000
399.236;    6.675;   13.000;    8.000
399.363;   -8.025;  222.000;  196.000
399.491;  -73.950; -404.000; -398.000
399.619; -134.275; -829.000; -800.000
399.747; -111.900; -859.000; -771.000
399.875;   36.825;  220.000;  234.000
400.003;  -70.975; -359.000; -284.000
400.130;  -93.925; -421.000; -341.000
400.258;  -32.800;  -83.000;   38.000
400.386;  -68.975; -352.000; -168.000
400.514;  -74.675; -526.000; -587.000
400.641; -118.475; -928.000; -802.000
400.769; -144.050; -979.000; -888.000
400.897; -135.225; -838.000; -793.000
401.025;  -39.175; -166.000; -152.000
401.152;  -10.575;  220.000;   38.000
401.280;  -79.925; -430.000; -429.000
401.408; -132.775; -712.000; -576.000
401.535; -118.225; -735.000; -758.000
401.663; -193.700;-1134.000;-1054.000
401.790; -109.100; -514.000; -525.000
401.918;   38.825;  436.000;  405.000
402.046;  -21.775;  134.000;  122.000
402.173;  -42.250;  -18.000;    7.000
402.301;  -84.150; -519.000; -397.000
402.428;   26.750;  528.000;  383.000
402.556; -161.425;-1188.000; -913.000
402.683;  -45.525;  -20.000;   -1.000
402.811;  -34.400;  -37.000; -206.000
402.938;  -26.225;   20.000;   27.000
403.066;  126.675; -574.000; -558.000
403.193;  235.900;  299.000;  239.000
403.321;  175.200; -396.000; -574.000
403.448;  258.375;   83.000;   27.000
403.575;   96.675;  -90.000;  -46.000
403.703; -100.700; -732.000; -557.000
403.830;  -66.450; -531.000; -496.000
403.957; -149.175;-1117.000;-1023.000
404.085;   -1.000;  -61.000; -172.000
404.212;   73.300;  -50.000;   63.000
404.339;  270.000; -566.000; -306.000
404.467; 6036.475; -612.000; -524.000
404.594; 3606.925; -287.000; -227.000
404.721;  754.400; -869.000; -764.000
404.848;   54.475; -113.000; -202.000
404.976; -125.000; -856.000; -783.000
405.103;  -24.625;  -14.000;  -82.000
405.230;   -6.175;  190.000;  226.000
405.357;   17.775;  117.000;   44.000
405.484;  263.475;  -49.000;    5.000
405.612;   39.250; -548.000; -563.000
405.739;  -77.200; -488.000; -243.000
405.866;   84.750;  669.000;  385.000
405.993;  -47.650; -398.000; -102.000
406.120; -146.175; -801.000; -887.000
406.247;  -68.500; -323.000; -342.000
406.374;  305.575;  540.000;  629.000
406.501;   21.300; -632.000; -702.000
406.628;  -97.375; -621.000; -589.000
406.755; -112.950; -803.000; -620.000
406.882;  -45.950; -228.000; -277.000
407.009; -114.650; -719.000; -628.000
407.136;    6.725; -480.000; -401.000
407.263;   42.575; -939.000; -829.000
407.390;  -95.825; -692.000; -614.000
407.517; -190.200;-1139.000;-1187.000
407.644;  -71.650; -332.000; -256.000
407.771;  -89.425; -249.000; -287.000
407.898;    1.375;  168.000;  328.000
408.025;  -81.750; -421.000; -313.000
408.151;  -26.075;   82.000;  153.000
408.278;  -75.750; -267.000; -216.000
408.405; -127.875; -931.000; -899.000
408.532;  -86.825; -549.000; -542.000
408.659; -132.275; -677.000; -648.000
408.785; -211.900;-1298.000;-1170.000
408.912;  -85.975; -412.000; -296.000
409.039; -108.000; -610.000; -686.000
409.166; -113.875; -591.000; -555.000
409.292; -114.725; -571.000; -534.000
409.419; -132.375; -665.000; -649.000
409.546;  -92.175; -431.000; -192.000
409.672; -127.050; -713.000; -545.000
409.799;  -36.675;  -36.000;   34.000
409.926;  -45.475; -180.000; -179.000
410.052; -200.025;-1127.000;-1091.000
410.179;  -76.525; -368.000; -392.000
410.305;  -91.525; -375.000; -493.000
410.432;  -55.925; -220.000; -333.000
410.558; -101.350; -305.000; -380.000
410.685; -113.775; -688.000; -431.000
410.812; -105.600; -409.000; -588.000
410.938; -151.400; -964.000; -808.000
411.065; -114.075; -671.000; -645.000
411.191;  -26.125; -189.000; -174.000
411.317; -125.900; -823.000; -742.000
411.444;  -77.575; -317.000; -246.000
411.570;  -79.075; -339.000; -294.000
411.697; -133.200; -758.000; -752.000
411.823; -188.375; -989.000; -999.000
411.949;  -40.175;  -56.000;   17.000
412.076; -127.650; -539.000; -519.000
412.202; -128.175; -758.000; -757.000
412.329; -132.550; -798.000; -752.000
412.455; -130.975; -821.000; -657.000
412.581;  -44.250;  -15.000;  172.000
412.707;  -76.700; -540.000; -457.000
412.834;   14.675;  156.000;  219.000
412.960; -110.150; -785.000; -784.000
413.086; -112.550; -743.000; -701.000
413.212;  105.400;  604.000;  578.000
413.339;  -95.825; -685.000; -701.000
413.465;  -29.250; -364.000; -310.000
413.591; -106.525; -757.000; -474.000
413.717;  -59.450; -358.000; -366.000
413.843; -155.200; -839.000; -861.000
413.969;  -74.175;  -47.000; -292.000
414.096; -121.400; -679.000; -679.000
414.222;  -19.050;  -33.000;   85.000
414.348;  -52.050; -652.000; -385.000
414.474;   40.350;   38.000;  -52.000
414.600;  -27.400; -126.000; -144.000
414.726;  -18.800;  -96.000;  -55.000
414.852;  -66.900; -365.000; -342.000
414.978;   19.950;  104.000;  -18.000
415.104;   28.325;   38.000;   80.000
415.230;   -5.725; -329.000; -330.000
415.356;   24.675; -409.000; -514.000
415.482;  176.350;   13.000;  -35.000
415.608;  248.250; -247.000; -323.000
415.734;  971.150;   67.000;   38.000
415.860;20605.100; -875.000; -767.000
415.986;14294.525; -685.000; -607.000
416.111; 1192.375; -798.000; -652.000
416.237;  247.650; -424.000; -571.000
416.363; 1223.275; -765.000; -733.000
416.489; 4335.575; -324.000; -251.000
416.615;  454.650; -707.000; -742.000
416.741;  -33.450; -677.000; -784.000
416.866;  -94.150; -673.000; -736.000
416.992; -123.150; -801.000; -818.000
417.118;  -34.925;  -41.000;  -80.000
417.244;  -83.950; -798.000; -531.000
417.369;  -88.050; -801.000; -612.000
417.495;  -25.600; -325.000; -254.000
417.621; -107.300;-1015.000; -803.000
417.746;  -16.750; -579.000; -572.000
417.872;   35.875; -254.000; -144.000
417.998;   56.125; -515.000; -530.000
418.123; 1148.825;-1073.000; -845.000
418.249; 5567.325; -512.000; -601.000
418.374;  717.675; -916.000; -824.000
418.500;   90.375; -383.000; -482.000
418.626;  109.650;   70.000;  -59.000
418.751;  107.525; -549.000; -448.000
418.877;  184.975; -637.000; -643.000
419.002; 1946.550; -688.000; -560.000
419.128;13103.700; -930.000; -721.000
419.253; 3024.200; -967.000; -837.000
419.379;  407.500; -391.000; -338.000
419.504;  395.425;  325.000;  415.000
419.629;  526.125; -393.000; -212.000
419.755; 3893.100; -317.000; -254.000
419.880;22411.575;  -98.000;   67.000
420.006;11965.100; -280.000; -221.000
420.131;30082.850; -662.000; -775.000
420.256; 4122.525; -315.000; -316.000
420.382;  531.350; -665.000; -687.000
420.507;   43.150; -649.000; -778.000
420.632;   84.325; -337.000; -339.000
420.758;  162.275; -251.000; -425.000
420.883; -104.625; -876.000; -672.000
421.008; -124.350; -775.000; -619.000
421.133; -106.700; -509.000; -467.000
421.259;  -64.100; -325.000; -259.000
421.384; -116.825; -834.000; -693.000
421.509;  -89.600;-1052.000; -862.000
421.634;  755.700; -936.000; -820.000
421.759;  309.900; -359.000; -327.000
421.885;  -81.675; -717.000; -656.000
422.010;  -94.625; -673.000; -542.000
422.135; -157.500; -695.000; -727.000
422.260;   30.225;  340.000;  280.000
422.385;  -50.025;   12.000;  -98.000
422.510;    0.850;  151.000;  -26.000
422.635;   -7.600;  -87.000;  -43.000
422.760;   59.025; -766.000; -791.000
422.885;   36.200;  -57.000;  -80.000
423.010;  -43.000; -112.000; -169.000
423.135; -100.600; -481.000; -561.000
423.260;  -34.050; -150.000; -245.000
423.385;   48.500;  476.000;  222.000
423.510;   16.675;   71.000;  -22.000
423.635;   61.075;  133.000;   45.000
423.760;   40.925;  383.000;  328.000
423.885;   50.925;  336.000;  391.000
424.010;  -15.275;  -68.000;  -13.000
424.135;  -35.575;    5.000;  -33.000
424.259;  -92.850; -654.000; -457.000
424.384;  -54.250; -279.000; -272.000
424.509;  -37.675; -260.000; -186.000
424.634; -116.225; -761.000; -623.000
424.759;  -46.825; -688.000; -544.000
424.883;  -26.550; -506.000; -527.000
425.008;  154.650; -502.000; -410.000
425.133; 2068.050; -679.000; -653.000
425.258;  916.400; -517.000; -381.000
425.382;  849.925; -867.000; -774.000
425.507; 2034.550; -487.000; -543.000
425.632;  350.300; -802.000; -663.000
425.756;  470.550; -256.000; -146.000
425.881; 7300.375; -831.000; -857.000
426.006;18926.050; -604.000; -355.000
426.130; 2740.750; -696.000; -508.000
426.255;  350.625; -611.000; -491.000
426.379;  149.775; -189.000; -577.000
426.504;  373.025;  660.000;  544.000
426.629; 4172.100; -519.000; -466.000
426.753; 2708.100;   64.000;  -46.000
426.878;  305.900; -252.000; -288.000
427.002;  150.125; -651.000; -668.000
427.127; 1674.725;  -35.000; -158.000
427.251;11867.250;  372.000;  401.000
427.375; 3168.625; -191.000; -173.000
427.500; 1864.225; -616.000; -610.000
427.624;  585.875; -234.000; -400.000
427.749;   53.125; -216.000; -225.000
427.873;  -65.675; -499.000; -412.000
427.997;  -64.100; -222.000; -230.000
428.122;   73.075;  795.000;  703.000
428.246;   53.400;  433.000;  434.000
428.371; -155.200; -869.000; -773.000
428.495; -122.925; -624.000; -646.000
428.619;  -37.975; -186.000; -117.000
428.743;    6.350;   65.000;  132.000
428.868;  -24.900; -732.000; -643.000
428.992; 1078.850; -219.000; -326.000
429.116;  386.425; -329.000; -357.000
429.240;  202.475;  419.000;  426.000
429.365;  -45.975; -454.000; -574.000
429.489;  -79.025; -638.000; -647.000
429.613;   -2.175; -236.000; -177.000
429.737;   30.075; -563.000; -432.000
429.861;  278.375; -247.000; -133.000
429.985; 5836.850; -425.000; -305.000
430.109; 6181.650; -770.000; -908.000
430.234;  668.600;   76.000;  -50.000
430.358;   57.675; -250.000; -160.000
430.482;  -75.850; -672.000; -564.000
430.606;  -83.850; -655.000; -375.000
430.730;    0.175; -437.000; -388.000
430.854;   33.950; -909.000; -835.000
430.978;  -96.675; -795.000; -764.000
431.102;  -93.100; -499.000; -422.000
431.226; -133.050; -874.000; -815.000
431.350;   19.275;  345.000;  422.000
431.474;  -83.550; -661.000; -373.000
431.597; -151.375;-1060.000; -848.000
431.721;  -92.775; -276.000; -267.000
431.845; -146.275; -704.000; -472.000
431.969;  -91.425; -304.000; -349.000
432.093;  -94.975; -395.000; -317.000
432.217;  -22.750;   32.000;   82.000
432.341;  -94.200; -523.000; -518.000
432.464;  -16.850;   96.000;   40.000
432.588;  107.350; -401.000; -329.000
432.712;   57.875;  -52.000;  -52.000
432.836;   34.025;  213.000;  263.000
432.959;  -22.325; -372.000; -311.000
433.083;   80.725;   11.000;    2.000
433.207;  378.350;  285.000;  930.000
433.330; 5414.250; -391.000; -200.000
433.454; 6351.700; -654.000; -638.000
433.578; 3690.200;  583.000;  278.000
433.701;  647.375; -623.000; -675.000
433.825;   82.625; -292.000; -299.000
433.949;   90.550;   28.000;  -72.000
434.072;   10.250; -410.000; -323.000
434.196;  -22.050; -309.000; -117.000
434.319; 3761.625;25482.000;25124.000
434.443;  720.000; -656.000; -603.000
434.566; 2723.925;  281.000;   62.000
434.690;  436.150; -637.000; -383.000
434.813;   34.950; -251.000; -173.000
434.937;  -87.425; -569.000; -696.000
435.060;  -73.125; -423.000; -332.000
435.184;  146.425; -492.000; -217.000
435.307;   74.600;  159.000;  102.000
435.431;  -28.925;  -40.000;   24.000
435.554;  -90.475; -399.000; -240.000
435.677; -102.775; -350.000; -258.000
435.801;  -64.750;  -25.000;   49.000
435.924;  -32.725;    1.000;  -67.000
436.048; -147.675;-1019.000; -732.000
436.171;  -97.075; -240.000;  -66.000
436.294;  -43.700; -248.000; -229.000
436.417;   78.325; -963.000; -849.000
436.541;  -90.325; -814.000; -840.000
436.664;  -63.100; -242.000; -316.000
436.787;  -34.425;   13.000;  113.000
436.910; -129.325; -792.000; -422.000
437.034;  -22.675;  142.000;  143.000
437.157;   22.500;  -11.000;    0.000
437.280;  -70.675; -392.000; -292.000
437.403; -114.075; -982.000; -869.000
437.526;  359.800; -903.000; -865.000
437.649; 1444.650; -505.000; -332.000
437.772;  169.925; -692.000; -540.000
437.896;   74.325;  700.000;  544.000
438.019; -121.425; -758.000; -503.000
438.142;  -99.500; -596.000; -506.000
438.265;  -55.350; -639.000; -670.000
438.388;  354.375; -520.000; -410.000
438.511;   20.075; -597.000; -394.000
438.634;  -79.850; -247.000; -125.000
438.757; -143.850; -693.000; -619.000
438.880;  -50.325;  -34.000;  -57.000
439.003; -103.625; -417.000; -437.000
439.126;  -81.850; -287.000; -167.000
439.248;  -80.800;  -98.000; -139.000
439.371;  -49.050;    9.000;  -53.000
439.494;   16.850;  510.000;  439.000
439.617;  -68.250;   65.000;  -88.000
439.740; -188.775; -968.000; -816.000
439.863; -165.175; -755.000; -595.000
439.986; -128.800; -476.000; -431.000
440.108;  -64.150; -161.000; -112.000
440.231; -179.000; -950.000; -836.000
440.354;  -58.125;  -64.000; -150.000
440.477;  -41.400; -566.000; -542.000
440.599;  -49.225; -200.000; -225.000
440.722; -137.625; -709.000; -586.000
440.845;   62.425;  751.000;  928.000
440.968; -124.225; -415.000; -311.000
441.090;  -71.200; -199.000;  -33.000
441.213; -175.725;-1021.000; -825.000
441.336;  -56.050; -159.000;   -5.000
441.458;  -89.325; -549.000; -396.000
441.581; -112.500; -628.000; -629.000
441.703;  -75.225; -152.000;   13.000
441.826; -117.050; -557.000; -400.000
441.948;  -66.125;   56.000;   51.000
442.071;   35.675;  555.000;  424.000
442.193; -134.350; -531.000; -485.000
442.316;   -1.850;  152.000;   97.000
442.438;   27.625; -233.000;  -10.000
442.561;   64.325;  272.000;  262.000
442.683;  327.950; -809.000; -522.000
442.806;  749.625;   -8.000;   74.000
442.928;  -48.475; -859.000; -604.000
443.051;  -79.975; -577.000; -373.000
443.173;  -93.550; -341.000; -339.000
443.295; -102.675; -263.000; -371.000
443.418;  -75.900; -321.000;  -29.000
443.540;  -21.875; -106.000;   -4.000
443.662; -139.400; -563.000; -465.000
443.785;  -25.175;  335.000;  199.000
443.907; -121.300; -362.000; -208.000
444.029; -150.425; -767.000; -494.000
444.152; -164.775; -644.000; -554.000
444.274;  -49.175;  -18.000;  -24.000
444.396; -122.625; -461.000; -221.000
444.518; -143.375; -691.000; -454.000
444.640; -106.925; -268.000; -111.000
444.763;  -28.600;  388.000;  249.000
444.885; -145.500; -432.000; -392.000
445.007;  -40.075;   35.000;   86.000
445.129; -139.450; -610.000; -515.000
445.251; -113.925; -372.000; -439.000
445.373; -148.200; -537.000; -386.000
445.495;    3.850;  242.000;  350.000
445.617;   56.500;  853.000;  753.000
445.739;  -95.325; -215.000;  -97.000
445.861;  -51.025; -245.000; -112.000
445.984;  -52.100; -267.000; -101.000
446.105;  100.225; -418.000; -251.000
446.227;  412.275; -176.000;  -19.000
446.349;  -52.875; -358.000; -249.000
446.471; -121.875; -615.000; -448.000
446.593;  -81.475; -316.000;   19.000
446.715;  -16.925;  -67.000;   41.000
446.837;   41.350;  697.000;  832.000
446.959; -108.825; -457.000; -478.000
447.081; -148.550; -628.000; -518.000
447.203;   46.050;  862.000;  834.000
447.325;  -94.150; -270.000;   42.000
447.446;  -17.675;  286.000;  530.000
447.568; -166.075; -921.000; -803.000
447.690;  -98.850; -236.000; -245.000
447.812; -154.500; -798.000; -519.000
447.933;  -34.625;  155.000;  127.000
448.055;  -77.075; -306.000; -261.000
448.177;   97.500;   31.000;   79.000
448.299;   -2.025; -935.000; -727.000
448.420;   12.675;  -25.000;  159.000
448.542;  -49.775;   -3.000;   33.000
448.664;  -26.250;  109.000;  322.000
448.785;  -53.400;  265.000;   83.000
448.907;  -99.150; -614.000; -353.000
449.028;  -77.725; -771.000; -471.000
449.150;   46.450;  492.000;  589.000
449.272; -184.200;-1044.000; -913.000
449.393;   31.050;  612.000;  694.000
449.515; -155.525; -634.000; -581.000
449.636;  -80.200; -264.000; -155.000
449.758;   55.575;  763.000;  622.000
449.879; -115.800; -498.000; -396.000
450.001;  -90.825; -149.000;  -49.000
450.122;  -40.275;  -95.000;  162.000
450.244;  -22.575;   37.000;  364.000
450.365;  -88.400; -495.000; -301.000
450.486;  -26.325;   80.000;  268.000
450.608;    7.550;  393.000;  326.000
450.729;   68.475;  578.000;  645.000
450.850;    4.350; -574.000; -466.000
450.972;  818.450; -552.000; -389.000
451.093; 5264.250;  190.000;  588.000
451.214; 2150.675; -516.000; -337.000
451.336;  384.325;  773.000;  579.000
451.457;   49.725;  264.000;  393.000
451.578;  -33.675; -118.000;  -74.000
451.699; -137.575; -546.000; -540.000
451.821;  -76.500; -284.000;  -50.000
451.942;  -20.550;  278.000;  285.000
452.063;   35.725;  228.000;  419.000
452.184;  584.975;  -54.000;  -49.000
452.305; 1135.750;  103.000;  170.000
452.427;  107.525; -549.000; -301.000
452.548;  -18.425;   23.000;   79.000
452.669;  -64.625; -257.000;  -89.000
452.790;  -49.600;    3.000;  -18.000
452.911;  -32.825;  195.000;  259.000
453.032;  -80.125; -289.000;  -60.000
453.153;  -63.900;  -29.000;   81.000
453.274;   57.375;  737.000;  868.000
453.395;  -67.075;  -51.000;  175.000
453.516;  118.525; 1317.000; 1388.000
453.637;  -87.550; -205.000; -150.000
453.758;  -64.175;   15.000;   69.000
453.879; -123.575; -462.000; -250.000
454.000;   61.925; 1086.000;  948.000
454.121; -130.975; -554.000; -326.000
454.242; -124.750; -599.000; -383.000
454.362;  -63.450;  -99.000;  114.000
454.483;  -53.225; -309.000; -229.000
454.604;   29.125;  512.000;  580.000
454.725; -133.800; -627.000; -555.000
454.846; -123.025; -474.000; -406.000
454.967;  -27.850;  230.000;  539.000
455.087;  -46.100;  179.000;  153.000
455.208;   13.550;  554.000;  856.000
455.329;  -71.025;  -22.000;   82.000
455.450;   39.675;  473.000;  633.000
455.570;  -93.400; -234.000; -211.000
455.691;  -53.050;  201.000;  407.000
455.812; -115.200; -270.000;  -92.000
455.932;  -73.700;  107.000;  -97.000
456.053;  -80.450;   36.000;   24.000
456.173; -122.125; -433.000; -355.000
456.294; -127.325; -476.000; -303.000
456.415;  -71.450;  -73.000;   70.000
456.535;  -40.650;  297.000;  273.000
456.656;  -44.125;  132.000;  240.000
456.776;  -61.950;    3.000;  298.000
456.897;  -11.875;  308.000;  513.000
457.017;  -79.375; -153.000;   -3.000
457.138; -113.750; -402.000; -249.000
457.258;  -34.525;  263.000;  224.000
457.379;  -23.400;  509.000;  521.000
457.499;  -32.350;  443.000;  432.000
457.620; -147.625; -407.000; -231.000
457.740; -103.200; -132.000;  -11.000
457.860;  -58.625;   87.000;   44.000
457.981;  -49.725;  132.000;  124.000
458.101;  -77.825;  -89.000;   40.000
458.221;  -20.700;  336.000;  402.000
458.342;  -65.125;   -4.000;  -37.000
458.462;   27.575;  617.000;  352.000
458.582;  -41.600; -302.000; -294.000
458.703;    5.550;  303.000;  154.000
458.823;  -33.825;   22.000;  163.000
458.943;   16.925;  341.000;  467.000
459.063;  -14.600; 1124.000;  192.000
459.183;  -42.425;  328.000;  313.000
459.304;    9.550;  315.000;  517.000
459.424;  -68.100; -246.000;  -89.000
459.544;  356.025;  388.000;  764.000
459.664;  862.050;  499.000;  506.000
459.784;  295.800; 1004.000; 1175.000
459.904;   55.650;  867.000;  744.000
460.024;   60.475;  867.000;  684.000
460.144;   -3.500;  449.000;  554.000
460.264;   -2.500;  515.000;  327.000
460.385; -100.650; -145.000; -119.000
460.505;   19.375;  905.000;  858.000
460.625; -101.100;  -17.000;  -68.000
460.745;  -21.725;  396.000;  541.000
460.864;  -53.125;  153.000;  469.000
460.984;    1.950;  499.000;  573.000
461.104;  154.550; 1656.000; 1775.000
461.224;    9.100;  657.000;  650.000
461.344;  -45.825;  431.000;  360.000
461.464;  -46.700;  258.000;  513.000
461.584;  -38.925;  283.000;  466.000
461.704;  -68.750;   58.000;  108.000
461.824;  -60.450;  238.000;  259.000
461.943;  -78.325;  191.000;  130.000
462.063;  -84.300;    2.000;  324.000
462.183;    9.850;  639.000;  717.000
462.303;   84.750; 1678.000; 1230.000
462.422;   12.150;  781.000;  840.000
462.542;  -60.075;  271.000;  391.000
462.662;   28.425;  353.000;  380.000
462.782;  249.800;  833.000;  572.000
462.901;  488.500;  545.000;  717.000
463.021;  281.025; 1702.000; 1638.000
463.141;   -2.475;  337.000;  770.000
463.260;  -17.450;  614.000;  474.000
463.380;   10.325;  902.000;  884.000
463.499;  -47.600;  342.000;  332.000
463.619;  -38.050;  581.000;  559.000
463.738;  113.675; 1644.000;  903.000
463.858;    3.175;  657.000;  811.000
463.978;  -34.575;  542.000;  396.000
464.097;   56.150;  921.000; 1114.000
464.217;  120.825; 1196.000; 1143.000
464.336;  118.525; 1068.000; 1130.000
464.455;  -37.650;  328.000;  659.000
464.575;   16.800;  597.000;  602.000
464.694;  143.500; 1204.000; 1179.000
464.814;  117.850; 1190.000; 1138.000
464.933;   68.875; 1095.000; 1027.000
465.052;   83.550; 1412.000; 1054.000
465.172;   71.925;  922.000;  799.000
465.291;  110.075; 1376.000; 1320.000
465.410;   12.100;  462.000;  735.000
465.530;   67.775; 1355.000; 1310.000
465.649;   55.950; 1209.000; 1273.000
465.768;  130.075; 1673.000; 1508.000
465.888;   37.950;  941.000; 1174.000
466.007;   74.650; 1335.000; 1440.000
466.126;  -10.775;  721.000;  641.000
466.245;   34.450; 1176.000; 1187.000
466.364;    2.300;  950.000; 1060.000
466.484;   43.825; 1024.000; 1213.000
466.603;   28.725; 1101.000; 1222.000
466.722;  123.325; 1490.000; 1769.000
466.841;   67.350; 1151.000; 1401.000
466.960;   31.800; 1069.000;  972.000
467.079;  121.350; 1971.000; 1786.000
467.198;   45.375; 1238.000; 1181.000
467.317;   86.625; 1768.000; 1162.000
467.436;   63.650; 1709.000; 1261.000
467.555;  123.725; 1796.000; 1746.000
467.674;   47.100; 1227.000; 1329.000
467.793;   43.475; 1376.000; 1374.000
467.912;   75.400; 1658.000; 1539.000
468.031;  123.750; 2038.000; 1930.000
468.150;  124.950; 1842.000; 1837.000
468.269;  194.775; 2313.000; 2090.000
468.388;  191.575; 2168.000; 2339.000
468.507;  254.675; 2884.000; 2903.000
468.626;  271.950; 2555.000; 2541.000
468.744;  132.850; 2018.000; 2174.000
468.863;  199.150; 2312.000; 2523.000
468.982;   92.800; 1503.000; 1555.000
469.101;  203.800; 2788.000; 2692.000
469.220;  153.525; 2333.000; 2176.000
469.338;  244.625; 2935.000; 3051.000
469.457;  197.925; 2719.000; 2545.000
469.576;  354.225; 3953.000; 3784.000
469.695;  244.225; 2877.000; 3066.000
469.813;  431.925; 4148.000; 4192.000
469.932;  418.125; 4255.000; 4485.000
470.051;  433.100; 4075.000; 4161.000
470.169;  905.350; 4470.000; 4338.000
470.288; 1504.825; 4700.000; 4809.000
470.406;  878.075; 5059.000; 5194.000
470.525;  637.475; 6101.000; 5787.000
470.644;  657.350; 6847.000; 6794.000
470.762;  805.875; 8397.000; 7873.000
470.881;  902.275; 8651.000; 8464.000
470.999; 1047.525; 9685.000; 9151.000
471.118; 1099.425;11174.000;10711.000

