
Integration time [ms]: 100.000
Averaging Nr. [scans]: 40
Smoothing Nr. [pixels]: 0
Data measured with spectrometer [name]: 2101012U2
Wave   ;Sample   ;Dark     ;Reference
[nm]   ;[counts] ;[counts] ;[counts] 

197.733;   62.650;  516.000;  404.000
197.879;  -80.475; -610.000; -634.000
198.025;  -53.625; -475.000; -420.000
198.171;  -66.325; -602.000; -612.000
198.317;  -31.150; -401.000; -316.000
198.463;  -66.650; -655.000; -404.000
198.609;    5.750;  181.000; -137.000
198.755;  -70.625; -644.000; -410.000
198.901;  -68.200; -505.000; -424.000
199.047;  -70.325; -615.000; -488.000
199.193;  -43.575; -230.000; -468.000
199.339;  -39.025; -222.000; -369.000
199.485;   40.775;  330.000;  271.000
199.631;    3.300;  227.000;  310.000
199.777;  -56.800; -466.000; -398.000
199.923;  -60.875; -610.000; -424.000
200.069;    0.025; -141.000;  -58.000
200.215;   56.425;  128.000;  453.000
200.361;   35.750;  243.000;  477.000
200.507;  -64.300; -600.000; -373.000
200.653;  -20.975; -371.000; -194.000
200.798;  -42.375; -215.000; -125.000
200.944;    0.300; -146.000;  -41.000
201.090;   44.600;   61.000;  222.000
201.236;    6.750; -116.000; -158.000
201.382;  130.350;  874.000;  903.000
201.528;   -1.675;  -58.000;  -48.000
201.674;  -58.450; -386.000; -293.000
201.819;  -58.675; -540.000; -439.000
201.965;  -90.800; -699.000; -447.000
202.111;  -29.750; -273.000; -226.000
202.257;  -29.900; -250.000; -238.000
202.402;    0.400;   13.000;  -36.000
202.548;  -24.450; -169.000; -116.000
202.694;   94.500;  410.000; -183.000
202.840;  -80.950; -603.000; -531.000
202.985;  -52.875; -681.000; -639.000
203.131; -108.675; -832.000; -666.000
203.277;  -20.825; -199.000; -262.000
203.423;  -59.850; -434.000; -520.000
203.568;  -29.125; -462.000; -237.000
203.714;  -65.750; -535.000; -542.000
203.860;  -84.400; -682.000; -641.000
204.005;   29.850;  112.000;  167.000
204.151;   68.600;  561.000;  556.000
204.296;  -47.800; -354.000; -221.000
204.442;  -73.325; -600.000; -547.000
204.588;  -79.425; -592.000; -579.000
204.733;   22.275;  178.000;  168.000
204.879; -120.375;-1018.000; -822.000
205.025;    0.775;  -99.000;  126.000
205.170;    8.000;  -17.000;   94.000
205.316;   72.700;  438.000;  661.000
205.461;  -83.700; -698.000; -554.000
205.607;   95.450;  609.000;  665.000
205.752;  -80.675; -626.000; -551.000
205.898;  -50.250; -501.000; -391.000
206.043;  -60.025; -578.000; -506.000
206.189;  -40.075; -243.000; -285.000
206.334;   87.800;  554.000;  606.000
206.480;   83.475;  409.000;  239.000
206.625;  -81.550; -529.000; -552.000
206.771;  -45.850; -451.000; -373.000
206.916;  -29.500; -210.000; -537.000
207.062;  -70.700; -545.000; -591.000
207.207;  -76.000; -546.000; -443.000
207.353;   59.650;  185.000;  460.000
207.498;   17.025;  196.000;   85.000
207.643;  -51.175; -501.000; -370.000
207.789; -127.850;-1069.000; -910.000
207.934; -104.325; -665.000; -713.000
208.080;  -21.625; -154.000;   66.000
208.225;    3.700;  -22.000;  -57.000
208.370;  -97.450; -727.000; -619.000
208.516;  -75.375; -741.000; -487.000
208.661;  -28.050; -127.000;  -69.000
208.806;  -27.950; -165.000; -171.000
208.952; -126.850;-1044.000; -731.000
209.097;   71.450;  378.000;  349.000
209.242;  -55.300; -307.000; -382.000
209.387;   75.650;  392.000;  350.000
209.533;  -50.075; -321.000; -350.000
209.678;   74.550;  472.000;  543.000
209.823;  -54.700; -408.000; -310.000
209.969; -105.350; -860.000; -757.000
210.114; -106.300; -907.000; -719.000
210.259; -113.450; -939.000; -889.000
210.404;   -6.375; -171.000;  103.000
210.549;   15.100;  108.000;    3.000
210.695;  -15.850;   -3.000;  -95.000
210.840;   34.375;   94.000;   67.000
210.985;  -57.375; -484.000; -303.000
211.130;   60.500;  268.000;  406.000
211.275;   29.225;  207.000;  199.000
211.420;  -52.550; -300.000; -289.000
211.566;  -69.200; -536.000; -489.000
211.711;   27.750;  218.000;  157.000
211.856;  -76.525; -545.000; -519.000
212.001;   15.450;  151.000;   44.000
212.146;   35.400;  153.000;   49.000
212.291;  -22.700; -210.000; -186.000
212.436;  -27.675; -280.000;   -6.000
212.581;  -87.100; -685.000; -653.000
212.726;  -67.150; -487.000; -538.000
212.871;  -42.100; -552.000; -217.000
213.016; -154.775;-1172.000;-1029.000
213.161;   68.625;  406.000;  291.000
213.306;  -67.175; -435.000; -577.000
213.451;  -99.600; -778.000; -689.000
213.596;  -35.950; -455.000; -347.000
213.741;  -51.500; -448.000; -538.000
213.886;  -77.675; -498.000; -517.000
214.031;  -20.650; -294.000; -124.000
214.176;  -41.900; -408.000; -341.000
214.321;  -16.250; -296.000; -157.000
214.466;  -30.575; -163.000;  -43.000
214.611;   -3.925;  -61.000;  -10.000
214.756; -131.225; -948.000; -858.000
214.901;  -26.225; -388.000; -226.000
215.046; -121.950; -797.000; -825.000
215.191;   19.950;  128.000;   35.000
215.336;  -21.775; -157.000;  -19.000
215.480;  -67.175; -684.000; -505.000
215.625;  -16.950; -175.000;  -19.000
215.770;  -86.950; -757.000; -662.000
215.915;    1.225;   -5.000;  -97.000
216.060;    2.325; -113.000;  -21.000
216.205; -118.350; -731.000; -779.000
216.349;  -76.025; -470.000; -533.000
216.494; -141.300; -939.000; -867.000
216.639; -113.675; -823.000; -888.000
216.784; -101.200; -577.000; -525.000
216.929;   65.975;  392.000;  281.000
217.073;   -7.350; -244.000;  -31.000
217.218;    6.600;   78.000;  -47.000
217.363;  -86.925; -656.000; -618.000
217.507;  -76.975; -623.000; -588.000
217.652; -114.000; -845.000; -874.000
217.797;  -91.825; -708.000; -659.000
217.942; -116.700; -856.000; -720.000
218.086;   81.600;  608.000;  539.000
218.231;  -11.050; -174.000;  -26.000
218.376;  -30.975; -337.000; -229.000
218.520;    9.725;  -41.000;   96.000
218.665;  -31.075; -338.000; -204.000
218.810;  -44.075; -275.000; -233.000
218.954;   27.225;  201.000;   35.000
219.099;  -96.375; -713.000; -963.000
219.243;  -75.375; -589.000; -554.000
219.388;  -27.575; -264.000; -136.000
219.532;   -5.450; -116.000; -116.000
219.677;  -80.800; -564.000; -521.000
219.822;   11.375;   33.000;   89.000
219.966;   19.750;   17.000;  -99.000
220.111;  -35.675; -328.000;  -40.000
220.255; -101.900; -797.000; -750.000
220.400;  -16.850; -180.000; -146.000
220.544;  -86.075; -516.000; -450.000
220.689;  -62.675; -422.000; -451.000
220.833;  -24.475; -123.000;  -58.000
220.978;  -53.500; -393.000; -563.000
221.122;   15.550;  319.000;  307.000
221.267; -129.800; -906.000; -837.000
221.411;  -67.200; -478.000; -394.000
221.555;   -0.925; -104.000;  -23.000
221.700;  -52.950; -329.000; -222.000
221.844;   38.875;  255.000;  272.000
221.989;  -59.825; -328.000; -311.000
222.133;  -30.000; -289.000; -307.000
222.277;   -4.925;    5.000;   78.000
222.422;    7.300;  227.000;  113.000
222.566;  -41.075; -381.000; -214.000
222.711;  -45.775; -414.000; -479.000
222.855;  -85.000; -643.000; -586.000
222.999;  -76.450; -642.000; -717.000
223.144;  -18.925; -195.000; -194.000
223.288;   50.275;  423.000;  251.000
223.432;   39.050;  184.000;  230.000
223.576;   20.200;  152.000;  -21.000
223.721;   49.675;  364.000;  273.000
223.865;  -69.975; -472.000; -475.000
224.009;  248.100; 1673.000; 1631.000
224.153;  -89.375; -660.000; -671.000
224.298;  -59.900; -531.000; -489.000
224.442;  -12.425;  -74.000;  -33.000
224.586;  -12.475; -169.000; -106.000
224.730; -104.225; -858.000; -670.000
224.875; -104.525; -739.000; -688.000
225.019;   14.225;  102.000;  188.000
225.163;   49.875;  208.000;  341.000
225.307;   10.500;   97.000;  -91.000
225.451;   40.825;  360.000;  481.000
225.595;   30.875;  264.000;  176.000
225.739;  -27.250; -170.000;  -94.000
225.884;   12.700;   86.000;    5.000
226.028; -107.375; -760.000; -626.000
226.172;  -42.125; -260.000; -273.000
226.316; -114.175; -941.000; -902.000
226.460;  -76.875; -645.000; -493.000
226.604;  -56.125; -406.000; -400.000
226.748;  -97.575; -836.000; -733.000
226.892;  -42.275; -227.000; -181.000
227.036;  -62.375; -537.000; -447.000
227.180;  -59.025; -551.000; -375.000
227.324;  -63.300; -561.000; -580.000
227.468; -115.650; -819.000; -717.000
227.612;   12.725;  242.000;  -28.000
227.756; -105.475; -845.000; -698.000
227.900;   49.575;  342.000;  441.000
228.044;  -70.625; -509.000; -290.000
228.188;   55.000;  448.000;  568.000
228.332;  -87.675; -546.000; -472.000
228.476;  -37.325; -223.000; -149.000
228.620;  -30.675; -210.000; -150.000
228.764;   68.850;  431.000;  349.000
228.908;  -18.175; -155.000;   30.000
229.052;  -54.825; -615.000; -528.000
229.195;  -21.725; -172.000;   13.000
229.339;  -19.275; -235.000; -305.000
229.483;  -30.450;    5.000; -162.000
229.627;    7.350; -156.000;  139.000
229.771;  -42.975; -218.000; -294.000
229.915;    9.750;  230.000;   79.000
230.059; -101.025; -648.000; -663.000
230.202;  -48.650; -370.000; -317.000
230.346;  -13.575; -107.000;  107.000
230.490;  -58.375; -489.000; -521.000
230.634; -107.950; -736.000; -553.000
230.777;   77.900;  478.000;  509.000
230.921;  -45.700; -450.000; -359.000
231.065;  -41.625; -246.000; -286.000
231.209;   26.025;  261.000;  265.000
231.352;   33.075;   54.000;   40.000
231.496;   22.575;  568.000;  188.000
231.640;  -76.850; -693.000; -621.000
231.783;   64.850;  546.000;  525.000
231.927;  -36.875; -294.000; -365.000
232.071; -118.325; -962.000; -736.000
232.214; -113.850; -980.000; -764.000
232.358;  -99.050; -683.000; -599.000
232.502;   12.400;  -19.000;    7.000
232.645; -135.750;-1090.000; -927.000
232.789;  -19.275; -257.000; -218.000
232.933;  -42.975; -407.000; -224.000
233.076; -123.650;-1038.000; -897.000
233.220; -108.850; -752.000; -777.000
233.363;  -81.075; -669.000; -477.000
233.507;   61.050;  371.000;  129.000
233.650; -105.950; -764.000; -834.000
233.794;   52.975;  438.000;  461.000
233.938;  -57.275; -530.000; -362.000
234.081;  -17.800;  -93.000;   31.000
234.225;  -71.775; -631.000; -539.000
234.368; -107.750; -773.000; -723.000
234.512;  -50.625; -385.000; -299.000
234.655;  -85.925; -582.000; -555.000
234.798;  -66.825; -493.000; -466.000
234.942; -138.550; -884.000;-1002.000
235.085;  -64.100; -651.000; -443.000
235.229;  -70.650; -405.000; -410.000
235.372;  -41.200; -247.000; -191.000
235.516;  -45.700; -397.000; -321.000
235.659;   13.325;   92.000;  121.000
235.802;  -13.875;  -38.000;  -22.000
235.946;   29.925;  335.000;  215.000
236.089;   26.550;  126.000;  250.000
236.233;   50.400;  275.000;  298.000
236.376;  -58.950; -235.000; -378.000
236.519;  -40.450; -297.000; -319.000
236.663;  -31.475; -215.000; -117.000
236.806; -151.500;-1029.000; -999.000
236.949;   45.525;  543.000;  431.000
237.092;   62.125;  412.000;  391.000
237.236;  -79.075; -589.000; -502.000
237.379;   62.850;  352.000;  428.000
237.522; -125.400; -879.000; -768.000
237.666;  -14.175; -271.000;   18.000
237.809; -128.425; -851.000; -823.000
237.952;   44.925;  469.000;  271.000
238.095;  -65.350; -447.000; -442.000
238.238;   88.625;  688.000;  700.000
238.382;    6.750;  166.000;  103.000
238.525;  -75.800; -598.000; -511.000
238.668; -141.875;-1060.000; -985.000
238.811;  -93.175; -638.000; -643.000
238.954;  -56.850; -483.000; -334.000
239.097;   90.775;  617.000;  664.000
239.241;   20.550;  394.000;  326.000
239.384;  -34.525; -254.000; -214.000
239.527;  -71.950; -424.000; -224.000
239.670; -151.350; -994.000;-1091.000
239.813; -103.850; -696.000; -658.000
239.956;   93.300;  579.000;  473.000
240.099; -112.350; -778.000; -725.000
240.242;   57.350;  428.000;  432.000
240.385;   50.450;  466.000;  450.000
240.528;  -90.475; -706.000; -473.000
240.671;   25.650;  189.000;  134.000
240.814;  -37.450; -441.000; -158.000
240.957; -108.100; -767.000; -578.000
241.100; -106.175; -779.000; -755.000
241.243; -142.300;-1234.000; -893.000
241.386;  -70.650; -508.000; -379.000
241.529;  -91.050; -735.000; -547.000
241.672;  -53.650; -566.000; -495.000
241.815; -116.075; -832.000; -808.000
241.958;  -14.125; -125.000; -182.000
242.101;  -83.425; -545.000; -390.000
242.244;  -30.150; -270.000; -325.000
242.387;  -43.350; -304.000; -246.000
242.530;   63.975;  470.000;  134.000
242.673;  -46.850; -381.000; -309.000
242.815; -113.800; -925.000; -899.000
242.958;  -57.500; -482.000; -381.000
243.101;    8.050;  132.000;  187.000
243.244;  -82.625; -564.000; -521.000
243.387;  -50.000; -313.000; -316.000
243.530;  -92.275; -657.000; -674.000
243.672;   15.175;   43.000;  -92.000
243.815;  -60.625; -355.000; -283.000
243.958;   -5.600;   98.000;  -26.000
244.101;   -2.400;   59.000;  -16.000
244.243;   -9.975;  -47.000;  101.000
244.386; -107.375; -761.000; -630.000
244.529;  -22.100; -132.000; -139.000
244.672; -169.550;-1154.000; -951.000
244.814; -105.550; -621.000; -794.000
244.957;  -49.350; -380.000; -304.000
245.100;  -68.225; -489.000; -489.000
245.242;  -57.400; -387.000; -374.000
245.385;  -14.675;  -59.000;  -39.000
245.528; -125.400; -871.000; -705.000
245.670;   92.100;  612.000;  634.000
245.813;  -88.075; -599.000; -547.000
245.956;  -41.450; -324.000; -275.000
246.098;  -78.750; -508.000; -650.000
246.241;    4.200;  194.000;   48.000
246.383;  -22.100; -119.000;  -73.000
246.526;  -72.500; -454.000; -525.000
246.669; -123.450; -889.000; -780.000
246.811;   20.300;  172.000;   -1.000
246.954;  -74.800; -512.000; -426.000
247.096;  -15.175;  -84.000;   -6.000
247.239;  -80.100; -482.000; -445.000
247.381;  -79.150; -647.000; -488.000
247.524;   83.000;  645.000;  679.000
247.666;   -8.000;   58.000;   11.000
247.809; -119.800; -887.000; -691.000
247.951;  -14.275;  -75.000;  138.000
248.094;   32.775;  432.000;  308.000
248.236; -152.325;-1262.000;-1238.000
248.378;    2.325; -356.000;  -81.000
248.521;  -20.725; -334.000; -337.000
248.663;  -44.850; -236.000; -267.000
248.806;  -22.100; -300.000; -266.000
248.948; -101.325; -886.000; -763.000
249.090;  -49.900; -428.000; -398.000
249.233;  -42.725; -344.000; -381.000
249.375;  -75.575; -474.000; -451.000
249.518;  -21.025;  -83.000; -133.000
249.660;    4.950; -103.000;    3.000
249.802; -178.075;-1303.000;-1189.000
249.945;  -70.300; -612.000; -540.000
250.087; -109.775; -834.000; -768.000
250.229;  -57.075; -362.000; -480.000
250.371;  -75.175; -494.000; -439.000
250.514;  -59.400; -310.000; -244.000
250.656;   -3.750;   69.000;  102.000
250.798; -128.300; -849.000; -800.000
250.940;  -54.375; -322.000; -322.000
251.083;  -25.025; -335.000; -111.000
251.225;   62.750;  338.000;  310.000
251.367;  -31.875; -274.000; -373.000
251.509;  -46.375; -265.000; -210.000
251.651; -110.750; -731.000; -671.000
251.794;   49.550;  538.000;  632.000
251.936; -113.275; -821.000; -747.000
252.078;  -76.425; -540.000; -461.000
252.220;  -77.900; -645.000; -477.000
252.362;   98.800;  344.000;  462.000
252.504;  -54.650; -677.000; -584.000
252.646; -118.650; -875.000; -722.000
252.788;    1.125;   14.000; -128.000
252.931;  -48.825; -257.000; -253.000
253.073;  -41.175; -376.000; -317.000
253.215;    6.450;  141.000;  122.000
253.357;   -8.000;   82.000; -153.000
253.499;  -41.450; -374.000; -234.000
253.641;  -93.175; -749.000; -594.000
253.783;  -97.400; -609.000; -527.000
253.925;  -92.525; -586.000; -591.000
254.067; -115.650; -744.000; -667.000
254.209;  -26.475; -391.000; -259.000
254.351; -144.825; -865.000; -883.000
254.493;  -67.650; -441.000; -417.000
254.635; -135.725; -936.000; -818.000
254.777;  -87.700; -752.000; -687.000
254.918;  -71.250; -512.000; -430.000
255.060;  -49.050; -551.000; -395.000
255.202;  -69.800; -473.000; -261.000
255.344;  -85.950; -658.000; -455.000
255.486;  -75.500; -471.000; -406.000
255.628; -117.625; -780.000; -781.000
255.770; -100.275; -676.000; -536.000
255.912;  -65.925; -559.000; -468.000
256.053;  -87.800; -730.000; -508.000
256.195;  151.075; 1008.000;  903.000
256.337;  -85.500; -861.000; -595.000
256.479;   51.975;  532.000;  416.000
256.621;  -46.100; -394.000; -212.000
256.762;  -95.475; -789.000; -742.000
256.904;   48.025;  485.000;  487.000
257.046;  -45.175; -381.000; -271.000
257.188;  -35.300; -351.000; -264.000
257.329;  -75.125; -525.000; -464.000
257.471; -115.775; -939.000; -807.000
257.613;  -65.800; -584.000; -498.000
257.755; -152.275;-1073.000; -982.000
257.896;   39.425;  286.000;  392.000
258.038;  -70.175; -403.000; -352.000
258.180;  -40.025; -354.000; -279.000
258.321;  -95.925; -581.000; -457.000
258.463;  -10.850;  -71.000;  133.000
258.605;  -85.225; -562.000; -570.000
258.746; -102.575; -886.000; -772.000
258.888; -150.750;-1026.000;-1020.000
259.029;   20.525;  121.000;   -8.000
259.171;  -87.400; -614.000; -550.000
259.313;    4.750;  -49.000;  -47.000
259.454;  -78.200; -536.000; -414.000
259.596;  -56.925; -483.000; -390.000
259.737;  -77.700; -590.000; -474.000
259.879;   36.775;  217.000;  311.000
260.020;   96.025;  901.000;  636.000
260.162;  -28.225; -146.000; -253.000
260.303; -107.600; -768.000; -687.000
260.445;  -74.500; -609.000; -613.000
260.586;   33.575;  392.000;  157.000
260.728;  -52.350; -360.000; -248.000
260.869; -103.725; -350.000; -343.000
261.011;   77.950;  706.000;  537.000
261.152;  -61.950; -479.000; -319.000
261.293;  -69.100; -576.000; -595.000
261.435;  -35.275; -219.000; -184.000
261.576;  -41.925; -455.000; -325.000
261.718;   58.875;  420.000;  470.000
261.859; -125.550; -940.000; -949.000
262.000; -129.475; -951.000;-1016.000
262.142;  -18.250;  -52.000;  -60.000
262.283; -114.400; -808.000; -691.000
262.424;  -97.150; -666.000; -625.000
262.566; -146.800;-1161.000; -983.000
262.707; -126.075; -840.000; -830.000
262.848; -115.725; -769.000; -726.000
262.990;  -48.375; -362.000; -345.000
263.131;   83.175;  650.000;  681.000
263.272;   -6.625;  -61.000;  -41.000
263.413;  -91.650; -589.000; -561.000
263.555;  -60.425; -669.000; -143.000
263.696;  -71.475; -550.000; -641.000
263.837;  -58.800; -449.000; -551.000
263.978;   -6.400;   -5.000;  -77.000
264.119;  -54.925; -283.000; -264.000
264.261; -124.075; -847.000; -630.000
264.402;  -12.175;   33.000;   40.000
264.543;  -87.450; -509.000; -524.000
264.684;  -19.625;   61.000;  -50.000
264.825;  -59.800; -816.000; -538.000
264.966;   -2.375;  -84.000;  -67.000
265.107; -122.925; -646.000; -670.000
265.248; -116.275; -825.000; -812.000
265.390;   -9.025;  152.000;   -9.000
265.531;  -13.925; -238.000; -107.000
265.672;  -80.525; -557.000; -630.000
265.813;   63.675;  563.000;  439.000
265.954; -146.300; -959.000; -940.000
266.095;  -17.175; -372.000; -322.000
266.236; -108.625; -686.000; -548.000
266.377;  -45.550; -243.000; -297.000
266.518;  -81.350; -619.000; -547.000
266.659;   34.000;  170.000;  268.000
266.800;   11.975;   83.000;   85.000
266.941;  -77.450; -487.000; -478.000
267.082;   22.800;  354.000;   99.000
267.223;  -48.700; -344.000; -273.000
267.364; -117.750; -892.000; -686.000
267.504;  -14.625;    3.000;  135.000
267.645;   -2.450;  160.000;   67.000
267.786;  -27.450; -147.000;  -86.000
267.927;  -80.100; -473.000; -379.000
268.068;   -9.025; -186.000;  -61.000
268.209;  -46.675; -175.000; -413.000
268.350;  -63.975; -388.000; -532.000
268.490;  -88.125; -648.000; -521.000
268.631;   28.950;  127.000;  225.000
268.772; -107.825; -874.000; -647.000
268.913;  -45.600; -328.000; -476.000
269.054;  -28.550; -117.000;   12.000
269.194;  -47.050; -418.000; -402.000
269.335; -151.775;-1137.000;-1074.000
269.476;  -10.450;   33.000;  -35.000
269.617;  -46.750; -347.000; -392.000
269.757; -106.825; -713.000; -646.000
269.898; -109.250; -856.000; -613.000
270.039;  -61.450; -415.000; -405.000
270.180; -143.975; -952.000; -816.000
270.320;  -23.125; -190.000; -250.000
270.461;  -35.025; -277.000; -249.000
270.602;  -23.275; -186.000; -156.000
270.742; -137.675; -868.000; -943.000
270.883;  -61.200; -442.000; -390.000
271.023;  -66.100; -358.000; -357.000
271.164;  -92.175; -607.000; -528.000
271.305;  -97.950; -666.000; -654.000
271.445;  -99.725; -722.000; -683.000
271.586;  -72.725; -462.000; -283.000
271.726;  -42.675; -397.000; -322.000
271.867;  -69.025; -594.000; -534.000
272.008;  169.975; -473.000; -285.000
272.148;  120.725;  462.000;  468.000
272.289;    7.575; -113.000; -181.000
272.429;    4.700;   19.000;  185.000
272.570; -102.650; -633.000; -737.000
272.710; -107.675; -825.000; -775.000
272.851;  -31.900;  113.000; -130.000
272.991; -164.325;-1173.000;-1077.000
273.131;  -77.100; -419.000; -459.000
273.272; -107.025; -683.000; -723.000
273.412;   -4.475; -143.000;  -31.000
273.553;  -56.800; -488.000; -507.000
273.693;  138.100;  913.000;  858.000
273.834; -103.025; -894.000; -692.000
273.974;  -71.475; -664.000; -615.000
274.114; -103.550; -772.000; -560.000
274.255;   83.250;  414.000;  373.000
274.395;   13.625; -180.000; -125.000
274.535;   24.675;  199.000;  350.000
274.676;   18.225;  225.000;   94.000
274.816;    3.675;  110.000;   34.000
274.956;  -89.825; -624.000; -690.000
275.097;  -68.400;-1014.000; -922.000
275.237; -115.775; -913.000; -803.000
275.377;  -99.600; -778.000; -689.000
275.517; -154.800; -878.000; -937.000
275.658;  -76.325; -590.000; -555.000
275.798;  -71.125; -606.000; -413.000
275.938;   13.400;  215.000;  323.000
276.078; -100.950; -626.000; -395.000
276.218;    5.725;   99.000;  104.000
276.359; -134.000;-1026.000;-1024.000
276.499;  -72.000; -605.000; -446.000
276.639;  -38.775; -305.000; -151.000
276.779;  -47.075; -475.000; -357.000
276.919; -106.025; -783.000; -624.000
277.059;  -28.725; -261.000; -212.000
277.199;  -52.125; -357.000; -259.000
277.340;   38.025;  287.000;  175.000
277.480; -130.225; -840.000; -693.000
277.620;   30.525;  192.000;   16.000
277.760; -201.600;-1533.000;-1294.000
277.900;    3.750;  113.000;   33.000
278.040;   18.075;  137.000;  159.000
278.180;   26.225;  270.000;  170.000
278.320;   -0.525;   21.000;   56.000
278.460;  -66.725; -443.000; -469.000
278.600; -104.225; -708.000; -598.000
278.740;   58.750;  448.000;  224.000
278.880;  -77.450; -768.000; -791.000
279.020;  -16.250; -194.000; -144.000
279.160; -101.250; -672.000; -595.000
279.300; -119.850; -926.000; -873.000
279.440;  -94.125; -709.000; -622.000
279.579;  -35.950;-1014.000; -929.000
279.719;  -65.675; -410.000; -394.000
279.859;   68.575;   -4.000;   41.000
279.999;   34.450; -208.000;  101.000
280.139;  -24.500; -435.000; -387.000
280.279;  -67.575; -708.000; -745.000
280.419;  -17.050; -229.000; -147.000
280.559;  -31.925; -259.000; -180.000
280.698;  -96.250; -790.000; -639.000
280.838;  -98.150; -778.000; -800.000
280.978; -107.475; -846.000; -790.000
281.118; -115.025; -811.000; -704.000
281.257;   -3.525;   24.000;    6.000
281.397; -127.550;-1094.000; -960.000
281.537;  -95.350; -599.000; -712.000
281.677;  -19.725; -150.000; -101.000
281.816;  -94.275; -700.000; -630.000
281.956;  -37.750; -193.000; -257.000
282.096;  -72.225; -539.000; -396.000
282.235; -105.175; -672.000; -638.000
282.375;  -28.150; -243.000;  -98.000
282.515; -117.550; -715.000; -707.000
282.654;   24.650;   29.000;  106.000
282.794;   20.500;  388.000;  244.000
282.934;  -48.850; -530.000; -491.000
283.073; -142.475;-1030.000; -857.000
283.213;  -59.225; -460.000; -467.000
283.353;  -40.525; -408.000; -349.000
283.492;  -27.650; -264.000; -296.000
283.632;  -38.750; -254.000; -168.000
283.771;  -98.925; -859.000; -730.000
283.911;  -55.575; -369.000; -260.000
284.050; -112.200; -794.000; -748.000
284.190; -165.600;-1229.000;-1096.000
284.329; -162.775;-1055.000; -964.000
284.469;  -71.800; -516.000; -591.000
284.608;  -68.075; -559.000; -598.000
284.748;  -81.175; -614.000; -570.000
284.887;   -5.175;  -87.000;  -20.000
285.027; -129.925; -844.000; -892.000
285.166;  -47.350; -192.000; -249.000
285.306;    5.975; -116.000;  -33.000
285.445;  -54.100; -229.000; -343.000
285.584; -102.250; -630.000; -494.000
285.724;  -44.475; -282.000; -322.000
285.863; -120.225; -857.000; -507.000
286.002;  -56.550; -366.000; -276.000
286.142; -116.400; -715.000; -622.000
286.281;  -74.375; -525.000; -493.000
286.420;  -81.700; -554.000; -417.000
286.560;   97.225;  653.000;  623.000
286.699; -125.600; -958.000; -912.000
286.838;  -96.500; -590.000; -591.000
286.978;  -96.300; -533.000; -537.000
287.117; -145.700;-1085.000; -950.000
287.256;  -41.450; -228.000; -211.000
287.395;  -42.350; -197.000; -378.000
287.535;  -51.875; -370.000; -298.000
287.674;  -79.575; -509.000; -484.000
287.813;   61.525;  661.000;  533.000
287.952; -146.525;-1010.000; -871.000
288.091; -167.575;-1049.000; -915.000
288.231;   -2.575;   13.000;   15.000
288.370; -188.375;-1217.000;-1200.000
288.509; -103.825; -728.000; -645.000
288.648;  -85.475; -770.000; -548.000
288.787;  -42.600; -243.000;  -87.000
288.926;  -75.500; -454.000; -475.000
289.065;  119.550;  859.000;  672.000
289.204;  -46.150; -377.000; -217.000
289.344; -105.850; -791.000; -690.000
289.483;   19.575;  416.000;  304.000
289.622;  -24.075; -291.000; -149.000
289.761;  -13.550; -309.000; -166.000
289.900; -107.450; -785.000; -626.000
290.039;  -27.600;  -12.000;  -95.000
290.178;  -47.350; -274.000; -180.000
290.317;  -86.425; -618.000; -479.000
290.456;  -62.950; -463.000; -451.000
290.595; -138.750; -961.000; -833.000
290.734; -138.925; -904.000; -891.000
290.873;  -69.200; -456.000; -420.000
291.011; -118.100; -833.000; -843.000
291.150; -104.075; -770.000; -682.000
291.289;  -14.500; -343.000; -110.000
291.428;  -94.375; -599.000; -480.000
291.567;  -45.850; -370.000; -442.000
291.706;    6.225;  109.000;  154.000
291.845;  -96.725; -597.000; -505.000
291.984; -175.500;-1234.000;-1061.000
292.122;   70.225;  602.000;  582.000
292.261;   45.125;  620.000;  463.000
292.400;   15.350; -144.000;  211.000
292.539; -143.800; -959.000; -813.000
292.678;  -32.325; -325.000; -300.000
292.816; -156.075;-1136.000; -965.000
292.955;  -90.825; -844.000; -684.000
293.094;  -32.700; -173.000; -337.000
293.233;  -67.700; -556.000; -400.000
293.371;  -34.700; -225.000;  -84.000
293.510; -119.200; -866.000; -780.000
293.649; -138.875; -959.000; -924.000
293.787;  -66.450;-1083.000;-1012.000
293.926;   -5.375; -113.000;  -32.000
294.065;  -53.400; -379.000; -290.000
294.203;   40.775;  298.000;  406.000
294.342;   25.550;   74.000;  156.000
294.481; 5801.650;51180.000; -836.000
294.619;  -39.075; -425.000; -582.000
294.758; -163.250;-1230.000;-1137.000
294.896;   62.900; -125.000;    5.000
295.035; -128.875;-1040.000;-1006.000
295.174; -136.850;-1082.000; -954.000
295.312;  -42.125; -323.000; -203.000
295.451;  -20.650; -307.000; -428.000
295.589;  -55.450; -389.000; -518.000
295.728;   15.500; -292.000; -165.000
295.866;  -12.450;  -36.000;  -51.000
296.005;  -62.375; -584.000; -341.000
296.143;  -63.150; -558.000; -596.000
296.282; -106.225; -957.000; -881.000
296.420;  -83.250; -657.000; -557.000
296.559;  -80.250; -892.000; -633.000
296.697;   -4.950; -847.000; -665.000
296.835;   28.600;-1141.000;-1002.000
296.974;   37.950;  -23.000;   39.000
297.112;    4.475; -443.000; -504.000
297.251;  -80.600; -815.000; -755.000
297.389;   57.675; -576.000; -438.000
297.527;   24.675; -145.000;  -83.000
297.666;  -53.000; -486.000; -438.000
297.804;  -61.775; -404.000; -264.000
297.942;   -8.700; -136.000; -161.000
298.081;    6.425; -183.000;   63.000
298.219;   67.300;  -17.000;  -19.000
298.357;   37.950; -144.000;  -71.000
298.495;   33.125; -810.000; -812.000
298.634;   81.375;  245.000;  219.000
298.772;   50.475; -220.000; -338.000
298.910;  -45.075; -309.000; -182.000
299.048;  -22.125; -130.000; -153.000
299.187;  -38.225; -350.000; -250.000
299.325;    9.625;   52.000;  122.000
299.463;   29.950; -389.000; -299.000
299.601;   99.550; -327.000; -271.000
299.739; -127.650; -908.000; -883.000
299.877;  -91.450; -791.000; -703.000
300.016;  -62.375;-1095.000; -935.000
300.154;  151.475;  -19.000; -161.000
300.292;   40.975; -428.000; -348.000
300.430;   21.775; -408.000; -291.000
300.568; -104.025; -940.000; -874.000
300.706;  -44.200; -366.000; -469.000
300.844;  -77.175;-1108.000; -979.000
300.982;  114.775;  246.000;  282.000
301.120; -108.100; -965.000; -866.000
301.258;  -65.875; -812.000; -705.000
301.396;   28.875;  104.000;  -41.000
301.534;   55.250; -218.000; -293.000
301.672;  -27.100; -664.000; -521.000
301.810;    7.525; -613.000; -545.000
301.948;  101.625;   53.000;  149.000
302.086;  566.700; -250.000;  -32.000
302.224;  854.925; -610.000; -585.000
302.362;   23.900; -558.000; -622.000
302.500;  -59.500; -923.000; -893.000
302.638;   96.275;  128.000;  245.000
302.776;  -15.500; -352.000; -408.000
302.913;   46.050;  447.000;  236.000
303.051;   -6.500;  -86.000;  -23.000
303.189;   46.875;   90.000;  118.000
303.327;  -40.700; -341.000; -256.000
303.465;  -72.550; -832.000; -588.000
303.603;  -92.825; -805.000; -604.000
303.740;  100.375;  417.000;  241.000
303.878;    5.425; -800.000; -759.000
304.016; -112.900; -915.000; -790.000
304.154; -141.625;-1123.000;-1152.000
304.291;  -49.350; -505.000; -554.000
304.429;   11.875;  102.000;   74.000
304.567; -134.350; -908.000; -893.000
304.705;  -51.250; -408.000; -515.000
304.842;   81.600; -616.000; -540.000
304.980;   42.950;  215.000;   35.000
305.118;   36.100; -367.000; -365.000
305.255;  -87.225; -945.000; -927.000
305.393;   52.225;  178.000;  239.000
305.531; -111.175;-1173.000; -956.000
305.668;  -73.850; -663.000; -582.000
305.806;   82.025; -358.000; -439.000
305.943;   83.050; -629.000; -637.000
306.081;   52.600; -378.000; -267.000
306.219; -101.525; -863.000; -748.000
306.356;   -7.475;  158.000;   27.000
306.494;  113.000;  981.000;  761.000
306.631;    2.525;  -11.000;  -55.000
306.769;  -15.325; -613.000; -485.000
306.906;  -23.850; -284.000; -258.000
307.044;  -71.825; -473.000; -488.000
307.181;  -76.875; -410.000; -332.000
307.319;    5.175;  112.000;   87.000
307.456; -174.100;-1191.000;-1153.000
307.594; -107.575; -980.000; -727.000
307.731;  -14.125; -371.000; -164.000
307.868;    1.875;  -15.000;   20.000
308.006; -132.225; -961.000; -847.000
308.143;  -69.650; -618.000; -330.000
308.281;  107.900;  -37.000; -254.000
308.418;  -43.825; -748.000; -640.000
308.555;  -67.500; -400.000; -250.000
308.693;  -72.025; -577.000; -573.000
308.830; -111.525; -712.000; -657.000
308.967;   -9.575; -215.000;  -95.000
309.105;  -64.875; -507.000; -396.000
309.242;    5.400; -468.000; -367.000
309.379;  196.750; -577.000; -655.000
309.517;  -90.200; -936.000; -948.000
309.654; -113.225; -910.000; -734.000
309.791;  -86.650; -662.000; -580.000
309.928; -140.825; -977.000; -914.000
310.065;  166.950;  819.000;  697.000
310.203;  -15.825; -825.000; -850.000
310.340;  -33.025; -465.000; -321.000
310.477;  -72.900; -412.000; -516.000
310.614;  -74.050; -383.000; -473.000
310.751;  -73.075; -427.000; -518.000
310.889;  -18.025;    1.000;   11.000
311.026; -157.875;-1161.000; -939.000
311.163;  -44.925; -386.000; -380.000
311.300;  -75.050; -512.000; -479.000
311.437;  -76.650; -658.000; -619.000
311.574; -154.525;-1226.000; -985.000
311.711;  -72.425; -595.000; -433.000
311.848;  -57.025; -380.000; -388.000
311.985;   16.625;  270.000;   93.000
312.122; -134.325; -932.000; -762.000
312.259; -126.125; -941.000; -994.000
312.396;  -88.250; -508.000; -551.000
312.533; -105.875; -812.000; -790.000
312.670; -134.450;-1070.000; -898.000
312.807;  -34.950; -352.000; -367.000
312.944;  -87.900; -513.000; -611.000
313.081;  -35.175; -150.000; -415.000
313.218; -117.200;-1111.000; -867.000
313.355;   -1.650; -531.000; -449.000
313.492;   -0.825; -455.000; -292.000
313.629;  126.725;  815.000;  735.000
313.766; -160.525;-1176.000;-1008.000
313.902;  -13.875; -186.000;   21.000
314.039;  -57.450; -372.000; -289.000
314.176;   19.950;  286.000;  192.000
314.313;  -82.550; -569.000; -473.000
314.450;  -75.275; -788.000; -684.000
314.587;  -72.725; -468.000; -480.000
314.723;    7.375;  -78.000;  130.000
314.860;   36.250;  318.000;  332.000
314.997;   27.100;  223.000;  142.000
315.134;  -57.125; -385.000; -368.000
315.270;  -32.050; -480.000; -496.000
315.407; -130.350;-1094.000; -967.000
315.544;  -48.450; -657.000; -538.000
315.681;  -63.350; -681.000; -565.000
315.817;   16.950; -133.000; -176.000
315.954;   10.250; -613.000; -392.000
316.091; -132.975;-1045.000;-1023.000
316.227;  -36.525;  -71.000; -179.000
316.364;    3.800;   23.000;    6.000
316.500;  -43.675; -113.000; -300.000
316.637;  -52.875; -181.000; -302.000
316.774;  -92.450; -625.000; -358.000
316.910; -104.800; -598.000; -629.000
317.047;  -71.050; -487.000; -351.000
317.183;  -44.325; -435.000; -566.000
317.320;  -24.100; -367.000; -321.000
317.456;  -63.975; -733.000; -805.000
317.593;  -99.500; -598.000; -641.000
317.729;   -3.075;  168.000;  -67.000
317.866; -203.750;-1434.000;-1285.000
318.002;  -90.225; -708.000; -948.000
318.139; -106.875; -883.000; -867.000
318.275; -108.150;-1003.000; -738.000
318.412;  -58.125; -517.000; -336.000
318.548;  -42.975; -751.000; -720.000
318.685; -104.675; -985.000; -888.000
318.821;  -94.400; -762.000; -735.000
318.957;  -18.525;   34.000;  -23.000
319.094;   36.875;  297.000;  154.000
319.230;  -72.500; -756.000; -742.000
319.367;  105.750; -471.000; -520.000
319.503;   51.175; -538.000; -436.000
319.639; -110.250; -877.000; -793.000
319.775;  -61.075; -750.000; -685.000
319.912;  -65.025; -424.000; -519.000
320.048;  -98.900;-1184.000;-1184.000
320.184;   78.675;   59.000;   70.000
320.321;  -74.925; -497.000; -467.000
320.457;   72.775;  475.000;  662.000
320.593;  -76.900; -375.000; -382.000
320.729; -112.425; -732.000; -734.000
320.866;  -69.700; -577.000; -635.000
321.002;  -83.925; -759.000; -809.000
321.138;  -18.625; -135.000; -211.000
321.274;   68.050; -148.000; -115.000
321.410;  -21.675; -585.000; -353.000
321.546;  -52.450;-1011.000; -911.000
321.683;   61.200;  400.000;  185.000
321.819;   -2.875;  -48.000; -117.000
321.955; -108.925; -743.000; -722.000
322.091;  -46.550; -585.000; -540.000
322.227;  -14.625; -382.000; -202.000
322.363;  -10.225; -320.000; -215.000
322.499;  -46.425; -343.000; -331.000
322.635;  142.800;  636.000;  443.000
322.771;   12.000; -139.000;   12.000
322.907;   88.350;  129.000;  327.000
323.043;  -19.325; -115.000; -206.000
323.179;  -38.250; -394.000; -363.000
323.315;   -4.325; -401.000; -371.000
323.451;   77.425; -328.000; -236.000
323.587;   44.100;  -60.000;  -77.000
323.723;    5.500; -682.000; -601.000
323.859;  -24.550; -258.000;  -76.000
323.995;  -35.175; -467.000; -409.000
324.131; -134.275; -967.000; -892.000
324.267;  -30.850; -254.000; -276.000
324.402; -142.025; -960.000; -983.000
324.538;  -20.725; -279.000; -104.000
324.674;   14.125;  164.000;   77.000
324.810;   99.000;  226.000;  308.000
324.946;  -14.450; -810.000; -658.000
325.082;  -93.900; -568.000; -475.000
325.217;  -20.825;  -62.000;   16.000
325.353; -104.400; -764.000; -659.000
325.489;  -98.250; -540.000; -506.000
325.625;  -78.025; -579.000; -525.000
325.760;   61.500;  517.000;  376.000
325.896;  -27.075; -515.000; -702.000
326.032;  -52.150; -403.000; -352.000
326.168;  -63.450; -462.000; -369.000
326.303;  -71.950; -352.000; -461.000
326.439;  -25.550; -336.000; -276.000
326.575;  -11.775; -190.000;  -29.000
326.710;  -10.025; -156.000;  -30.000
326.846;  -15.050;  146.000;  103.000
326.982;  -93.875; -530.000; -548.000
327.117;  -74.750; -481.000; -442.000
327.253;  -86.200; -745.000; -742.000
327.388; -149.825;-1137.000;-1153.000
327.524;  -64.600; -811.000; -578.000
327.659;  -23.550;  -58.000;  -22.000
327.795;  -13.625;   69.000;   45.000
327.931;  -96.600; -723.000; -499.000
328.066;  -25.075; -417.000; -276.000
328.202;  -27.650;   12.000; -129.000
328.337;  105.650;  957.000;  713.000
328.473;   28.325;  -12.000;  -74.000
328.608;  -32.550; -256.000; -267.000
328.743;  -90.525; -799.000; -664.000
328.879;   17.175;  214.000;  114.000
329.014;  -35.250; -102.000; -122.000
329.150;  -90.500; -358.000; -483.000
329.285;  -89.250; -465.000; -466.000
329.421;  -55.650; -548.000; -246.000
329.556;  -23.700;  -36.000;   85.000
329.691;  -94.525; -633.000; -615.000
329.827;  -73.625; -626.000; -480.000
329.962;  -41.850;  131.000; -301.000
330.097; -102.050; -673.000; -585.000
330.233;  -52.000; -410.000; -223.000
330.368; -122.175; -839.000; -628.000
330.503;  -21.450;    3.000;   98.000
330.638;   -5.225;  -93.000; -125.000
330.774;  -69.650; -609.000; -530.000
330.909;  -52.325; -434.000; -244.000
331.044; -111.425; -714.000; -708.000
331.179; -187.300;-1217.000;-1109.000
331.315;    2.150;   77.000;   20.000
331.450;   11.875;  157.000;  285.000
331.585;  -98.100; -805.000; -706.000
331.720;  -79.100; -510.000; -460.000
331.855;   -0.400;  -35.000; -102.000
331.990;  255.275;   62.000;  138.000
332.126;  129.225; -110.000;   71.000
332.261;  -21.800; -379.000; -265.000
332.396;   -2.950; -135.000; -242.000
332.531; -114.725;-1074.000;-1031.000
332.666;   38.825; -519.000; -363.000
332.801; -115.600; -726.000; -807.000
332.936;  -22.050; -192.000; -122.000
333.071; -141.700; -870.000; -817.000
333.206;   16.125;  307.000;  379.000
333.341;   22.150;  344.000;  418.000
333.476;  -92.400; -627.000; -623.000
333.611;  -54.250; -251.000; -173.000
333.746;  -49.775; -381.000; -464.000
333.881; -126.400; -973.000; -935.000
334.016; -131.300; -936.000; -917.000
334.151; -126.575; -746.000; -702.000
334.286;   15.575;  152.000;  186.000
334.421;  -28.125; -125.000; -178.000
334.556;  -86.850; -611.000; -567.000
334.690;  -83.425; -631.000; -577.000
334.825;   57.175;  381.000;   83.000
334.960;  -64.200; -285.000; -413.000
335.095;   -4.625;  135.000;  -91.000
335.230;  -89.975; -722.000; -738.000
335.365; -142.425;-1084.000; -990.000
335.499; -127.975;-1108.000;-1037.000
335.634;   11.375;    9.000;  534.000
335.769; -102.325; -755.000; -720.000
335.904;  -75.825; -603.000; -561.000
336.038;  -66.550; -735.000; -657.000
336.173; -127.375;-1206.000;-1194.000
336.308;   -0.625; -116.000; -189.000
336.443;   34.550; -544.000; -634.000
336.577;  -79.600; -936.000; -787.000
336.712;   59.025;   -4.000;  -12.000
336.847;  -55.875; -724.000; -607.000
336.981;   45.250; -272.000; -208.000
337.116;  272.025;  615.000;  501.000
337.250;  131.725; -434.000; -421.000
337.385;  252.150; -297.000; -208.000
337.520;   95.675; -632.000; -603.000
337.654;  -43.525; -215.000; -126.000
337.789; -129.650; -989.000; -933.000
337.923;  -26.975; -104.000; -205.000
338.058; -101.400; -673.000; -738.000
338.192;  -45.225; -611.000; -488.000
338.327;  -12.625;  -18.000; -155.000
338.461;  -73.675; -299.000; -469.000
338.596; -106.950; -780.000; -638.000
338.730; -107.175; -767.000; -803.000
338.865;   87.500;  -46.000; -140.000
338.999;  -58.300; -846.000; -702.000
339.134;  -28.100; -634.000; -536.000
339.268;    1.075; -741.000; -603.000
339.403;  354.850; -740.000; -775.000
339.537;  116.500; -894.000; -820.000
339.671; -114.850; -829.000; -813.000
339.806;  -68.250; -556.000; -512.000
339.940;    3.400; -261.000; -235.000
340.074;  -95.225; -685.000; -510.000
340.209;  -52.150; -351.000; -230.000
340.343;  -92.875; -517.000; -573.000
340.477;  156.800;  998.000; 1036.000
340.612;  -48.375;-1033.000; -900.000
340.746;  129.100; -199.000; -243.000
340.880;  -91.625; -924.000; -785.000
341.014;  -21.775;  -45.000; -154.000
341.149; -121.850; -756.000; -718.000
341.283; -104.600; -839.000; -754.000
341.417; -114.900;-1124.000; -938.000
341.551;   93.275; -768.000; -708.000
341.685;  -49.125; -633.000; -611.000
341.820;  -66.975; -562.000; -493.000
341.954;  -55.275; -218.000; -349.000
342.088; -156.625;-1102.000;-1019.000
342.222;   52.550;  565.000;  618.000
342.356;  -58.850; -395.000; -335.000
342.490;  -88.425; -880.000; -841.000
342.624;  -39.125; -339.000; -242.000
342.758;  -21.425; -364.000; -312.000
342.892;  -70.400; -710.000; -585.000
343.026;  -44.800;  -58.000; -116.000
343.160;  -69.900; -426.000; -376.000
343.294;  -83.650; -474.000; -337.000
343.428;  -42.125; -488.000; -448.000
343.562;  -28.450; -172.000;  -23.000
343.696;  -29.925; -385.000; -314.000
343.830;  -29.550; -362.000; -356.000
343.964;   10.700; -231.000; -168.000
344.098;  835.225;  199.000;   70.000
344.232;  686.325; -266.000; -127.000
344.366;   84.000; -567.000; -453.000
344.500;   45.925; -665.000; -744.000
344.634;   17.150; -324.000; -164.000
344.768;  -27.025; -531.000; -341.000
344.902;   14.125;  278.000;  256.000
345.035;  -77.650; -556.000; -496.000
345.169; -130.850; -933.000; -656.000
345.303;  -37.975; -308.000; -482.000
345.437;  -82.325; -826.000; -717.000
345.571;  -67.425; -675.000; -594.000
345.704;  -69.650; -309.000; -532.000
345.838;  -15.475; -331.000; -284.000
345.972;  -52.650; -543.000; -495.000
346.106;  158.025; -179.000; -190.000
346.239;  388.975; -312.000; -243.000
346.373;   -6.825; -343.000; -302.000
346.507; -144.325; -950.000; -962.000
346.640;  129.175;  -30.000;   13.000
346.774;  -60.200; -650.000; -797.000
346.908;  -10.500; -138.000;  -11.000
347.041; -103.525; -646.000; -593.000
347.175;   -6.675;  259.000;   27.000
347.309;  -88.925; -698.000; -628.000
347.442; -116.850; -883.000; -732.000
347.576;  245.200;  670.000;  668.000
347.709;  166.675; -123.000;  -52.000
347.843;  -87.575; -933.000; -825.000
347.976;   35.250;  235.000;  294.000
348.110; -181.700;-1268.000;-1186.000
348.243; -110.850; -679.000; -772.000
348.377;   12.150;  -26.000;   60.000
348.510;   51.175;  403.000;  540.000
348.644;  -37.800;  -37.000; -159.000
348.777;   -5.250;  180.000;  191.000
348.911;  -56.600; -142.000; -112.000
349.044;  165.175;  471.000;  448.000
349.178;  124.975;-1069.000;-1006.000
349.311;  104.375;  141.000;  255.000
349.444;   -3.825; -927.000; -813.000
349.578;  -21.750; -347.000; -200.000
349.711; -115.850; -959.000; -862.000
349.845;   -6.875; -661.000; -591.000
349.978; -152.725;-1224.000;-1137.000
350.111;  -89.075; -546.000; -612.000
350.244;  -82.750; -596.000; -700.000
350.378;  -17.775; -392.000; -393.000
350.511;  -64.650; -393.000; -426.000
350.644; -110.950; -808.000; -806.000
350.778;    0.400;  168.000;  104.000
350.911;   14.100;  134.000;  140.000
351.044;  -86.000; -685.000; -615.000
351.177;  -29.875; -321.000; -281.000
351.310;  -17.025;    3.000; -131.000
351.444; -105.925; -888.000; -788.000
351.577;  105.125;  140.000;   90.000
351.710;   98.450;  593.000;  417.000
351.843;  -35.950; -165.000;  -77.000
351.976;  -12.425;  149.000;  -79.000
352.109;  -92.750; -621.000; -612.000
352.242;  -23.525; -464.000; -419.000
352.376;  -76.325; -580.000; -636.000
352.509;  136.975; -437.000; -356.000
352.642;   -9.700; -654.000; -604.000
352.775;   58.650; -141.000;  -98.000
352.908; -100.850; -933.000; -904.000
353.041; -120.325; -814.000; -824.000
353.174;  -59.800; -551.000; -424.000
353.307;  -91.700; -753.000; -764.000
353.440;   53.750;  541.000;  453.000
353.573; -115.850; -957.000;-1008.000
353.706;  -60.700; -384.000; -558.000
353.839;  -22.800; -264.000; -220.000
353.971;  -95.525; -657.000; -512.000
354.104;  -89.375; -896.000; -835.000
354.237;  -40.500; -627.000; -662.000
354.370;  -99.175; -846.000; -879.000
354.503; -187.875;-1231.000;-1308.000
354.636;  -46.025; -529.000; -348.000
354.769; -136.950; -937.000; -860.000
354.902;  -17.750; -230.000; -139.000
355.034;  -38.975; -164.000; -220.000
355.167;  -22.525; -262.000; -162.000
355.300;  -95.725;-1061.000; -880.000
355.433;  988.475;  -71.000;  -14.000
355.565; 1521.100; -402.000; -384.000
355.698;  384.025; -356.000; -296.000
355.831;   -5.150; -882.000; -801.000
355.964;   72.225; -285.000; -170.000
356.096;  -86.025; -856.000; -843.000
356.229;    0.050; -523.000; -530.000
356.362;  326.850; -373.000; -266.000
356.494;  614.000; -229.000; -162.000
356.627;  439.625;  269.000;  377.000
356.760;  657.100;  120.000;   53.000
356.892;  981.450; -286.000; -601.000
357.025;  599.025;  403.000;  389.000
357.157;  551.125; -167.000; -179.000
357.290;  710.550; -856.000; -713.000
357.423;  204.925; -667.000; -556.000
357.555;   93.825; -217.000; -228.000
357.688;  121.200; -483.000; -364.000
357.820;  436.675; -870.000; -877.000
357.953; 3572.925; -563.000; -589.000
358.085;  742.725; -632.000; -612.000
358.218;  967.550;-1131.000; -932.000
358.350;  179.300;  -58.000;  312.000
358.483; -145.450;-1300.000;-1187.000
358.615;  -43.200;-1182.000;-1078.000
358.747;  -81.150;-1187.000;-1058.000
358.880;   -0.075; -810.000; -744.000
359.012;  -28.525; -376.000; -202.000
359.145;  -47.100; -480.000; -511.000
359.277;   50.000; -962.000; -913.000
359.409; 2939.175;  536.000;  231.000
359.542;  744.950; -738.000; -688.000
359.674;   62.050;   46.000;   13.000
359.806;  -59.425; -565.000; -438.000
359.939;  -46.100; -617.000; -516.000
360.071;   -7.150; -583.000; -579.000
360.203;  -31.800; -411.000; -364.000
360.335;   54.275;  164.000;  -16.000
360.468;  177.600; -249.000; -307.000
360.600; 2382.075; -547.000; -454.000
360.732; 2922.150; -546.000; -423.000
360.864;  378.075;-1216.000;-1044.000
360.996;  235.975; -516.000; -554.000
361.129;   25.550; -389.000; -598.000
361.261;   18.825;  110.000; -113.000
361.393;  -37.750; -252.000; -214.000
361.525;   28.700;   94.000;  244.000
361.657;  -44.325; -821.000; -703.000
361.789;  -10.125; -139.000; -155.000
361.921;  195.800; -642.000; -593.000
362.053;  217.950;  524.000;  541.000
362.185;   37.200;  288.000;   72.000
362.318;  -95.600; -709.000; -705.000
362.450;  107.125;  294.000;  444.000
362.582;   49.300; -913.000; -870.000
362.714;  -39.025; -353.000; -332.000
362.846;  -96.150; -606.000; -490.000
362.978; -148.775; -941.000; -811.000
363.109;   34.525; -161.000; -260.000
363.241;  361.900; -739.000; -749.000
363.373;  421.900; -649.000; -564.000
363.505;  672.000; -186.000;  -91.000
363.637;  153.175; -787.000; -601.000
363.769; -131.900;-1067.000;-1080.000
363.901;  -68.750; -596.000; -654.000
364.033; -128.425;-1103.000;-1062.000
364.165;  -21.050; -283.000; -283.000
364.296;   73.350; -316.000; -177.000
364.428;   73.850;-1344.000;-1220.000
364.560;  -65.725; -679.000; -661.000
364.692;  -77.725; -738.000; -835.000
364.824;  214.725; -588.000; -456.000
364.955;  437.675; -402.000; -564.000
365.087;  979.850;-1097.000; -852.000
365.219;   30.400; -686.000; -816.000
365.351;  -83.950; -526.000; -572.000
365.482;   49.500;  300.000;  240.000
365.614;  -49.850; -402.000; -314.000
365.746;  -97.325; -729.000; -752.000
365.877; -107.650; -706.000; -672.000
366.009;  267.750;  -35.000;  -62.000
366.141;  -93.925;-1249.000;-1134.000
366.272; -122.625; -803.000; -719.000
366.404; -126.550;-1005.000; -874.000
366.535;    0.425; -139.000;  -12.000
366.667; -117.025; -644.000; -649.000
366.799;   37.450;  353.000;  203.000
366.930; -125.725; -862.000; -996.000
367.062;  103.900; -639.000; -613.000
367.193;  149.225; -872.000; -842.000
367.325;  -68.325; -580.000; -684.000
367.456;   33.350; -246.000;   31.000
367.588;  161.325; -371.000; -318.000
367.719;   18.750;  -44.000;  -45.000
367.851;  -30.350; -222.000; -241.000
367.982;  -59.700; -875.000; -732.000
368.113;   80.675; -475.000; -358.000
368.245; -121.700; -960.000; -841.000
368.376;  -34.000; -254.000; -302.000
368.508;  -57.225; -188.000; -263.000
368.639; -151.375;-1166.000;-1034.000
368.770;  -30.725; -670.000; -589.000
368.902;  -75.450; -836.000; -926.000
369.033; -122.725; -906.000; -855.000
369.164;  -62.725; -720.000; -653.000
369.296; -112.325; -452.000; -601.000
369.427;  -10.750; -209.000; -144.000
369.558;  -55.575; -593.000; -377.000
369.689;  -90.450; -721.000; -569.000
369.821; -140.175; -951.000; -845.000
369.952;  -17.775;   42.000; -108.000
370.083;  -68.000; -229.000; -108.000
370.214;  -91.050; -735.000; -650.000
370.345;  -21.525;   65.000;   81.000
370.477; -101.750; -810.000; -790.000
370.608;  203.200; -328.000; -264.000
370.739;  -65.350;-1233.000;-1292.000
370.870;  -58.200;-1102.000; -923.000
371.001;   59.725; -378.000; -467.000
371.132;  -90.875; -754.000; -735.000
371.263;  -20.300;  -42.000; -148.000
371.394; -126.075; -841.000; -748.000
371.525;   20.075;  345.000;  225.000
371.657;  -98.750; -808.000; -670.000
371.788;   77.975;  103.000;  199.000
371.919;  149.675; -384.000; -304.000
372.050; 3399.000;  -91.000; -156.000
372.181; 1015.500; -188.000; -294.000
372.311;  335.325;   42.000; -127.000
372.442;   30.125; -457.000; -451.000
372.573;  -40.925; -444.000; -340.000
372.704; -125.750;-1008.000; -980.000
372.835;   60.600; -228.000; -289.000
372.966;  -68.325; -646.000; -554.000
373.097;  -82.475; -575.000; -711.000
373.228;  -55.125; -717.000; -542.000
373.359;  106.050; -824.000; -536.000
373.490;  832.975; -881.000; -727.000
373.620; 1045.775;-1001.000; -803.000
373.751; 1650.475; -332.000; -396.000
373.882;  707.725; -663.000; -733.000
374.013;   50.100; -449.000; -262.000
374.143;  -43.950; -581.000; -659.000
374.274; -122.425; -987.000; -908.000
374.405;  149.400; -388.000; -276.000
374.536;  387.825; -526.000; -387.000
374.666;  997.550; -759.000; -807.000
374.797;  180.425; -817.000; -868.000
374.928;  746.400; -710.000; -560.000
375.058;  793.500; -535.000; -500.000
375.189;   57.400;  -59.000;  -93.000
375.320; -121.150; -928.000;-1034.000
375.450;  -38.075; -625.000; -616.000
375.581;  -51.850; -526.000; -436.000
375.712;  -35.475; -574.000; -250.000
375.842;  258.725; -438.000; -415.000
375.973;  177.875; -554.000; -513.000
376.103;  -63.350; -665.000; -648.000
376.234;  -94.525; -531.000; -552.000
376.364;  -64.725; -944.000; -867.000
376.495;  288.850;  925.000;  529.000
376.625;  -23.250; -472.000; -485.000
376.756;   40.400; -709.000; -678.000
376.886;  -88.050;-1178.000;-1026.000
377.017;   44.725;-1048.000;-1061.000
377.147;  361.625; -786.000; -782.000
377.278;   69.500;  174.000;  228.000
377.408; -141.650; -801.000; -815.000
377.538; -114.725; -707.000; -693.000
377.669;  -88.600; -537.000; -613.000
377.799; -108.225; -645.000; -635.000
377.929;  -77.025; -610.000; -428.000
378.060; -125.975; -781.000; -847.000
378.190;  -52.825; -726.000; -531.000
378.320;  -46.575; -401.000; -406.000
378.451;   -7.725; -131.000;  -22.000
378.581;  -16.175;  -67.000; -110.000
378.711;  138.825; 1035.000;  866.000
378.841;  -20.225; -533.000; -675.000
378.972;  -88.900; -871.000; -751.000
379.102;  -19.100; -652.000; -579.000
379.232;  -21.875; -126.000;  -73.000
379.362; -117.300;-1001.000; -885.000
379.492;  -14.800; -373.000; -424.000
379.623;   89.475;    0.000;  111.000
379.753; -112.025;-1107.000; -974.000
379.883;  169.125;   59.000;  156.000
380.013;  -16.000;-1081.000;-1017.000
380.143; -112.600;-1097.000;-1056.000
380.273; -118.700; -985.000; -861.000
380.403;  -12.050; -344.000; -257.000
380.533;  -48.975; -651.000; -664.000
380.663;   52.275;  173.000;  128.000
380.793; -122.575;-1027.000;-1074.000
380.923;  -22.375; -103.000;  -34.000
381.053; -108.575; -613.000; -623.000
381.183;  -35.350; -106.000; -248.000
381.313;    3.075; -656.000; -470.000
381.443;   13.100; -692.000; -473.000
381.573;  159.325; -402.000; -409.000
381.703;  210.850;-1249.000;-1095.000
381.833; -148.600;-1454.000;-1336.000
381.963;  109.725; -134.000;  -87.000
382.093; 1299.925; -925.000; -909.000
382.223;  382.150; -713.000; -602.000
382.353;  -17.825; -801.000; -608.000
382.482;  309.650;-1091.000; -964.000
382.612;  694.750; -872.000; -644.000
382.742;  383.225; -695.000; -622.000
382.872;  209.850; -565.000; -551.000
383.002;   62.225;  347.000; -132.000
383.131;  -32.150; -226.000; -160.000
383.261;  -58.700; -706.000; -768.000
383.391;  283.500; -552.000; -377.000
383.521; 3368.575;  451.000;  263.000
383.650;  785.250; -947.000; -904.000
383.780;  -21.400; -783.000; -656.000
383.910;  100.875;  880.000;  802.000
384.039;    8.025; -794.000; -656.000
384.169;  161.225;-1205.000;-1017.000
384.299;  -33.975; -650.000; -662.000
384.428; -103.500; -764.000; -680.000
384.558;  -41.325; -308.000; -275.000
384.687;  -58.775; -414.000; -334.000
384.817;    7.400;   75.000;   -2.000
384.947;    6.050; -234.000; -141.000
385.076;  282.400;  982.000;  912.000
385.206;   86.225;  369.000;  480.000
385.335;  -40.525; -549.000; -417.000
385.465; -102.225; -655.000; -663.000
385.594;  121.850;  -53.000;  -44.000
385.724;  373.425; -868.000; -838.000
385.853;   92.625; -296.000; -270.000
385.982; 1262.900; -743.000; -787.000
386.112; 1928.450;-1052.000; -871.000
386.241;  125.500; -307.000; -312.000
386.371;   -2.475; -174.000;  -87.000
386.500;  -26.025; -825.000; -789.000
386.629;   12.850; -874.000; -817.000
386.759;   48.425;  -43.000;   68.000
386.888;  -13.575; -170.000; -250.000
387.017;  -89.050; -648.000; -620.000
387.147; -113.900; -771.000; -798.000
387.276;  -26.150; -410.000; -397.000
387.405;   -1.800; -398.000; -342.000
387.535;  -60.425; -452.000; -361.000
387.664;  -67.750; -692.000; -620.000
387.793;   54.600; -198.000; -113.000
387.922;  463.725;  255.000;  200.000
388.052;    2.550; -576.000; -423.000
388.181;  -21.175; -342.000; -472.000
388.310;  -37.550; -889.000; -710.000
388.439;  -73.375; -749.000; -742.000
388.568;  164.425;  365.000;  244.000
388.697;  923.850; -756.000; -653.000
388.826;  172.025; -768.000; -666.000
388.956;   37.875; -285.000; -307.000
389.085;  -58.800; -347.000; -287.000
389.214; -108.175; -842.000; -872.000
389.343;  -72.100; -645.000; -413.000
389.472;  415.600;  126.000;  149.000
389.601;  506.775;   91.000;    0.000
389.730;   -0.800; -568.000; -687.000
389.859;   51.725;  226.000;   46.000
389.988;  154.075; -423.000; -408.000
390.117;  126.150; -168.000; -146.000
390.246;  -14.750; -331.000; -320.000
390.375;   57.150; -673.000; -626.000
390.504;  -60.550; -703.000; -621.000
390.633;  -92.075; -672.000; -726.000
390.761;  -82.250; -732.000; -645.000
390.890;    8.425;   -4.000; -130.000
391.019;  -41.675; -421.000; -441.000
391.148; -134.550; -826.000; -855.000
391.277;  -81.675; -576.000; -493.000
391.406;  -97.525; -821.000; -805.000
391.534;   22.950;  574.000; -301.000
391.663;  -80.775; -583.000; -645.000
391.792;  -88.600; -673.000; -701.000
391.921;   53.025;   -3.000;   15.000
392.050;  140.200; -287.000; -228.000
392.178;  -68.250;-1206.000;-1061.000
392.307;  109.750; -758.000; -712.000
392.436;   47.175; -427.000; -641.000
392.564;   10.700;  166.000;   -6.000
392.693; -106.800; -860.000; -682.000
392.822;  161.050; -529.000; -534.000
392.950;   67.225; -880.000; -714.000
393.079;  308.575; -188.000; -328.000
393.208;   -6.100; -488.000; -511.000
393.336;  -16.100; -170.000; -145.000
393.465;  -61.550; -317.000; -199.000
393.593;  -10.100;   62.000;   79.000
393.722; -169.200;-1121.000; -916.000
393.850;  -42.350; -188.000;  -61.000
393.979; -160.025; -926.000; -805.000
394.107;  -59.550; -517.000; -537.000
394.236;  -46.675; -570.000; -507.000
394.364;  169.950;  383.000;  206.000
394.493;  208.675; -911.000; -767.000
394.621;  -30.925; -955.000; -916.000
394.750;  740.650; -873.000; -923.000
394.878; 3060.225; -247.000; -149.000
395.007; 4047.125; -721.000; -807.000
395.135;  289.025; -790.000; -721.000
395.263;  -80.500;-1038.000;-1040.000
395.392;   -1.200;  -25.000; -107.000
395.520; -147.825; -818.000; -679.000
395.648; -106.075; -865.000; -915.000
395.777;  -46.400; -366.000; -405.000
395.905;  -69.275; -449.000; -564.000
396.033;    3.075;  217.000;  172.000
396.162;  381.875; -399.000; -453.000
396.290;  317.150;  -17.000;   -2.000
396.418;   70.600; -555.000; -514.000
396.546;  -79.175; -571.000; -466.000
396.674; -109.450; -850.000; -878.000
396.803;    3.950;  -72.000;  -23.000
396.931;   68.300; -179.000; -199.000
397.059;   11.750;-1026.000; -989.000
397.187; -108.475;-1026.000; -975.000
397.315; -142.150; -884.000; -649.000
397.443;  -92.950; -592.000; -443.000
397.572;  -92.025; -578.000; -424.000
397.700;  -35.500; -607.000; -614.000
397.828;    7.625;  120.000;  -90.000
397.956;  -50.275; -508.000; -478.000
398.084;  -61.750; -767.000; -626.000
398.212;   22.725;  137.000;  124.000
398.340;   -3.075;  -56.000;  159.000
398.468;    9.125; -390.000; -169.000
398.596; -159.325; -993.000; -953.000
398.724; -125.050; -762.000; -767.000
398.852; -174.575;-1024.000; -976.000
398.980;  -81.925; -560.000; -560.000
399.108;  -75.950; -982.000; -735.000
399.236;   19.275;   13.000;    8.000
399.363;    1.625;  222.000;  196.000
399.491;  -78.950; -404.000; -398.000
399.619; -143.075; -829.000; -800.000
399.747; -115.225; -859.000; -771.000
399.875;   57.575;  220.000;  234.000
400.003;  -52.675; -359.000; -284.000
400.130;  -92.225; -421.000; -341.000
400.258;  -22.600;  -83.000;   38.000
400.386;  -56.875; -352.000; -168.000
400.514;  -48.400; -526.000; -587.000
400.641; -111.550; -928.000; -802.000
400.769; -135.550; -979.000; -888.000
400.897; -129.575; -838.000; -793.000
401.025;  -38.100; -166.000; -152.000
401.152;   -0.125;  220.000;   38.000
401.280;  -99.425; -430.000; -429.000
401.408; -131.075; -712.000; -576.000
401.535; -107.625; -735.000; -758.000
401.663; -209.075;-1134.000;-1054.000
401.790;  -93.200; -514.000; -525.000
401.918;   46.075;  436.000;  405.000
402.046;  -13.600;  134.000;  122.000
402.173;  -45.275;  -18.000;    7.000
402.301;  -75.850; -519.000; -397.000
402.428;   30.875;  528.000;  383.000
402.556; -154.700;-1188.000; -913.000
402.683;  -42.600;  -20.000;   -1.000
402.811;  -36.550;  -37.000; -206.000
402.938;   -2.875;   20.000;   27.000
403.066;  163.725; -574.000; -558.000
403.193;  293.925;  299.000;  239.000
403.321;  231.775; -396.000; -574.000
403.448;  287.025;   83.000;   27.000
403.575;  120.275;  -90.000;  -46.000
403.703;  -95.200; -732.000; -557.000
403.830;  -63.300; -531.000; -496.000
403.957; -144.300;-1117.000;-1023.000
404.085;   -0.050;  -61.000; -172.000
404.212;   90.300;  -50.000;   63.000
404.339;  283.000; -566.000; -306.000
404.467; 6031.625; -612.000; -524.000
404.594; 3784.775; -287.000; -227.000
404.721;  808.775; -869.000; -764.000
404.848;   59.875; -113.000; -202.000
404.976; -124.400; -856.000; -783.000
405.103;  -13.275;  -14.000;  -82.000
405.230;   -5.750;  190.000;  226.000
405.357;   17.425;  117.000;   44.000
405.484;  253.525;  -49.000;    5.000
405.612;   37.675; -548.000; -563.000
405.739;  -75.150; -488.000; -243.000
405.866;   82.675;  669.000;  385.000
405.993;  -52.300; -398.000; -102.000
406.120; -147.050; -801.000; -887.000
406.247;  -59.125; -323.000; -342.000
406.374;  373.250;  540.000;  629.000
406.501;   65.300; -632.000; -702.000
406.628;  -98.425; -621.000; -589.000
406.755; -114.500; -803.000; -620.000
406.882;  -44.950; -228.000; -277.000
407.009; -115.325; -719.000; -628.000
407.136;   32.850; -480.000; -401.000
407.263;   75.950; -939.000; -829.000
407.390;  -79.925; -692.000; -614.000
407.517; -186.100;-1139.000;-1187.000
407.644;  -65.450; -332.000; -256.000
407.771; -152.400; -249.000; -287.000
407.898;   -6.450;  168.000;  328.000
408.025;  -73.700; -421.000; -313.000
408.151;   -4.925;   82.000;  153.000
408.278;  -68.825; -267.000; -216.000
408.405; -127.875; -931.000; -899.000
408.532;  -84.350; -549.000; -542.000
408.659; -116.350; -677.000; -648.000
408.785; -205.900;-1298.000;-1170.000
408.912;  -65.700; -412.000; -296.000
409.039; -116.025; -610.000; -686.000
409.166; -107.900; -591.000; -555.000
409.292; -116.125; -571.000; -534.000
409.419; -121.600; -665.000; -649.000
409.546;  -86.425; -431.000; -192.000
409.672; -119.950; -713.000; -545.000
409.799;  -21.225;  -36.000;   34.000
409.926;  -45.950; -180.000; -179.000
410.052; -183.725;-1127.000;-1091.000
410.179;  -65.750; -368.000; -392.000
410.305;  -83.375; -375.000; -493.000
410.432;  -40.750; -220.000; -333.000
410.558;  -87.400; -305.000; -380.000
410.685; -121.650; -688.000; -431.000
410.812; -111.275; -409.000; -588.000
410.938; -149.675; -964.000; -808.000
411.065;  -95.550; -671.000; -645.000
411.191;  -23.825; -189.000; -174.000
411.317; -128.150; -823.000; -742.000
411.444;  -65.425; -317.000; -246.000
411.570;  -73.150; -339.000; -294.000
411.697; -120.100; -758.000; -752.000
411.823; -166.650; -989.000; -999.000
411.949;  -32.750;  -56.000;   17.000
412.076; -131.200; -539.000; -519.000
412.202; -117.525; -758.000; -757.000
412.329; -134.150; -798.000; -752.000
412.455; -134.425; -821.000; -657.000
412.581;  -24.000;  -15.000;  172.000
412.707;  -66.175; -540.000; -457.000
412.834;    5.800;  156.000;  219.000
412.960;  -96.625; -785.000; -784.000
413.086; -104.750; -743.000; -701.000
413.212;  120.875;  604.000;  578.000
413.339;  -81.125; -685.000; -701.000
413.465;   -5.175; -364.000; -310.000
413.591; -114.900; -757.000; -474.000
413.717;  -58.175; -358.000; -366.000
413.843; -148.225; -839.000; -861.000
413.969;  -69.550;  -47.000; -292.000
414.096; -109.350; -679.000; -679.000
414.222;  -11.825;  -33.000;   85.000
414.348;  -45.750; -652.000; -385.000
414.474;   78.700;   38.000;  -52.000
414.600;  -15.650; -126.000; -144.000
414.726;  -26.000;  -96.000;  -55.000
414.852;  -66.125; -365.000; -342.000
414.978;   33.775;  104.000;  -18.000
415.104;   37.175;   38.000;   80.000
415.230;   25.775; -329.000; -330.000
415.356;   21.000; -409.000; -514.000
415.482;  199.725;   13.000;  -35.000
415.608;  267.050; -247.000; -323.000
415.734; 1005.325;   67.000;   38.000
415.860;20592.450; -875.000; -767.000
415.986;14429.825; -685.000; -607.000
416.111; 1212.525; -798.000; -652.000
416.237;  243.225; -424.000; -571.000
416.363; 1221.300; -765.000; -733.000
416.489; 4282.900; -324.000; -251.000
416.615;  448.175; -707.000; -742.000
416.741;  -38.550; -677.000; -784.000
416.866; -102.100; -673.000; -736.000
416.992; -127.150; -801.000; -818.000
417.118;  -31.525;  -41.000;  -80.000
417.244;  -71.000; -798.000; -531.000
417.369;  -90.200; -801.000; -612.000
417.495;  -25.750; -325.000; -254.000
417.621;  -89.900;-1015.000; -803.000
417.746;   13.525; -579.000; -572.000
417.872;   36.150; -254.000; -144.000
417.998;   55.000; -515.000; -530.000
418.123; 1128.950;-1073.000; -845.000
418.249; 5547.100; -512.000; -601.000
418.374;  747.750; -916.000; -824.000
418.500;  106.775; -383.000; -482.000
418.626;   94.600;   70.000;  -59.000
418.751;  108.225; -549.000; -448.000
418.877;  184.975; -637.000; -643.000
419.002; 1891.125; -688.000; -560.000
419.128;13030.150; -930.000; -721.000
419.253; 3044.175; -967.000; -837.000
419.379;  396.625; -391.000; -338.000
419.504;  396.000;  325.000;  415.000
419.629;  530.425; -393.000; -212.000
419.755; 3859.975; -317.000; -254.000
419.880;22179.350;  -98.000;   67.000
420.006;11882.500; -280.000; -221.000
420.131;30073.625; -662.000; -775.000
420.256; 4196.825; -315.000; -316.000
420.382;  532.625; -665.000; -687.000
420.507;   68.025; -649.000; -778.000
420.632;  125.425; -337.000; -339.000
420.758;  205.950; -251.000; -425.000
420.883;  -97.700; -876.000; -672.000
421.008; -101.500; -775.000; -619.000
421.133;  -95.625; -509.000; -467.000
421.259;  -51.875; -325.000; -259.000
421.384; -120.575; -834.000; -693.000
421.509;  -49.625;-1052.000; -862.000
421.634;  985.975; -936.000; -820.000
421.759;  403.325; -359.000; -327.000
421.885;  -71.750; -717.000; -656.000
422.010;  -81.550; -673.000; -542.000
422.135; -157.625; -695.000; -727.000
422.260;   28.200;  340.000;  280.000
422.385;  -51.425;   12.000;  -98.000
422.510;    4.300;  151.000;  -26.000
422.635;   15.375;  -87.000;  -43.000
422.760;   81.025; -766.000; -791.000
422.885;   40.275;  -57.000;  -80.000
423.010;  -40.075; -112.000; -169.000
423.135;  -90.500; -481.000; -561.000
423.260;  -27.250; -150.000; -245.000
423.385;   60.675;  476.000;  222.000
423.510;   19.225;   71.000;  -22.000
423.635;   71.150;  133.000;   45.000
423.760;   52.275;  383.000;  328.000
423.885;   59.600;  336.000;  391.000
424.010;    8.475;  -68.000;  -13.000
424.135;  -26.300;    5.000;  -33.000
424.259;  -89.100; -654.000; -457.000
424.384;  -77.875; -279.000; -272.000
424.509;  -24.350; -260.000; -186.000
424.634; -109.250; -761.000; -623.000
424.759;  -37.725; -688.000; -544.000
424.883;  -21.475; -506.000; -527.000
425.008;  173.450; -502.000; -410.000
425.133; 2073.050; -679.000; -653.000
425.258;  924.425; -517.000; -381.000
425.382;  980.900; -867.000; -774.000
425.507; 2449.650; -487.000; -543.000
425.632;  400.350; -802.000; -663.000
425.756;  483.550; -256.000; -146.000
425.881; 7174.650; -831.000; -857.000
426.006;18629.775; -604.000; -355.000
426.130; 2799.525; -696.000; -508.000
426.255;  370.875; -611.000; -491.000
426.379;  167.925; -189.000; -577.000
426.504;  373.400;  660.000;  544.000
426.629; 4143.350; -519.000; -466.000
426.753; 2751.325;   64.000;  -46.000
426.878;  308.950; -252.000; -288.000
427.002;  179.950; -651.000; -668.000
427.127; 1663.325;  -35.000; -158.000
427.251;11867.550;  372.000;  401.000
427.375; 3268.675; -191.000; -173.000
427.500; 2182.850; -616.000; -610.000
427.624;  731.450; -234.000; -400.000
427.749;   78.100; -216.000; -225.000
427.873;  -52.850; -499.000; -412.000
427.997;  -38.450; -222.000; -230.000
428.122;   77.225;  795.000;  703.000
428.246;   53.100;  433.000;  434.000
428.371; -136.200; -869.000; -773.000
428.495; -124.200; -624.000; -646.000
428.619;  -47.275; -186.000; -117.000
428.743;   31.225;   65.000;  132.000
428.868;    2.100; -732.000; -643.000
428.992; 1331.375; -219.000; -326.000
429.116;  493.225; -329.000; -357.000
429.240;  234.775;  419.000;  426.000
429.365;  -42.300; -454.000; -574.000
429.489;  -56.550; -638.000; -647.000
429.613;   12.475; -236.000; -177.000
429.737;   31.250; -563.000; -432.000
429.861;  272.075; -247.000; -133.000
429.985; 5843.650; -425.000; -305.000
430.109; 6144.750; -770.000; -908.000
430.234;  680.375;   76.000;  -50.000
430.358;   46.675; -250.000; -160.000
430.482;  -66.775; -672.000; -564.000
430.606;  -65.925; -655.000; -375.000
430.730;   -7.350; -437.000; -388.000
430.854;   75.050; -909.000; -835.000
430.978;  -96.650; -795.000; -764.000
431.102;  -91.975; -499.000; -422.000
431.226; -142.075; -874.000; -815.000
431.350;   11.250;  345.000;  422.000
431.474;  -78.375; -661.000; -373.000
431.597; -158.775;-1060.000; -848.000
431.721;  -74.550; -276.000; -267.000
431.845; -141.275; -704.000; -472.000
431.969;  -78.175; -304.000; -349.000
432.093;  -91.150; -395.000; -317.000
432.217;  -25.925;   32.000;   82.000
432.341;  -98.525; -523.000; -518.000
432.464;    3.400;   96.000;   40.000
432.588;  160.250; -401.000; -329.000
432.712;   87.275;  -52.000;  -52.000
432.836;   55.625;  213.000;  263.000
432.959;  -19.450; -372.000; -311.000
433.083;   92.100;   11.000;    2.000
433.207;  404.875;  285.000;  930.000
433.330; 5369.425; -391.000; -200.000
433.454; 6421.175; -654.000; -638.000
433.578; 3739.150;  583.000;  278.000
433.701;  649.425; -623.000; -675.000
433.825;  124.050; -292.000; -299.000
433.949;  140.125;   28.000;  -72.000
434.072;   41.325; -410.000; -323.000
434.196;  -25.650; -309.000; -117.000
434.319; 3789.375;25482.000;25124.000
434.443;  734.200; -656.000; -603.000
434.566; 2747.675;  281.000;   62.000
434.690;  439.250; -637.000; -383.000
434.813;   41.075; -251.000; -173.000
434.937;  -86.500; -569.000; -696.000
435.060;  -65.975; -423.000; -332.000
435.184;  227.600; -492.000; -217.000
435.307;  142.850;  159.000;  102.000
435.431;  -30.550;  -40.000;   24.000
435.554;  -75.650; -399.000; -240.000
435.677;  -87.050; -350.000; -258.000
435.801;  -45.700;  -25.000;   49.000
435.924;  -21.050;    1.000;  -67.000
436.048; -126.900;-1019.000; -732.000
436.171;  -72.525; -240.000;  -66.000
436.294;  -24.700; -248.000; -229.000
436.417;  105.850; -963.000; -849.000
436.541;  -97.900; -814.000; -840.000
436.664;  -57.125; -242.000; -316.000
436.787;  -33.275;   13.000;  113.000
436.910; -116.600; -792.000; -422.000
437.034;    4.325;  142.000;  143.000
437.157;   26.825;  -11.000;    0.000
437.280;  -74.350; -392.000; -292.000
437.403;  -97.975; -982.000; -869.000
437.526;  526.400; -903.000; -865.000
437.649; 1915.875; -505.000; -332.000
437.772;  248.900; -692.000; -540.000
437.896;  111.075;  700.000;  544.000
438.019; -118.225; -758.000; -503.000
438.142;  -99.325; -596.000; -506.000
438.265;  -37.925; -639.000; -670.000
438.388;  466.350; -520.000; -410.000
438.511;   47.875; -597.000; -394.000
438.634;  -71.100; -247.000; -125.000
438.757; -134.825; -693.000; -619.000
438.880;  -31.175;  -34.000;  -57.000
439.003;  -73.275; -417.000; -437.000
439.126;  -77.700; -287.000; -167.000
439.248;  -74.350;  -98.000; -139.000
439.371;  -44.725;    9.000;  -53.000
439.494;   28.450;  510.000;  439.000
439.617;  -49.050;   65.000;  -88.000
439.740; -184.125; -968.000; -816.000
439.863; -146.650; -755.000; -595.000
439.986; -111.625; -476.000; -431.000
440.108;  -47.650; -161.000; -112.000
440.231; -180.450; -950.000; -836.000
440.354;  -37.425;  -64.000; -150.000
440.477;   -8.200; -566.000; -542.000
440.599;  -17.075; -200.000; -225.000
440.722; -134.975; -709.000; -586.000
440.845;   64.625;  751.000;  928.000
440.968; -113.975; -415.000; -311.000
441.090;  -63.125; -199.000;  -33.000
441.213; -172.075;-1021.000; -825.000
441.336;  -43.875; -159.000;   -5.000
441.458;  -82.450; -549.000; -396.000
441.581;  -92.250; -628.000; -629.000
441.703;  -65.550; -152.000;   13.000
441.826; -135.825; -557.000; -400.000
441.948;  -45.900;   56.000;   51.000
442.071;   29.900;  555.000;  424.000
442.193; -128.775; -531.000; -485.000
442.316;   19.050;  152.000;   97.000
442.438;   31.775; -233.000;  -10.000
442.561;   61.300;  272.000;  262.000
442.683;  444.250; -809.000; -522.000
442.806;  949.125;   -8.000;   74.000
442.928;  -17.775; -859.000; -604.000
443.051;  -75.200; -577.000; -373.000
443.173;  -88.375; -341.000; -339.000
443.295;  -91.175; -263.000; -371.000
443.418;  -65.425; -321.000;  -29.000
443.540;   -8.825; -106.000;   -4.000
443.662; -135.525; -563.000; -465.000
443.785;  -23.750;  335.000;  199.000
443.907; -122.725; -362.000; -208.000
444.029; -132.300; -767.000; -494.000
444.152; -141.550; -644.000; -554.000
444.274;  -38.725;  -18.000;  -24.000
444.396; -123.350; -461.000; -221.000
444.518; -138.125; -691.000; -454.000
444.640; -106.475; -268.000; -111.000
444.763;  -18.850;  388.000;  249.000
444.885; -124.975; -432.000; -392.000
445.007;  -30.100;   35.000;   86.000
445.129; -112.850; -610.000; -515.000
445.251; -107.675; -372.000; -439.000
445.373; -146.725; -537.000; -386.000
445.495;    1.450;  242.000;  350.000
445.617;   57.650;  853.000;  753.000
445.739;  -66.900; -215.000;  -97.000
445.861;  -39.425; -245.000; -112.000
445.984;  -39.250; -267.000; -101.000
446.105;  171.350; -418.000; -251.000
446.227;  523.700; -176.000;  -19.000
446.349;  -21.425; -358.000; -249.000
446.471; -112.075; -615.000; -448.000
446.593;  -64.825; -316.000;   19.000
446.715;   -9.825;  -67.000;   41.000
446.837;   61.275;  697.000;  832.000
446.959; -103.850; -457.000; -478.000
447.081; -139.425; -628.000; -518.000
447.203;   55.525;  862.000;  834.000
447.325;  -90.725; -270.000;   42.000
447.446;  -12.400;  286.000;  530.000
447.568; -166.025; -921.000; -803.000
447.690;  -81.125; -236.000; -245.000
447.812; -152.275; -798.000; -519.000
447.933;  -21.750;  155.000;  127.000
448.055;  -88.750; -306.000; -261.000
448.177;  134.700;   31.000;   79.000
448.299;   46.350; -935.000; -727.000
448.420;    7.525;  -25.000;  159.000
448.542;  -41.450;   -3.000;   33.000
448.664;  -28.050;  109.000;  322.000
448.785;  -40.975;  265.000;   83.000
448.907;  -92.825; -614.000; -353.000
449.028;  -52.650; -771.000; -471.000
449.150;   53.825;  492.000;  589.000
449.272; -180.900;-1044.000; -913.000
449.393;   23.600;  612.000;  694.000
449.515; -146.725; -634.000; -581.000
449.636;  -58.825; -264.000; -155.000
449.758;   71.675;  763.000;  622.000
449.879; -107.800; -498.000; -396.000
450.001;  -99.150; -149.000;  -49.000
450.122;  -44.425;  -95.000;  162.000
450.244;  -17.825;   37.000;  364.000
450.365;  -91.800; -495.000; -301.000
450.486;  -28.150;   80.000;  268.000
450.608;   25.125;  393.000;  326.000
450.729;   72.550;  578.000;  645.000
450.850;    4.025; -574.000; -466.000
450.972;  817.325; -552.000; -389.000
451.093; 5209.775;  190.000;  588.000
451.214; 2165.975; -516.000; -337.000
451.336;  379.050;  773.000;  579.000
451.457;   57.325;  264.000;  393.000
451.578;  -52.175; -118.000;  -74.000
451.699; -130.525; -546.000; -540.000
451.821;  -68.950; -284.000;  -50.000
451.942;   -9.150;  278.000;  285.000
452.063;   36.350;  228.000;  419.000
452.184;  599.425;  -54.000;  -49.000
452.305; 1120.325;  103.000;  170.000
452.427;  108.750; -549.000; -301.000
452.548;  -26.925;   23.000;   79.000
452.669;  -50.950; -257.000;  -89.000
452.790;  -40.750;    3.000;  -18.000
452.911;  -17.100;  195.000;  259.000
453.032;  -63.700; -289.000;  -60.000
453.153;  -45.150;  -29.000;   81.000
453.274;   56.700;  737.000;  868.000
453.395;  -44.075;  -51.000;  175.000
453.516;  120.025; 1317.000; 1388.000
453.637;  -85.925; -205.000; -150.000
453.758;  -62.275;   15.000;   69.000
453.879; -124.275; -462.000; -250.000
454.000;   85.125; 1086.000;  948.000
454.121; -117.825; -554.000; -326.000
454.242; -119.550; -599.000; -383.000
454.362;  -61.650;  -99.000;  114.000
454.483;  -50.825; -309.000; -229.000
454.604;   49.850;  512.000;  580.000
454.725; -145.175; -627.000; -555.000
454.846; -134.150; -474.000; -406.000
454.967;  -28.825;  230.000;  539.000
455.087;  -49.275;  179.000;  153.000
455.208;   10.500;  554.000;  856.000
455.329;  -64.150;  -22.000;   82.000
455.450;   27.700;  473.000;  633.000
455.570;  -86.800; -234.000; -211.000
455.691;  -43.850;  201.000;  407.000
455.812;  -97.075; -270.000;  -92.000
455.932;  -62.200;  107.000;  -97.000
456.053;  -78.800;   36.000;   24.000
456.173; -115.625; -433.000; -355.000
456.294; -140.200; -476.000; -303.000
456.415;  -68.000;  -73.000;   70.000
456.535;  -39.375;  297.000;  273.000
456.656;  -44.650;  132.000;  240.000
456.776;  -67.775;    3.000;  298.000
456.897;  -10.775;  308.000;  513.000
457.017;  -74.500; -153.000;   -3.000
457.138; -108.250; -402.000; -249.000
457.258;  -31.475;  263.000;  224.000
457.379;  -28.475;  509.000;  521.000
457.499;  -23.100;  443.000;  432.000
457.620; -140.225; -407.000; -231.000
457.740; -103.025; -132.000;  -11.000
457.860;  -53.150;   87.000;   44.000
457.981;  -46.300;  132.000;  124.000
458.101;  -85.825;  -89.000;   40.000
458.221;  -19.775;  336.000;  402.000
458.342;  -71.000;   -4.000;  -37.000
458.462;   27.900;  617.000;  352.000
458.582;  -25.900; -302.000; -294.000
458.703;   -0.275;  303.000;  154.000
458.823;  -30.900;   22.000;  163.000
458.943;   22.275;  341.000;  467.000
459.063;  -25.750; 1124.000;  192.000
459.183;  -32.275;  328.000;  313.000
459.304;    3.100;  315.000;  517.000
459.424;  -64.300; -246.000;  -89.000
459.544;  358.700;  388.000;  764.000
459.664;  858.675;  499.000;  506.000
459.784;  294.475; 1004.000; 1175.000
459.904;   49.275;  867.000;  744.000
460.024;   55.725;  867.000;  684.000
460.144;    0.325;  449.000;  554.000
460.264;   -1.650;  515.000;  327.000
460.385; -102.925; -145.000; -119.000
460.505;   36.900;  905.000;  858.000
460.625; -101.400;  -17.000;  -68.000
460.745;  -23.800;  396.000;  541.000
460.864;  -69.150;  153.000;  469.000
460.984;   17.450;  499.000;  573.000
461.104;  129.200; 1656.000; 1775.000
461.224;   11.425;  657.000;  650.000
461.344;  -26.900;  431.000;  360.000
461.464;  -35.150;  258.000;  513.000
461.584;  -32.300;  283.000;  466.000
461.704;  -64.375;   58.000;  108.000
461.824;  -52.450;  238.000;  259.000
461.943;  -41.125;  191.000;  130.000
462.063;  -78.025;    2.000;  324.000
462.183;   23.625;  639.000;  717.000
462.303;  102.450; 1678.000; 1230.000
462.422;   26.925;  781.000;  840.000
462.542;  -31.950;  271.000;  391.000
462.662;   35.550;  353.000;  380.000
462.782;  253.525;  833.000;  572.000
462.901;  492.525;  545.000;  717.000
463.021;  286.425; 1702.000; 1638.000
463.141;  -10.325;  337.000;  770.000
463.260;  -20.675;  614.000;  474.000
463.380;    0.375;  902.000;  884.000
463.499;  -38.175;  342.000;  332.000
463.619;  -35.800;  581.000;  559.000
463.738;  113.025; 1644.000;  903.000
463.858;    5.975;  657.000;  811.000
463.978;  -40.625;  542.000;  396.000
464.097;   44.850;  921.000; 1114.000
464.217;  117.450; 1196.000; 1143.000
464.336;  107.625; 1068.000; 1130.000
464.455;  -46.525;  328.000;  659.000
464.575;   36.125;  597.000;  602.000
464.694;  175.425; 1204.000; 1179.000
464.814;  126.925; 1190.000; 1138.000
464.933;   65.850; 1095.000; 1027.000
465.052;   90.300; 1412.000; 1054.000
465.172;   72.900;  922.000;  799.000
465.291;  128.500; 1376.000; 1320.000
465.410;    3.375;  462.000;  735.000
465.530;   78.525; 1355.000; 1310.000
465.649;   62.350; 1209.000; 1273.000
465.768;  136.000; 1673.000; 1508.000
465.888;   51.925;  941.000; 1174.000
466.007;   89.200; 1335.000; 1440.000
466.126;   -9.175;  721.000;  641.000
466.245;   48.475; 1176.000; 1187.000
466.364;   24.075;  950.000; 1060.000
466.484;   59.700; 1024.000; 1213.000
466.603;   35.600; 1101.000; 1222.000
466.722;  117.225; 1490.000; 1769.000
466.841;   80.950; 1151.000; 1401.000
466.960;   39.050; 1069.000;  972.000
467.079;  125.350; 1971.000; 1786.000
467.198;   64.675; 1238.000; 1181.000
467.317;   97.525; 1768.000; 1162.000
467.436;   64.450; 1709.000; 1261.000
467.555;  121.100; 1796.000; 1746.000
467.674;   71.625; 1227.000; 1329.000
467.793;   54.300; 1376.000; 1374.000
467.912;   84.900; 1658.000; 1539.000
468.031;  131.600; 2038.000; 1930.000
468.150;  135.225; 1842.000; 1837.000
468.269;  186.575; 2313.000; 2090.000
468.388;  192.175; 2168.000; 2339.000
468.507;  263.125; 2884.000; 2903.000
468.626;  234.950; 2555.000; 2541.000
468.744;  137.750; 2018.000; 2174.000
468.863;  206.900; 2312.000; 2523.000
468.982;   92.700; 1503.000; 1555.000
469.101;  235.475; 2788.000; 2692.000
469.220;  151.700; 2333.000; 2176.000
469.338;  241.000; 2935.000; 3051.000
469.457;  188.575; 2719.000; 2545.000
469.576;  352.550; 3953.000; 3784.000
469.695;  230.150; 2877.000; 3066.000
469.813;  419.925; 4148.000; 4192.000
469.932;  423.850; 4255.000; 4485.000
470.051;  436.450; 4075.000; 4161.000
470.169;  886.350; 4470.000; 4338.000
470.288; 1509.950; 4700.000; 4809.000
470.406;  879.675; 5059.000; 5194.000
470.525;  642.750; 6101.000; 5787.000
470.644;  651.300; 6847.000; 6794.000
470.762;  816.375; 8397.000; 7873.000
470.881;  918.450; 8651.000; 8464.000
470.999; 1040.975; 9685.000; 9151.000
471.118; 1094.775;11174.000;10711.000

