
Integration time [ms]: 100.000
Averaging Nr. [scans]: 40
Smoothing Nr. [pixels]: 0
Data measured with spectrometer [name]: 2101012U2
Wave   ;Sample   ;Dark     ;Reference
[nm]   ;[counts] ;[counts] ;[counts] 

197.733;   48.325;  516.000;  404.000
197.879;  -66.200; -610.000; -634.000
198.025;  -52.700; -475.000; -420.000
198.171;  -55.175; -602.000; -612.000
198.317;  -32.675; -401.000; -316.000
198.463;  -61.550; -655.000; -404.000
198.609;    8.500;  181.000; -137.000
198.755;  -59.400; -644.000; -410.000
198.901;  -58.250; -505.000; -424.000
199.047;  -65.775; -615.000; -488.000
199.193;  -43.950; -230.000; -468.000
199.339;  -29.600; -222.000; -369.000
199.485;   33.775;  330.000;  271.000
199.631;   22.950;  227.000;  310.000
199.777;  -54.875; -466.000; -398.000
199.923;  -48.675; -610.000; -424.000
200.069;  -19.775; -141.000;  -58.000
200.215;   41.800;  128.000;  453.000
200.361;   51.500;  243.000;  477.000
200.507;  -61.500; -600.000; -373.000
200.653;  -32.200; -371.000; -194.000
200.798;  -29.100; -215.000; -125.000
200.944;    0.325; -146.000;  -41.000
201.090;   32.650;   61.000;  222.000
201.236;  -10.125; -116.000; -158.000
201.382;  123.900;  874.000;  903.000
201.528;   -4.650;  -58.000;  -48.000
201.674;  -65.400; -386.000; -293.000
201.819;  -67.700; -540.000; -439.000
201.965;  -84.125; -699.000; -447.000
202.111;  -33.325; -273.000; -226.000
202.257;  -41.975; -250.000; -238.000
202.402;   -5.175;   13.000;  -36.000
202.548;  -25.450; -169.000; -116.000
202.694;   73.775;  410.000; -183.000
202.840;  -73.300; -603.000; -531.000
202.985;  -78.200; -681.000; -639.000
203.131; -109.200; -832.000; -666.000
203.277;  -34.000; -199.000; -262.000
203.423;  -50.875; -434.000; -520.000
203.568;  -41.150; -462.000; -237.000
203.714;  -59.475; -535.000; -542.000
203.860;  -81.125; -682.000; -641.000
204.005;   15.650;  112.000;  167.000
204.151;   55.200;  561.000;  556.000
204.296;  -47.200; -354.000; -221.000
204.442;  -66.700; -600.000; -547.000
204.588;  -79.475; -592.000; -579.000
204.733;   11.625;  178.000;  168.000
204.879; -122.625;-1018.000; -822.000
205.025;   10.075;  -99.000;  126.000
205.170;    5.775;  -17.000;   94.000
205.316;   76.450;  438.000;  661.000
205.461;  -74.375; -698.000; -554.000
205.607;   71.975;  609.000;  665.000
205.752;  -72.575; -626.000; -551.000
205.898;  -46.275; -501.000; -391.000
206.043;  -59.775; -578.000; -506.000
206.189;  -49.175; -243.000; -285.000
206.334;   87.925;  554.000;  606.000
206.480;   81.525;  409.000;  239.000
206.625;  -85.975; -529.000; -552.000
206.771;  -60.375; -451.000; -373.000
206.916;  -32.875; -210.000; -537.000
207.062;  -80.975; -545.000; -591.000
207.207;  -62.500; -546.000; -443.000
207.353;   49.000;  185.000;  460.000
207.498;   12.925;  196.000;   85.000
207.643;  -59.475; -501.000; -370.000
207.789; -125.625;-1069.000; -910.000
207.934;  -98.950; -665.000; -713.000
208.080;  -28.425; -154.000;   66.000
208.225;  -13.175;  -22.000;  -57.000
208.370;  -77.600; -727.000; -619.000
208.516;  -72.200; -741.000; -487.000
208.661;  -23.300; -127.000;  -69.000
208.806;  -18.925; -165.000; -171.000
208.952; -113.625;-1044.000; -731.000
209.097;   73.775;  378.000;  349.000
209.242;  -43.600; -307.000; -382.000
209.387;   47.275;  392.000;  350.000
209.533;  -55.750; -321.000; -350.000
209.678;   62.025;  472.000;  543.000
209.823;  -48.750; -408.000; -310.000
209.969;  -96.925; -860.000; -757.000
210.114; -115.750; -907.000; -719.000
210.259; -123.925; -939.000; -889.000
210.404;  -13.025; -171.000;  103.000
210.549;    1.550;  108.000;    3.000
210.695;  -17.350;   -3.000;  -95.000
210.840;   21.100;   94.000;   67.000
210.985;  -61.775; -484.000; -303.000
211.130;   46.650;  268.000;  406.000
211.275;    7.800;  207.000;  199.000
211.420;  -59.275; -300.000; -289.000
211.566;  -66.300; -536.000; -489.000
211.711;    9.550;  218.000;  157.000
211.856;  -54.425; -545.000; -519.000
212.001;    9.650;  151.000;   44.000
212.146;   24.725;  153.000;   49.000
212.291;  -26.900; -210.000; -186.000
212.436;  -29.025; -280.000;   -6.000
212.581;  -98.075; -685.000; -653.000
212.726;  -62.625; -487.000; -538.000
212.871;  -59.700; -552.000; -217.000
213.016; -152.825;-1172.000;-1029.000
213.161;   63.150;  406.000;  291.000
213.306;  -78.625; -435.000; -577.000
213.451; -100.150; -778.000; -689.000
213.596;  -57.800; -455.000; -347.000
213.741;  -58.575; -448.000; -538.000
213.886;  -70.775; -498.000; -517.000
214.031;  -15.200; -294.000; -124.000
214.176;  -51.425; -408.000; -341.000
214.321;  -35.175; -296.000; -157.000
214.466;  -22.700; -163.000;  -43.000
214.611;   -9.575;  -61.000;  -10.000
214.756; -114.050; -948.000; -858.000
214.901;  -29.775; -388.000; -226.000
215.046; -111.850; -797.000; -825.000
215.191;   14.375;  128.000;   35.000
215.336;  -17.925; -157.000;  -19.000
215.480;  -69.100; -684.000; -505.000
215.625;  -11.725; -175.000;  -19.000
215.770;  -86.875; -757.000; -662.000
215.915;    6.625;   -5.000;  -97.000
216.060;  -20.150; -113.000;  -21.000
216.205; -104.600; -731.000; -779.000
216.349;  -70.950; -470.000; -533.000
216.494; -125.675; -939.000; -867.000
216.639; -108.700; -823.000; -888.000
216.784;  -90.750; -577.000; -525.000
216.929;   42.625;  392.000;  281.000
217.073;   -3.725; -244.000;  -31.000
217.218;   -2.075;   78.000;  -47.000
217.363;  -98.850; -656.000; -618.000
217.507;  -78.225; -623.000; -588.000
217.652; -104.700; -845.000; -874.000
217.797;  -81.125; -708.000; -659.000
217.942; -110.775; -856.000; -720.000
218.086;   67.850;  608.000;  539.000
218.231;  -37.925; -174.000;  -26.000
218.376;  -29.350; -337.000; -229.000
218.520;    0.850;  -41.000;   96.000
218.665;  -41.975; -338.000; -204.000
218.810;  -54.100; -275.000; -233.000
218.954;   11.725;  201.000;   35.000
219.099; -112.175; -713.000; -963.000
219.243;  -80.200; -589.000; -554.000
219.388;  -22.475; -264.000; -136.000
219.532;   -0.200; -116.000; -116.000
219.677;  -77.075; -564.000; -521.000
219.822;  -13.825;   33.000;   89.000
219.966;   10.100;   17.000;  -99.000
220.111;  -31.575; -328.000;  -40.000
220.255;  -84.725; -797.000; -750.000
220.400;  -22.950; -180.000; -146.000
220.544;  -71.775; -516.000; -450.000
220.689;  -62.475; -422.000; -451.000
220.833;  -25.175; -123.000;  -58.000
220.978;  -49.350; -393.000; -563.000
221.122;   25.800;  319.000;  307.000
221.267; -124.275; -906.000; -837.000
221.411;  -65.750; -478.000; -394.000
221.555;  -12.100; -104.000;  -23.000
221.700;  -47.650; -329.000; -222.000
221.844;   17.175;  255.000;  272.000
221.989;  -60.700; -328.000; -311.000
222.133;  -31.950; -289.000; -307.000
222.277;   -8.850;    5.000;   78.000
222.422;   12.275;  227.000;  113.000
222.566;  -41.600; -381.000; -214.000
222.711;  -61.900; -414.000; -479.000
222.855;  -74.825; -643.000; -586.000
222.999;  -79.525; -642.000; -717.000
223.144;  -32.450; -195.000; -194.000
223.288;   45.225;  423.000;  251.000
223.432;   26.700;  184.000;  230.000
223.576;    9.925;  152.000;  -21.000
223.721;   36.900;  364.000;  273.000
223.865;  -69.775; -472.000; -475.000
224.009;  245.225; 1673.000; 1631.000
224.153;  -79.450; -660.000; -671.000
224.298;  -66.775; -531.000; -489.000
224.442;  -16.125;  -74.000;  -33.000
224.586;  -22.350; -169.000; -106.000
224.730;  -84.775; -858.000; -670.000
224.875; -111.525; -739.000; -688.000
225.019;    8.350;  102.000;  188.000
225.163;   40.200;  208.000;  341.000
225.307;   14.325;   97.000;  -91.000
225.451;   42.425;  360.000;  481.000
225.595;   19.150;  264.000;  176.000
225.739;  -21.700; -170.000;  -94.000
225.884;    8.925;   86.000;    5.000
226.028;  -91.450; -760.000; -626.000
226.172;  -37.700; -260.000; -273.000
226.316; -119.100; -941.000; -902.000
226.460;  -74.075; -645.000; -493.000
226.604;  -47.875; -406.000; -400.000
226.748; -114.050; -836.000; -733.000
226.892;  -40.575; -227.000; -181.000
227.036;  -57.700; -537.000; -447.000
227.180;  -42.700; -551.000; -375.000
227.324;  -65.375; -561.000; -580.000
227.468; -111.300; -819.000; -717.000
227.612;   -0.025;  242.000;  -28.000
227.756; -105.250; -845.000; -698.000
227.900;   47.375;  342.000;  441.000
228.044;  -71.600; -509.000; -290.000
228.188;   50.675;  448.000;  568.000
228.332;  -85.625; -546.000; -472.000
228.476;  -26.225; -223.000; -149.000
228.620;  -25.625; -210.000; -150.000
228.764;   66.825;  431.000;  349.000
228.908;  -16.925; -155.000;   30.000
229.052;  -63.425; -615.000; -528.000
229.195;  -15.500; -172.000;   13.000
229.339;  -28.875; -235.000; -305.000
229.483;  -35.125;    5.000; -162.000
229.627;  -15.800; -156.000;  139.000
229.771;  -52.875; -218.000; -294.000
229.915;   15.575;  230.000;   79.000
230.059;  -85.800; -648.000; -663.000
230.202;  -51.250; -370.000; -317.000
230.346;  -21.950; -107.000;  107.000
230.490;  -68.225; -489.000; -521.000
230.634; -105.550; -736.000; -553.000
230.777;   66.650;  478.000;  509.000
230.921;  -63.825; -450.000; -359.000
231.065;  -42.050; -246.000; -286.000
231.209;   21.025;  261.000;  265.000
231.352;   28.850;   54.000;   40.000
231.496;   13.400;  568.000;  188.000
231.640;  -79.450; -693.000; -621.000
231.783;   59.650;  546.000;  525.000
231.927;  -35.625; -294.000; -365.000
232.071; -118.650; -962.000; -736.000
232.214; -118.775; -980.000; -764.000
232.358;  -96.775; -683.000; -599.000
232.502;    0.125;  -19.000;    7.000
232.645; -132.900;-1090.000; -927.000
232.789;  -26.225; -257.000; -218.000
232.933;  -34.450; -407.000; -224.000
233.076; -118.275;-1038.000; -897.000
233.220; -108.300; -752.000; -777.000
233.363;  -76.050; -669.000; -477.000
233.507;   49.875;  371.000;  129.000
233.650;  -89.300; -764.000; -834.000
233.794;   39.650;  438.000;  461.000
233.938;  -63.775; -530.000; -362.000
234.081;  -12.600;  -93.000;   31.000
234.225;  -64.975; -631.000; -539.000
234.368; -114.775; -773.000; -723.000
234.512;  -41.050; -385.000; -299.000
234.655;  -95.600; -582.000; -555.000
234.798;  -74.100; -493.000; -466.000
234.942; -129.600; -884.000;-1002.000
235.085;  -76.350; -651.000; -443.000
235.229;  -65.150; -405.000; -410.000
235.372;  -45.900; -247.000; -191.000
235.516;  -66.450; -397.000; -321.000
235.659;    8.850;   92.000;  121.000
235.802;  -10.525;  -38.000;  -22.000
235.946;    8.875;  335.000;  215.000
236.089;   38.275;  126.000;  250.000
236.233;   55.650;  275.000;  298.000
236.376;  -57.625; -235.000; -378.000
236.519;  -51.825; -297.000; -319.000
236.663;  -17.250; -215.000; -117.000
236.806; -123.425;-1029.000; -999.000
236.949;   46.350;  543.000;  431.000
237.092;   45.575;  412.000;  391.000
237.236;  -80.300; -589.000; -502.000
237.379;   62.950;  352.000;  428.000
237.522; -118.300; -879.000; -768.000
237.666;  -18.925; -271.000;   18.000
237.809; -123.475; -851.000; -823.000
237.952;   28.700;  469.000;  271.000
238.095;  -75.100; -447.000; -442.000
238.238;   71.275;  688.000;  700.000
238.382;    5.200;  166.000;  103.000
238.525;  -77.925; -598.000; -511.000
238.668; -134.500;-1060.000; -985.000
238.811;  -83.125; -638.000; -643.000
238.954;  -57.325; -483.000; -334.000
239.097;   74.800;  617.000;  664.000
239.241;   22.525;  394.000;  326.000
239.384;  -41.150; -254.000; -214.000
239.527;  -66.450; -424.000; -224.000
239.670; -150.825; -994.000;-1091.000
239.813; -104.100; -696.000; -658.000
239.956;   65.825;  579.000;  473.000
240.099; -117.675; -778.000; -725.000
240.242;   51.850;  428.000;  432.000
240.385;   40.475;  466.000;  450.000
240.528;  -81.225; -706.000; -473.000
240.671;   19.875;  189.000;  134.000
240.814;  -50.800; -441.000; -158.000
240.957;  -97.325; -767.000; -578.000
241.100; -105.025; -779.000; -755.000
241.243; -143.075;-1234.000; -893.000
241.386;  -71.225; -508.000; -379.000
241.529;  -93.200; -735.000; -547.000
241.672;  -71.650; -566.000; -495.000
241.815; -115.575; -832.000; -808.000
241.958;  -35.150; -125.000; -182.000
242.101;  -79.100; -545.000; -390.000
242.244;  -47.275; -270.000; -325.000
242.387;  -43.250; -304.000; -246.000
242.530;   45.500;  470.000;  134.000
242.673;  -50.450; -381.000; -309.000
242.815; -119.525; -925.000; -899.000
242.958;  -70.350; -482.000; -381.000
243.101;    8.350;  132.000;  187.000
243.244;  -78.300; -564.000; -521.000
243.387;  -51.775; -313.000; -316.000
243.530;  -93.950; -657.000; -674.000
243.672;   -0.025;   43.000;  -92.000
243.815;  -56.175; -355.000; -283.000
243.958;  -15.300;   98.000;  -26.000
244.101;   -3.050;   59.000;  -16.000
244.243;  -24.475;  -47.000;  101.000
244.386; -118.675; -761.000; -630.000
244.529;  -33.875; -132.000; -139.000
244.672; -147.575;-1154.000; -951.000
244.814; -100.500; -621.000; -794.000
244.957;  -57.800; -380.000; -304.000
245.100;  -79.925; -489.000; -489.000
245.242;  -57.000; -387.000; -374.000
245.385;   -7.075;  -59.000;  -39.000
245.528; -111.200; -871.000; -705.000
245.670;   80.275;  612.000;  634.000
245.813;  -80.525; -599.000; -547.000
245.956;  -34.950; -324.000; -275.000
246.098;  -75.750; -508.000; -650.000
246.241;    1.275;  194.000;   48.000
246.383;  -20.525; -119.000;  -73.000
246.526;  -80.650; -454.000; -525.000
246.669; -113.450; -889.000; -780.000
246.811;   10.000;  172.000;   -1.000
246.954;  -63.800; -512.000; -426.000
247.096;  -26.875;  -84.000;   -6.000
247.239;  -66.125; -482.000; -445.000
247.381;  -72.975; -647.000; -488.000
247.524;   88.475;  645.000;  679.000
247.666;  -18.650;   58.000;   11.000
247.809; -115.650; -887.000; -691.000
247.951;  -22.700;  -75.000;  138.000
248.094;   23.275;  432.000;  308.000
248.236; -169.875;-1262.000;-1238.000
248.378;   -6.950; -356.000;  -81.000
248.521;  -19.650; -334.000; -337.000
248.663;  -53.775; -236.000; -267.000
248.806;  -30.750; -300.000; -266.000
248.948;  -91.400; -886.000; -763.000
249.090;  -44.825; -428.000; -398.000
249.233;  -53.875; -344.000; -381.000
249.375;  -71.725; -474.000; -451.000
249.518;  -24.075;  -83.000; -133.000
249.660;   -6.425; -103.000;    3.000
249.802; -163.275;-1303.000;-1189.000
249.945;  -72.950; -612.000; -540.000
250.087; -108.750; -834.000; -768.000
250.229;  -58.800; -362.000; -480.000
250.371;  -75.475; -494.000; -439.000
250.514;  -50.550; -310.000; -244.000
250.656;   -1.350;   69.000;  102.000
250.798; -125.600; -849.000; -800.000
250.940;  -64.025; -322.000; -322.000
251.083;  -37.000; -335.000; -111.000
251.225;   56.075;  338.000;  310.000
251.367;  -45.900; -274.000; -373.000
251.509;  -37.200; -265.000; -210.000
251.651;  -93.700; -731.000; -671.000
251.794;   52.500;  538.000;  632.000
251.936; -105.925; -821.000; -747.000
252.078;  -75.900; -540.000; -461.000
252.220;  -75.425; -645.000; -477.000
252.362;   88.375;  344.000;  462.000
252.504;  -76.200; -677.000; -584.000
252.646; -107.300; -875.000; -722.000
252.788;   -5.875;   14.000; -128.000
252.931;  -29.150; -257.000; -253.000
253.073;  -45.150; -376.000; -317.000
253.215;  -14.375;  141.000;  122.000
253.357;  -15.100;   82.000; -153.000
253.499;  -44.375; -374.000; -234.000
253.641;  -87.625; -749.000; -594.000
253.783;  -87.000; -609.000; -527.000
253.925;  -85.450; -586.000; -591.000
254.067; -101.425; -744.000; -667.000
254.209;  -19.625; -391.000; -259.000
254.351; -125.075; -865.000; -883.000
254.493;  -66.100; -441.000; -417.000
254.635; -126.050; -936.000; -818.000
254.777; -103.550; -752.000; -687.000
254.918;  -65.250; -512.000; -430.000
255.060;  -60.350; -551.000; -395.000
255.202;  -54.550; -473.000; -261.000
255.344;  -72.900; -658.000; -455.000
255.486;  -70.000; -471.000; -406.000
255.628; -104.975; -780.000; -781.000
255.770; -109.025; -676.000; -536.000
255.912;  -61.975; -559.000; -468.000
256.053;  -85.350; -730.000; -508.000
256.195;  151.225; 1008.000;  903.000
256.337;  -93.600; -861.000; -595.000
256.479;   71.325;  532.000;  416.000
256.621;  -37.125; -394.000; -212.000
256.762; -105.975; -789.000; -742.000
256.904;   40.900;  485.000;  487.000
257.046;  -42.200; -381.000; -271.000
257.188;  -41.500; -351.000; -264.000
257.329;  -74.100; -525.000; -464.000
257.471; -110.125; -939.000; -807.000
257.613;  -65.450; -584.000; -498.000
257.755; -132.025;-1073.000; -982.000
257.896;   20.300;  286.000;  392.000
258.038;  -60.400; -403.000; -352.000
258.180;  -46.375; -354.000; -279.000
258.321;  -85.300; -581.000; -457.000
258.463;   -3.225;  -71.000;  133.000
258.605;  -90.750; -562.000; -570.000
258.746; -108.000; -886.000; -772.000
258.888; -154.725;-1026.000;-1020.000
259.029;    0.950;  121.000;   -8.000
259.171;  -87.925; -614.000; -550.000
259.313;   -1.875;  -49.000;  -47.000
259.454;  -66.225; -536.000; -414.000
259.596;  -59.000; -483.000; -390.000
259.737;  -72.300; -590.000; -474.000
259.879;   32.300;  217.000;  311.000
260.020;   90.675;  901.000;  636.000
260.162;  -37.000; -146.000; -253.000
260.303; -118.125; -768.000; -687.000
260.445;  -88.525; -609.000; -613.000
260.586;   18.975;  392.000;  157.000
260.728;  -42.925; -360.000; -248.000
260.869; -115.375; -350.000; -343.000
261.011;   76.800;  706.000;  537.000
261.152;  -53.450; -479.000; -319.000
261.293;  -78.475; -576.000; -595.000
261.435;  -29.550; -219.000; -184.000
261.576;  -47.000; -455.000; -325.000
261.718;   47.175;  420.000;  470.000
261.859; -117.825; -940.000; -949.000
262.000; -136.000; -951.000;-1016.000
262.142;  -21.275;  -52.000;  -60.000
262.283; -118.725; -808.000; -691.000
262.424;  -95.225; -666.000; -625.000
262.566; -142.025;-1161.000; -983.000
262.707; -130.250; -840.000; -830.000
262.848; -116.725; -769.000; -726.000
262.990;  -56.550; -362.000; -345.000
263.131;   74.575;  650.000;  681.000
263.272;  -22.525;  -61.000;  -41.000
263.413; -100.675; -589.000; -561.000
263.555;  -65.325; -669.000; -143.000
263.696;  -76.525; -550.000; -641.000
263.837;  -62.725; -449.000; -551.000
263.978;    3.600;   -5.000;  -77.000
264.119;  -58.250; -283.000; -264.000
264.261; -112.175; -847.000; -630.000
264.402;  -14.225;   33.000;   40.000
264.543;  -73.500; -509.000; -524.000
264.684;  -16.375;   61.000;  -50.000
264.825;  -77.200; -816.000; -538.000
264.966;   -3.950;  -84.000;  -67.000
265.107; -103.500; -646.000; -670.000
265.248; -126.025; -825.000; -812.000
265.390;   -0.050;  152.000;   -9.000
265.531;  -33.900; -238.000; -107.000
265.672;  -77.900; -557.000; -630.000
265.813;   72.600;  563.000;  439.000
265.954; -137.900; -959.000; -940.000
266.095;  -25.000; -372.000; -322.000
266.236;  -83.675; -686.000; -548.000
266.377;  -34.675; -243.000; -297.000
266.518;  -78.275; -619.000; -547.000
266.659;    5.775;  170.000;  268.000
266.800;   13.250;   83.000;   85.000
266.941;  -77.525; -487.000; -478.000
267.082;    4.575;  354.000;   99.000
267.223;  -60.350; -344.000; -273.000
267.364; -121.000; -892.000; -686.000
267.504;  -27.400;    3.000;  135.000
267.645;    3.050;  160.000;   67.000
267.786;  -32.975; -147.000;  -86.000
267.927;  -57.775; -473.000; -379.000
268.068;  -14.975; -186.000;  -61.000
268.209;  -50.075; -175.000; -413.000
268.350;  -72.000; -388.000; -532.000
268.490;  -87.600; -648.000; -521.000
268.631;    9.725;  127.000;  225.000
268.772;  -98.175; -874.000; -647.000
268.913;  -52.175; -328.000; -476.000
269.054;  -12.350; -117.000;   12.000
269.194;  -61.175; -418.000; -402.000
269.335; -152.775;-1137.000;-1074.000
269.476;  -17.300;   33.000;  -35.000
269.617;  -37.725; -347.000; -392.000
269.757;  -91.225; -713.000; -646.000
269.898; -102.775; -856.000; -613.000
270.039;  -67.075; -415.000; -405.000
270.180; -129.750; -952.000; -816.000
270.320;  -18.475; -190.000; -250.000
270.461;  -53.875; -277.000; -249.000
270.602;  -19.800; -186.000; -156.000
270.742; -112.200; -868.000; -943.000
270.883;  -58.800; -442.000; -390.000
271.023;  -46.375; -358.000; -357.000
271.164;  -75.000; -607.000; -528.000
271.305; -102.300; -666.000; -654.000
271.445;  -88.550; -722.000; -683.000
271.586;  -64.525; -462.000; -283.000
271.726;  -45.525; -397.000; -322.000
271.867;  -45.575; -594.000; -534.000
272.008;  208.700; -473.000; -285.000
272.148;  127.575;  462.000;  468.000
272.289;    6.125; -113.000; -181.000
272.429;   11.900;   19.000;  185.000
272.570;  -96.625; -633.000; -737.000
272.710;  -98.200; -825.000; -775.000
272.851;  -15.525;  113.000; -130.000
272.991; -154.175;-1173.000;-1077.000
273.131;  -64.025; -419.000; -459.000
273.272;  -91.725; -683.000; -723.000
273.412;   19.225; -143.000;  -31.000
273.553;  -40.550; -488.000; -507.000
273.693;  128.475;  913.000;  858.000
273.834;  -78.775; -894.000; -692.000
273.974;  -69.500; -664.000; -615.000
274.114;  -93.875; -772.000; -560.000
274.255;   87.075;  414.000;  373.000
274.395;    4.900; -180.000; -125.000
274.535;   34.300;  199.000;  350.000
274.676;   24.575;  225.000;   94.000
274.816;   -1.650;  110.000;   34.000
274.956;  -81.575; -624.000; -690.000
275.097;  -40.100;-1014.000; -922.000
275.237;  -99.150; -913.000; -803.000
275.377;  -91.475; -778.000; -689.000
275.517; -139.500; -878.000; -937.000
275.658;  -52.525; -590.000; -555.000
275.798;  -55.175; -606.000; -413.000
275.938;    6.250;  215.000;  323.000
276.078;  -99.200; -626.000; -395.000
276.218;    2.000;   99.000;  104.000
276.359; -128.650;-1026.000;-1024.000
276.499;  -66.575; -605.000; -446.000
276.639;  -21.475; -305.000; -151.000
276.779;  -52.275; -475.000; -357.000
276.919;  -89.600; -783.000; -624.000
277.059;  -28.475; -261.000; -212.000
277.199;  -42.450; -357.000; -259.000
277.340;   43.325;  287.000;  175.000
277.480; -105.900; -840.000; -693.000
277.620;   12.500;  192.000;   16.000
277.760; -192.850;-1533.000;-1294.000
277.900;   15.125;  113.000;   33.000
278.040;   30.025;  137.000;  159.000
278.180;   55.900;  270.000;  170.000
278.320;   -2.950;   21.000;   56.000
278.460;  -75.625; -443.000; -469.000
278.600;  -91.550; -708.000; -598.000
278.740;   44.450;  448.000;  224.000
278.880;  -32.100; -768.000; -791.000
279.020;  -11.325; -194.000; -144.000
279.160;  -85.575; -672.000; -595.000
279.300; -116.700; -926.000; -873.000
279.440;  -86.050; -709.000; -622.000
279.579;   -9.750;-1014.000; -929.000
279.719;  -54.875; -410.000; -394.000
279.859;   87.900;   -4.000;   41.000
279.999;   40.875; -208.000;  101.000
280.139;  -13.275; -435.000; -387.000
280.279;  -77.925; -708.000; -745.000
280.419;    0.450; -229.000; -147.000
280.559;  -34.475; -259.000; -180.000
280.698;  -73.075; -790.000; -639.000
280.838;  -86.675; -778.000; -800.000
280.978; -106.050; -846.000; -790.000
281.118; -114.075; -811.000; -704.000
281.257;  -11.675;   24.000;    6.000
281.397;  -97.525;-1094.000; -960.000
281.537;  -94.075; -599.000; -712.000
281.677;  -22.800; -150.000; -101.000
281.816;  -93.475; -700.000; -630.000
281.956;  -35.825; -193.000; -257.000
282.096;  -61.450; -539.000; -396.000
282.235; -112.125; -672.000; -638.000
282.375;  -26.525; -243.000;  -98.000
282.515;  -84.875; -715.000; -707.000
282.654;   22.350;   29.000;  106.000
282.794;   23.275;  388.000;  244.000
282.934;  -69.075; -530.000; -491.000
283.073; -126.475;-1030.000; -857.000
283.213;  -41.475; -460.000; -467.000
283.353;  -32.275; -408.000; -349.000
283.492;  -28.300; -264.000; -296.000
283.632;  -24.650; -254.000; -168.000
283.771; -100.325; -859.000; -730.000
283.911;  -48.575; -369.000; -260.000
284.050; -109.150; -794.000; -748.000
284.190; -142.550;-1229.000;-1096.000
284.329; -131.875;-1055.000; -964.000
284.469;  -49.375; -516.000; -591.000
284.608;  -57.675; -559.000; -598.000
284.748;  -74.125; -614.000; -570.000
284.887;  -13.175;  -87.000;  -20.000
285.027; -108.400; -844.000; -892.000
285.166;  -40.625; -192.000; -249.000
285.306;   25.950; -116.000;  -33.000
285.445;  -45.075; -229.000; -343.000
285.584;  -91.725; -630.000; -494.000
285.724;  -47.000; -282.000; -322.000
285.863; -107.000; -857.000; -507.000
286.002;  -44.575; -366.000; -276.000
286.142;  -98.025; -715.000; -622.000
286.281;  -71.675; -525.000; -493.000
286.420;  -73.600; -554.000; -417.000
286.560;   90.300;  653.000;  623.000
286.699; -139.375; -958.000; -912.000
286.838;  -77.675; -590.000; -591.000
286.978;  -93.075; -533.000; -537.000
287.117; -126.825;-1085.000; -950.000
287.256;  -29.925; -228.000; -211.000
287.395;  -45.675; -197.000; -378.000
287.535;  -34.525; -370.000; -298.000
287.674;  -86.150; -509.000; -484.000
287.813;   73.300;  661.000;  533.000
287.952; -131.225;-1010.000; -871.000
288.091; -151.575;-1049.000; -915.000
288.231;    7.775;   13.000;   15.000
288.370; -158.875;-1217.000;-1200.000
288.509;  -93.400; -728.000; -645.000
288.648;  -87.400; -770.000; -548.000
288.787;  -26.875; -243.000;  -87.000
288.926;  -54.525; -454.000; -475.000
289.065;  100.325;  859.000;  672.000
289.204;  -43.675; -377.000; -217.000
289.344;  -95.200; -791.000; -690.000
289.483;   32.025;  416.000;  304.000
289.622;  -29.150; -291.000; -149.000
289.761;  -14.000; -309.000; -166.000
289.900; -106.600; -785.000; -626.000
290.039;  -15.175;  -12.000;  -95.000
290.178;  -27.475; -274.000; -180.000
290.317;  -69.700; -618.000; -479.000
290.456;  -55.975; -463.000; -451.000
290.595; -112.550; -961.000; -833.000
290.734; -128.700; -904.000; -891.000
290.873;  -75.425; -456.000; -420.000
291.011; -108.375; -833.000; -843.000
291.150; -103.425; -770.000; -682.000
291.289;  -22.200; -343.000; -110.000
291.428;  -84.600; -599.000; -480.000
291.567;  -63.800; -370.000; -442.000
291.706;   -2.225;  109.000;  154.000
291.845;  -83.975; -597.000; -505.000
291.984; -154.425;-1234.000;-1061.000
292.122;   57.200;  602.000;  582.000
292.261;   49.950;  620.000;  463.000
292.400;    2.600; -144.000;  211.000
292.539; -123.250; -959.000; -813.000
292.678;  -30.250; -325.000; -300.000
292.816; -150.600;-1136.000; -965.000
292.955;  -87.850; -844.000; -684.000
293.094;  -24.975; -173.000; -337.000
293.233;  -55.550; -556.000; -400.000
293.371;  -35.800; -225.000;  -84.000
293.510; -103.025; -866.000; -780.000
293.649; -105.775; -959.000; -924.000
293.787;  -29.675;-1083.000;-1012.000
293.926;    5.200; -113.000;  -32.000
294.065;  -47.100; -379.000; -290.000
294.203;   41.775;  298.000;  406.000
294.342;   26.150;   74.000;  156.000
294.481; 6227.475;51180.000; -836.000
294.619;  -28.150; -425.000; -582.000
294.758; -144.075;-1230.000;-1137.000
294.896;   85.650; -125.000;    5.000
295.035; -108.275;-1040.000;-1006.000
295.174; -115.000;-1082.000; -954.000
295.312;  -31.875; -323.000; -203.000
295.451;   -7.050; -307.000; -428.000
295.589;  -33.150; -389.000; -518.000
295.728;   24.975; -292.000; -165.000
295.866;   20.850;  -36.000;  -51.000
296.005;  -68.975; -584.000; -341.000
296.143;  -62.025; -558.000; -596.000
296.282; -106.925; -957.000; -881.000
296.420;  -75.050; -657.000; -557.000
296.559;  -83.425; -892.000; -633.000
296.697;   81.675; -847.000; -665.000
296.835;  101.750;-1141.000;-1002.000
296.974;   55.725;  -23.000;   39.000
297.112;   30.000; -443.000; -504.000
297.251;  -60.350; -815.000; -755.000
297.389;  132.525; -576.000; -438.000
297.527;   58.175; -145.000;  -83.000
297.666;  -41.950; -486.000; -438.000
297.804;  -52.425; -404.000; -264.000
297.942;   -1.550; -136.000; -161.000
298.081;    5.375; -183.000;   63.000
298.219;   83.700;  -17.000;  -19.000
298.357;   83.975; -144.000;  -71.000
298.495;   55.750; -810.000; -812.000
298.634;  106.950;  245.000;  219.000
298.772;   90.525; -220.000; -338.000
298.910;  -25.400; -309.000; -182.000
299.048;  -12.000; -130.000; -153.000
299.187;  -10.750; -350.000; -250.000
299.325;   17.600;   52.000;  122.000
299.463;   90.525; -389.000; -299.000
299.601;  145.475; -327.000; -271.000
299.739;  -86.150; -908.000; -883.000
299.877;  -71.825; -791.000; -703.000
300.016;  -21.850;-1095.000; -935.000
300.154;  197.000;  -19.000; -161.000
300.292;   84.750; -428.000; -348.000
300.430;   50.875; -408.000; -291.000
300.568;  -91.525; -940.000; -874.000
300.706;  -47.525; -366.000; -469.000
300.844;  -59.250;-1108.000; -979.000
300.982;  123.950;  246.000;  282.000
301.120;  -91.875; -965.000; -866.000
301.258;  -44.700; -812.000; -705.000
301.396;   47.475;  104.000;  -41.000
301.534;  128.750; -218.000; -293.000
301.672;   31.250; -664.000; -521.000
301.810;   78.575; -613.000; -545.000
301.948;  162.450;   53.000;  149.000
302.086;  770.775; -250.000;  -32.000
302.224; 1182.525; -610.000; -585.000
302.362;   54.525; -558.000; -622.000
302.500;   14.775; -923.000; -893.000
302.638;  135.700;  128.000;  245.000
302.776;   14.650; -352.000; -408.000
302.913;   47.275;  447.000;  236.000
303.051;    6.975;  -86.000;  -23.000
303.189;   53.075;   90.000;  118.000
303.327;  -27.875; -341.000; -256.000
303.465;  -77.350; -832.000; -588.000
303.603;  -92.275; -805.000; -604.000
303.740;  101.400;  417.000;  241.000
303.878;   47.875; -800.000; -759.000
304.016;  -85.900; -915.000; -790.000
304.154; -105.250;-1123.000;-1152.000
304.291;  -28.075; -505.000; -554.000
304.429;   20.325;  102.000;   74.000
304.567; -119.750; -908.000; -893.000
304.705;  -39.550; -408.000; -515.000
304.842;  147.875; -616.000; -540.000
304.980;   72.000;  215.000;   35.000
305.118;   71.250; -367.000; -365.000
305.255;  -48.850; -945.000; -927.000
305.393;   53.650;  178.000;  239.000
305.531;  -79.250;-1173.000; -956.000
305.668;  -58.850; -663.000; -582.000
305.806;  135.475; -358.000; -439.000
305.943;  148.175; -629.000; -637.000
306.081;   77.325; -378.000; -267.000
306.219;  -96.900; -863.000; -748.000
306.356;   13.900;  158.000;   27.000
306.494;   92.350;  981.000;  761.000
306.631;    8.200;  -11.000;  -55.000
306.769;   24.000; -613.000; -485.000
306.906;   -0.825; -284.000; -258.000
307.044;  -64.900; -473.000; -488.000
307.181;  -49.500; -410.000; -332.000
307.319;    7.675;  112.000;   87.000
307.456; -157.175;-1191.000;-1153.000
307.594;  -98.725; -980.000; -727.000
307.731;   -4.425; -371.000; -164.000
307.868;   -0.175;  -15.000;   20.000
308.006; -134.400; -961.000; -847.000
308.143;  -66.825; -618.000; -330.000
308.281;  232.525;  -37.000; -254.000
308.418;   15.175; -748.000; -640.000
308.555;  -68.850; -400.000; -250.000
308.693;  -77.975; -577.000; -573.000
308.830;  -96.625; -712.000; -657.000
308.967;  -17.500; -215.000;  -95.000
309.105;  -39.075; -507.000; -396.000
309.242;   59.350; -468.000; -367.000
309.379;  426.525; -577.000; -655.000
309.517;  -60.100; -936.000; -948.000
309.654; -101.950; -910.000; -734.000
309.791;  -67.825; -662.000; -580.000
309.928; -103.475; -977.000; -914.000
310.065;  196.325;  819.000;  697.000
310.203;   27.150; -825.000; -850.000
310.340;    2.275; -465.000; -321.000
310.477;  -76.125; -412.000; -516.000
310.614;  -68.150; -383.000; -473.000
310.751;  -65.050; -427.000; -518.000
310.889;  -24.075;    1.000;   11.000
311.026; -154.325;-1161.000; -939.000
311.163;  -50.575; -386.000; -380.000
311.300;  -69.800; -512.000; -479.000
311.437;  -70.750; -658.000; -619.000
311.574; -147.425;-1226.000; -985.000
311.711;  -49.875; -595.000; -433.000
311.848;  -29.700; -380.000; -388.000
311.985;    8.175;  270.000;   93.000
312.122; -111.050; -932.000; -762.000
312.259; -123.750; -941.000; -994.000
312.396;  -71.275; -508.000; -551.000
312.533;  -87.650; -812.000; -790.000
312.670; -122.200;-1070.000; -898.000
312.807;  -39.825; -352.000; -367.000
312.944;  -72.025; -513.000; -611.000
313.081;  -43.550; -150.000; -415.000
313.218;  -86.625;-1111.000; -867.000
313.355;   30.275; -531.000; -449.000
313.492;   18.150; -455.000; -292.000
313.629;  135.475;  815.000;  735.000
313.766; -143.625;-1176.000;-1008.000
313.902;  -16.725; -186.000;   21.000
314.039;  -36.025; -372.000; -289.000
314.176;   24.250;  286.000;  192.000
314.313;  -72.375; -569.000; -473.000
314.450;  -75.050; -788.000; -684.000
314.587;  -49.500; -468.000; -480.000
314.723;    8.850;  -78.000;  130.000
314.860;   39.950;  318.000;  332.000
314.997;   35.125;  223.000;  142.000
315.134;  -37.725; -385.000; -368.000
315.270;  -23.075; -480.000; -496.000
315.407; -110.550;-1094.000; -967.000
315.544;  -51.625; -657.000; -538.000
315.681;  -48.100; -681.000; -565.000
315.817;   40.225; -133.000; -176.000
315.954;   50.375; -613.000; -392.000
316.091; -114.725;-1045.000;-1023.000
316.227;  -16.400;  -71.000; -179.000
316.364;  -10.275;   23.000;    6.000
316.500;  -27.300; -113.000; -300.000
316.637;  -33.925; -181.000; -302.000
316.774;  -64.400; -625.000; -358.000
316.910;  -93.300; -598.000; -629.000
317.047;  -67.450; -487.000; -351.000
317.183;  -46.200; -435.000; -566.000
317.320;  -11.900; -367.000; -321.000
317.456;  -61.850; -733.000; -805.000
317.593;  -75.950; -598.000; -641.000
317.729;  -11.950;  168.000;  -67.000
317.866; -178.800;-1434.000;-1285.000
318.002;  -85.400; -708.000; -948.000
318.139;  -76.125; -883.000; -867.000
318.275; -107.100;-1003.000; -738.000
318.412;  -46.275; -517.000; -336.000
318.548;  -21.525; -751.000; -720.000
318.685;  -83.775; -985.000; -888.000
318.821;  -90.600; -762.000; -735.000
318.957;  -10.100;   34.000;  -23.000
319.094;   21.000;  297.000;  154.000
319.230;  -43.175; -756.000; -742.000
319.367;  160.675; -471.000; -520.000
319.503;   91.275; -538.000; -436.000
319.639;  -96.500; -877.000; -793.000
319.775;  -36.925; -750.000; -685.000
319.912;  -48.025; -424.000; -519.000
320.048;  -82.725;-1184.000;-1184.000
320.184;   77.325;   59.000;   70.000
320.321;  -63.200; -497.000; -467.000
320.457;   58.075;  475.000;  662.000
320.593;  -77.450; -375.000; -382.000
320.729; -100.075; -732.000; -734.000
320.866;  -77.400; -577.000; -635.000
321.002;  -62.375; -759.000; -809.000
321.138;    5.675; -135.000; -211.000
321.274;   81.325; -148.000; -115.000
321.410;  -13.525; -585.000; -353.000
321.546;    2.575;-1011.000; -911.000
321.683;   60.325;  400.000;  185.000
321.819;   10.850;  -48.000; -117.000
321.955;  -84.175; -743.000; -722.000
322.091;  -37.550; -585.000; -540.000
322.227;   -3.325; -382.000; -202.000
322.363;  -14.750; -320.000; -215.000
322.499;  -28.425; -343.000; -331.000
322.635;  174.200;  636.000;  443.000
322.771;   51.450; -139.000;   12.000
322.907;   95.625;  129.000;  327.000
323.043;   -7.175; -115.000; -206.000
323.179;  -41.025; -394.000; -363.000
323.315;   45.925; -401.000; -371.000
323.451;  147.475; -328.000; -236.000
323.587;   75.125;  -60.000;  -77.000
323.723;   46.500; -682.000; -601.000
323.859;   -6.525; -258.000;  -76.000
323.995;  -22.250; -467.000; -409.000
324.131; -102.850; -967.000; -892.000
324.267;  -49.750; -254.000; -276.000
324.402; -121.100; -960.000; -983.000
324.538;   -0.975; -279.000; -104.000
324.674;   30.200;  164.000;   77.000
324.810;  169.400;  226.000;  308.000
324.946;   47.900; -810.000; -658.000
325.082;  -59.100; -568.000; -475.000
325.217;   -9.075;  -62.000;   16.000
325.353; -104.200; -764.000; -659.000
325.489;  -86.325; -540.000; -506.000
325.625;  -73.050; -579.000; -525.000
325.760;   41.500;  517.000;  376.000
325.896;  -28.075; -515.000; -702.000
326.032;  -49.175; -403.000; -352.000
326.168;  -58.900; -462.000; -369.000
326.303;  -51.600; -352.000; -461.000
326.439;  -30.025; -336.000; -276.000
326.575;    8.350; -190.000;  -29.000
326.710;   -4.700; -156.000;  -30.000
326.846;  -11.750;  146.000;  103.000
326.982;  -89.850; -530.000; -548.000
327.117;  -68.200; -481.000; -442.000
327.253;  -90.250; -745.000; -742.000
327.388; -158.550;-1137.000;-1153.000
327.524;  -45.200; -811.000; -578.000
327.659;  -15.650;  -58.000;  -22.000
327.795;  -25.325;   69.000;   45.000
327.931;  -82.525; -723.000; -499.000
328.066;  -15.675; -417.000; -276.000
328.202;   -9.325;   12.000; -129.000
328.337;   93.575;  957.000;  713.000
328.473;   40.125;  -12.000;  -74.000
328.608;  -23.850; -256.000; -267.000
328.743;  -69.900; -799.000; -664.000
328.879;   17.425;  214.000;  114.000
329.014;  -26.725; -102.000; -122.000
329.150;  -86.575; -358.000; -483.000
329.285;  -72.375; -465.000; -466.000
329.421;  -55.925; -548.000; -246.000
329.556;  -10.250;  -36.000;   85.000
329.691;  -99.875; -633.000; -615.000
329.827;  -80.275; -626.000; -480.000
329.962;  -62.475;  131.000; -301.000
330.097;  -89.200; -673.000; -585.000
330.233;  -59.275; -410.000; -223.000
330.368; -121.600; -839.000; -628.000
330.503;  -17.925;    3.000;   98.000
330.638;    8.700;  -93.000; -125.000
330.774;  -56.950; -609.000; -530.000
330.909;  -42.375; -434.000; -244.000
331.044;  -93.900; -714.000; -708.000
331.179; -155.950;-1217.000;-1109.000
331.315;   21.875;   77.000;   20.000
331.450;   17.600;  157.000;  285.000
331.585;  -79.050; -805.000; -706.000
331.720;  -79.975; -510.000; -460.000
331.855;  -12.975;  -35.000; -102.000
331.990;  231.825;   62.000;  138.000
332.126;  103.750; -110.000;   71.000
332.261;  -20.800; -379.000; -265.000
332.396;   -4.825; -135.000; -242.000
332.531; -101.675;-1074.000;-1031.000
332.666;   31.325; -519.000; -363.000
332.801; -101.800; -726.000; -807.000
332.936;  -39.150; -192.000; -122.000
333.071; -148.875; -870.000; -817.000
333.206;   17.125;  307.000;  379.000
333.341;   28.425;  344.000;  418.000
333.476;  -87.650; -627.000; -623.000
333.611;  -49.825; -251.000; -173.000
333.746;  -54.675; -381.000; -464.000
333.881; -109.850; -973.000; -935.000
334.016; -117.525; -936.000; -917.000
334.151; -119.650; -746.000; -702.000
334.286;   29.825;  152.000;  186.000
334.421;  -20.500; -125.000; -178.000
334.556;  -75.375; -611.000; -567.000
334.690;  -73.700; -631.000; -577.000
334.825;   56.800;  381.000;   83.000
334.960;  -45.625; -285.000; -413.000
335.095;    5.500;  135.000;  -91.000
335.230;  -88.925; -722.000; -738.000
335.365; -124.925;-1084.000; -990.000
335.499; -121.275;-1108.000;-1037.000
335.634;   25.550;    9.000;  534.000
335.769;  -72.925; -755.000; -720.000
335.904;  -56.100; -603.000; -561.000
336.038;  -44.000; -735.000; -657.000
336.173; -107.150;-1206.000;-1194.000
336.308;   28.725; -116.000; -189.000
336.443;    6.850; -544.000; -634.000
336.577;  -80.450; -936.000; -787.000
336.712;   81.975;   -4.000;  -12.000
336.847;  -26.050; -724.000; -607.000
336.981;   88.175; -272.000; -208.000
337.116;  322.075;  615.000;  501.000
337.250;  201.450; -434.000; -421.000
337.385;  231.775; -297.000; -208.000
337.520;   53.950; -632.000; -603.000
337.654;  -36.675; -215.000; -126.000
337.789; -119.325; -989.000; -933.000
337.923;  -34.750; -104.000; -205.000
338.058;  -76.675; -673.000; -738.000
338.192;  -12.375; -611.000; -488.000
338.327;   -7.175;  -18.000; -155.000
338.461;  -52.275; -299.000; -469.000
338.596;  -79.450; -780.000; -638.000
338.730;  -89.250; -767.000; -803.000
338.865;   61.650;  -46.000; -140.000
338.999;  -62.500; -846.000; -702.000
339.134;  -31.350; -634.000; -536.000
339.268;   43.625; -741.000; -603.000
339.403;  350.125; -740.000; -775.000
339.537;   99.450; -894.000; -820.000
339.671; -113.025; -829.000; -813.000
339.806;  -62.800; -556.000; -512.000
339.940;    2.150; -261.000; -235.000
340.074;  -88.800; -685.000; -510.000
340.209;  -40.175; -351.000; -230.000
340.343;  -71.400; -517.000; -573.000
340.477;  135.150;  998.000; 1036.000
340.612;  -68.625;-1033.000; -900.000
340.746;  128.125; -199.000; -243.000
340.880;  -44.700; -924.000; -785.000
341.014;  -19.775;  -45.000; -154.000
341.149; -119.100; -756.000; -718.000
341.283; -108.650; -839.000; -754.000
341.417;  -65.500;-1124.000; -938.000
341.551;  206.600; -768.000; -708.000
341.685;   -7.875; -633.000; -611.000
341.820;  -46.550; -562.000; -493.000
341.954;  -38.050; -218.000; -349.000
342.088; -154.825;-1102.000;-1019.000
342.222;   53.875;  565.000;  618.000
342.356;  -60.150; -395.000; -335.000
342.490;  -71.550; -880.000; -841.000
342.624;  -41.325; -339.000; -242.000
342.758;    8.575; -364.000; -312.000
342.892;  -50.175; -710.000; -585.000
343.026;  -42.725;  -58.000; -116.000
343.160;  -71.600; -426.000; -376.000
343.294;  -81.300; -474.000; -337.000
343.428;    2.425; -488.000; -448.000
343.562;   -7.900; -172.000;  -23.000
343.696;  -12.800; -385.000; -314.000
343.830;    1.100; -362.000; -356.000
343.964;   26.325; -231.000; -168.000
344.098; 1129.275;  199.000;   70.000
344.232;  933.075; -266.000; -127.000
344.366;  117.775; -567.000; -453.000
344.500;   97.175; -665.000; -744.000
344.634;   60.975; -324.000; -164.000
344.768;    2.975; -531.000; -341.000
344.902;   15.700;  278.000;  256.000
345.035;  -80.175; -556.000; -496.000
345.169; -126.625; -933.000; -656.000
345.303;  -12.225; -308.000; -482.000
345.437;  -42.025; -826.000; -717.000
345.571;  -65.175; -675.000; -594.000
345.704;  -58.575; -309.000; -532.000
345.838;   -9.750; -331.000; -284.000
345.972;  -12.200; -543.000; -495.000
346.106;  152.950; -179.000; -190.000
346.239;  441.625; -312.000; -243.000
346.373;   19.475; -343.000; -302.000
346.507; -130.750; -950.000; -962.000
346.640;  187.675;  -30.000;   13.000
346.774;  -17.825; -650.000; -797.000
346.908;  -21.700; -138.000;  -11.000
347.041;  -91.325; -646.000; -593.000
347.175;   -3.300;  259.000;   27.000
347.309;  -56.450; -698.000; -628.000
347.442;  -91.625; -883.000; -732.000
347.576;  333.100;  670.000;  668.000
347.709;  247.775; -123.000;  -52.000
347.843;  -67.025; -933.000; -825.000
347.976;   35.625;  235.000;  294.000
348.110; -173.450;-1268.000;-1186.000
348.243;  -95.350; -679.000; -772.000
348.377;  -11.200;  -26.000;   60.000
348.510;   58.875;  403.000;  540.000
348.644;  -35.600;  -37.000; -159.000
348.777;   -1.350;  180.000;  191.000
348.911;  -54.825; -142.000; -112.000
349.044;  198.150;  471.000;  448.000
349.178;  224.425;-1069.000;-1006.000
349.311;  122.200;  141.000;  255.000
349.444;  -10.450; -927.000; -813.000
349.578;  -26.525; -347.000; -200.000
349.711;  -79.400; -959.000; -862.000
349.845;   14.525; -661.000; -591.000
349.978; -122.750;-1224.000;-1137.000
350.111;  -74.950; -546.000; -612.000
350.244;  -68.550; -596.000; -700.000
350.378;   15.325; -392.000; -393.000
350.511;  -65.000; -393.000; -426.000
350.644; -107.850; -808.000; -806.000
350.778;    7.200;  168.000;  104.000
350.911;    4.500;  134.000;  140.000
351.044;  -86.825; -685.000; -615.000
351.177;  -25.450; -321.000; -281.000
351.310;   -9.175;    3.000; -131.000
351.444;  -58.950; -888.000; -788.000
351.577;  168.400;  140.000;   90.000
351.710;   93.925;  593.000;  417.000
351.843;  -24.200; -165.000;  -77.000
351.976;   10.225;  149.000;  -79.000
352.109;  -82.875; -621.000; -612.000
352.242;  -23.500; -464.000; -419.000
352.376;  -38.850; -580.000; -636.000
352.509;  234.025; -437.000; -356.000
352.642;   61.750; -654.000; -604.000
352.775;   87.700; -141.000;  -98.000
352.908;  -91.775; -933.000; -904.000
353.041; -104.975; -814.000; -824.000
353.174;  -38.725; -551.000; -424.000
353.307;  -72.850; -753.000; -764.000
353.440;   73.900;  541.000;  453.000
353.573; -110.325; -957.000;-1008.000
353.706;  -46.375; -384.000; -558.000
353.839;  -18.825; -264.000; -220.000
353.971;  -72.075; -657.000; -512.000
354.104;  -77.475; -896.000; -835.000
354.237;  -19.875; -627.000; -662.000
354.370;  -80.900; -846.000; -879.000
354.503; -165.800;-1231.000;-1308.000
354.636;  -38.175; -529.000; -348.000
354.769; -114.850; -937.000; -860.000
354.902;   -8.900; -230.000; -139.000
355.034;  -11.300; -164.000; -220.000
355.167;  -23.375; -262.000; -162.000
355.300;  -74.275;-1061.000; -880.000
355.433;  926.825;  -71.000;  -14.000
355.565; 1463.100; -402.000; -384.000
355.698;  372.375; -356.000; -296.000
355.831;   22.350; -882.000; -801.000
355.964;  112.400; -285.000; -170.000
356.096;  -67.025; -856.000; -843.000
356.229;   28.150; -523.000; -530.000
356.362;  300.175; -373.000; -266.000
356.494;  569.075; -229.000; -162.000
356.627;  571.325;  269.000;  377.000
356.760;  651.650;  120.000;   53.000
356.892;  911.250; -286.000; -601.000
357.025;  782.025;  403.000;  389.000
357.157;  751.400; -167.000; -179.000
357.290;  618.300; -856.000; -713.000
357.423;  204.875; -667.000; -556.000
357.555;  133.475; -217.000; -228.000
357.688;  180.250; -483.000; -364.000
357.820;  541.525; -870.000; -877.000
357.953; 4292.125; -563.000; -589.000
358.085; 1012.800; -632.000; -612.000
358.218; 1560.125;-1131.000; -932.000
358.350;  276.450;  -58.000;  312.000
358.483;  -94.875;-1300.000;-1187.000
358.615;   23.725;-1182.000;-1078.000
358.747;  -21.425;-1187.000;-1058.000
358.880;   70.675; -810.000; -744.000
359.012;    5.100; -376.000; -202.000
359.145;  -38.825; -480.000; -511.000
359.277;  113.425; -962.000; -913.000
359.409; 3529.475;  536.000;  231.000
359.542;  990.775; -738.000; -688.000
359.674;   86.500;   46.000;   13.000
359.806;  -52.675; -565.000; -438.000
359.939;  -41.325; -617.000; -516.000
360.071;  -10.200; -583.000; -579.000
360.203;  -18.875; -411.000; -364.000
360.335;   59.950;  164.000;  -16.000
360.468;  223.150; -249.000; -307.000
360.600; 2806.550; -547.000; -454.000
360.732; 2657.575; -546.000; -423.000
360.864;  405.750;-1216.000;-1044.000
360.996;  368.575; -516.000; -554.000
361.129;   78.700; -389.000; -598.000
361.261;   28.350;  110.000; -113.000
361.393;  -27.975; -252.000; -214.000
361.525;   42.425;   94.000;  244.000
361.657;  -16.925; -821.000; -703.000
361.789;   22.425; -139.000; -155.000
361.921;  328.475; -642.000; -593.000
362.053;  320.275;  524.000;  541.000
362.185;   61.600;  288.000;   72.000
362.318;  -64.350; -709.000; -705.000
362.450;  148.650;  294.000;  444.000
362.582;  202.200; -913.000; -870.000
362.714;  -21.150; -353.000; -332.000
362.846;  -83.875; -606.000; -490.000
362.978; -129.950; -941.000; -811.000
363.109;   77.625; -161.000; -260.000
363.241;  559.625; -739.000; -749.000
363.373;  431.525; -649.000; -564.000
363.505;  626.925; -186.000;  -91.000
363.637;  165.050; -787.000; -601.000
363.769; -111.100;-1067.000;-1080.000
363.901;  -67.400; -596.000; -654.000
364.033;  -98.425;-1103.000;-1062.000
364.165;    5.625; -283.000; -283.000
364.296;   76.700; -316.000; -177.000
364.428;   51.950;-1344.000;-1220.000
364.560;  -62.525; -679.000; -661.000
364.692;  -68.025; -738.000; -835.000
364.824;  390.850; -588.000; -456.000
364.955;  458.525; -402.000; -564.000
365.087;  811.875;-1097.000; -852.000
365.219;   21.400; -686.000; -816.000
365.351;  -43.625; -526.000; -572.000
365.482;   64.375;  300.000;  240.000
365.614;  -26.150; -402.000; -314.000
365.746;  -91.150; -729.000; -752.000
365.877; -103.000; -706.000; -672.000
366.009;  228.750;  -35.000;  -62.000
366.141;  -82.350;-1249.000;-1134.000
366.272; -121.050; -803.000; -719.000
366.404;  -99.950;-1005.000; -874.000
366.535;   -3.950; -139.000;  -12.000
366.667;  -85.275; -644.000; -649.000
366.799;   40.900;  353.000;  203.000
366.930; -109.075; -862.000; -996.000
367.062;  135.300; -639.000; -613.000
367.193;  131.150; -872.000; -842.000
367.325;  -60.150; -580.000; -684.000
367.456;   93.350; -246.000;   31.000
367.588;  146.350; -371.000; -318.000
367.719;   34.650;  -44.000;  -45.000
367.851;  -13.125; -222.000; -241.000
367.982;  -34.300; -875.000; -732.000
368.113;  148.975; -475.000; -358.000
368.245;  -99.050; -960.000; -841.000
368.376;  -30.625; -254.000; -302.000
368.508;  -18.850; -188.000; -263.000
368.639; -128.200;-1166.000;-1034.000
368.770;   -7.325; -670.000; -589.000
368.902;  -30.275; -836.000; -926.000
369.033;  -91.550; -906.000; -855.000
369.164;  -62.325; -720.000; -653.000
369.296; -102.100; -452.000; -601.000
369.427;   11.325; -209.000; -144.000
369.558;  -21.375; -593.000; -377.000
369.689;  -85.475; -721.000; -569.000
369.821; -127.925; -951.000; -845.000
369.952;  -20.200;   42.000; -108.000
370.083;  -45.900; -229.000; -108.000
370.214;  -61.950; -735.000; -650.000
370.345;    2.800;   65.000;   81.000
370.477;  -74.475; -810.000; -790.000
370.608;  286.550; -328.000; -264.000
370.739;   -6.550;-1233.000;-1292.000
370.870;   -8.500;-1102.000; -923.000
371.001;  134.800; -378.000; -467.000
371.132;  -56.475; -754.000; -735.000
371.263;  -19.900;  -42.000; -148.000
371.394; -114.275; -841.000; -748.000
371.525;   23.725;  345.000;  225.000
371.657;  -79.750; -808.000; -670.000
371.788;   79.650;  103.000;  199.000
371.919;  243.900; -384.000; -304.000
372.050; 4329.325;  -91.000; -156.000
372.181; 1360.275; -188.000; -294.000
372.311;  466.350;   42.000; -127.000
372.442;   79.450; -457.000; -451.000
372.573;  -13.550; -444.000; -340.000
372.704; -100.450;-1008.000; -980.000
372.835;  117.100; -228.000; -289.000
372.966;  -23.625; -646.000; -554.000
373.097;  -39.150; -575.000; -711.000
373.228;   -6.800; -717.000; -542.000
373.359;  202.350; -824.000; -536.000
373.490; 1193.300; -881.000; -727.000
373.620; 1507.825;-1001.000; -803.000
373.751; 2226.125; -332.000; -396.000
373.882; 1031.525; -663.000; -733.000
374.013;  113.825; -449.000; -262.000
374.143;  -33.675; -581.000; -659.000
374.274;  -84.275; -987.000; -908.000
374.405;  216.225; -388.000; -276.000
374.536;  566.050; -526.000; -387.000
374.666; 1456.250; -759.000; -807.000
374.797;  323.025; -817.000; -868.000
374.928; 1088.850; -710.000; -560.000
375.058; 1165.525; -535.000; -500.000
375.189;  103.925;  -59.000;  -93.000
375.320;  -97.825; -928.000;-1034.000
375.450;  -33.400; -625.000; -616.000
375.581;  -30.000; -526.000; -436.000
375.712;  -23.425; -574.000; -250.000
375.842;  410.525; -438.000; -415.000
375.973;  320.325; -554.000; -513.000
376.103;  -11.300; -665.000; -648.000
376.234;  -73.900; -531.000; -552.000
376.364;    6.900; -944.000; -867.000
376.495;  388.700;  925.000;  529.000
376.625;   45.225; -472.000; -485.000
376.756;  110.700; -709.000; -678.000
376.886;  -39.350;-1178.000;-1026.000
377.017;   31.525;-1048.000;-1061.000
377.147;  327.100; -786.000; -782.000
377.278;   53.425;  174.000;  228.000
377.408; -122.825; -801.000; -815.000
377.538; -108.500; -707.000; -693.000
377.669;  -67.400; -537.000; -613.000
377.799;  -71.125; -645.000; -635.000
377.929;  -37.275; -610.000; -428.000
378.060; -130.625; -781.000; -847.000
378.190;  -60.425; -726.000; -531.000
378.320;  -46.300; -401.000; -406.000
378.451;   -7.225; -131.000;  -22.000
378.581;  -12.525;  -67.000; -110.000
378.711;  163.075; 1035.000;  866.000
378.841;   -4.550; -533.000; -675.000
378.972;  -55.475; -871.000; -751.000
379.102;   24.250; -652.000; -579.000
379.232;   -4.175; -126.000;  -73.000
379.362;  -85.725;-1001.000; -885.000
379.492;   36.875; -373.000; -424.000
379.623;  121.075;    0.000;  111.000
379.753;  -84.250;-1107.000; -974.000
379.883;  248.275;   59.000;  156.000
380.013;   54.200;-1081.000;-1017.000
380.143;  -87.650;-1097.000;-1056.000
380.273;  -80.700; -985.000; -861.000
380.403;    8.125; -344.000; -257.000
380.533;    0.475; -651.000; -664.000
380.663;   84.175;  173.000;  128.000
380.793;  -57.875;-1027.000;-1074.000
380.923;  -22.600; -103.000;  -34.000
381.053;  -84.700; -613.000; -623.000
381.183;  -31.050; -106.000; -248.000
381.313;   67.800; -656.000; -470.000
381.443;   57.575; -692.000; -473.000
381.573;  274.625; -402.000; -409.000
381.703;  440.600;-1249.000;-1095.000
381.833;  -76.950;-1454.000;-1336.000
381.963;  145.250; -134.000;  -87.000
382.093; 1681.575; -925.000; -909.000
382.223;  566.225; -713.000; -602.000
382.353;   16.475; -801.000; -608.000
382.482;  505.725;-1091.000; -964.000
382.612;  997.875; -872.000; -644.000
382.742;  559.775; -695.000; -622.000
382.872;  383.075; -565.000; -551.000
383.002;   87.325;  347.000; -132.000
383.131;    0.075; -226.000; -160.000
383.261;  -31.300; -706.000; -768.000
383.391;  322.075; -552.000; -377.000
383.521; 2922.200;  451.000;  263.000
383.650;  731.050; -947.000; -904.000
383.780;   -9.800; -783.000; -656.000
383.910;  111.125;  880.000;  802.000
384.039;   58.550; -794.000; -656.000
384.169;  314.750;-1205.000;-1017.000
384.299;    3.000; -650.000; -662.000
384.428;  -83.675; -764.000; -680.000
384.558;  -42.475; -308.000; -275.000
384.687;  -32.575; -414.000; -334.000
384.817;    4.550;   75.000;   -2.000
384.947;   47.125; -234.000; -141.000
385.076;  331.400;  982.000;  912.000
385.206;  133.675;  369.000;  480.000
385.335;  -21.325; -549.000; -417.000
385.465;  -67.800; -655.000; -663.000
385.594;  167.725;  -53.000;  -44.000
385.724;  570.350; -868.000; -838.000
385.853;  175.925; -296.000; -270.000
385.982; 1678.150; -743.000; -787.000
386.112; 2760.200;-1052.000; -871.000
386.241;  218.700; -307.000; -312.000
386.371;   26.550; -174.000;  -87.000
386.500;   31.900; -825.000; -789.000
386.629;   43.050; -874.000; -817.000
386.759;   79.725;  -43.000;   68.000
386.888;   22.175; -170.000; -250.000
387.017;  -53.400; -648.000; -620.000
387.147;  -62.600; -771.000; -798.000
387.276;   25.625; -410.000; -397.000
387.405;   33.850; -398.000; -342.000
387.535;  -30.625; -452.000; -361.000
387.664;  -41.500; -692.000; -620.000
387.793;   87.750; -198.000; -113.000
387.922;  646.600;  255.000;  200.000
388.052;   69.175; -576.000; -423.000
388.181;   37.675; -342.000; -472.000
388.310;   66.000; -889.000; -710.000
388.439;  -13.925; -749.000; -742.000
388.568;  239.125;  365.000;  244.000
388.697; 1336.400; -756.000; -653.000
388.826;  305.975; -768.000; -666.000
388.956;  103.325; -285.000; -307.000
389.085;  -12.575; -347.000; -287.000
389.214;  -97.075; -842.000; -872.000
389.343;  -61.800; -645.000; -413.000
389.472;  385.825;  126.000;  149.000
389.601;  548.625;   91.000;    0.000
389.730;   49.250; -568.000; -687.000
389.859;   78.900;  226.000;   46.000
389.988;  233.100; -423.000; -408.000
390.117;  204.250; -168.000; -146.000
390.246;   -6.525; -331.000; -320.000
390.375;  166.275; -673.000; -626.000
390.504;  -37.650; -703.000; -621.000
390.633;  -83.600; -672.000; -726.000
390.761;  -48.250; -732.000; -645.000
390.890;   43.425;   -4.000; -130.000
391.019;   -9.250; -421.000; -441.000
391.148; -115.100; -826.000; -855.000
391.277;  -69.775; -576.000; -493.000
391.406;  -51.300; -821.000; -805.000
391.534;   18.075;  574.000; -301.000
391.663;  -43.100; -583.000; -645.000
391.792;  -78.125; -673.000; -701.000
391.921;  136.825;   -3.000;   15.000
392.050;  249.525; -287.000; -228.000
392.178;   11.075;-1206.000;-1061.000
392.307;  206.325; -758.000; -712.000
392.436;  121.050; -427.000; -641.000
392.564;   38.875;  166.000;   -6.000
392.693;  -71.875; -860.000; -682.000
392.822;  274.250; -529.000; -534.000
392.950;  148.050; -880.000; -714.000
393.079;  432.500; -188.000; -328.000
393.208;   72.225; -488.000; -511.000
393.336;  -11.475; -170.000; -145.000
393.465;  -46.375; -317.000; -199.000
393.593;    4.950;   62.000;   79.000
393.722; -142.625;-1121.000; -916.000
393.850;  -30.375; -188.000;  -61.000
393.979; -146.150; -926.000; -805.000
394.107;  -67.325; -517.000; -537.000
394.236;   -9.150; -570.000; -507.000
394.364;  243.450;  383.000;  206.000
394.493;  489.325; -911.000; -767.000
394.621;   -2.250; -955.000; -916.000
394.750;  664.600; -873.000; -923.000
394.878; 2743.400; -247.000; -149.000
395.007; 3878.450; -721.000; -807.000
395.135;  307.575; -790.000; -721.000
395.263;  -85.725;-1038.000;-1040.000
395.392;   -0.075;  -25.000; -107.000
395.520; -149.350; -818.000; -679.000
395.648;  -66.175; -865.000; -915.000
395.777;   17.675; -366.000; -405.000
395.905;  -29.200; -449.000; -564.000
396.033;   30.975;  217.000;  172.000
396.162;  712.750; -399.000; -453.000
396.290;  700.675;  -17.000;   -2.000
396.418;  156.300; -555.000; -514.000
396.546;  -35.050; -571.000; -466.000
396.674;  -85.075; -850.000; -878.000
396.803;   22.550;  -72.000;  -23.000
396.931;  129.025; -179.000; -199.000
397.059;  131.925;-1026.000; -989.000
397.187;  -96.425;-1026.000; -975.000
397.315; -120.850; -884.000; -649.000
397.443;  -93.975; -592.000; -443.000
397.572;  -86.050; -578.000; -424.000
397.700;   23.700; -607.000; -614.000
397.828;   23.300;  120.000;  -90.000
397.956;  -48.950; -508.000; -478.000
398.084;  -55.175; -767.000; -626.000
398.212;   49.700;  137.000;  124.000
398.340;   19.525;  -56.000;  159.000
398.468;   52.525; -390.000; -169.000
398.596; -123.400; -993.000; -953.000
398.724; -114.575; -762.000; -767.000
398.852; -161.900;-1024.000; -976.000
398.980;  -71.850; -560.000; -560.000
399.108;  -35.675; -982.000; -735.000
399.236;   47.900;   13.000;    8.000
399.363;   32.450;  222.000;  196.000
399.491;  -83.225; -404.000; -398.000
399.619; -125.400; -829.000; -800.000
399.747;  -85.050; -859.000; -771.000
399.875;   84.650;  220.000;  234.000
400.003;  -50.300; -359.000; -284.000
400.130;  -96.425; -421.000; -341.000
400.258;  -32.475;  -83.000;   38.000
400.386;  -73.975; -352.000; -168.000
400.514;  -34.225; -526.000; -587.000
400.641;  -66.875; -928.000; -802.000
400.769; -133.525; -979.000; -888.000
400.897;  -85.875; -838.000; -793.000
401.025;  -15.375; -166.000; -152.000
401.152;    9.275;  220.000;   38.000
401.280;  -73.625; -430.000; -429.000
401.408; -113.950; -712.000; -576.000
401.535; -106.725; -735.000; -758.000
401.663; -175.625;-1134.000;-1054.000
401.790;  -91.075; -514.000; -525.000
401.918;   38.250;  436.000;  405.000
402.046;  -26.125;  134.000;  122.000
402.173;  -34.450;  -18.000;    7.000
402.301;  -81.825; -519.000; -397.000
402.428;   24.100;  528.000;  383.000
402.556; -142.625;-1188.000; -913.000
402.683;  -15.825;  -20.000;   -1.000
402.811;  -15.425;  -37.000; -206.000
402.938;    5.425;   20.000;   27.000
403.066;  256.900; -574.000; -558.000
403.193;  421.525;  299.000;  239.000
403.321;  329.225; -396.000; -574.000
403.448;  388.450;   83.000;   27.000
403.575;  197.625;  -90.000;  -46.000
403.703;  -84.650; -732.000; -557.000
403.830;  -68.475; -531.000; -496.000
403.957; -142.150;-1117.000;-1023.000
404.085;    5.775;  -61.000; -172.000
404.212;  115.075;  -50.000;   63.000
404.339;  252.875; -566.000; -306.000
404.467; 5373.350; -612.000; -524.000
404.594; 3981.500; -287.000; -227.000
404.721; 1067.675; -869.000; -764.000
404.848;   89.725; -113.000; -202.000
404.976;  -89.675; -856.000; -783.000
405.103;   -5.350;  -14.000;  -82.000
405.230;   -0.325;  190.000;  226.000
405.357;   22.500;  117.000;   44.000
405.484;  262.900;  -49.000;    5.000
405.612;   51.800; -548.000; -563.000
405.739;  -59.250; -488.000; -243.000
405.866;   70.000;  669.000;  385.000
405.993;  -56.350; -398.000; -102.000
406.120; -139.425; -801.000; -887.000
406.247;  -43.650; -323.000; -342.000
406.374;  551.475;  540.000;  629.000
406.501;  197.775; -632.000; -702.000
406.628;  -62.650; -621.000; -589.000
406.755;  -75.575; -803.000; -620.000
406.882;  -30.650; -228.000; -277.000
407.009; -111.600; -719.000; -628.000
407.136;   72.600; -480.000; -401.000
407.263;  220.475; -939.000; -829.000
407.390;  -69.050; -692.000; -614.000
407.517; -156.200;-1139.000;-1187.000
407.644;  -61.600; -332.000; -256.000
407.771;  -62.775; -249.000; -287.000
407.898;    0.850;  168.000;  328.000
408.025;  -67.700; -421.000; -313.000
408.151;   -9.300;   82.000;  153.000
408.278;  -72.200; -267.000; -216.000
408.405; -119.200; -931.000; -899.000
408.532;  -69.850; -549.000; -542.000
408.659; -117.075; -677.000; -648.000
408.785; -191.950;-1298.000;-1170.000
408.912;  -76.800; -412.000; -296.000
409.039; -109.650; -610.000; -686.000
409.166; -116.100; -591.000; -555.000
409.292; -118.500; -571.000; -534.000
409.419; -126.075; -665.000; -649.000
409.546;  -87.700; -431.000; -192.000
409.672; -106.300; -713.000; -545.000
409.799;  -19.500;  -36.000;   34.000
409.926;  -31.000; -180.000; -179.000
410.052; -166.425;-1127.000;-1091.000
410.179;  -43.275; -368.000; -392.000
410.305;  -93.700; -375.000; -493.000
410.432;  -59.300; -220.000; -333.000
410.558;  -88.225; -305.000; -380.000
410.685; -115.025; -688.000; -431.000
410.812;  -96.050; -409.000; -588.000
410.938; -140.350; -964.000; -808.000
411.065;  -84.350; -671.000; -645.000
411.191;  -27.375; -189.000; -174.000
411.317; -111.600; -823.000; -742.000
411.444;  -73.700; -317.000; -246.000
411.570;  -73.200; -339.000; -294.000
411.697; -126.275; -758.000; -752.000
411.823; -160.725; -989.000; -999.000
411.949;  -30.075;  -56.000;   17.000
412.076;  -99.250; -539.000; -519.000
412.202; -137.100; -758.000; -757.000
412.329; -116.700; -798.000; -752.000
412.455; -123.025; -821.000; -657.000
412.581;  -27.525;  -15.000;  172.000
412.707;  -62.075; -540.000; -457.000
412.834;   14.275;  156.000;  219.000
412.960;  -83.450; -785.000; -784.000
413.086;  -88.400; -743.000; -701.000
413.212;  166.950;  604.000;  578.000
413.339;  -24.100; -685.000; -701.000
413.465;   18.900; -364.000; -310.000
413.591;  -74.650; -757.000; -474.000
413.717;  -58.700; -358.000; -366.000
413.843; -135.725; -839.000; -861.000
413.969;  -61.700;  -47.000; -292.000
414.096;  -94.650; -679.000; -679.000
414.222;  -14.275;  -33.000;   85.000
414.348;  -11.375; -652.000; -385.000
414.474;  140.050;   38.000;  -52.000
414.600;   -7.525; -126.000; -144.000
414.726;  -20.300;  -96.000;  -55.000
414.852;  -69.075; -365.000; -342.000
414.978;   26.000;  104.000;  -18.000
415.104;   35.875;   38.000;   80.000
415.230;   33.150; -329.000; -330.000
415.356;   47.475; -409.000; -514.000
415.482;  202.850;   13.000;  -35.000
415.608;  262.900; -247.000; -323.000
415.734;  933.850;   67.000;   38.000
415.860;18962.675; -875.000; -767.000
415.986;14889.650; -685.000; -607.000
416.111; 1307.100; -798.000; -652.000
416.237;  263.725; -424.000; -571.000
416.363; 1000.300; -765.000; -733.000
416.489; 4005.925; -324.000; -251.000
416.615;  496.425; -707.000; -742.000
416.741;  -26.775; -677.000; -784.000
416.866;  -90.850; -673.000; -736.000
416.992; -127.825; -801.000; -818.000
417.118;  -27.375;  -41.000;  -80.000
417.244;  -70.525; -798.000; -531.000
417.369;  -63.100; -801.000; -612.000
417.495;  -10.350; -325.000; -254.000
417.621;  -80.775;-1015.000; -803.000
417.746;   15.200; -579.000; -572.000
417.872;   45.225; -254.000; -144.000
417.998;   46.250; -515.000; -530.000
418.123;  911.875;-1073.000; -845.000
418.249; 5198.600; -512.000; -601.000
418.374;  789.400; -916.000; -824.000
418.500;  105.250; -383.000; -482.000
418.626;  111.375;   70.000;  -59.000
418.751;  121.325; -549.000; -448.000
418.877;  203.550; -637.000; -643.000
419.002; 1608.825; -688.000; -560.000
419.128;11920.950; -930.000; -721.000
419.253; 3146.400; -967.000; -837.000
419.379;  394.150; -391.000; -338.000
419.504;  363.900;  325.000;  415.000
419.629;  501.625; -393.000; -212.000
419.755; 3085.475; -317.000; -254.000
419.880;19556.950;  -98.000;   67.000
420.006;10791.100; -280.000; -221.000
420.131;28731.025; -662.000; -775.000
420.256; 4490.650; -315.000; -316.000
420.382;  588.950; -665.000; -687.000
420.507;   85.375; -649.000; -778.000
420.632;  161.525; -337.000; -339.000
420.758;  345.200; -251.000; -425.000
420.883;  -64.375; -876.000; -672.000
421.008; -104.800; -775.000; -619.000
421.133;  -77.300; -509.000; -467.000
421.259;  -49.250; -325.000; -259.000
421.384; -104.075; -834.000; -693.000
421.509;  -21.500;-1052.000; -862.000
421.634; 1505.450; -936.000; -820.000
421.759;  692.275; -359.000; -327.000
421.885;  -38.475; -717.000; -656.000
422.010;  -63.925; -673.000; -542.000
422.135; -131.575; -695.000; -727.000
422.260;   41.075;  340.000;  280.000
422.385;  -35.225;   12.000;  -98.000
422.510;    5.700;  151.000;  -26.000
422.635;   26.800;  -87.000;  -43.000
422.760;  127.900; -766.000; -791.000
422.885;   66.650;  -57.000;  -80.000
423.010;  -29.025; -112.000; -169.000
423.135;  -90.300; -481.000; -561.000
423.260;  -13.125; -150.000; -245.000
423.385;   78.525;  476.000;  222.000
423.510;   45.475;   71.000;  -22.000
423.635;   98.550;  133.000;   45.000
423.760;   56.550;  383.000;  328.000
423.885;   66.850;  336.000;  391.000
424.010;   16.650;  -68.000;  -13.000
424.135;  -16.275;    5.000;  -33.000
424.259;  -85.075; -654.000; -457.000
424.384;  -63.300; -279.000; -272.000
424.509;  -13.725; -260.000; -186.000
424.634;  -94.825; -761.000; -623.000
424.759;  -27.500; -688.000; -544.000
424.883;   -4.300; -506.000; -527.000
425.008;  148.825; -502.000; -410.000
425.133; 1885.400; -679.000; -653.000
425.258;  946.600; -517.000; -381.000
425.382; 1162.325; -867.000; -774.000
425.507; 3177.100; -487.000; -543.000
425.632;  529.750; -802.000; -663.000
425.756;  430.850; -256.000; -146.000
425.881; 5619.200; -831.000; -857.000
426.006;16254.100; -604.000; -355.000
426.130; 2831.400; -696.000; -508.000
426.255;  364.700; -611.000; -491.000
426.379;  163.025; -189.000; -577.000
426.504;  341.900;  660.000;  544.000
426.629; 3854.575; -519.000; -466.000
426.753; 2874.575;   64.000;  -46.000
426.878;  345.525; -252.000; -288.000
427.002;  146.300; -651.000; -668.000
427.127; 1482.700;  -35.000; -158.000
427.251;10827.225;  372.000;  401.000
427.375; 3381.350; -191.000; -173.000
427.500; 2668.425; -616.000; -610.000
427.624; 1002.975; -234.000; -400.000
427.749;  112.975; -216.000; -225.000
427.873;  -17.550; -499.000; -412.000
427.997;  -36.975; -222.000; -230.000
428.122;   86.650;  795.000;  703.000
428.246;   70.725;  433.000;  434.000
428.371; -120.100; -869.000; -773.000
428.495; -103.950; -624.000; -646.000
428.619;  -28.050; -186.000; -117.000
428.743;   13.975;   65.000;  132.000
428.868;   44.350; -732.000; -643.000
428.992; 1671.475; -219.000; -326.000
429.116;  742.325; -329.000; -357.000
429.240;  356.325;  419.000;  426.000
429.365;   -1.875; -454.000; -574.000
429.489;  -36.975; -638.000; -647.000
429.613;   37.725; -236.000; -177.000
429.737;   29.100; -563.000; -432.000
429.861;  261.325; -247.000; -133.000
429.985; 5119.725; -425.000; -305.000
430.109; 6146.350; -770.000; -908.000
430.234;  724.300;   76.000;  -50.000
430.358;   83.900; -250.000; -160.000
430.482;  -68.250; -672.000; -564.000
430.606;  -49.375; -655.000; -375.000
430.730;   34.825; -437.000; -388.000
430.854;  211.275; -909.000; -835.000
430.978;  -45.250; -795.000; -764.000
431.102;  -71.675; -499.000; -422.000
431.226; -112.625; -874.000; -815.000
431.350;   40.875;  345.000;  422.000
431.474;  -78.850; -661.000; -373.000
431.597; -124.650;-1060.000; -848.000
431.721;  -86.700; -276.000; -267.000
431.845; -132.250; -704.000; -472.000
431.969;  -84.750; -304.000; -349.000
432.093;  -86.800; -395.000; -317.000
432.217;  -28.675;   32.000;   82.000
432.341;  -79.500; -523.000; -518.000
432.464;   -8.000;   96.000;   40.000
432.588;  273.200; -401.000; -329.000
432.712;  147.825;  -52.000;  -52.000
432.836;   53.800;  213.000;  263.000
432.959;  -25.300; -372.000; -311.000
433.083;   77.375;   11.000;    2.000
433.207;  346.025;  285.000;  930.000
433.330; 4580.475; -391.000; -200.000
433.454; 6118.650; -654.000; -638.000
433.578; 3429.725;  583.000;  278.000
433.701;  711.500; -623.000; -675.000
433.825;  188.900; -292.000; -299.000
433.949;  235.225;   28.000;  -72.000
434.072;  119.475; -410.000; -323.000
434.196;   -2.550; -309.000; -117.000
434.319; 3599.175;25482.000;25124.000
434.443;  722.200; -656.000; -603.000
434.566; 2587.000;  281.000;   62.000
434.690;  477.125; -637.000; -383.000
434.813;   69.950; -251.000; -173.000
434.937;  -76.200; -569.000; -696.000
435.060;  -23.150; -423.000; -332.000
435.184;  423.625; -492.000; -217.000
435.307;  262.675;  159.000;  102.000
435.431;    5.850;  -40.000;   24.000
435.554;  -79.600; -399.000; -240.000
435.677;  -97.375; -350.000; -258.000
435.801;  -46.500;  -25.000;   49.000
435.924;  -16.400;    1.000;  -67.000
436.048;  -79.125;-1019.000; -732.000
436.171;  -76.750; -240.000;  -66.000
436.294;  -34.850; -248.000; -229.000
436.417;   82.700; -963.000; -849.000
436.541;  -69.300; -814.000; -840.000
436.664;  -51.575; -242.000; -316.000
436.787;  -16.275;   13.000;  113.000
436.910; -111.075; -792.000; -422.000
437.034;   21.900;  142.000;  143.000
437.157;   72.000;  -11.000;    0.000
437.280;  -32.000; -392.000; -292.000
437.403;  -66.725; -982.000; -869.000
437.526;  813.450; -903.000; -865.000
437.649; 3019.875; -505.000; -332.000
437.772;  529.575; -692.000; -540.000
437.896;  146.150;  700.000;  544.000
438.019;  -90.225; -758.000; -503.000
438.142;  -85.775; -596.000; -506.000
438.265;    5.175; -639.000; -670.000
438.388;  760.475; -520.000; -410.000
438.511;  200.500; -597.000; -394.000
438.634;  -23.025; -247.000; -125.000
438.757; -137.550; -693.000; -619.000
438.880;  -20.425;  -34.000;  -57.000
439.003;  -66.750; -417.000; -437.000
439.126;  -86.750; -287.000; -167.000
439.248;  -60.750;  -98.000; -139.000
439.371;  -59.250;    9.000;  -53.000
439.494;   15.825;  510.000;  439.000
439.617;  -49.150;   65.000;  -88.000
439.740; -180.325; -968.000; -816.000
439.863; -129.050; -755.000; -595.000
439.986; -118.375; -476.000; -431.000
440.108;  -62.750; -161.000; -112.000
440.231; -144.500; -950.000; -836.000
440.354;  -41.950;  -64.000; -150.000
440.477;   83.300; -566.000; -542.000
440.599;   25.425; -200.000; -225.000
440.722; -116.550; -709.000; -586.000
440.845;   54.825;  751.000;  928.000
440.968; -113.025; -415.000; -311.000
441.090;  -75.325; -199.000;  -33.000
441.213; -158.025;-1021.000; -825.000
441.336;  -60.275; -159.000;   -5.000
441.458;  -79.175; -549.000; -396.000
441.581;  -78.150; -628.000; -629.000
441.703;  -64.325; -152.000;   13.000
441.826; -125.275; -557.000; -400.000
441.948;  -56.925;   56.000;   51.000
442.071;    6.525;  555.000;  424.000
442.193; -123.375; -531.000; -485.000
442.316;   28.025;  152.000;   97.000
442.438;   49.075; -233.000;  -10.000
442.561;   80.900;  272.000;  262.000
442.683;  681.125; -809.000; -522.000
442.806; 1561.800;   -8.000;   74.000
442.928;  111.500; -859.000; -604.000
443.051;  -54.450; -577.000; -373.000
443.173;  -91.950; -341.000; -339.000
443.295;  -88.850; -263.000; -371.000
443.418;  -73.000; -321.000;  -29.000
443.540;  -16.650; -106.000;   -4.000
443.662; -107.950; -563.000; -465.000
443.785;   -9.350;  335.000;  199.000
443.907;  -91.250; -362.000; -208.000
444.029; -139.225; -767.000; -494.000
444.152; -146.500; -644.000; -554.000
444.274;  -41.100;  -18.000;  -24.000
444.396; -107.100; -461.000; -221.000
444.518; -131.325; -691.000; -454.000
444.640; -101.725; -268.000; -111.000
444.763;  -31.975;  388.000;  249.000
444.885; -120.300; -432.000; -392.000
445.007;  -41.625;   35.000;   86.000
445.129; -125.950; -610.000; -515.000
445.251; -105.900; -372.000; -439.000
445.373; -132.600; -537.000; -386.000
445.495;   -6.050;  242.000;  350.000
445.617;   46.600;  853.000;  753.000
445.739;  -73.350; -215.000;  -97.000
445.861;  -17.550; -245.000; -112.000
445.984;  -25.475; -267.000; -101.000
446.105;  256.150; -418.000; -251.000
446.227;  796.925; -176.000;  -19.000
446.349;   52.000; -358.000; -249.000
446.471;  -91.975; -615.000; -448.000
446.593;  -60.900; -316.000;   19.000
446.715;   18.200;  -67.000;   41.000
446.837;   51.900;  697.000;  832.000
446.959;  -92.625; -457.000; -478.000
447.081; -122.875; -628.000; -518.000
447.203;   46.950;  862.000;  834.000
447.325;  -87.975; -270.000;   42.000
447.446;   -9.700;  286.000;  530.000
447.568; -158.275; -921.000; -803.000
447.690;  -82.925; -236.000; -245.000
447.812; -145.075; -798.000; -519.000
447.933;  -28.175;  155.000;  127.000
448.055;  -65.375; -306.000; -261.000
448.177;  174.525;   31.000;   79.000
448.299;  165.050; -935.000; -727.000
448.420;   18.075;  -25.000;  159.000
448.542;  -52.650;   -3.000;   33.000
448.664;  -40.200;  109.000;  322.000
448.785;  -39.150;  265.000;   83.000
448.907;  -75.650; -614.000; -353.000
449.028;  -15.875; -771.000; -471.000
449.150;   64.300;  492.000;  589.000
449.272; -172.575;-1044.000; -913.000
449.393;   14.625;  612.000;  694.000
449.515; -145.075; -634.000; -581.000
449.636;  -51.300; -264.000; -155.000
449.758;   84.075;  763.000;  622.000
449.879;  -86.625; -498.000; -396.000
450.001;  -87.250; -149.000;  -49.000
450.122;  -44.700;  -95.000;  162.000
450.244;  -38.375;   37.000;  364.000
450.365; -109.625; -495.000; -301.000
450.486;  -34.225;   80.000;  268.000
450.608;   -2.025;  393.000;  326.000
450.729;   58.300;  578.000;  645.000
450.850;   -9.925; -574.000; -466.000
450.972;  616.425; -552.000; -389.000
451.093; 4439.675;  190.000;  588.000
451.214; 2114.125; -516.000; -337.000
451.336;  414.325;  773.000;  579.000
451.457;   56.025;  264.000;  393.000
451.578;  -38.075; -118.000;  -74.000
451.699; -126.875; -546.000; -540.000
451.821;  -78.075; -284.000;  -50.000
451.942;  -23.975;  278.000;  285.000
452.063;   30.975;  228.000;  419.000
452.184;  516.775;  -54.000;  -49.000
452.305; 1037.250;  103.000;  170.000
452.427;  143.050; -549.000; -301.000
452.548;  -27.275;   23.000;   79.000
452.669;  -42.050; -257.000;  -89.000
452.790;  -50.200;    3.000;  -18.000
452.911;   10.500;  195.000;  259.000
453.032;  -57.350; -289.000;  -60.000
453.153;  -41.175;  -29.000;   81.000
453.274;   48.925;  737.000;  868.000
453.395;  -49.225;  -51.000;  175.000
453.516;  123.175; 1317.000; 1388.000
453.637;  -56.650; -205.000; -150.000
453.758;  -55.300;   15.000;   69.000
453.879; -123.000; -462.000; -250.000
454.000;   81.325; 1086.000;  948.000
454.121; -114.350; -554.000; -326.000
454.242; -113.125; -599.000; -383.000
454.362;  -52.450;  -99.000;  114.000
454.483;  -40.125; -309.000; -229.000
454.604;   68.450;  512.000;  580.000
454.725; -118.575; -627.000; -555.000
454.846; -107.900; -474.000; -406.000
454.967;  -34.150;  230.000;  539.000
455.087;  -55.125;  179.000;  153.000
455.208;    2.975;  554.000;  856.000
455.329;  -66.700;  -22.000;   82.000
455.450;   22.375;  473.000;  633.000
455.570;  -74.425; -234.000; -211.000
455.691;  -53.575;  201.000;  407.000
455.812; -102.225; -270.000;  -92.000
455.932;  -71.550;  107.000;  -97.000
456.053;  -77.775;   36.000;   24.000
456.173; -107.875; -433.000; -355.000
456.294; -121.075; -476.000; -303.000
456.415;  -64.150;  -73.000;   70.000
456.535;  -46.275;  297.000;  273.000
456.656;  -43.200;  132.000;  240.000
456.776;  -61.850;    3.000;  298.000
456.897;  -20.250;  308.000;  513.000
457.017;  -89.875; -153.000;   -3.000
457.138;  -93.150; -402.000; -249.000
457.258;  -28.275;  263.000;  224.000
457.379;  -27.300;  509.000;  521.000
457.499;  -36.425;  443.000;  432.000
457.620; -133.775; -407.000; -231.000
457.740;  -87.500; -132.000;  -11.000
457.860;  -63.050;   87.000;   44.000
457.981;  -45.900;  132.000;  124.000
458.101;  -82.175;  -89.000;   40.000
458.221;  -26.450;  336.000;  402.000
458.342;  -66.700;   -4.000;  -37.000
458.462;   17.350;  617.000;  352.000
458.582;  -52.900; -302.000; -294.000
458.703;    2.350;  303.000;  154.000
458.823;  -34.375;   22.000;  163.000
458.943;   10.275;  341.000;  467.000
459.063;  -23.800; 1124.000;  192.000
459.183;  -19.600;  328.000;  313.000
459.304;   -0.450;  315.000;  517.000
459.424;  -70.950; -246.000;  -89.000
459.544;  280.950;  388.000;  764.000
459.664;  769.325;  499.000;  506.000
459.784;  325.125; 1004.000; 1175.000
459.904;   53.425;  867.000;  744.000
460.024;   56.750;  867.000;  684.000
460.144;   13.525;  449.000;  554.000
460.264;   -7.925;  515.000;  327.000
460.385;  -95.450; -145.000; -119.000
460.505;   29.200;  905.000;  858.000
460.625; -104.225;  -17.000;  -68.000
460.745;  -30.000;  396.000;  541.000
460.864;  -40.150;  153.000;  469.000
460.984;    0.725;  499.000;  573.000
461.104;  125.925; 1656.000; 1775.000
461.224;   12.725;  657.000;  650.000
461.344;  -33.100;  431.000;  360.000
461.464;  -33.850;  258.000;  513.000
461.584;  -16.075;  283.000;  466.000
461.704;  -38.425;   58.000;  108.000
461.824;  -40.525;  238.000;  259.000
461.943;  -48.800;  191.000;  130.000
462.063;  -61.100;    2.000;  324.000
462.183;   37.725;  639.000;  717.000
462.303;  107.275; 1678.000; 1230.000
462.422;   25.550;  781.000;  840.000
462.542;  -43.975;  271.000;  391.000
462.662;   33.100;  353.000;  380.000
462.782;  219.100;  833.000;  572.000
462.901;  449.375;  545.000;  717.000
463.021;  281.400; 1702.000; 1638.000
463.141;  -13.000;  337.000;  770.000
463.260;  -18.250;  614.000;  474.000
463.380;    5.525;  902.000;  884.000
463.499;  -42.050;  342.000;  332.000
463.619;  -41.825;  581.000;  559.000
463.738;  105.475; 1644.000;  903.000
463.858;   16.250;  657.000;  811.000
463.978;  -34.575;  542.000;  396.000
464.097;   41.550;  921.000; 1114.000
464.217;  107.250; 1196.000; 1143.000
464.336;  108.900; 1068.000; 1130.000
464.455;  -37.875;  328.000;  659.000
464.575;   47.700;  597.000;  602.000
464.694;  173.825; 1204.000; 1179.000
464.814;  127.325; 1190.000; 1138.000
464.933;   82.275; 1095.000; 1027.000
465.052;   79.225; 1412.000; 1054.000
465.172;   66.200;  922.000;  799.000
465.291;  144.650; 1376.000; 1320.000
465.410;   21.400;  462.000;  735.000
465.530;   82.225; 1355.000; 1310.000
465.649;   71.400; 1209.000; 1273.000
465.768;  141.675; 1673.000; 1508.000
465.888;   56.075;  941.000; 1174.000
466.007;   97.800; 1335.000; 1440.000
466.126;   -4.000;  721.000;  641.000
466.245;   49.750; 1176.000; 1187.000
466.364;   24.900;  950.000; 1060.000
466.484;   41.525; 1024.000; 1213.000
466.603;   42.000; 1101.000; 1222.000
466.722;  108.650; 1490.000; 1769.000
466.841;   78.500; 1151.000; 1401.000
466.960;   36.050; 1069.000;  972.000
467.079;  119.975; 1971.000; 1786.000
467.198;   44.425; 1238.000; 1181.000
467.317;   73.125; 1768.000; 1162.000
467.436;   64.375; 1709.000; 1261.000
467.555;  130.275; 1796.000; 1746.000
467.674;   67.625; 1227.000; 1329.000
467.793;   55.825; 1376.000; 1374.000
467.912;   80.150; 1658.000; 1539.000
468.031;  140.725; 2038.000; 1930.000
468.150;  132.750; 1842.000; 1837.000
468.269;  195.750; 2313.000; 2090.000
468.388;  192.800; 2168.000; 2339.000
468.507;  272.800; 2884.000; 2903.000
468.626;  260.225; 2555.000; 2541.000
468.744;  122.725; 2018.000; 2174.000
468.863;  178.800; 2312.000; 2523.000
468.982;   79.700; 1503.000; 1555.000
469.101;  224.250; 2788.000; 2692.000
469.220;  149.350; 2333.000; 2176.000
469.338;  246.275; 2935.000; 3051.000
469.457;  205.725; 2719.000; 2545.000
469.576;  328.725; 3953.000; 3784.000
469.695;  257.125; 2877.000; 3066.000
469.813;  418.950; 4148.000; 4192.000
469.932;  410.375; 4255.000; 4485.000
470.051;  427.725; 4075.000; 4161.000
470.169;  798.250; 4470.000; 4338.000
470.288; 1410.175; 4700.000; 4809.000
470.406;  900.150; 5059.000; 5194.000
470.525;  626.650; 6101.000; 5787.000
470.644;  639.650; 6847.000; 6794.000
470.762;  791.600; 8397.000; 7873.000
470.881;  888.400; 8651.000; 8464.000
470.999;  996.850; 9685.000; 9151.000
471.118; 1079.400;11174.000;10711.000

