
Integration time [ms]: 100.000
Averaging Nr. [scans]: 40
Smoothing Nr. [pixels]: 0
Data measured with spectrometer [name]: 2101012U2
Wave   ;Sample   ;Dark     ;Reference
[nm]   ;[counts] ;[counts] ;[counts] 

197.733;   64.775;  516.000;  404.000
197.879;  -78.775; -610.000; -634.000
198.025;  -39.150; -475.000; -420.000
198.171;  -78.375; -602.000; -612.000
198.317;  -21.625; -401.000; -316.000
198.463;  -61.875; -655.000; -404.000
198.609;   25.475;  181.000; -137.000
198.755;  -84.250; -644.000; -410.000
198.901;  -69.650; -505.000; -424.000
199.047;  -70.450; -615.000; -488.000
199.193;  -38.150; -230.000; -468.000
199.339;  -42.875; -222.000; -369.000
199.485;   34.025;  330.000;  271.000
199.631;   11.850;  227.000;  310.000
199.777;  -52.125; -466.000; -398.000
199.923;  -64.575; -610.000; -424.000
200.069;   -2.425; -141.000;  -58.000
200.215;   50.775;  128.000;  453.000
200.361;   39.525;  243.000;  477.000
200.507;  -51.925; -600.000; -373.000
200.653;  -22.600; -371.000; -194.000
200.798;  -41.500; -215.000; -125.000
200.944;   -1.000; -146.000;  -41.000
201.090;   35.425;   61.000;  222.000
201.236;   -1.875; -116.000; -158.000
201.382;  125.250;  874.000;  903.000
201.528;    5.425;  -58.000;  -48.000
201.674;  -60.225; -386.000; -293.000
201.819;  -59.625; -540.000; -439.000
201.965;  -76.675; -699.000; -447.000
202.111;  -34.150; -273.000; -226.000
202.257;  -43.775; -250.000; -238.000
202.402;   -6.325;   13.000;  -36.000
202.548;  -21.025; -169.000; -116.000
202.694;   86.300;  410.000; -183.000
202.840;  -77.950; -603.000; -531.000
202.985;  -64.375; -681.000; -639.000
203.131; -106.350; -832.000; -666.000
203.277;  -20.000; -199.000; -262.000
203.423;  -66.200; -434.000; -520.000
203.568;  -32.675; -462.000; -237.000
203.714;  -73.150; -535.000; -542.000
203.860;  -89.050; -682.000; -641.000
204.005;   19.475;  112.000;  167.000
204.151;   80.950;  561.000;  556.000
204.296;  -42.025; -354.000; -221.000
204.442;  -72.500; -600.000; -547.000
204.588;  -86.850; -592.000; -579.000
204.733;   26.775;  178.000;  168.000
204.879; -146.900;-1018.000; -822.000
205.025;    3.200;  -99.000;  126.000
205.170;    2.050;  -17.000;   94.000
205.316;   81.000;  438.000;  661.000
205.461;  -92.700; -698.000; -554.000
205.607;   81.875;  609.000;  665.000
205.752;  -75.025; -626.000; -551.000
205.898;  -53.900; -501.000; -391.000
206.043;  -60.525; -578.000; -506.000
206.189;  -40.525; -243.000; -285.000
206.334;   81.900;  554.000;  606.000
206.480;   80.775;  409.000;  239.000
206.625;  -96.575; -529.000; -552.000
206.771;  -42.400; -451.000; -373.000
206.916;  -36.450; -210.000; -537.000
207.062;  -68.425; -545.000; -591.000
207.207;  -71.100; -546.000; -443.000
207.353;   55.225;  185.000;  460.000
207.498;   -2.625;  196.000;   85.000
207.643;  -40.250; -501.000; -370.000
207.789; -137.850;-1069.000; -910.000
207.934;  -96.875; -665.000; -713.000
208.080;  -23.200; -154.000;   66.000
208.225;   -5.575;  -22.000;  -57.000
208.370;  -87.175; -727.000; -619.000
208.516;  -66.775; -741.000; -487.000
208.661;  -32.750; -127.000;  -69.000
208.806;  -24.450; -165.000; -171.000
208.952; -131.975;-1044.000; -731.000
209.097;   62.875;  378.000;  349.000
209.242;  -43.650; -307.000; -382.000
209.387;   67.175;  392.000;  350.000
209.533;  -58.000; -321.000; -350.000
209.678;   77.525;  472.000;  543.000
209.823;  -53.100; -408.000; -310.000
209.969; -103.675; -860.000; -757.000
210.114; -114.875; -907.000; -719.000
210.259; -123.875; -939.000; -889.000
210.404;   -7.000; -171.000;  103.000
210.549;   12.850;  108.000;    3.000
210.695;  -24.800;   -3.000;  -95.000
210.840;   33.075;   94.000;   67.000
210.985;  -62.525; -484.000; -303.000
211.130;   69.975;  268.000;  406.000
211.275;   13.650;  207.000;  199.000
211.420;  -48.400; -300.000; -289.000
211.566;  -70.500; -536.000; -489.000
211.711;   12.400;  218.000;  157.000
211.856;  -62.825; -545.000; -519.000
212.001;   12.600;  151.000;   44.000
212.146;   28.000;  153.000;   49.000
212.291;  -16.050; -210.000; -186.000
212.436;  -30.900; -280.000;   -6.000
212.581;  -74.225; -685.000; -653.000
212.726;  -74.125; -487.000; -538.000
212.871;  -43.100; -552.000; -217.000
213.016; -163.125;-1172.000;-1029.000
213.161;   80.250;  406.000;  291.000
213.306;  -77.050; -435.000; -577.000
213.451;  -96.050; -778.000; -689.000
213.596;  -41.125; -455.000; -347.000
213.741;  -58.550; -448.000; -538.000
213.886;  -85.625; -498.000; -517.000
214.031;  -12.800; -294.000; -124.000
214.176;  -67.575; -408.000; -341.000
214.321;  -17.800; -296.000; -157.000
214.466;  -25.325; -163.000;  -43.000
214.611;    0.350;  -61.000;  -10.000
214.756; -117.925; -948.000; -858.000
214.901;  -18.975; -388.000; -226.000
215.046; -125.025; -797.000; -825.000
215.191;   11.875;  128.000;   35.000
215.336;  -27.000; -157.000;  -19.000
215.480;  -62.400; -684.000; -505.000
215.625;  -10.850; -175.000;  -19.000
215.770;  -93.100; -757.000; -662.000
215.915;  -12.525;   -5.000;  -97.000
216.060;   -5.775; -113.000;  -21.000
216.205; -103.350; -731.000; -779.000
216.349;  -67.700; -470.000; -533.000
216.494; -127.800; -939.000; -867.000
216.639; -120.650; -823.000; -888.000
216.784;  -81.175; -577.000; -525.000
216.929;   48.225;  392.000;  281.000
217.073;  -19.525; -244.000;  -31.000
217.218;    4.500;   78.000;  -47.000
217.363;  -95.625; -656.000; -618.000
217.507;  -85.400; -623.000; -588.000
217.652; -129.325; -845.000; -874.000
217.797;  -85.750; -708.000; -659.000
217.942; -104.025; -856.000; -720.000
218.086;   71.875;  608.000;  539.000
218.231;  -26.375; -174.000;  -26.000
218.376;  -31.575; -337.000; -229.000
218.520;    6.675;  -41.000;   96.000
218.665;  -28.000; -338.000; -204.000
218.810;  -50.925; -275.000; -233.000
218.954;    4.425;  201.000;   35.000
219.099; -120.575; -713.000; -963.000
219.243;  -65.950; -589.000; -554.000
219.388;  -30.450; -264.000; -136.000
219.532;   -4.800; -116.000; -116.000
219.677;  -84.825; -564.000; -521.000
219.822;   -8.325;   33.000;   89.000
219.966;    1.475;   17.000;  -99.000
220.111;  -40.350; -328.000;  -40.000
220.255;  -89.325; -797.000; -750.000
220.400;  -24.350; -180.000; -146.000
220.544;  -79.350; -516.000; -450.000
220.689;  -39.850; -422.000; -451.000
220.833;  -15.925; -123.000;  -58.000
220.978;  -41.050; -393.000; -563.000
221.122;   19.375;  319.000;  307.000
221.267; -117.825; -906.000; -837.000
221.411;  -72.875; -478.000; -394.000
221.555;  -10.675; -104.000;  -23.000
221.700;  -52.750; -329.000; -222.000
221.844;   36.400;  255.000;  272.000
221.989;  -47.300; -328.000; -311.000
222.133;  -32.625; -289.000; -307.000
222.277;  -11.575;    5.000;   78.000
222.422;   12.050;  227.000;  113.000
222.566;  -29.175; -381.000; -214.000
222.711;  -56.600; -414.000; -479.000
222.855;  -84.125; -643.000; -586.000
222.999;  -77.800; -642.000; -717.000
223.144;  -37.475; -195.000; -194.000
223.288;   56.600;  423.000;  251.000
223.432;   26.050;  184.000;  230.000
223.576;   15.350;  152.000;  -21.000
223.721;   48.550;  364.000;  273.000
223.865;  -60.700; -472.000; -475.000
224.009;  255.775; 1673.000; 1631.000
224.153;  -90.175; -660.000; -671.000
224.298;  -80.025; -531.000; -489.000
224.442;   -9.525;  -74.000;  -33.000
224.586;  -11.525; -169.000; -106.000
224.730; -102.375; -858.000; -670.000
224.875; -107.875; -739.000; -688.000
225.019;   16.600;  102.000;  188.000
225.163;   49.225;  208.000;  341.000
225.307;   23.500;   97.000;  -91.000
225.451;   49.125;  360.000;  481.000
225.595;   23.375;  264.000;  176.000
225.739;  -23.050; -170.000;  -94.000
225.884;   -6.350;   86.000;    5.000
226.028; -104.725; -760.000; -626.000
226.172;  -30.050; -260.000; -273.000
226.316; -125.175; -941.000; -902.000
226.460;  -68.150; -645.000; -493.000
226.604;  -60.450; -406.000; -400.000
226.748;  -96.100; -836.000; -733.000
226.892;  -41.150; -227.000; -181.000
227.036;  -42.775; -537.000; -447.000
227.180;  -55.275; -551.000; -375.000
227.324;  -69.650; -561.000; -580.000
227.468; -124.925; -819.000; -717.000
227.612;   16.025;  242.000;  -28.000
227.756;  -96.950; -845.000; -698.000
227.900;   35.575;  342.000;  441.000
228.044;  -58.500; -509.000; -290.000
228.188;   57.550;  448.000;  568.000
228.332;  -93.800; -546.000; -472.000
228.476;  -29.850; -223.000; -149.000
228.620;  -35.475; -210.000; -150.000
228.764;   68.025;  431.000;  349.000
228.908;  -34.200; -155.000;   30.000
229.052;  -77.000; -615.000; -528.000
229.195;  -19.850; -172.000;   13.000
229.339;  -36.625; -235.000; -305.000
229.483;  -28.425;    5.000; -162.000
229.627;    5.200; -156.000;  139.000
229.771;  -50.550; -218.000; -294.000
229.915;    7.850;  230.000;   79.000
230.059;  -93.950; -648.000; -663.000
230.202;  -27.200; -370.000; -317.000
230.346;  -24.875; -107.000;  107.000
230.490;  -66.925; -489.000; -521.000
230.634; -112.350; -736.000; -553.000
230.777;   76.425;  478.000;  509.000
230.921;  -55.500; -450.000; -359.000
231.065;  -29.025; -246.000; -286.000
231.209;   23.175;  261.000;  265.000
231.352;   12.475;   54.000;   40.000
231.496;   18.175;  568.000;  188.000
231.640;  -83.925; -693.000; -621.000
231.783;   64.925;  546.000;  525.000
231.927;  -40.000; -294.000; -365.000
232.071; -129.550; -962.000; -736.000
232.214; -116.750; -980.000; -764.000
232.358; -105.725; -683.000; -599.000
232.502;   -0.200;  -19.000;    7.000
232.645; -133.875;-1090.000; -927.000
232.789;  -24.825; -257.000; -218.000
232.933;  -41.825; -407.000; -224.000
233.076; -121.550;-1038.000; -897.000
233.220; -108.250; -752.000; -777.000
233.363;  -84.525; -669.000; -477.000
233.507;   43.825;  371.000;  129.000
233.650;  -88.850; -764.000; -834.000
233.794;   35.900;  438.000;  461.000
233.938;  -71.025; -530.000; -362.000
234.081;  -28.125;  -93.000;   31.000
234.225;  -70.650; -631.000; -539.000
234.368; -113.000; -773.000; -723.000
234.512;  -38.350; -385.000; -299.000
234.655;  -95.600; -582.000; -555.000
234.798;  -58.925; -493.000; -466.000
234.942; -141.700; -884.000;-1002.000
235.085;  -71.200; -651.000; -443.000
235.229;  -81.725; -405.000; -410.000
235.372;  -56.300; -247.000; -191.000
235.516;  -76.425; -397.000; -321.000
235.659;   26.625;   92.000;  121.000
235.802;  -14.425;  -38.000;  -22.000
235.946;   27.525;  335.000;  215.000
236.089;   21.875;  126.000;  250.000
236.233;   58.350;  275.000;  298.000
236.376;  -56.075; -235.000; -378.000
236.519;  -51.825; -297.000; -319.000
236.663;  -20.825; -215.000; -117.000
236.806; -127.725;-1029.000; -999.000
236.949;   61.725;  543.000;  431.000
237.092;   63.825;  412.000;  391.000
237.236;  -89.975; -589.000; -502.000
237.379;   59.175;  352.000;  428.000
237.522; -118.975; -879.000; -768.000
237.666;  -21.350; -271.000;   18.000
237.809; -133.000; -851.000; -823.000
237.952;   37.850;  469.000;  271.000
238.095;  -71.450; -447.000; -442.000
238.238;   88.025;  688.000;  700.000
238.382;    1.100;  166.000;  103.000
238.525;  -65.325; -598.000; -511.000
238.668; -135.975;-1060.000; -985.000
238.811;  -76.325; -638.000; -643.000
238.954;  -59.325; -483.000; -334.000
239.097;   88.825;  617.000;  664.000
239.241;   16.150;  394.000;  326.000
239.384;  -35.700; -254.000; -214.000
239.527;  -57.900; -424.000; -224.000
239.670; -152.725; -994.000;-1091.000
239.813; -113.525; -696.000; -658.000
239.956;   80.725;  579.000;  473.000
240.099; -116.700; -778.000; -725.000
240.242;   51.675;  428.000;  432.000
240.385;   43.150;  466.000;  450.000
240.528;  -67.775; -706.000; -473.000
240.671;   10.850;  189.000;  134.000
240.814;  -44.300; -441.000; -158.000
240.957; -103.125; -767.000; -578.000
241.100; -109.000; -779.000; -755.000
241.243; -144.400;-1234.000; -893.000
241.386;  -62.750; -508.000; -379.000
241.529;  -91.550; -735.000; -547.000
241.672;  -69.250; -566.000; -495.000
241.815; -132.450; -832.000; -808.000
241.958;  -27.750; -125.000; -182.000
242.101;  -81.950; -545.000; -390.000
242.244;  -30.675; -270.000; -325.000
242.387;  -44.325; -304.000; -246.000
242.530;   47.700;  470.000;  134.000
242.673;  -49.175; -381.000; -309.000
242.815; -129.350; -925.000; -899.000
242.958;  -76.475; -482.000; -381.000
243.101;   14.050;  132.000;  187.000
243.244; -100.625; -564.000; -521.000
243.387;  -56.775; -313.000; -316.000
243.530; -113.975; -657.000; -674.000
243.672;   -3.150;   43.000;  -92.000
243.815;  -53.125; -355.000; -283.000
243.958;   -4.675;   98.000;  -26.000
244.101;   -0.450;   59.000;  -16.000
244.243;   -3.175;  -47.000;  101.000
244.386; -105.200; -761.000; -630.000
244.529;  -23.200; -132.000; -139.000
244.672; -158.450;-1154.000; -951.000
244.814; -102.325; -621.000; -794.000
244.957;  -28.650; -380.000; -304.000
245.100;  -68.925; -489.000; -489.000
245.242;  -60.250; -387.000; -374.000
245.385;  -11.000;  -59.000;  -39.000
245.528; -128.325; -871.000; -705.000
245.670;   90.775;  612.000;  634.000
245.813;  -88.700; -599.000; -547.000
245.956;  -42.300; -324.000; -275.000
246.098;  -81.375; -508.000; -650.000
246.241;   -2.300;  194.000;   48.000
246.383;  -17.725; -119.000;  -73.000
246.526;  -76.625; -454.000; -525.000
246.669; -122.875; -889.000; -780.000
246.811;   21.850;  172.000;   -1.000
246.954;  -80.600; -512.000; -426.000
247.096;  -20.125;  -84.000;   -6.000
247.239;  -73.350; -482.000; -445.000
247.381;  -68.625; -647.000; -488.000
247.524;   77.225;  645.000;  679.000
247.666;   -7.475;   58.000;   11.000
247.809; -109.875; -887.000; -691.000
247.951;  -20.150;  -75.000;  138.000
248.094;   25.600;  432.000;  308.000
248.236; -154.750;-1262.000;-1238.000
248.378;    7.125; -356.000;  -81.000
248.521;  -19.375; -334.000; -337.000
248.663;  -55.500; -236.000; -267.000
248.806;  -16.450; -300.000; -266.000
248.948; -102.150; -886.000; -763.000
249.090;  -37.650; -428.000; -398.000
249.233;  -43.050; -344.000; -381.000
249.375;  -63.475; -474.000; -451.000
249.518;  -22.025;  -83.000; -133.000
249.660;   -1.075; -103.000;    3.000
249.802; -163.225;-1303.000;-1189.000
249.945;  -76.250; -612.000; -540.000
250.087; -115.775; -834.000; -768.000
250.229;  -45.025; -362.000; -480.000
250.371;  -71.600; -494.000; -439.000
250.514;  -51.850; -310.000; -244.000
250.656;   -8.200;   69.000;  102.000
250.798; -105.600; -849.000; -800.000
250.940;  -76.800; -322.000; -322.000
251.083;  -42.550; -335.000; -111.000
251.225;   58.325;  338.000;  310.000
251.367;  -35.950; -274.000; -373.000
251.509;  -44.625; -265.000; -210.000
251.651;  -93.400; -731.000; -671.000
251.794;   52.900;  538.000;  632.000
251.936; -108.650; -821.000; -747.000
252.078;  -82.275; -540.000; -461.000
252.220;  -76.225; -645.000; -477.000
252.362;   88.500;  344.000;  462.000
252.504;  -79.600; -677.000; -584.000
252.646; -122.925; -875.000; -722.000
252.788;   -8.050;   14.000; -128.000
252.931;  -37.900; -257.000; -253.000
253.073;  -46.400; -376.000; -317.000
253.215;   -1.400;  141.000;  122.000
253.357;  -11.475;   82.000; -153.000
253.499;  -66.400; -374.000; -234.000
253.641;  -82.800; -749.000; -594.000
253.783;  -76.775; -609.000; -527.000
253.925;  -92.825; -586.000; -591.000
254.067; -116.750; -744.000; -667.000
254.209;  -16.875; -391.000; -259.000
254.351; -139.725; -865.000; -883.000
254.493;  -63.075; -441.000; -417.000
254.635; -141.075; -936.000; -818.000
254.777;  -88.600; -752.000; -687.000
254.918;  -61.450; -512.000; -430.000
255.060;  -50.100; -551.000; -395.000
255.202;  -65.525; -473.000; -261.000
255.344;  -70.300; -658.000; -455.000
255.486;  -85.500; -471.000; -406.000
255.628;  -99.600; -780.000; -781.000
255.770;  -94.400; -676.000; -536.000
255.912;  -66.575; -559.000; -468.000
256.053;  -94.550; -730.000; -508.000
256.195;  156.700; 1008.000;  903.000
256.337; -115.400; -861.000; -595.000
256.479;   53.100;  532.000;  416.000
256.621;  -52.250; -394.000; -212.000
256.762;  -87.725; -789.000; -742.000
256.904;   49.950;  485.000;  487.000
257.046;  -36.900; -381.000; -271.000
257.188;  -48.600; -351.000; -264.000
257.329;  -71.725; -525.000; -464.000
257.471; -132.700; -939.000; -807.000
257.613;  -62.100; -584.000; -498.000
257.755; -153.050;-1073.000; -982.000
257.896;   28.550;  286.000;  392.000
258.038;  -64.625; -403.000; -352.000
258.180;  -35.850; -354.000; -279.000
258.321;  -87.825; -581.000; -457.000
258.463;  -13.525;  -71.000;  133.000
258.605;  -93.150; -562.000; -570.000
258.746; -111.000; -886.000; -772.000
258.888; -153.850;-1026.000;-1020.000
259.029;   19.250;  121.000;   -8.000
259.171; -107.350; -614.000; -550.000
259.313;    3.125;  -49.000;  -47.000
259.454;  -83.825; -536.000; -414.000
259.596;  -34.525; -483.000; -390.000
259.737;  -98.200; -590.000; -474.000
259.879;   43.200;  217.000;  311.000
260.020;  104.400;  901.000;  636.000
260.162;  -32.325; -146.000; -253.000
260.303; -116.125; -768.000; -687.000
260.445;  -78.850; -609.000; -613.000
260.586;   14.350;  392.000;  157.000
260.728;  -47.275; -360.000; -248.000
260.869; -111.275; -350.000; -343.000
261.011;   74.125;  706.000;  537.000
261.152;  -53.075; -479.000; -319.000
261.293;  -72.975; -576.000; -595.000
261.435;  -38.225; -219.000; -184.000
261.576;  -40.875; -455.000; -325.000
261.718;   46.600;  420.000;  470.000
261.859; -116.650; -940.000; -949.000
262.000; -128.775; -951.000;-1016.000
262.142;  -17.725;  -52.000;  -60.000
262.283; -120.350; -808.000; -691.000
262.424;  -85.500; -666.000; -625.000
262.566; -145.725;-1161.000; -983.000
262.707; -111.850; -840.000; -830.000
262.848; -125.275; -769.000; -726.000
262.990;  -41.950; -362.000; -345.000
263.131;   72.675;  650.000;  681.000
263.272;  -11.050;  -61.000;  -41.000
263.413;  -92.925; -589.000; -561.000
263.555;  -64.775; -669.000; -143.000
263.696;  -85.875; -550.000; -641.000
263.837;  -62.875; -449.000; -551.000
263.978;  -17.275;   -5.000;  -77.000
264.119;  -55.800; -283.000; -264.000
264.261; -110.350; -847.000; -630.000
264.402;  -12.625;   33.000;   40.000
264.543;  -80.700; -509.000; -524.000
264.684;   -3.225;   61.000;  -50.000
264.825;  -72.125; -816.000; -538.000
264.966;  -18.250;  -84.000;  -67.000
265.107; -125.550; -646.000; -670.000
265.248; -125.700; -825.000; -812.000
265.390;  -19.150;  152.000;   -9.000
265.531;  -15.400; -238.000; -107.000
265.672; -101.450; -557.000; -630.000
265.813;   70.025;  563.000;  439.000
265.954; -158.025; -959.000; -940.000
266.095;  -14.350; -372.000; -322.000
266.236;  -93.725; -686.000; -548.000
266.377;  -46.400; -243.000; -297.000
266.518;  -76.275; -619.000; -547.000
266.659;   36.425;  170.000;  268.000
266.800;    7.225;   83.000;   85.000
266.941;  -74.225; -487.000; -478.000
267.082;   -0.600;  354.000;   99.000
267.223;  -50.950; -344.000; -273.000
267.364; -115.275; -892.000; -686.000
267.504;   -5.875;    3.000;  135.000
267.645;  -11.100;  160.000;   67.000
267.786;  -48.150; -147.000;  -86.000
267.927;  -63.050; -473.000; -379.000
268.068;   -8.475; -186.000;  -61.000
268.209;  -55.975; -175.000; -413.000
268.350;  -55.500; -388.000; -532.000
268.490;  -97.000; -648.000; -521.000
268.631;   22.725;  127.000;  225.000
268.772; -116.950; -874.000; -647.000
268.913;  -44.550; -328.000; -476.000
269.054;  -17.825; -117.000;   12.000
269.194;  -59.775; -418.000; -402.000
269.335; -156.900;-1137.000;-1074.000
269.476;  -10.500;   33.000;  -35.000
269.617;  -49.925; -347.000; -392.000
269.757;  -92.625; -713.000; -646.000
269.898; -108.275; -856.000; -613.000
270.039;  -52.225; -415.000; -405.000
270.180; -127.775; -952.000; -816.000
270.320;  -19.150; -190.000; -250.000
270.461;  -50.500; -277.000; -249.000
270.602;  -12.350; -186.000; -156.000
270.742; -120.100; -868.000; -943.000
270.883;  -45.200; -442.000; -390.000
271.023;  -60.625; -358.000; -357.000
271.164;  -87.850; -607.000; -528.000
271.305; -100.375; -666.000; -654.000
271.445;  -96.475; -722.000; -683.000
271.586;  -58.625; -462.000; -283.000
271.726;  -42.375; -397.000; -322.000
271.867;  -52.550; -594.000; -534.000
272.008;  215.575; -473.000; -285.000
272.148;  155.600;  462.000;  468.000
272.289;    5.100; -113.000; -181.000
272.429;   19.200;   19.000;  185.000
272.570;  -83.650; -633.000; -737.000
272.710;  -88.500; -825.000; -775.000
272.851;  -20.450;  113.000; -130.000
272.991; -161.025;-1173.000;-1077.000
273.131;  -55.725; -419.000; -459.000
273.272;  -98.550; -683.000; -723.000
273.412;   26.300; -143.000;  -31.000
273.553;  -47.475; -488.000; -507.000
273.693;  136.900;  913.000;  858.000
273.834;  -77.800; -894.000; -692.000
273.974;  -66.875; -664.000; -615.000
274.114;  -83.925; -772.000; -560.000
274.255;   91.175;  414.000;  373.000
274.395;    7.975; -180.000; -125.000
274.535;   42.925;  199.000;  350.000
274.676;   21.475;  225.000;   94.000
274.816;   10.275;  110.000;   34.000
274.956;  -77.325; -624.000; -690.000
275.097;  -36.925;-1014.000; -922.000
275.237; -109.175; -913.000; -803.000
275.377;  -90.175; -778.000; -689.000
275.517; -143.575; -878.000; -937.000
275.658;  -39.775; -590.000; -555.000
275.798;  -66.950; -606.000; -413.000
275.938;   20.475;  215.000;  323.000
276.078; -114.925; -626.000; -395.000
276.218;    5.200;   99.000;  104.000
276.359; -138.650;-1026.000;-1024.000
276.499;  -56.850; -605.000; -446.000
276.639;  -32.700; -305.000; -151.000
276.779;  -45.125; -475.000; -357.000
276.919; -102.600; -783.000; -624.000
277.059;  -10.975; -261.000; -212.000
277.199;  -31.625; -357.000; -259.000
277.340;   46.900;  287.000;  175.000
277.480; -111.000; -840.000; -693.000
277.620;   32.525;  192.000;   16.000
277.760; -187.800;-1533.000;-1294.000
277.900;   17.175;  113.000;   33.000
278.040;   27.200;  137.000;  159.000
278.180;   46.075;  270.000;  170.000
278.320;   -9.700;   21.000;   56.000
278.460;  -61.325; -443.000; -469.000
278.600;  -82.050; -708.000; -598.000
278.740;   49.075;  448.000;  224.000
278.880;  -15.425; -768.000; -791.000
279.020;   13.925; -194.000; -144.000
279.160; -100.800; -672.000; -595.000
279.300; -104.175; -926.000; -873.000
279.440;  -87.025; -709.000; -622.000
279.579;  -15.800;-1014.000; -929.000
279.719;  -35.150; -410.000; -394.000
279.859;   79.050;   -4.000;   41.000
279.999;   31.100; -208.000;  101.000
280.139;   -6.550; -435.000; -387.000
280.279;  -74.600; -708.000; -745.000
280.419;  -24.575; -229.000; -147.000
280.559;  -24.425; -259.000; -180.000
280.698;  -69.275; -790.000; -639.000
280.838;  -80.600; -778.000; -800.000
280.978;  -85.650; -846.000; -790.000
281.118; -106.025; -811.000; -704.000
281.257;   26.450;   24.000;    6.000
281.397;  -98.075;-1094.000; -960.000
281.537;  -79.850; -599.000; -712.000
281.677;  -29.375; -150.000; -101.000
281.816;  -88.250; -700.000; -630.000
281.956;  -27.250; -193.000; -257.000
282.096;  -59.000; -539.000; -396.000
282.235; -105.775; -672.000; -638.000
282.375;    0.275; -243.000;  -98.000
282.515;  -98.850; -715.000; -707.000
282.654;   53.275;   29.000;  106.000
282.794;   13.325;  388.000;  244.000
282.934;  -48.650; -530.000; -491.000
283.073; -132.900;-1030.000; -857.000
283.213;  -47.025; -460.000; -467.000
283.353;  -21.000; -408.000; -349.000
283.492;  -30.200; -264.000; -296.000
283.632;  -43.075; -254.000; -168.000
283.771;  -92.250; -859.000; -730.000
283.911;  -40.225; -369.000; -260.000
284.050; -115.600; -794.000; -748.000
284.190; -162.350;-1229.000;-1096.000
284.329; -142.475;-1055.000; -964.000
284.469;  -35.725; -516.000; -591.000
284.608;  -34.350; -559.000; -598.000
284.748;  -79.575; -614.000; -570.000
284.887;    8.700;  -87.000;  -20.000
285.027; -123.000; -844.000; -892.000
285.166;  -45.050; -192.000; -249.000
285.306;   16.425; -116.000;  -33.000
285.445;  -41.800; -229.000; -343.000
285.584;  -86.850; -630.000; -494.000
285.724;  -44.125; -282.000; -322.000
285.863; -106.200; -857.000; -507.000
286.002;  -43.225; -366.000; -276.000
286.142; -101.475; -715.000; -622.000
286.281;  -65.075; -525.000; -493.000
286.420;  -79.000; -554.000; -417.000
286.560;   97.875;  653.000;  623.000
286.699; -129.050; -958.000; -912.000
286.838;  -78.825; -590.000; -591.000
286.978;  -85.775; -533.000; -537.000
287.117; -137.500;-1085.000; -950.000
287.256;  -33.100; -228.000; -211.000
287.395;  -42.225; -197.000; -378.000
287.535;  -38.675; -370.000; -298.000
287.674;  -72.125; -509.000; -484.000
287.813;   68.700;  661.000;  533.000
287.952; -126.200;-1010.000; -871.000
288.091; -147.350;-1049.000; -915.000
288.231;    8.100;   13.000;   15.000
288.370; -166.575;-1217.000;-1200.000
288.509;  -85.875; -728.000; -645.000
288.648;  -90.400; -770.000; -548.000
288.787;  -19.175; -243.000;  -87.000
288.926;  -51.450; -454.000; -475.000
289.065;  102.750;  859.000;  672.000
289.204;  -49.750; -377.000; -217.000
289.344;  -84.650; -791.000; -690.000
289.483;   30.775;  416.000;  304.000
289.622;  -20.325; -291.000; -149.000
289.761;   -6.625; -309.000; -166.000
289.900; -104.050; -785.000; -626.000
290.039;  -12.200;  -12.000;  -95.000
290.178;  -28.175; -274.000; -180.000
290.317;  -75.075; -618.000; -479.000
290.456;  -49.625; -463.000; -451.000
290.595; -144.375; -961.000; -833.000
290.734; -141.650; -904.000; -891.000
290.873;  -58.825; -456.000; -420.000
291.011; -114.000; -833.000; -843.000
291.150;  -95.075; -770.000; -682.000
291.289;  -22.525; -343.000; -110.000
291.428; -107.525; -599.000; -480.000
291.567;  -52.400; -370.000; -442.000
291.706;   -2.750;  109.000;  154.000
291.845;  -70.825; -597.000; -505.000
291.984; -158.875;-1234.000;-1061.000
292.122;   69.275;  602.000;  582.000
292.261;   40.325;  620.000;  463.000
292.400;    5.125; -144.000;  211.000
292.539; -122.375; -959.000; -813.000
292.678;  -33.650; -325.000; -300.000
292.816; -156.825;-1136.000; -965.000
292.955;  -87.350; -844.000; -684.000
293.094;  -25.975; -173.000; -337.000
293.233;  -50.325; -556.000; -400.000
293.371;  -27.925; -225.000;  -84.000
293.510; -100.000; -866.000; -780.000
293.649; -117.900; -959.000; -924.000
293.787;  -39.550;-1083.000;-1012.000
293.926;    9.050; -113.000;  -32.000
294.065;  -41.550; -379.000; -290.000
294.203;   70.775;  298.000;  406.000
294.342;   39.525;   74.000;  156.000
294.481; 6433.275;51180.000; -836.000
294.619;  -18.050; -425.000; -582.000
294.758; -142.025;-1230.000;-1137.000
294.896;  105.275; -125.000;    5.000
295.035; -118.275;-1040.000;-1006.000
295.174; -107.450;-1082.000; -954.000
295.312;  -34.500; -323.000; -203.000
295.451;    5.275; -307.000; -428.000
295.589;  -50.200; -389.000; -518.000
295.728;   30.000; -292.000; -165.000
295.866;    9.850;  -36.000;  -51.000
296.005;  -46.000; -584.000; -341.000
296.143;  -56.725; -558.000; -596.000
296.282;  -88.225; -957.000; -881.000
296.420;  -79.075; -657.000; -557.000
296.559;  -58.000; -892.000; -633.000
296.697;   79.675; -847.000; -665.000
296.835;  140.050;-1141.000;-1002.000
296.974;   50.150;  -23.000;   39.000
297.112;   51.475; -443.000; -504.000
297.251;  -68.875; -815.000; -755.000
297.389;  155.950; -576.000; -438.000
297.527;   58.275; -145.000;  -83.000
297.666;  -43.400; -486.000; -438.000
297.804;  -52.050; -404.000; -264.000
297.942;   -0.275; -136.000; -161.000
298.081;   -1.825; -183.000;   63.000
298.219;   90.400;  -17.000;  -19.000
298.357;   82.825; -144.000;  -71.000
298.495;   80.375; -810.000; -812.000
298.634;  116.900;  245.000;  219.000
298.772;  107.475; -220.000; -338.000
298.910;  -30.225; -309.000; -182.000
299.048;   -1.875; -130.000; -153.000
299.187;  -23.975; -350.000; -250.000
299.325;   35.350;   52.000;  122.000
299.463;   90.875; -389.000; -299.000
299.601;  161.800; -327.000; -271.000
299.739;  -93.250; -908.000; -883.000
299.877;  -63.100; -791.000; -703.000
300.016;  -28.750;-1095.000; -935.000
300.154;  223.825;  -19.000; -161.000
300.292;  109.325; -428.000; -348.000
300.430;   70.175; -408.000; -291.000
300.568;  -90.650; -940.000; -874.000
300.706;  -35.250; -366.000; -469.000
300.844;  -54.050;-1108.000; -979.000
300.982;  140.275;  246.000;  282.000
301.120; -104.775; -965.000; -866.000
301.258;  -36.325; -812.000; -705.000
301.396;   56.950;  104.000;  -41.000
301.534;  148.225; -218.000; -293.000
301.672;   40.000; -664.000; -521.000
301.810;   90.825; -613.000; -545.000
301.948;  180.900;   53.000;  149.000
302.086;  824.900; -250.000;  -32.000
302.224; 1267.150; -610.000; -585.000
302.362;   85.050; -558.000; -622.000
302.500;   28.400; -923.000; -893.000
302.638;  157.200;  128.000;  245.000
302.776;   -7.500; -352.000; -408.000
302.913;   54.150;  447.000;  236.000
303.051;   13.350;  -86.000;  -23.000
303.189;   87.000;   90.000;  118.000
303.327;  -23.775; -341.000; -256.000
303.465;  -66.750; -832.000; -588.000
303.603;  -76.425; -805.000; -604.000
303.740;  130.500;  417.000;  241.000
303.878;   56.375; -800.000; -759.000
304.016;  -76.350; -915.000; -790.000
304.154; -114.525;-1123.000;-1152.000
304.291;  -29.850; -505.000; -554.000
304.429;   10.425;  102.000;   74.000
304.567; -102.875; -908.000; -893.000
304.705;  -34.575; -408.000; -515.000
304.842;  147.150; -616.000; -540.000
304.980;   89.275;  215.000;   35.000
305.118;   86.575; -367.000; -365.000
305.255;  -43.525; -945.000; -927.000
305.393;   70.625;  178.000;  239.000
305.531;  -89.250;-1173.000; -956.000
305.668;  -61.075; -663.000; -582.000
305.806;  135.300; -358.000; -439.000
305.943;  160.025; -629.000; -637.000
306.081;   84.400; -378.000; -267.000
306.219;  -96.125; -863.000; -748.000
306.356;   -7.175;  158.000;   27.000
306.494;  106.325;  981.000;  761.000
306.631;    0.225;  -11.000;  -55.000
306.769;   32.050; -613.000; -485.000
306.906;  -18.675; -284.000; -258.000
307.044;  -56.050; -473.000; -488.000
307.181;  -63.275; -410.000; -332.000
307.319;    7.300;  112.000;   87.000
307.456; -171.225;-1191.000;-1153.000
307.594;  -83.475; -980.000; -727.000
307.731;   -9.625; -371.000; -164.000
307.868;    3.450;  -15.000;   20.000
308.006; -127.500; -961.000; -847.000
308.143;  -54.425; -618.000; -330.000
308.281;  193.675;  -37.000; -254.000
308.418;    0.775; -748.000; -640.000
308.555;  -68.075; -400.000; -250.000
308.693;  -68.875; -577.000; -573.000
308.830; -103.975; -712.000; -657.000
308.967;  -19.750; -215.000;  -95.000
309.105;  -49.425; -507.000; -396.000
309.242;   55.800; -468.000; -367.000
309.379;  378.250; -577.000; -655.000
309.517;  -47.900; -936.000; -948.000
309.654;  -94.500; -910.000; -734.000
309.791;  -61.200; -662.000; -580.000
309.928; -108.750; -977.000; -914.000
310.065;  203.100;  819.000;  697.000
310.203;   27.525; -825.000; -850.000
310.340;   30.550; -465.000; -321.000
310.477;  -63.725; -412.000; -516.000
310.614;  -70.775; -383.000; -473.000
310.751;  -74.125; -427.000; -518.000
310.889;  -22.850;    1.000;   11.000
311.026; -153.975;-1161.000; -939.000
311.163;  -43.525; -386.000; -380.000
311.300;  -62.275; -512.000; -479.000
311.437;  -79.650; -658.000; -619.000
311.574; -165.200;-1226.000; -985.000
311.711;  -47.475; -595.000; -433.000
311.848;  -38.900; -380.000; -388.000
311.985;   20.950;  270.000;   93.000
312.122; -128.800; -932.000; -762.000
312.259; -114.250; -941.000; -994.000
312.396;  -78.200; -508.000; -551.000
312.533;  -77.050; -812.000; -790.000
312.670; -125.750;-1070.000; -898.000
312.807;  -26.275; -352.000; -367.000
312.944;  -75.550; -513.000; -611.000
313.081;  -11.775; -150.000; -415.000
313.218; -103.025;-1111.000; -867.000
313.355;   29.525; -531.000; -449.000
313.492;   28.825; -455.000; -292.000
313.629;  164.075;  815.000;  735.000
313.766; -153.125;-1176.000;-1008.000
313.902;   -2.150; -186.000;   21.000
314.039;  -39.900; -372.000; -289.000
314.176;   37.925;  286.000;  192.000
314.313;  -76.025; -569.000; -473.000
314.450;  -54.650; -788.000; -684.000
314.587;  -52.875; -468.000; -480.000
314.723;   14.025;  -78.000;  130.000
314.860;   48.850;  318.000;  332.000
314.997;   44.525;  223.000;  142.000
315.134;  -40.425; -385.000; -368.000
315.270;  -15.275; -480.000; -496.000
315.407; -117.750;-1094.000; -967.000
315.544;  -37.625; -657.000; -538.000
315.681;  -53.700; -681.000; -565.000
315.817;   43.200; -133.000; -176.000
315.954;   33.400; -613.000; -392.000
316.091; -111.800;-1045.000;-1023.000
316.227;  -38.850;  -71.000; -179.000
316.364;    4.700;   23.000;    6.000
316.500;  -48.800; -113.000; -300.000
316.637;  -38.525; -181.000; -302.000
316.774;  -90.700; -625.000; -358.000
316.910;  -96.250; -598.000; -629.000
317.047;  -55.325; -487.000; -351.000
317.183;  -38.175; -435.000; -566.000
317.320;  -35.075; -367.000; -321.000
317.456;  -72.825; -733.000; -805.000
317.593;  -96.450; -598.000; -641.000
317.729;    6.825;  168.000;  -67.000
317.866; -199.850;-1434.000;-1285.000
318.002;  -65.925; -708.000; -948.000
318.139;  -70.350; -883.000; -867.000
318.275;  -97.800;-1003.000; -738.000
318.412;  -59.025; -517.000; -336.000
318.548;   10.425; -751.000; -720.000
318.685;  -95.275; -985.000; -888.000
318.821;  -92.125; -762.000; -735.000
318.957;  -17.725;   34.000;  -23.000
319.094;   49.425;  297.000;  154.000
319.230;  -31.200; -756.000; -742.000
319.367;  206.075; -471.000; -520.000
319.503;   77.050; -538.000; -436.000
319.639;  -94.800; -877.000; -793.000
319.775;  -57.200; -750.000; -685.000
319.912;  -35.275; -424.000; -519.000
320.048;  -71.750;-1184.000;-1184.000
320.184;   62.850;   59.000;   70.000
320.321;  -65.325; -497.000; -467.000
320.457;   71.125;  475.000;  662.000
320.593;  -74.825; -375.000; -382.000
320.729; -104.425; -732.000; -734.000
320.866;  -84.375; -577.000; -635.000
321.002;  -65.150; -759.000; -809.000
321.138;   -7.225; -135.000; -211.000
321.274;   80.625; -148.000; -115.000
321.410;  -13.650; -585.000; -353.000
321.546;   20.650;-1011.000; -911.000
321.683;   60.425;  400.000;  185.000
321.819;   27.075;  -48.000; -117.000
321.955;  -94.700; -743.000; -722.000
322.091;  -32.325; -585.000; -540.000
322.227;    5.925; -382.000; -202.000
322.363;  -18.475; -320.000; -215.000
322.499;  -45.475; -343.000; -331.000
322.635;  193.625;  636.000;  443.000
322.771;   40.175; -139.000;   12.000
322.907;  104.850;  129.000;  327.000
323.043;  -18.800; -115.000; -206.000
323.179;  -15.225; -394.000; -363.000
323.315;   72.350; -401.000; -371.000
323.451;  170.800; -328.000; -236.000
323.587;   84.675;  -60.000;  -77.000
323.723;   49.675; -682.000; -601.000
323.859;   -5.800; -258.000;  -76.000
323.995;  -20.700; -467.000; -409.000
324.131; -129.000; -967.000; -892.000
324.267;  -28.225; -254.000; -276.000
324.402; -128.550; -960.000; -983.000
324.538;    0.800; -279.000; -104.000
324.674;   38.550;  164.000;   77.000
324.810;  208.150;  226.000;  308.000
324.946;   50.050; -810.000; -658.000
325.082;  -70.775; -568.000; -475.000
325.217;   -4.800;  -62.000;   16.000
325.353;  -86.400; -764.000; -659.000
325.489;  -82.350; -540.000; -506.000
325.625;  -62.975; -579.000; -525.000
325.760;   49.850;  517.000;  376.000
325.896;  -35.050; -515.000; -702.000
326.032;  -52.475; -403.000; -352.000
326.168;  -57.225; -462.000; -369.000
326.303;  -54.100; -352.000; -461.000
326.439;  -18.025; -336.000; -276.000
326.575;   17.500; -190.000;  -29.000
326.710;    5.650; -156.000;  -30.000
326.846;    6.450;  146.000;  103.000
326.982;  -97.700; -530.000; -548.000
327.117;  -74.925; -481.000; -442.000
327.253;  -80.100; -745.000; -742.000
327.388; -150.650;-1137.000;-1153.000
327.524;   -3.575; -811.000; -578.000
327.659;  -15.375;  -58.000;  -22.000
327.795;  -10.575;   69.000;   45.000
327.931;  -75.550; -723.000; -499.000
328.066;  -11.650; -417.000; -276.000
328.202;  -25.100;   12.000; -129.000
328.337;   98.625;  957.000;  713.000
328.473;   34.525;  -12.000;  -74.000
328.608;  -16.100; -256.000; -267.000
328.743;  -64.550; -799.000; -664.000
328.879;   32.575;  214.000;  114.000
329.014;  -26.950; -102.000; -122.000
329.150;  -76.850; -358.000; -483.000
329.285;  -64.100; -465.000; -466.000
329.421;  -51.875; -548.000; -246.000
329.556;  -19.325;  -36.000;   85.000
329.691;  -83.625; -633.000; -615.000
329.827;  -75.325; -626.000; -480.000
329.962;  -31.825;  131.000; -301.000
330.097;  -89.875; -673.000; -585.000
330.233;  -47.975; -410.000; -223.000
330.368; -123.500; -839.000; -628.000
330.503;  -26.675;    3.000;   98.000
330.638;   28.075;  -93.000; -125.000
330.774;  -20.000; -609.000; -530.000
330.909;  -33.625; -434.000; -244.000
331.044;  -86.400; -714.000; -708.000
331.179; -166.475;-1217.000;-1109.000
331.315;    9.650;   77.000;   20.000
331.450;   23.025;  157.000;  285.000
331.585;  -60.375; -805.000; -706.000
331.720;  -90.475; -510.000; -460.000
331.855;   -7.925;  -35.000; -102.000
331.990;  183.450;   62.000;  138.000
332.126;   93.375; -110.000;   71.000
332.261;  -33.025; -379.000; -265.000
332.396;    0.800; -135.000; -242.000
332.531; -106.425;-1074.000;-1031.000
332.666;   21.300; -519.000; -363.000
332.801;  -96.800; -726.000; -807.000
332.936;  -10.625; -192.000; -122.000
333.071; -126.250; -870.000; -817.000
333.206;   17.175;  307.000;  379.000
333.341;   33.775;  344.000;  418.000
333.476;  -80.375; -627.000; -623.000
333.611;  -26.050; -251.000; -173.000
333.746;  -29.675; -381.000; -464.000
333.881;  -93.200; -973.000; -935.000
334.016; -109.400; -936.000; -917.000
334.151; -103.625; -746.000; -702.000
334.286;   53.650;  152.000;  186.000
334.421;  -11.175; -125.000; -178.000
334.556;  -57.675; -611.000; -567.000
334.690;  -77.325; -631.000; -577.000
334.825;   82.375;  381.000;   83.000
334.960;  -31.825; -285.000; -413.000
335.095;   26.675;  135.000;  -91.000
335.230;  -96.900; -722.000; -738.000
335.365; -102.125;-1084.000; -990.000
335.499; -118.050;-1108.000;-1037.000
335.634;   32.500;    9.000;  534.000
335.769;  -94.300; -755.000; -720.000
335.904;  -41.075; -603.000; -561.000
336.038;  -36.900; -735.000; -657.000
336.173;  -80.200;-1206.000;-1194.000
336.308;   31.850; -116.000; -189.000
336.443;   28.550; -544.000; -634.000
336.577;  -57.075; -936.000; -787.000
336.712;  100.225;   -4.000;  -12.000
336.847;   -3.475; -724.000; -607.000
336.981;  135.525; -272.000; -208.000
337.116;  356.900;  615.000;  501.000
337.250;  233.625; -434.000; -421.000
337.385;  165.325; -297.000; -208.000
337.520;   29.625; -632.000; -603.000
337.654;  -34.075; -215.000; -126.000
337.789; -115.575; -989.000; -933.000
337.923;  -31.800; -104.000; -205.000
338.058;  -75.175; -673.000; -738.000
338.192;  -17.425; -611.000; -488.000
338.327;    2.325;  -18.000; -155.000
338.461;  -50.875; -299.000; -469.000
338.596;  -74.975; -780.000; -638.000
338.730; -103.025; -767.000; -803.000
338.865;   53.900;  -46.000; -140.000
338.999;  -69.700; -846.000; -702.000
339.134;  -34.775; -634.000; -536.000
339.268;   19.125; -741.000; -603.000
339.403;  301.625; -740.000; -775.000
339.537;   53.675; -894.000; -820.000
339.671; -112.800; -829.000; -813.000
339.806;  -75.725; -556.000; -512.000
339.940;    3.575; -261.000; -235.000
340.074;  -94.325; -685.000; -510.000
340.209;  -30.525; -351.000; -230.000
340.343;  -92.900; -517.000; -573.000
340.477;  161.650;  998.000; 1036.000
340.612;  -69.150;-1033.000; -900.000
340.746;  104.125; -199.000; -243.000
340.880;  -45.475; -924.000; -785.000
341.014;   -3.575;  -45.000; -154.000
341.149; -107.250; -756.000; -718.000
341.283;  -93.300; -839.000; -754.000
341.417;  -61.400;-1124.000; -938.000
341.551;  238.975; -768.000; -708.000
341.685;  -19.150; -633.000; -611.000
341.820;  -34.700; -562.000; -493.000
341.954;  -51.425; -218.000; -349.000
342.088; -149.875;-1102.000;-1019.000
342.222;   41.625;  565.000;  618.000
342.356;  -45.350; -395.000; -335.000
342.490;  -70.100; -880.000; -841.000
342.624;  -43.450; -339.000; -242.000
342.758;   37.600; -364.000; -312.000
342.892;  -44.175; -710.000; -585.000
343.026;  -43.425;  -58.000; -116.000
343.160;  -52.275; -426.000; -376.000
343.294;  -78.525; -474.000; -337.000
343.428;   14.050; -488.000; -448.000
343.562;   -1.775; -172.000;  -23.000
343.696;  -10.950; -385.000; -314.000
343.830;    7.975; -362.000; -356.000
343.964;   36.650; -231.000; -168.000
344.098; 1285.575;  199.000;   70.000
344.232; 1072.450; -266.000; -127.000
344.366;  101.525; -567.000; -453.000
344.500;  141.600; -665.000; -744.000
344.634;   54.050; -324.000; -164.000
344.768;   10.925; -531.000; -341.000
344.902;   32.150;  278.000;  256.000
345.035;  -77.400; -556.000; -496.000
345.169; -135.425; -933.000; -656.000
345.303;  -10.250; -308.000; -482.000
345.437;  -45.675; -826.000; -717.000
345.571;  -60.150; -675.000; -594.000
345.704;  -80.200; -309.000; -532.000
345.838;   -1.500; -331.000; -284.000
345.972;  -11.175; -543.000; -495.000
346.106;  146.500; -179.000; -190.000
346.239;  422.000; -312.000; -243.000
346.373;   20.700; -343.000; -302.000
346.507; -135.100; -950.000; -962.000
346.640;  222.850;  -30.000;   13.000
346.774;  -13.775; -650.000; -797.000
346.908;   -3.550; -138.000;  -11.000
347.041;  -84.025; -646.000; -593.000
347.175;   11.100;  259.000;   27.000
347.309;  -59.375; -698.000; -628.000
347.442;  -71.500; -883.000; -732.000
347.576;  353.950;  670.000;  668.000
347.709;  276.275; -123.000;  -52.000
347.843;  -61.700; -933.000; -825.000
347.976;   48.975;  235.000;  294.000
348.110; -172.600;-1268.000;-1186.000
348.243;  -92.425; -679.000; -772.000
348.377;   -7.475;  -26.000;   60.000
348.510;   61.250;  403.000;  540.000
348.644;  -22.550;  -37.000; -159.000
348.777;   10.800;  180.000;  191.000
348.911;  -45.925; -142.000; -112.000
349.044;  215.025;  471.000;  448.000
349.178;  280.950;-1069.000;-1006.000
349.311;  135.650;  141.000;  255.000
349.444;  -29.300; -927.000; -813.000
349.578;   -4.275; -347.000; -200.000
349.711;  -76.675; -959.000; -862.000
349.845;   35.225; -661.000; -591.000
349.978; -133.225;-1224.000;-1137.000
350.111;  -74.500; -546.000; -612.000
350.244;  -66.075; -596.000; -700.000
350.378;   40.200; -392.000; -393.000
350.511;  -62.450; -393.000; -426.000
350.644; -103.625; -808.000; -806.000
350.778;   15.900;  168.000;  104.000
350.911;    7.400;  134.000;  140.000
351.044;  -68.725; -685.000; -615.000
351.177;   -8.000; -321.000; -281.000
351.310;  -31.050;    3.000; -131.000
351.444;  -34.775; -888.000; -788.000
351.577;  171.675;  140.000;   90.000
351.710;  104.950;  593.000;  417.000
351.843;  -31.125; -165.000;  -77.000
351.976;    9.900;  149.000;  -79.000
352.109;  -79.000; -621.000; -612.000
352.242;    5.100; -464.000; -419.000
352.376;  -37.825; -580.000; -636.000
352.509;  274.400; -437.000; -356.000
352.642;   73.125; -654.000; -604.000
352.775;  107.650; -141.000;  -98.000
352.908; -110.050; -933.000; -904.000
353.041;  -80.150; -814.000; -824.000
353.174;  -56.850; -551.000; -424.000
353.307;  -66.050; -753.000; -764.000
353.440;   89.400;  541.000;  453.000
353.573;  -93.075; -957.000;-1008.000
353.706;  -41.200; -384.000; -558.000
353.839;   -8.675; -264.000; -220.000
353.971; -105.650; -657.000; -512.000
354.104;  -59.125; -896.000; -835.000
354.237;   -5.300; -627.000; -662.000
354.370;  -69.975; -846.000; -879.000
354.503; -162.225;-1231.000;-1308.000
354.636;  -26.425; -529.000; -348.000
354.769; -109.100; -937.000; -860.000
354.902;    5.850; -230.000; -139.000
355.034;  -12.550; -164.000; -220.000
355.167;  -15.150; -262.000; -162.000
355.300;  -93.625;-1061.000; -880.000
355.433;  785.175;  -71.000;  -14.000
355.565; 1181.225; -402.000; -384.000
355.698;  305.550; -356.000; -296.000
355.831;   22.850; -882.000; -801.000
355.964;  152.800; -285.000; -170.000
356.096;  -59.850; -856.000; -843.000
356.229;   49.325; -523.000; -530.000
356.362;  233.300; -373.000; -266.000
356.494;  461.400; -229.000; -162.000
356.627;  603.900;  269.000;  377.000
356.760;  587.250;  120.000;   53.000
356.892;  733.075; -286.000; -601.000
357.025;  853.650;  403.000;  389.000
357.157;  831.175; -167.000; -179.000
357.290;  483.150; -856.000; -713.000
357.423;  154.600; -667.000; -556.000
357.555;  163.650; -217.000; -228.000
357.688;  174.675; -483.000; -364.000
357.820;  599.600; -870.000; -877.000
357.953; 4468.575; -563.000; -589.000
358.085; 1100.875; -632.000; -612.000
358.218; 1835.225;-1131.000; -932.000
358.350;  337.200;  -58.000;  312.000
358.483;  -99.925;-1300.000;-1187.000
358.615;   64.700;-1182.000;-1078.000
358.747;   -7.025;-1187.000;-1058.000
358.880;   87.250; -810.000; -744.000
359.012;   19.500; -376.000; -202.000
359.145;   -7.500; -480.000; -511.000
359.277;  101.650; -962.000; -913.000
359.409; 3784.725;  536.000;  231.000
359.542; 1043.325; -738.000; -688.000
359.674;  108.225;   46.000;   13.000
359.806;  -48.625; -565.000; -438.000
359.939;  -34.425; -617.000; -516.000
360.071;  -36.125; -583.000; -579.000
360.203;   -9.550; -411.000; -364.000
360.335;   66.000;  164.000;  -16.000
360.468;  239.350; -249.000; -307.000
360.600; 2914.375; -547.000; -454.000
360.732; 2211.525; -546.000; -423.000
360.864;  315.575;-1216.000;-1044.000
360.996;  426.675; -516.000; -554.000
361.129;   94.525; -389.000; -598.000
361.261;   29.900;  110.000; -113.000
361.393;  -11.050; -252.000; -214.000
361.525;   38.750;   94.000;  244.000
361.657;  -13.475; -821.000; -703.000
361.789;   39.000; -139.000; -155.000
361.921;  388.050; -642.000; -593.000
362.053;  370.000;  524.000;  541.000
362.185;   82.950;  288.000;   72.000
362.318;  -55.100; -709.000; -705.000
362.450;  203.175;  294.000;  444.000
362.582;  311.850; -913.000; -870.000
362.714;   -6.100; -353.000; -332.000
362.846;  -60.775; -606.000; -490.000
362.978; -134.100; -941.000; -811.000
363.109;   92.750; -161.000; -260.000
363.241;  627.825; -739.000; -749.000
363.373;  380.200; -649.000; -564.000
363.505;  492.225; -186.000;  -91.000
363.637;  137.400; -787.000; -601.000
363.769; -106.725;-1067.000;-1080.000
363.901;  -53.575; -596.000; -654.000
364.033;  -94.650;-1103.000;-1062.000
364.165;   20.500; -283.000; -283.000
364.296;   68.075; -316.000; -177.000
364.428;   11.400;-1344.000;-1220.000
364.560;  -68.075; -679.000; -661.000
364.692;  -42.675; -738.000; -835.000
364.824;  414.400; -588.000; -456.000
364.955;  433.900; -402.000; -564.000
365.087;  559.250;-1097.000; -852.000
365.219;    9.275; -686.000; -816.000
365.351;  -55.675; -526.000; -572.000
365.482;   59.675;  300.000;  240.000
365.614;  -48.300; -402.000; -314.000
365.746;  -98.075; -729.000; -752.000
365.877; -103.100; -706.000; -672.000
366.009;  182.425;  -35.000;  -62.000
366.141; -111.300;-1249.000;-1134.000
366.272; -105.275; -803.000; -719.000
366.404; -109.225;-1005.000; -874.000
366.535;  -10.850; -139.000;  -12.000
366.667;  -90.225; -644.000; -649.000
366.799;   51.525;  353.000;  203.000
366.930;  -98.200; -862.000; -996.000
367.062;  115.000; -639.000; -613.000
367.193;   78.700; -872.000; -842.000
367.325;  -61.775; -580.000; -684.000
367.456;  137.375; -246.000;   31.000
367.588;  142.625; -371.000; -318.000
367.719;   29.400;  -44.000;  -45.000
367.851;   21.700; -222.000; -241.000
367.982;  -18.675; -875.000; -732.000
368.113;  187.000; -475.000; -358.000
368.245;  -96.925; -960.000; -841.000
368.376;   -5.500; -254.000; -302.000
368.508;   -8.725; -188.000; -263.000
368.639; -121.625;-1166.000;-1034.000
368.770;   13.475; -670.000; -589.000
368.902;  -33.450; -836.000; -926.000
369.033; -103.425; -906.000; -855.000
369.164;  -49.950; -720.000; -653.000
369.296;  -99.950; -452.000; -601.000
369.427;   28.925; -209.000; -144.000
369.558;  -26.950; -593.000; -377.000
369.689;  -89.525; -721.000; -569.000
369.821; -130.300; -951.000; -845.000
369.952;   -6.750;   42.000; -108.000
370.083;  -45.025; -229.000; -108.000
370.214;  -75.850; -735.000; -650.000
370.345;   -5.275;   65.000;   81.000
370.477;  -63.600; -810.000; -790.000
370.608;  356.775; -328.000; -264.000
370.739;    2.700;-1233.000;-1292.000
370.870;    7.000;-1102.000; -923.000
371.001;  166.275; -378.000; -467.000
371.132;  -62.975; -754.000; -735.000
371.263;  -17.000;  -42.000; -148.000
371.394; -136.525; -841.000; -748.000
371.525;   29.025;  345.000;  225.000
371.657;  -72.475; -808.000; -670.000
371.788;   87.400;  103.000;  199.000
371.919;  251.450; -384.000; -304.000
372.050; 4826.700;  -91.000; -156.000
372.181; 1456.600; -188.000; -294.000
372.311;  529.975;   42.000; -127.000
372.442;   89.600; -457.000; -451.000
372.573;    2.900; -444.000; -340.000
372.704;  -99.975;-1008.000; -980.000
372.835;  147.125; -228.000; -289.000
372.966;  -52.600; -646.000; -554.000
373.097;  -40.625; -575.000; -711.000
373.228;   -3.075; -717.000; -542.000
373.359;  246.050; -824.000; -536.000
373.490; 1342.875; -881.000; -727.000
373.620; 1693.500;-1001.000; -803.000
373.751; 2550.600; -332.000; -396.000
373.882; 1161.425; -663.000; -733.000
374.013;  144.575; -449.000; -262.000
374.143;  -15.775; -581.000; -659.000
374.274;  -82.550; -987.000; -908.000
374.405;  248.825; -388.000; -276.000
374.536;  660.475; -526.000; -387.000
374.666; 1653.250; -759.000; -807.000
374.797;  379.875; -817.000; -868.000
374.928; 1303.150; -710.000; -560.000
375.058; 1285.050; -535.000; -500.000
375.189;  133.350;  -59.000;  -93.000
375.320;  -78.300; -928.000;-1034.000
375.450;  -21.925; -625.000; -616.000
375.581;  -31.500; -526.000; -436.000
375.712;  -12.900; -574.000; -250.000
375.842;  473.050; -438.000; -415.000
375.973;  336.425; -554.000; -513.000
376.103;   16.600; -665.000; -648.000
376.234;  -72.175; -531.000; -552.000
376.364;    0.550; -944.000; -867.000
376.495;  416.900;  925.000;  529.000
376.625;   60.600; -472.000; -485.000
376.756;  147.275; -709.000; -678.000
376.886;  -35.875;-1178.000;-1026.000
377.017;    7.850;-1048.000;-1061.000
377.147;  232.075; -786.000; -782.000
377.278;   58.875;  174.000;  228.000
377.408; -124.000; -801.000; -815.000
377.538; -101.525; -707.000; -693.000
377.669;  -78.150; -537.000; -613.000
377.799;  -66.500; -645.000; -635.000
377.929;  -26.900; -610.000; -428.000
378.060; -112.000; -781.000; -847.000
378.190;  -44.750; -726.000; -531.000
378.320;  -47.550; -401.000; -406.000
378.451;    2.950; -131.000;  -22.000
378.581;   17.025;  -67.000; -110.000
378.711;  188.325; 1035.000;  866.000
378.841;   28.950; -533.000; -675.000
378.972;  -36.700; -871.000; -751.000
379.102;   37.450; -652.000; -579.000
379.232;   -6.025; -126.000;  -73.000
379.362;  -92.225;-1001.000; -885.000
379.492;   60.325; -373.000; -424.000
379.623;  146.350;    0.000;  111.000
379.753;  -61.675;-1107.000; -974.000
379.883;  280.175;   59.000;  156.000
380.013;   52.550;-1081.000;-1017.000
380.143;  -81.725;-1097.000;-1056.000
380.273;  -81.600; -985.000; -861.000
380.403;   19.275; -344.000; -257.000
380.533;    7.075; -651.000; -664.000
380.663;  119.575;  173.000;  128.000
380.793;  -53.675;-1027.000;-1074.000
380.923;    4.875; -103.000;  -34.000
381.053;  -74.750; -613.000; -623.000
381.183;  -10.775; -106.000; -248.000
381.313;   83.250; -656.000; -470.000
381.443;   94.300; -692.000; -473.000
381.573;  328.625; -402.000; -409.000
381.703;  497.325;-1249.000;-1095.000
381.833;  -84.675;-1454.000;-1336.000
381.963;  168.050; -134.000;  -87.000
382.093; 1809.575; -925.000; -909.000
382.223;  579.700; -713.000; -602.000
382.353;   27.425; -801.000; -608.000
382.482;  613.850;-1091.000; -964.000
382.612; 1060.850; -872.000; -644.000
382.742;  607.275; -695.000; -622.000
382.872;  419.650; -565.000; -551.000
383.002;   82.975;  347.000; -132.000
383.131;   -3.725; -226.000; -160.000
383.261;  -17.700; -706.000; -768.000
383.391;  295.100; -552.000; -377.000
383.521; 2353.750;  451.000;  263.000
383.650;  476.450; -947.000; -904.000
383.780;  -29.825; -783.000; -656.000
383.910;  111.925;  880.000;  802.000
384.039;   83.225; -794.000; -656.000
384.169;  379.825;-1205.000;-1017.000
384.299;   21.975; -650.000; -662.000
384.428;  -77.900; -764.000; -680.000
384.558;  -31.150; -308.000; -275.000
384.687;  -16.975; -414.000; -334.000
384.817;   37.100;   75.000;   -2.000
384.947;   56.750; -234.000; -141.000
385.076;  382.350;  982.000;  912.000
385.206;  121.425;  369.000;  480.000
385.335;  -17.550; -549.000; -417.000
385.465;  -64.150; -655.000; -663.000
385.594;  205.775;  -53.000;  -44.000
385.724;  679.600; -868.000; -838.000
385.853;  189.650; -296.000; -270.000
385.982; 1929.150; -743.000; -787.000
386.112; 3052.375;-1052.000; -871.000
386.241;  230.925; -307.000; -312.000
386.371;   50.500; -174.000;  -87.000
386.500;   34.200; -825.000; -789.000
386.629;   50.700; -874.000; -817.000
386.759;   65.675;  -43.000;   68.000
386.888;   31.600; -170.000; -250.000
387.017;  -45.700; -648.000; -620.000
387.147;  -75.975; -771.000; -798.000
387.276;   34.225; -410.000; -397.000
387.405;   41.450; -398.000; -342.000
387.535;  -13.600; -452.000; -361.000
387.664;  -47.925; -692.000; -620.000
387.793;  107.050; -198.000; -113.000
387.922;  750.900;  255.000;  200.000
388.052;   75.925; -576.000; -423.000
388.181;   95.925; -342.000; -472.000
388.310;   89.850; -889.000; -710.000
388.439;    9.175; -749.000; -742.000
388.568;  286.150;  365.000;  244.000
388.697; 1588.375; -756.000; -653.000
388.826;  351.725; -768.000; -666.000
388.956;  117.950; -285.000; -307.000
389.085;    1.175; -347.000; -287.000
389.214; -100.025; -842.000; -872.000
389.343;  -52.325; -645.000; -413.000
389.472;  335.650;  126.000;  149.000
389.601;  504.225;   91.000;    0.000
389.730;   69.975; -568.000; -687.000
389.859;   90.500;  226.000;   46.000
389.988;  296.975; -423.000; -408.000
390.117;  201.525; -168.000; -146.000
390.246;   23.925; -331.000; -320.000
390.375;  220.575; -673.000; -626.000
390.504;  -33.675; -703.000; -621.000
390.633;  -86.350; -672.000; -726.000
390.761;  -33.725; -732.000; -645.000
390.890;   54.950;   -4.000; -130.000
391.019;   14.250; -421.000; -441.000
391.148; -122.150; -826.000; -855.000
391.277;  -41.725; -576.000; -493.000
391.406;  -32.225; -821.000; -805.000
391.534;   24.300;  574.000; -301.000
391.663;  -58.350; -583.000; -645.000
391.792;  -67.075; -673.000; -701.000
391.921;  183.150;   -3.000;   15.000
392.050;  331.925; -287.000; -228.000
392.178;   40.775;-1206.000;-1061.000
392.307;  263.050; -758.000; -712.000
392.436;  155.000; -427.000; -641.000
392.564;   49.175;  166.000;   -6.000
392.693;  -76.000; -860.000; -682.000
392.822;  333.525; -529.000; -534.000
392.950;  212.150; -880.000; -714.000
393.079;  494.150; -188.000; -328.000
393.208;   69.800; -488.000; -511.000
393.336;   -8.825; -170.000; -145.000
393.465;  -43.925; -317.000; -199.000
393.593;   12.925;   62.000;   79.000
393.722; -151.875;-1121.000; -916.000
393.850;  -31.325; -188.000;  -61.000
393.979; -151.025; -926.000; -805.000
394.107;  -53.900; -517.000; -537.000
394.236;   -0.325; -570.000; -507.000
394.364;  224.625;  383.000;  206.000
394.493;  426.225; -911.000; -767.000
394.621;  -16.575; -955.000; -916.000
394.750;  531.200; -873.000; -923.000
394.878; 2316.600; -247.000; -149.000
395.007; 3150.600; -721.000; -807.000
395.135;  232.375; -790.000; -721.000
395.263;  -93.975;-1038.000;-1040.000
395.392;   18.075;  -25.000; -107.000
395.520; -123.400; -818.000; -679.000
395.648;  -73.550; -865.000; -915.000
395.777;    8.875; -366.000; -405.000
395.905;  -27.225; -449.000; -564.000
396.033;   20.675;  217.000;  172.000
396.162;  719.900; -399.000; -453.000
396.290;  617.925;  -17.000;   -2.000
396.418;  178.400; -555.000; -514.000
396.546;  -38.700; -571.000; -466.000
396.674;  -71.225; -850.000; -878.000
396.803;   20.800;  -72.000;  -23.000
396.931;  155.450; -179.000; -199.000
397.059;  177.000;-1026.000; -989.000
397.187;  -92.975;-1026.000; -975.000
397.315; -129.625; -884.000; -649.000
397.443;  -84.625; -592.000; -443.000
397.572;  -89.825; -578.000; -424.000
397.700;   49.500; -607.000; -614.000
397.828;   35.425;  120.000;  -90.000
397.956;  -45.550; -508.000; -478.000
398.084;  -77.325; -767.000; -626.000
398.212;   62.500;  137.000;  124.000
398.340;   34.175;  -56.000;  159.000
398.468;   79.750; -390.000; -169.000
398.596; -122.050; -993.000; -953.000
398.724; -106.300; -762.000; -767.000
398.852; -165.375;-1024.000; -976.000
398.980;  -47.150; -560.000; -560.000
399.108;  -29.000; -982.000; -735.000
399.236;   71.750;   13.000;    8.000
399.363;    7.500;  222.000;  196.000
399.491;  -66.375; -404.000; -398.000
399.619; -125.100; -829.000; -800.000
399.747;  -87.275; -859.000; -771.000
399.875;   92.225;  220.000;  234.000
400.003;  -44.850; -359.000; -284.000
400.130;  -95.875; -421.000; -341.000
400.258;  -24.050;  -83.000;   38.000
400.386;  -52.400; -352.000; -168.000
400.514;   -9.250; -526.000; -587.000
400.641;  -61.800; -928.000; -802.000
400.769; -127.400; -979.000; -888.000
400.897;  -94.525; -838.000; -793.000
401.025;    4.100; -166.000; -152.000
401.152;   -9.225;  220.000;   38.000
401.280;  -85.600; -430.000; -429.000
401.408; -109.450; -712.000; -576.000
401.535;  -86.250; -735.000; -758.000
401.663; -191.675;-1134.000;-1054.000
401.790;  -73.575; -514.000; -525.000
401.918;   35.450;  436.000;  405.000
402.046;   -8.050;  134.000;  122.000
402.173;  -34.400;  -18.000;    7.000
402.301;  -60.250; -519.000; -397.000
402.428;   24.900;  528.000;  383.000
402.556; -141.050;-1188.000; -913.000
402.683;  -25.800;  -20.000;   -1.000
402.811;  -17.375;  -37.000; -206.000
402.938;   -5.800;   20.000;   27.000
403.066;  317.550; -574.000; -558.000
403.193;  487.050;  299.000;  239.000
403.321;  387.050; -396.000; -574.000
403.448;  458.150;   83.000;   27.000
403.575;  217.025;  -90.000;  -46.000
403.703;  -76.725; -732.000; -557.000
403.830;  -53.775; -531.000; -496.000
403.957; -149.025;-1117.000;-1023.000
404.085;    8.250;  -61.000; -172.000
404.212;  111.000;  -50.000;   63.000
404.339;  218.450; -566.000; -306.000
404.467; 4466.325; -612.000; -524.000
404.594; 3549.200; -287.000; -227.000
404.721; 1023.950; -869.000; -764.000
404.848;   98.750; -113.000; -202.000
404.976;  -98.725; -856.000; -783.000
405.103;    2.925;  -14.000;  -82.000
405.230;    0.350;  190.000;  226.000
405.357;   27.325;  117.000;   44.000
405.484;  186.450;  -49.000;    5.000
405.612;   39.350; -548.000; -563.000
405.739;  -71.800; -488.000; -243.000
405.866;   99.075;  669.000;  385.000
405.993;  -49.625; -398.000; -102.000
406.120; -136.675; -801.000; -887.000
406.247;  -46.100; -323.000; -342.000
406.374;  642.150;  540.000;  629.000
406.501;  221.925; -632.000; -702.000
406.628;  -64.050; -621.000; -589.000
406.755;  -86.650; -803.000; -620.000
406.882;  -35.000; -228.000; -277.000
407.009;  -96.575; -719.000; -628.000
407.136;  106.850; -480.000; -401.000
407.263;  276.775; -939.000; -829.000
407.390;  -57.975; -692.000; -614.000
407.517; -150.100;-1139.000;-1187.000
407.644;  -54.050; -332.000; -256.000
407.771; -137.675; -249.000; -287.000
407.898;   17.600;  168.000;  328.000
408.025;  -61.900; -421.000; -313.000
408.151;   -7.375;   82.000;  153.000
408.278;  -69.325; -267.000; -216.000
408.405; -112.925; -931.000; -899.000
408.532;  -65.075; -549.000; -542.000
408.659; -106.500; -677.000; -648.000
408.785; -206.825;-1298.000;-1170.000
408.912;  -57.050; -412.000; -296.000
409.039; -106.525; -610.000; -686.000
409.166;  -95.300; -591.000; -555.000
409.292; -122.750; -571.000; -534.000
409.419; -116.975; -665.000; -649.000
409.546;  -97.200; -431.000; -192.000
409.672; -106.000; -713.000; -545.000
409.799;  -24.125;  -36.000;   34.000
409.926;  -55.775; -180.000; -179.000
410.052; -172.725;-1127.000;-1091.000
410.179;  -51.925; -368.000; -392.000
410.305;  -95.600; -375.000; -493.000
410.432;  -40.050; -220.000; -333.000
410.558;  -88.550; -305.000; -380.000
410.685; -109.425; -688.000; -431.000
410.812;  -90.150; -409.000; -588.000
410.938; -135.875; -964.000; -808.000
411.065; -111.275; -671.000; -645.000
411.191;  -20.150; -189.000; -174.000
411.317; -119.750; -823.000; -742.000
411.444;  -43.500; -317.000; -246.000
411.570;  -86.150; -339.000; -294.000
411.697; -126.050; -758.000; -752.000
411.823; -174.175; -989.000; -999.000
411.949;  -21.600;  -56.000;   17.000
412.076; -114.700; -539.000; -519.000
412.202; -110.375; -758.000; -757.000
412.329; -118.350; -798.000; -752.000
412.455; -107.075; -821.000; -657.000
412.581;  -26.500;  -15.000;  172.000
412.707;  -37.700; -540.000; -457.000
412.834;   12.775;  156.000;  219.000
412.960;  -79.625; -785.000; -784.000
413.086;  -88.775; -743.000; -701.000
413.212;  191.250;  604.000;  578.000
413.339;  -45.025; -685.000; -701.000
413.465;   56.650; -364.000; -310.000
413.591;  -66.750; -757.000; -474.000
413.717;  -44.200; -358.000; -366.000
413.843; -154.500; -839.000; -861.000
413.969;  -63.875;  -47.000; -292.000
414.096;  -96.225; -679.000; -679.000
414.222;   -1.800;  -33.000;   85.000
414.348;   14.750; -652.000; -385.000
414.474;  163.675;   38.000;  -52.000
414.600;  -20.825; -126.000; -144.000
414.726;  -12.775;  -96.000;  -55.000
414.852;  -65.150; -365.000; -342.000
414.978;   29.225;  104.000;  -18.000
415.104;   27.750;   38.000;   80.000
415.230;   13.750; -329.000; -330.000
415.356;   42.275; -409.000; -514.000
415.482;  190.975;   13.000;  -35.000
415.608;  235.500; -247.000; -323.000
415.734;  837.000;   67.000;   38.000
415.860;16860.925; -875.000; -767.000
415.986;12473.500; -685.000; -607.000
416.111; 1062.550; -798.000; -652.000
416.237;  207.500; -424.000; -571.000
416.363;  848.750; -765.000; -733.000
416.489; 3295.650; -324.000; -251.000
416.615;  317.400; -707.000; -742.000
416.741;  -47.850; -677.000; -784.000
416.866; -107.475; -673.000; -736.000
416.992; -122.925; -801.000; -818.000
417.118;  -33.075;  -41.000;  -80.000
417.244;  -50.075; -798.000; -531.000
417.369;  -84.475; -801.000; -612.000
417.495;    9.650; -325.000; -254.000
417.621;  -78.275;-1015.000; -803.000
417.746;   -7.475; -579.000; -572.000
417.872;   37.725; -254.000; -144.000
417.998;   29.775; -515.000; -530.000
418.123;  799.300;-1073.000; -845.000
418.249; 4287.300; -512.000; -601.000
418.374;  567.400; -916.000; -824.000
418.500;   98.050; -383.000; -482.000
418.626;   91.200;   70.000;  -59.000
418.751;   92.425; -549.000; -448.000
418.877;  165.100; -637.000; -643.000
419.002; 1394.100; -688.000; -560.000
419.128; 9925.850; -930.000; -721.000
419.253; 2445.125; -967.000; -837.000
419.379;  303.800; -391.000; -338.000
419.504;  320.225;  325.000;  415.000
419.629;  383.475; -393.000; -212.000
419.755; 2615.750; -317.000; -254.000
419.880;15679.075;  -98.000;   67.000
420.006; 9124.075; -280.000; -221.000
420.131;24279.100; -662.000; -775.000
420.256; 3592.100; -315.000; -316.000
420.382;  476.050; -665.000; -687.000
420.507;   46.875; -649.000; -778.000
420.632;  210.725; -337.000; -339.000
420.758;  431.675; -251.000; -425.000
420.883;  -58.025; -876.000; -672.000
421.008;  -81.050; -775.000; -619.000
421.133;  -71.775; -509.000; -467.000
421.259;  -47.025; -325.000; -259.000
421.384;  -98.600; -834.000; -693.000
421.509;   20.650;-1052.000; -862.000
421.634; 1896.300; -936.000; -820.000
421.759;  837.425; -359.000; -327.000
421.885;  -26.225; -717.000; -656.000
422.010;  -55.300; -673.000; -542.000
422.135; -148.700; -695.000; -727.000
422.260;   48.250;  340.000;  280.000
422.385;  -39.650;   12.000;  -98.000
422.510;   23.875;  151.000;  -26.000
422.635;   21.500;  -87.000;  -43.000
422.760;  132.675; -766.000; -791.000
422.885;   61.050;  -57.000;  -80.000
423.010;  -19.850; -112.000; -169.000
423.135;  -84.675; -481.000; -561.000
423.260;    8.400; -150.000; -245.000
423.385;   91.375;  476.000;  222.000
423.510;   47.200;   71.000;  -22.000
423.635;  113.300;  133.000;   45.000
423.760;   77.500;  383.000;  328.000
423.885;   60.750;  336.000;  391.000
424.010;   21.525;  -68.000;  -13.000
424.135;  -33.950;    5.000;  -33.000
424.259;  -96.150; -654.000; -457.000
424.384;  -60.925; -279.000; -272.000
424.509;  -16.450; -260.000; -186.000
424.634; -100.975; -761.000; -623.000
424.759;  -22.475; -688.000; -544.000
424.883;  -28.025; -506.000; -527.000
425.008;  148.550; -502.000; -410.000
425.133; 1649.750; -679.000; -653.000
425.258;  780.800; -517.000; -381.000
425.382; 1315.800; -867.000; -774.000
425.507; 3480.050; -487.000; -543.000
425.632;  511.475; -802.000; -663.000
425.756;  376.975; -256.000; -146.000
425.881; 4653.450; -831.000; -857.000
426.006;12433.425; -604.000; -355.000
426.130; 2132.475; -696.000; -508.000
426.255;  254.950; -611.000; -491.000
426.379;  128.650; -189.000; -577.000
426.504;  320.800;  660.000;  544.000
426.629; 3401.000; -519.000; -466.000
426.753; 2423.900;   64.000;  -46.000
426.878;  269.050; -252.000; -288.000
427.002;  112.325; -651.000; -668.000
427.127; 1350.100;  -35.000; -158.000
427.251; 9131.375;  372.000;  401.000
427.375; 2715.075; -191.000; -173.000
427.500; 2914.175; -616.000; -610.000
427.624; 1029.575; -234.000; -400.000
427.749;  133.400; -216.000; -225.000
427.873;   -6.525; -499.000; -412.000
427.997;  -31.450; -222.000; -230.000
428.122;   93.900;  795.000;  703.000
428.246;   83.375;  433.000;  434.000
428.371; -101.475; -869.000; -773.000
428.495;  -80.500; -624.000; -646.000
428.619;  -26.200; -186.000; -117.000
428.743;   46.825;   65.000;  132.000
428.868;   62.750; -732.000; -643.000
428.992; 1929.925; -219.000; -326.000
429.116;  824.725; -329.000; -357.000
429.240;  405.650;  419.000;  426.000
429.365;  -10.450; -454.000; -574.000
429.489;  -18.475; -638.000; -647.000
429.613;   19.950; -236.000; -177.000
429.737;   28.800; -563.000; -432.000
429.861;  228.300; -247.000; -133.000
429.985; 4519.500; -425.000; -305.000
430.109; 5020.900; -770.000; -908.000
430.234;  583.750;   76.000;  -50.000
430.358;   55.050; -250.000; -160.000
430.482;  -54.950; -672.000; -564.000
430.606;  -57.400; -655.000; -375.000
430.730;   58.500; -437.000; -388.000
430.854;  250.650; -909.000; -835.000
430.978;  -40.875; -795.000; -764.000
431.102;  -68.975; -499.000; -422.000
431.226;  -97.475; -874.000; -815.000
431.350;   43.175;  345.000;  422.000
431.474;  -57.525; -661.000; -373.000
431.597; -146.000;-1060.000; -848.000
431.721;  -78.150; -276.000; -267.000
431.845; -138.750; -704.000; -472.000
431.969;  -82.225; -304.000; -349.000
432.093;  -96.925; -395.000; -317.000
432.217;   -8.275;   32.000;   82.000
432.341;  -86.550; -523.000; -518.000
432.464;   22.075;   96.000;   40.000
432.588;  327.725; -401.000; -329.000
432.712;  144.125;  -52.000;  -52.000
432.836;   29.050;  213.000;  263.000
432.959;  -25.275; -372.000; -311.000
433.083;   66.200;   11.000;    2.000
433.207;  305.775;  285.000;  930.000
433.330; 3881.700; -391.000; -200.000
433.454; 4851.175; -654.000; -638.000
433.578; 2842.550;  583.000;  278.000
433.701;  566.750; -623.000; -675.000
433.825;  217.175; -292.000; -299.000
433.949;  340.100;   28.000;  -72.000
434.072;  152.750; -410.000; -323.000
434.196;   -8.075; -309.000; -117.000
434.319; 3692.425;25482.000;25124.000
434.443;  731.250; -656.000; -603.000
434.566; 2209.075;  281.000;   62.000
434.690;  351.400; -637.000; -383.000
434.813;   52.825; -251.000; -173.000
434.937;  -71.100; -569.000; -696.000
435.060;   -9.875; -423.000; -332.000
435.184;  610.025; -492.000; -217.000
435.307;  347.500;  159.000;  102.000
435.431;   21.450;  -40.000;   24.000
435.554;  -68.675; -399.000; -240.000
435.677;  -99.175; -350.000; -258.000
435.801;  -47.375;  -25.000;   49.000
435.924;   22.250;    1.000;  -67.000
436.048;  -79.925;-1019.000; -732.000
436.171;  -50.650; -240.000;  -66.000
436.294;  -42.625; -248.000; -229.000
436.417;   56.275; -963.000; -849.000
436.541;  -91.100; -814.000; -840.000
436.664;  -40.525; -242.000; -316.000
436.787;  -15.900;   13.000;  113.000
436.910; -104.375; -792.000; -422.000
437.034;   11.175;  142.000;  143.000
437.157;  120.475;  -11.000;    0.000
437.280;   -6.550; -392.000; -292.000
437.403;  -40.150; -982.000; -869.000
437.526; 1099.725; -903.000; -865.000
437.649; 3831.500; -505.000; -332.000
437.772;  636.875; -692.000; -540.000
437.896;  158.225;  700.000;  544.000
438.019;  -83.300; -758.000; -503.000
438.142;  -71.150; -596.000; -506.000
438.265;   21.700; -639.000; -670.000
438.388;  903.850; -520.000; -410.000
438.511;  239.175; -597.000; -394.000
438.634;   -0.450; -247.000; -125.000
438.757; -132.100; -693.000; -619.000
438.880;   -7.700;  -34.000;  -57.000
439.003;  -56.475; -417.000; -437.000
439.126;  -59.175; -287.000; -167.000
439.248;  -54.800;  -98.000; -139.000
439.371;  -40.275;    9.000;  -53.000
439.494;   25.725;  510.000;  439.000
439.617;  -56.750;   65.000;  -88.000
439.740; -177.600; -968.000; -816.000
439.863; -150.450; -755.000; -595.000
439.986; -128.625; -476.000; -431.000
440.108;  -39.600; -161.000; -112.000
440.231; -154.950; -950.000; -836.000
440.354;  -26.575;  -64.000; -150.000
440.477;  111.725; -566.000; -542.000
440.599;   60.125; -200.000; -225.000
440.722; -120.050; -709.000; -586.000
440.845;   70.200;  751.000;  928.000
440.968; -109.875; -415.000; -311.000
441.090;  -62.075; -199.000;  -33.000
441.213; -168.475;-1021.000; -825.000
441.336;  -37.775; -159.000;   -5.000
441.458;  -78.750; -549.000; -396.000
441.581;  -65.050; -628.000; -629.000
441.703;  -63.775; -152.000;   13.000
441.826; -107.600; -557.000; -400.000
441.948;  -40.950;   56.000;   51.000
442.071;   32.925;  555.000;  424.000
442.193; -116.300; -531.000; -485.000
442.316;   34.325;  152.000;   97.000
442.438;   26.075; -233.000;  -10.000
442.561;   90.500;  272.000;  262.000
442.683;  912.275; -809.000; -522.000
442.806; 1885.575;   -8.000;   74.000
442.928;  151.800; -859.000; -604.000
443.051;  -42.625; -577.000; -373.000
443.173;  -90.275; -341.000; -339.000
443.295;  -87.600; -263.000; -371.000
443.418;  -67.575; -321.000;  -29.000
443.540;   -0.450; -106.000;   -4.000
443.662; -119.450; -563.000; -465.000
443.785;  -15.850;  335.000;  199.000
443.907; -103.325; -362.000; -208.000
444.029; -123.225; -767.000; -494.000
444.152; -140.175; -644.000; -554.000
444.274;  -25.400;  -18.000;  -24.000
444.396; -110.700; -461.000; -221.000
444.518; -126.575; -691.000; -454.000
444.640; -109.800; -268.000; -111.000
444.763;  -16.075;  388.000;  249.000
444.885; -111.950; -432.000; -392.000
445.007;  -41.650;   35.000;   86.000
445.129; -118.800; -610.000; -515.000
445.251;  -95.475; -372.000; -439.000
445.373; -141.300; -537.000; -386.000
445.495;   14.025;  242.000;  350.000
445.617;   50.850;  853.000;  753.000
445.739;  -75.175; -215.000;  -97.000
445.861;  -26.550; -245.000; -112.000
445.984;  -22.425; -267.000; -101.000
446.105;  326.600; -418.000; -251.000
446.227;  930.200; -176.000;  -19.000
446.349;   69.100; -358.000; -249.000
446.471;  -83.900; -615.000; -448.000
446.593;  -61.825; -316.000;   19.000
446.715;   19.600;  -67.000;   41.000
446.837;   45.375;  697.000;  832.000
446.959; -105.650; -457.000; -478.000
447.081; -137.025; -628.000; -518.000
447.203;   47.825;  862.000;  834.000
447.325;  -92.000; -270.000;   42.000
447.446;   -2.300;  286.000;  530.000
447.568; -160.525; -921.000; -803.000
447.690;  -73.975; -236.000; -245.000
447.812; -164.025; -798.000; -519.000
447.933;  -22.650;  155.000;  127.000
448.055;  -70.000; -306.000; -261.000
448.177;  211.300;   31.000;   79.000
448.299;  200.525; -935.000; -727.000
448.420;   48.350;  -25.000;  159.000
448.542;  -41.025;   -3.000;   33.000
448.664;  -29.650;  109.000;  322.000
448.785;  -47.925;  265.000;   83.000
448.907;  -73.575; -614.000; -353.000
449.028;    2.875; -771.000; -471.000
449.150;   73.125;  492.000;  589.000
449.272; -174.775;-1044.000; -913.000
449.393;   18.925;  612.000;  694.000
449.515; -147.875; -634.000; -581.000
449.636;  -47.150; -264.000; -155.000
449.758;   78.325;  763.000;  622.000
449.879;  -85.025; -498.000; -396.000
450.001;  -76.050; -149.000;  -49.000
450.122;  -41.550;  -95.000;  162.000
450.244;  -24.100;   37.000;  364.000
450.365; -100.150; -495.000; -301.000
450.486;  -51.925;   80.000;  268.000
450.608;   10.300;  393.000;  326.000
450.729;   50.975;  578.000;  645.000
450.850;  -34.900; -574.000; -466.000
450.972;  513.525; -552.000; -389.000
451.093; 3646.725;  190.000;  588.000
451.214; 1584.025; -516.000; -337.000
451.336;  269.450;  773.000;  579.000
451.457;   28.175;  264.000;  393.000
451.578;  -47.375; -118.000;  -74.000
451.699; -125.425; -546.000; -540.000
451.821;  -72.025; -284.000;  -50.000
451.942;   -9.600;  278.000;  285.000
452.063;   11.725;  228.000;  419.000
452.184;  406.150;  -54.000;  -49.000
452.305;  847.850;  103.000;  170.000
452.427;   83.850; -549.000; -301.000
452.548;  -24.125;   23.000;   79.000
452.669;  -53.550; -257.000;  -89.000
452.790;  -39.900;    3.000;  -18.000
452.911;    0.175;  195.000;  259.000
453.032;  -61.875; -289.000;  -60.000
453.153;  -37.275;  -29.000;   81.000
453.274;   67.725;  737.000;  868.000
453.395;  -41.075;  -51.000;  175.000
453.516;  142.800; 1317.000; 1388.000
453.637;  -56.475; -205.000; -150.000
453.758;  -51.775;   15.000;   69.000
453.879; -120.475; -462.000; -250.000
454.000;   62.250; 1086.000;  948.000
454.121; -112.400; -554.000; -326.000
454.242; -107.625; -599.000; -383.000
454.362;  -62.725;  -99.000;  114.000
454.483;  -29.275; -309.000; -229.000
454.604;   79.525;  512.000;  580.000
454.725; -110.875; -627.000; -555.000
454.846; -127.825; -474.000; -406.000
454.967;  -28.125;  230.000;  539.000
455.087;  -49.625;  179.000;  153.000
455.208;   23.550;  554.000;  856.000
455.329;  -66.250;  -22.000;   82.000
455.450;   31.325;  473.000;  633.000
455.570;  -95.400; -234.000; -211.000
455.691;  -41.700;  201.000;  407.000
455.812; -116.625; -270.000;  -92.000
455.932;  -75.325;  107.000;  -97.000
456.053;  -86.750;   36.000;   24.000
456.173; -129.200; -433.000; -355.000
456.294; -151.300; -476.000; -303.000
456.415;  -72.875;  -73.000;   70.000
456.535;  -37.475;  297.000;  273.000
456.656;  -40.900;  132.000;  240.000
456.776;  -74.625;    3.000;  298.000
456.897;   -4.525;  308.000;  513.000
457.017;  -79.325; -153.000;   -3.000
457.138;  -93.700; -402.000; -249.000
457.258;  -32.400;  263.000;  224.000
457.379;  -13.425;  509.000;  521.000
457.499;  -35.300;  443.000;  432.000
457.620; -125.375; -407.000; -231.000
457.740; -109.850; -132.000;  -11.000
457.860;  -56.850;   87.000;   44.000
457.981;  -44.675;  132.000;  124.000
458.101;  -67.325;  -89.000;   40.000
458.221;  -16.600;  336.000;  402.000
458.342;  -61.575;   -4.000;  -37.000
458.462;   12.150;  617.000;  352.000
458.582;  -50.250; -302.000; -294.000
458.703;  -17.750;  303.000;  154.000
458.823;  -50.100;   22.000;  163.000
458.943;   13.425;  341.000;  467.000
459.063;  -14.350; 1124.000;  192.000
459.183;  -20.025;  328.000;  313.000
459.304;    3.075;  315.000;  517.000
459.424;  -82.650; -246.000;  -89.000
459.544;  263.425;  388.000;  764.000
459.664;  668.375;  499.000;  506.000
459.784;  280.300; 1004.000; 1175.000
459.904;   45.525;  867.000;  744.000
460.024;   87.475;  867.000;  684.000
460.144;   25.800;  449.000;  554.000
460.264;   -2.550;  515.000;  327.000
460.385;  -98.525; -145.000; -119.000
460.505;   37.925;  905.000;  858.000
460.625;  -96.000;  -17.000;  -68.000
460.745;  -17.000;  396.000;  541.000
460.864;  -55.300;  153.000;  469.000
460.984;   28.525;  499.000;  573.000
461.104;  139.875; 1656.000; 1775.000
461.224;   24.125;  657.000;  650.000
461.344;  -40.825;  431.000;  360.000
461.464;  -25.625;  258.000;  513.000
461.584;  -19.725;  283.000;  466.000
461.704;  -31.775;   58.000;  108.000
461.824;  -64.625;  238.000;  259.000
461.943;  -28.525;  191.000;  130.000
462.063;  -77.050;    2.000;  324.000
462.183;   35.475;  639.000;  717.000
462.303;  104.750; 1678.000; 1230.000
462.422;   34.775;  781.000;  840.000
462.542;  -41.150;  271.000;  391.000
462.662;   48.375;  353.000;  380.000
462.782;  194.050;  833.000;  572.000
462.901;  388.750;  545.000;  717.000
463.021;  234.350; 1702.000; 1638.000
463.141;  -24.450;  337.000;  770.000
463.260;  -26.200;  614.000;  474.000
463.380;    5.950;  902.000;  884.000
463.499;  -40.475;  342.000;  332.000
463.619;  -30.100;  581.000;  559.000
463.738;  106.175; 1644.000;  903.000
463.858;   13.450;  657.000;  811.000
463.978;  -48.500;  542.000;  396.000
464.097;   34.125;  921.000; 1114.000
464.217;   92.000; 1196.000; 1143.000
464.336;  110.675; 1068.000; 1130.000
464.455;  -34.950;  328.000;  659.000
464.575;   77.925;  597.000;  602.000
464.694;  192.625; 1204.000; 1179.000
464.814;  133.575; 1190.000; 1138.000
464.933;   70.525; 1095.000; 1027.000
465.052;   87.650; 1412.000; 1054.000
465.172;   99.125;  922.000;  799.000
465.291;  157.400; 1376.000; 1320.000
465.410;   29.325;  462.000;  735.000
465.530;   85.825; 1355.000; 1310.000
465.649;   68.375; 1209.000; 1273.000
465.768;  152.825; 1673.000; 1508.000
465.888;   47.900;  941.000; 1174.000
466.007;   87.475; 1335.000; 1440.000
466.126;    1.725;  721.000;  641.000
466.245;   42.525; 1176.000; 1187.000
466.364;   19.625;  950.000; 1060.000
466.484;   69.350; 1024.000; 1213.000
466.603;   16.700; 1101.000; 1222.000
466.722;  112.675; 1490.000; 1769.000
466.841;   81.500; 1151.000; 1401.000
466.960;   32.850; 1069.000;  972.000
467.079;  122.975; 1971.000; 1786.000
467.198;   41.250; 1238.000; 1181.000
467.317;   82.350; 1768.000; 1162.000
467.436;   78.350; 1709.000; 1261.000
467.555;  117.150; 1796.000; 1746.000
467.674;   74.800; 1227.000; 1329.000
467.793;   47.950; 1376.000; 1374.000
467.912;   74.550; 1658.000; 1539.000
468.031;  134.925; 2038.000; 1930.000
468.150;  150.025; 1842.000; 1837.000
468.269;  205.075; 2313.000; 2090.000
468.388;  212.375; 2168.000; 2339.000
468.507;  250.275; 2884.000; 2903.000
468.626;  223.125; 2555.000; 2541.000
468.744;  130.400; 2018.000; 2174.000
468.863;  189.850; 2312.000; 2523.000
468.982;   92.850; 1503.000; 1555.000
469.101;  225.650; 2788.000; 2692.000
469.220;  150.375; 2333.000; 2176.000
469.338;  242.675; 2935.000; 3051.000
469.457;  186.550; 2719.000; 2545.000
469.576;  341.075; 3953.000; 3784.000
469.695;  225.850; 2877.000; 3066.000
469.813;  429.775; 4148.000; 4192.000
469.932;  399.250; 4255.000; 4485.000
470.051;  411.950; 4075.000; 4161.000
470.169;  737.950; 4470.000; 4338.000
470.288; 1273.325; 4700.000; 4809.000
470.406;  793.800; 5059.000; 5194.000
470.525;  612.225; 6101.000; 5787.000
470.644;  651.125; 6847.000; 6794.000
470.762;  818.100; 8397.000; 7873.000
470.881;  864.525; 8651.000; 8464.000
470.999; 1019.225; 9685.000; 9151.000
471.118; 1093.800;11174.000;10711.000

