
Integration time [ms]: 200.000
Averaging Nr. [scans]: 10
Smoothing Nr. [pixels]: 0
Data measured with spectrometer [name]: 2101012U2
Wave   ;Sample   ;Dark     ;Reference
[nm]   ;[counts] ;[counts] ;[counts] 

197.733;  141.900;  516.000;  404.000
197.879; -196.900; -610.000; -634.000
198.025;  -90.600; -475.000; -420.000
198.171; -145.400; -602.000; -612.000
198.317;  -36.100; -401.000; -316.000
198.463; -111.900; -655.000; -404.000
198.609;   57.600;  181.000; -137.000
198.755; -189.000; -644.000; -410.000
198.901; -133.100; -505.000; -424.000
199.047; -140.200; -615.000; -488.000
199.193;  -64.800; -230.000; -468.000
199.339;  -72.500; -222.000; -369.000
199.485;  111.000;  330.000;  271.000
199.631;   46.800;  227.000;  310.000
199.777; -110.700; -466.000; -398.000
199.923; -142.000; -610.000; -424.000
200.069;   16.500; -141.000;  -58.000
200.215;  104.500;  128.000;  453.000
200.361;   64.700;  243.000;  477.000
200.507; -142.700; -600.000; -373.000
200.653;  -38.000; -371.000; -194.000
200.798;  -78.500; -215.000; -125.000
200.944;   11.900; -146.000;  -41.000
201.090;   88.200;   61.000;  222.000
201.236;   -9.000; -116.000; -158.000
201.382;  284.000;  874.000;  903.000
201.528;   13.400;  -58.000;  -48.000
201.674;  -82.600; -386.000; -293.000
201.819; -104.400; -540.000; -439.000
201.965; -172.800; -699.000; -447.000
202.111;  -29.200; -273.000; -226.000
202.257;  -65.300; -250.000; -238.000
202.402;   39.400;   13.000;  -36.000
202.548;  -44.100; -169.000; -116.000
202.694;  214.000;  410.000; -183.000
202.840; -156.300; -603.000; -531.000
202.985; -128.000; -681.000; -639.000
203.131; -242.300; -832.000; -666.000
203.277;   -1.500; -199.000; -262.000
203.423; -105.300; -434.000; -520.000
203.568;  -57.900; -462.000; -237.000
203.714; -116.700; -535.000; -542.000
203.860; -148.500; -682.000; -641.000
204.005;   16.500;  112.000;  167.000
204.151;  195.400;  561.000;  556.000
204.296;  -89.100; -354.000; -221.000
204.442; -123.900; -600.000; -547.000
204.588; -170.000; -592.000; -579.000
204.733;   83.200;  178.000;  168.000
204.879; -266.500;-1018.000; -822.000
205.025;   35.400;  -99.000;  126.000
205.170;   -0.100;  -17.000;   94.000
205.316;  213.400;  438.000;  661.000
205.461; -162.400; -698.000; -554.000
205.607;  177.000;  609.000;  665.000
205.752; -168.400; -626.000; -551.000
205.898;  -79.100; -501.000; -391.000
206.043; -137.200; -578.000; -506.000
206.189;  -81.700; -243.000; -285.000
206.334;  185.200;  554.000;  606.000
206.480;  132.600;  409.000;  239.000
206.625; -170.800; -529.000; -552.000
206.771;  -72.200; -451.000; -373.000
206.916;  -84.100; -210.000; -537.000
207.062; -134.400; -545.000; -591.000
207.207; -122.300; -546.000; -443.000
207.353;  147.100;  185.000;  460.000
207.498;   38.700;  196.000;   85.000
207.643;  -70.800; -501.000; -370.000
207.789; -255.700;-1069.000; -910.000
207.934; -169.500; -665.000; -713.000
208.080;  -82.300; -154.000;   66.000
208.225;   11.000;  -22.000;  -57.000
208.370; -191.200; -727.000; -619.000
208.516; -117.300; -741.000; -487.000
208.661;  -54.500; -127.000;  -69.000
208.806;  -52.900; -165.000; -171.000
208.952; -245.300;-1044.000; -731.000
209.097;  145.300;  378.000;  349.000
209.242; -111.700; -307.000; -382.000
209.387;  117.900;  392.000;  350.000
209.533; -124.200; -321.000; -350.000
209.678;  202.400;  472.000;  543.000
209.823;  -99.600; -408.000; -310.000
209.969; -200.400; -860.000; -757.000
210.114; -217.200; -907.000; -719.000
210.259; -214.800; -939.000; -889.000
210.404;   -5.800; -171.000;  103.000
210.549;   79.400;  108.000;    3.000
210.695;  -22.600;   -3.000;  -95.000
210.840;   93.100;   94.000;   67.000
210.985; -139.100; -484.000; -303.000
211.130;  181.200;  268.000;  406.000
211.275;   48.000;  207.000;  199.000
211.420;  -85.100; -300.000; -289.000
211.566; -149.600; -536.000; -489.000
211.711;   78.400;  218.000;  157.000
211.856; -129.200; -545.000; -519.000
212.001;   37.300;  151.000;   44.000
212.146;   18.300;  153.000;   49.000
212.291;  -31.600; -210.000; -186.000
212.436;  -59.300; -280.000;   -6.000
212.581; -150.200; -685.000; -653.000
212.726; -175.000; -487.000; -538.000
212.871;  -58.900; -552.000; -217.000
213.016; -307.400;-1172.000;-1029.000
213.161;  157.800;  406.000;  291.000
213.306; -146.900; -435.000; -577.000
213.451; -197.000; -778.000; -689.000
213.596;  -81.300; -455.000; -347.000
213.741; -114.800; -448.000; -538.000
213.886; -163.500; -498.000; -517.000
214.031;  -26.500; -294.000; -124.000
214.176;  -88.600; -408.000; -341.000
214.321;  -40.800; -296.000; -157.000
214.466;  -39.600; -163.000;  -43.000
214.611;  -26.800;  -61.000;  -10.000
214.756; -254.900; -948.000; -858.000
214.901;   -1.400; -388.000; -226.000
215.046; -251.800; -797.000; -825.000
215.191;   55.700;  128.000;   35.000
215.336;  -35.000; -157.000;  -19.000
215.480; -116.600; -684.000; -505.000
215.625;   -7.100; -175.000;  -19.000
215.770; -145.300; -757.000; -662.000
215.915;    2.100;   -5.000;  -97.000
216.060;   15.200; -113.000;  -21.000
216.205; -217.700; -731.000; -779.000
216.349; -165.200; -470.000; -533.000
216.494; -292.900; -939.000; -867.000
216.639; -234.400; -823.000; -888.000
216.784; -199.600; -577.000; -525.000
216.929;  103.500;  392.000;  281.000
217.073;  -24.000; -244.000;  -31.000
217.218;   14.800;   78.000;  -47.000
217.363; -163.700; -656.000; -618.000
217.507; -149.700; -623.000; -588.000
217.652; -275.000; -845.000; -874.000
217.797; -171.200; -708.000; -659.000
217.942; -204.600; -856.000; -720.000
218.086;  193.400;  608.000;  539.000
218.231;  -29.300; -174.000;  -26.000
218.376;  -21.600; -337.000; -229.000
218.520;  -22.700;  -41.000;   96.000
218.665;  -14.000; -338.000; -204.000
218.810;  -86.700; -275.000; -233.000
218.954;   47.300;  201.000;   35.000
219.099; -254.200; -713.000; -963.000
219.243; -141.100; -589.000; -554.000
219.388;  -42.500; -264.000; -136.000
219.532;    4.500; -116.000; -116.000
219.677; -135.200; -564.000; -521.000
219.822;   34.700;   33.000;   89.000
219.966;  -17.700;   17.000;  -99.000
220.111;  -67.600; -328.000;  -40.000
220.255; -199.900; -797.000; -750.000
220.400;  -14.000; -180.000; -146.000
220.544; -144.500; -516.000; -450.000
220.689;  -98.700; -422.000; -451.000
220.833;  -33.700; -123.000;  -58.000
220.978;  -64.900; -393.000; -563.000
221.122;   63.800;  319.000;  307.000
221.267; -223.200; -906.000; -837.000
221.411; -142.600; -478.000; -394.000
221.555;  -15.800; -104.000;  -23.000
221.700; -110.800; -329.000; -222.000
221.844;   90.700;  255.000;  272.000
221.989;  -94.000; -328.000; -311.000
222.133;  -66.200; -289.000; -307.000
222.277;  -35.100;    5.000;   78.000
222.422;   54.200;  227.000;  113.000
222.566;  -76.500; -381.000; -214.000
222.711; -102.100; -414.000; -479.000
222.855; -174.200; -643.000; -586.000
222.999; -137.800; -642.000; -717.000
223.144;  -40.300; -195.000; -194.000
223.288;  146.000;  423.000;  251.000
223.432;    2.700;  184.000;  230.000
223.576;   67.700;  152.000;  -21.000
223.721;   67.400;  364.000;  273.000
223.865; -108.000; -472.000; -475.000
224.009;  447.800; 1673.000; 1631.000
224.153; -134.800; -660.000; -671.000
224.298; -157.600; -531.000; -489.000
224.442;  -18.300;  -74.000;  -33.000
224.586;    1.400; -169.000; -106.000
224.730; -199.800; -858.000; -670.000
224.875; -210.100; -739.000; -688.000
225.019;   54.900;  102.000;  188.000
225.163;  124.100;  208.000;  341.000
225.307;   19.400;   97.000;  -91.000
225.451;   82.700;  360.000;  481.000
225.595;  110.400;  264.000;  176.000
225.739;  -54.400; -170.000;  -94.000
225.884;   60.200;   86.000;    5.000
226.028; -195.900; -760.000; -626.000
226.172;  -45.500; -260.000; -273.000
226.316; -259.500; -941.000; -902.000
226.460; -110.800; -645.000; -493.000
226.604;  -85.600; -406.000; -400.000
226.748; -165.000; -836.000; -733.000
226.892;  -72.300; -227.000; -181.000
227.036;  -67.500; -537.000; -447.000
227.180; -113.200; -551.000; -375.000
227.324; -133.200; -561.000; -580.000
227.468; -220.300; -819.000; -717.000
227.612;   39.300;  242.000;  -28.000
227.756; -198.100; -845.000; -698.000
227.900;  129.400;  342.000;  441.000
228.044; -123.300; -509.000; -290.000
228.188;  153.300;  448.000;  568.000
228.332; -160.600; -546.000; -472.000
228.476;  -38.900; -223.000; -149.000
228.620;  -68.300; -210.000; -150.000
228.764;  171.300;  431.000;  349.000
228.908;  -28.100; -155.000;   30.000
229.052; -104.500; -615.000; -528.000
229.195;  -11.600; -172.000;   13.000
229.339;  -14.100; -235.000; -305.000
229.483;  -42.200;    5.000; -162.000
229.627;   24.300; -156.000;  139.000
229.771;  -96.200; -218.000; -294.000
229.915;   61.900;  230.000;   79.000
230.059; -196.600; -648.000; -663.000
230.202;  -60.300; -370.000; -317.000
230.346;  -50.500; -107.000;  107.000
230.490; -101.900; -489.000; -521.000
230.634; -221.700; -736.000; -553.000
230.777;  177.900;  478.000;  509.000
230.921;  -98.600; -450.000; -359.000
231.065;  -85.500; -246.000; -286.000
231.209;   61.300;  261.000;  265.000
231.352;   83.600;   54.000;   40.000
231.496;   40.500;  568.000;  188.000
231.640; -159.600; -693.000; -621.000
231.783;  140.500;  546.000;  525.000
231.927;  -66.500; -294.000; -365.000
232.071; -248.300; -962.000; -736.000
232.214; -191.200; -980.000; -764.000
232.358; -192.200; -683.000; -599.000
232.502;   25.600;  -19.000;    7.000
232.645; -302.400;-1090.000; -927.000
232.789;  -10.100; -257.000; -218.000
232.933;  -79.600; -407.000; -224.000
233.076; -221.700;-1038.000; -897.000
233.220; -219.000; -752.000; -777.000
233.363; -157.700; -669.000; -477.000
233.507;  110.700;  371.000;  129.000
233.650; -154.100; -764.000; -834.000
233.794;   78.500;  438.000;  461.000
233.938; -115.800; -530.000; -362.000
234.081;  -33.200;  -93.000;   31.000
234.225; -121.800; -631.000; -539.000
234.368; -256.500; -773.000; -723.000
234.512;  -59.200; -385.000; -299.000
234.655; -182.500; -582.000; -555.000
234.798; -107.500; -493.000; -466.000
234.942; -259.200; -884.000;-1002.000
235.085; -108.800; -651.000; -443.000
235.229; -145.000; -405.000; -410.000
235.372;  -81.300; -247.000; -191.000
235.516; -132.200; -397.000; -321.000
235.659;   70.100;   92.000;  121.000
235.802;   -4.900;  -38.000;  -22.000
235.946;   57.500;  335.000;  215.000
236.089;   33.900;  126.000;  250.000
236.233;  140.500;  275.000;  298.000
236.376;  -84.600; -235.000; -378.000
236.519;  -64.300; -297.000; -319.000
236.663;  -37.300; -215.000; -117.000
236.806; -257.900;-1029.000; -999.000
236.949;  136.900;  543.000;  431.000
237.092;  166.100;  412.000;  391.000
237.236; -161.600; -589.000; -502.000
237.379;  144.900;  352.000;  428.000
237.522; -239.800; -879.000; -768.000
237.666;  -21.200; -271.000;   18.000
237.809; -233.400; -851.000; -823.000
237.952;  104.600;  469.000;  271.000
238.095; -135.300; -447.000; -442.000
238.238;  186.700;  688.000;  700.000
238.382;    1.000;  166.000;  103.000
238.525; -108.700; -598.000; -511.000
238.668; -277.500;-1060.000; -985.000
238.811; -146.100; -638.000; -643.000
238.954; -115.300; -483.000; -334.000
239.097;  234.700;  617.000;  664.000
239.241;   64.700;  394.000;  326.000
239.384;  -15.600; -254.000; -214.000
239.527; -133.800; -424.000; -224.000
239.670; -273.400; -994.000;-1091.000
239.813; -225.100; -696.000; -658.000
239.956;  196.300;  579.000;  473.000
240.099; -246.500; -778.000; -725.000
240.242;  164.800;  428.000;  432.000
240.385;  120.200;  466.000;  450.000
240.528;  -85.800; -706.000; -473.000
240.671;   26.000;  189.000;  134.000
240.814;  -57.800; -441.000; -158.000
240.957; -196.000; -767.000; -578.000
241.100; -155.400; -779.000; -755.000
241.243; -300.200;-1234.000; -893.000
241.386;  -69.900; -508.000; -379.000
241.529; -183.300; -735.000; -547.000
241.672; -117.000; -566.000; -495.000
241.815; -238.300; -832.000; -808.000
241.958;  -18.900; -125.000; -182.000
242.101; -174.300; -545.000; -390.000
242.244;  -44.200; -270.000; -325.000
242.387;  -67.900; -304.000; -246.000
242.530;  178.700;  470.000;  134.000
242.673;  -75.000; -381.000; -309.000
242.815; -206.900; -925.000; -899.000
242.958; -124.800; -482.000; -381.000
243.101;    2.500;  132.000;  187.000
243.244; -165.200; -564.000; -521.000
243.387;  -75.100; -313.000; -316.000
243.530; -178.800; -657.000; -674.000
243.672;   51.300;   43.000;  -92.000
243.815; -113.700; -355.000; -283.000
243.958;   34.200;   98.000;  -26.000
244.101;  -15.500;   59.000;  -16.000
244.243;   -7.000;  -47.000;  101.000
244.386; -211.500; -761.000; -630.000
244.529;  -27.500; -132.000; -139.000
244.672; -308.400;-1154.000; -951.000
244.814; -198.800; -621.000; -794.000
244.957; -125.900; -380.000; -304.000
245.100; -142.600; -489.000; -489.000
245.242; -133.000; -387.000; -374.000
245.385;   26.300;  -59.000;  -39.000
245.528; -255.300; -871.000; -705.000
245.670;  235.200;  612.000;  634.000
245.813; -166.900; -599.000; -547.000
245.956;  -34.600; -324.000; -275.000
246.098; -180.600; -508.000; -650.000
246.241;   51.700;  194.000;   48.000
246.383;  -23.000; -119.000;  -73.000
246.526; -148.100; -454.000; -525.000
246.669; -246.800; -889.000; -780.000
246.811;   98.700;  172.000;   -1.000
246.954; -120.900; -512.000; -426.000
247.096;  -13.200;  -84.000;   -6.000
247.239; -148.900; -482.000; -445.000
247.381; -129.100; -647.000; -488.000
247.524;  197.400;  645.000;  679.000
247.666;    1.600;   58.000;   11.000
247.809; -250.700; -887.000; -691.000
247.951;   33.500;  -75.000;  138.000
248.094;   86.500;  432.000;  308.000
248.236; -330.600;-1262.000;-1238.000
248.378;   31.900; -356.000;  -81.000
248.521;  -15.600; -334.000; -337.000
248.663;  -69.000; -236.000; -267.000
248.806;  -23.800; -300.000; -266.000
248.948; -174.500; -886.000; -763.000
249.090; -101.100; -428.000; -398.000
249.233; -110.700; -344.000; -381.000
249.375; -103.400; -474.000; -451.000
249.518;  -39.900;  -83.000; -133.000
249.660;   24.300; -103.000;    3.000
249.802; -341.200;-1303.000;-1189.000
249.945; -104.500; -612.000; -540.000
250.087; -235.300; -834.000; -768.000
250.229;  -52.200; -362.000; -480.000
250.371; -172.100; -494.000; -439.000
250.514;  -85.600; -310.000; -244.000
250.656;   -9.100;   69.000;  102.000
250.798; -213.300; -849.000; -800.000
250.940; -109.100; -322.000; -322.000
251.083;  -37.900; -335.000; -111.000
251.225;  132.200;  338.000;  310.000
251.367;  -32.500; -274.000; -373.000
251.509;  -53.900; -265.000; -210.000
251.651; -188.500; -731.000; -671.000
251.794;  116.300;  538.000;  632.000
251.936; -198.300; -821.000; -747.000
252.078; -155.200; -540.000; -461.000
252.220;  -89.900; -645.000; -477.000
252.362;  156.600;  344.000;  462.000
252.504;  -93.900; -677.000; -584.000
252.646; -210.900; -875.000; -722.000
252.788;   -1.000;   14.000; -128.000
252.931;  -65.700; -257.000; -253.000
253.073;  -32.800; -376.000; -317.000
253.215;    8.100;  141.000;  122.000
253.357;    8.800;   82.000; -153.000
253.499;  -88.300; -374.000; -234.000
253.641; -157.100; -749.000; -594.000
253.783; -199.400; -609.000; -527.000
253.925; -145.000; -586.000; -591.000
254.067; -223.800; -744.000; -667.000
254.209;  -45.400; -391.000; -259.000
254.351; -267.800; -865.000; -883.000
254.493;  -87.600; -441.000; -417.000
254.635; -207.100; -936.000; -818.000
254.777; -189.300; -752.000; -687.000
254.918; -161.100; -512.000; -430.000
255.060;  -72.800; -551.000; -395.000
255.202; -118.000; -473.000; -261.000
255.344; -135.400; -658.000; -455.000
255.486; -165.000; -471.000; -406.000
255.628; -212.100; -780.000; -781.000
255.770; -177.900; -676.000; -536.000
255.912; -127.200; -559.000; -468.000
256.053; -194.900; -730.000; -508.000
256.195;  363.300; 1008.000;  903.000
256.337; -215.600; -861.000; -595.000
256.479;  166.300;  532.000;  416.000
256.621; -132.800; -394.000; -212.000
256.762; -179.600; -789.000; -742.000
256.904;  123.300;  485.000;  487.000
257.046;  -23.700; -381.000; -271.000
257.188;  -92.400; -351.000; -264.000
257.329; -112.400; -525.000; -464.000
257.471; -211.700; -939.000; -807.000
257.613;  -98.200; -584.000; -498.000
257.755; -284.800;-1073.000; -982.000
257.896;  114.700;  286.000;  392.000
258.038; -132.200; -403.000; -352.000
258.180;  -59.700; -354.000; -279.000
258.321; -187.800; -581.000; -457.000
258.463;   35.100;  -71.000;  133.000
258.605; -171.700; -562.000; -570.000
258.746; -185.900; -886.000; -772.000
258.888; -277.600;-1026.000;-1020.000
259.029;   76.600;  121.000;   -8.000
259.171; -166.100; -614.000; -550.000
259.313;   30.800;  -49.000;  -47.000
259.454; -138.700; -536.000; -414.000
259.596;  -73.000; -483.000; -390.000
259.737; -141.800; -590.000; -474.000
259.879;  105.600;  217.000;  311.000
260.020;  210.300;  901.000;  636.000
260.162;  -12.900; -146.000; -253.000
260.303; -233.500; -768.000; -687.000
260.445; -136.500; -609.000; -613.000
260.586;   68.700;  392.000;  157.000
260.728;  -51.400; -360.000; -248.000
260.869; -149.100; -350.000; -343.000
261.011;  233.600;  706.000;  537.000
261.152; -120.300; -479.000; -319.000
261.293; -115.300; -576.000; -595.000
261.435;  -37.200; -219.000; -184.000
261.576;  -29.700; -455.000; -325.000
261.718;  128.300;  420.000;  470.000
261.859; -210.100; -940.000; -949.000
262.000; -246.800; -951.000;-1016.000
262.142;    8.300;  -52.000;  -60.000
262.283; -182.100; -808.000; -691.000
262.424; -179.200; -666.000; -625.000
262.566; -299.600;-1161.000; -983.000
262.707; -216.900; -840.000; -830.000
262.848; -223.500; -769.000; -726.000
262.990;  -77.900; -362.000; -345.000
263.131;  170.400;  650.000;  681.000
263.272;   19.100;  -61.000;  -41.000
263.413; -178.600; -589.000; -561.000
263.555;  -98.800; -669.000; -143.000
263.696; -153.900; -550.000; -641.000
263.837; -100.700; -449.000; -551.000
263.978;   14.100;   -5.000;  -77.000
264.119;  -66.900; -283.000; -264.000
264.261; -240.200; -847.000; -630.000
264.402;   47.000;   33.000;   40.000
264.543; -134.100; -509.000; -524.000
264.684;   30.000;   61.000;  -50.000
264.825; -129.100; -816.000; -538.000
264.966;   25.100;  -84.000;  -67.000
265.107; -220.000; -646.000; -670.000
265.248; -225.600; -825.000; -812.000
265.390;   14.300;  152.000;   -9.000
265.531;    8.600; -238.000; -107.000
265.672; -157.200; -557.000; -630.000
265.813;  166.400;  563.000;  439.000
265.954; -316.000; -959.000; -940.000
266.095;   -0.300; -372.000; -322.000
266.236; -198.600; -686.000; -548.000
266.377;  -43.400; -243.000; -297.000
266.518; -123.400; -619.000; -547.000
266.659;  115.000;  170.000;  268.000
266.800;   13.300;   83.000;   85.000
266.941;  -98.100; -487.000; -478.000
267.082;   31.800;  354.000;   99.000
267.223;  -69.400; -344.000; -273.000
267.364; -213.400; -892.000; -686.000
267.504;    8.100;    3.000;  135.000
267.645;   42.300;  160.000;   67.000
267.786;  -45.200; -147.000;  -86.000
267.927; -142.400; -473.000; -379.000
268.068;   12.000; -186.000;  -61.000
268.209;  -75.100; -175.000; -413.000
268.350; -102.900; -388.000; -532.000
268.490; -160.500; -648.000; -521.000
268.631;   99.200;  127.000;  225.000
268.772; -213.300; -874.000; -647.000
268.913;  -44.900; -328.000; -476.000
269.054;  -17.300; -117.000;   12.000
269.194;  -30.100; -418.000; -402.000
269.335; -314.100;-1137.000;-1074.000
269.476;   45.000;   33.000;  -35.000
269.617;  -85.000; -347.000; -392.000
269.757; -136.200; -713.000; -646.000
269.898; -198.400; -856.000; -613.000
270.039; -107.300; -415.000; -405.000
270.180; -271.500; -952.000; -816.000
270.320;   -2.500; -190.000; -250.000
270.461;  -51.400; -277.000; -249.000
270.602;   -5.700; -186.000; -156.000
270.742; -234.400; -868.000; -943.000
270.883;  -73.000; -442.000; -390.000
271.023; -118.400; -358.000; -357.000
271.164; -129.300; -607.000; -528.000
271.305; -187.400; -666.000; -654.000
271.445; -115.700; -722.000; -683.000
271.586; -119.800; -462.000; -283.000
271.726;  -48.100; -397.000; -322.000
271.867; -116.300; -594.000; -534.000
272.008;  384.800; -473.000; -285.000
272.148;  284.600;  462.000;  468.000
272.289;   67.600; -113.000; -181.000
272.429;   50.500;   19.000;  185.000
272.570; -143.300; -633.000; -737.000
272.710; -198.600; -825.000; -775.000
272.851;  -21.700;  113.000; -130.000
272.991; -322.700;-1173.000;-1077.000
273.131; -121.100; -419.000; -459.000
273.272; -181.200; -683.000; -723.000
273.412;   64.100; -143.000;  -31.000
273.553; -111.800; -488.000; -507.000
273.693;  350.600;  913.000;  858.000
273.834; -185.400; -894.000; -692.000
273.974; -101.200; -664.000; -615.000
274.114; -200.000; -772.000; -560.000
274.255;  184.300;  414.000;  373.000
274.395;   14.500; -180.000; -125.000
274.535;  129.100;  199.000;  350.000
274.676;   72.200;  225.000;   94.000
274.816;   46.700;  110.000;   34.000
274.956; -149.300; -624.000; -690.000
275.097; -116.800;-1014.000; -922.000
275.237; -219.200; -913.000; -803.000
275.377; -169.500; -778.000; -689.000
275.517; -285.000; -878.000; -937.000
275.658;  -81.100; -590.000; -555.000
275.798; -110.300; -606.000; -413.000
275.938;   90.200;  215.000;  323.000
276.078; -163.700; -626.000; -395.000
276.218;   74.700;   99.000;  104.000
276.359; -258.200;-1026.000;-1024.000
276.499; -110.000; -605.000; -446.000
276.639;  -48.000; -305.000; -151.000
276.779;  -69.600; -475.000; -357.000
276.919; -193.000; -783.000; -624.000
277.059;    1.200; -261.000; -212.000
277.199;  -74.500; -357.000; -259.000
277.340;  144.500;  287.000;  175.000
277.480; -213.000; -840.000; -693.000
277.620;  100.300;  192.000;   16.000
277.760; -390.000;-1533.000;-1294.000
277.900;   47.200;  113.000;   33.000
278.040;   70.100;  137.000;  159.000
278.180;  137.200;  270.000;  170.000
278.320;   16.200;   21.000;   56.000
278.460;  -91.600; -443.000; -469.000
278.600; -185.900; -708.000; -598.000
278.740;  143.100;  448.000;  224.000
278.880;  -70.900; -768.000; -791.000
279.020;   97.800; -194.000; -144.000
279.160; -161.900; -672.000; -595.000
279.300; -203.200; -926.000; -873.000
279.440; -149.100; -709.000; -622.000
279.579;  -46.900;-1014.000; -929.000
279.719;  -79.600; -410.000; -394.000
279.859;  180.800;   -4.000;   41.000
279.999;   75.100; -208.000;  101.000
280.139;   31.400; -435.000; -387.000
280.279; -142.200; -708.000; -745.000
280.419;   -6.900; -229.000; -147.000
280.559;  -32.100; -259.000; -180.000
280.698; -153.600; -790.000; -639.000
280.838; -170.600; -778.000; -800.000
280.978; -158.400; -846.000; -790.000
281.118; -188.100; -811.000; -704.000
281.257;   50.400;   24.000;    6.000
281.397; -205.300;-1094.000; -960.000
281.537; -139.100; -599.000; -712.000
281.677;    3.400; -150.000; -101.000
281.816; -157.900; -700.000; -630.000
281.956;  -53.600; -193.000; -257.000
282.096;  -78.300; -539.000; -396.000
282.235; -180.300; -672.000; -638.000
282.375;    8.500; -243.000;  -98.000
282.515; -197.600; -715.000; -707.000
282.654;  142.000;   29.000;  106.000
282.794;  101.500;  388.000;  244.000
282.934;  -67.300; -530.000; -491.000
283.073; -242.900;-1030.000; -857.000
283.213;  -55.800; -460.000; -467.000
283.353;  -31.700; -408.000; -349.000
283.492;  -10.200; -264.000; -296.000
283.632;  -77.800; -254.000; -168.000
283.771; -156.000; -859.000; -730.000
283.911;  -82.200; -369.000; -260.000
284.050; -181.500; -794.000; -748.000
284.190; -311.400;-1229.000;-1096.000
284.329; -243.600;-1055.000; -964.000
284.469; -102.800; -516.000; -591.000
284.608;  -43.400; -559.000; -598.000
284.748; -149.100; -614.000; -570.000
284.887;   26.600;  -87.000;  -20.000
285.027; -220.400; -844.000; -892.000
285.166;   -5.700; -192.000; -249.000
285.306;   37.300; -116.000;  -33.000
285.445;  -33.100; -229.000; -343.000
285.584; -189.000; -630.000; -494.000
285.724;  -37.500; -282.000; -322.000
285.863; -184.500; -857.000; -507.000
286.002;  -53.300; -366.000; -276.000
286.142; -207.400; -715.000; -622.000
286.281; -102.100; -525.000; -493.000
286.420; -132.100; -554.000; -417.000
286.560;  253.900;  653.000;  623.000
286.699; -254.900; -958.000; -912.000
286.838; -148.300; -590.000; -591.000
286.978; -138.700; -533.000; -537.000
287.117; -230.100;-1085.000; -950.000
287.256;  -57.500; -228.000; -211.000
287.395;  -66.800; -197.000; -378.000
287.535;  -56.400; -370.000; -298.000
287.674; -120.800; -509.000; -484.000
287.813;  157.400;  661.000;  533.000
287.952; -208.200;-1010.000; -871.000
288.091; -301.500;-1049.000; -915.000
288.231;   71.800;   13.000;   15.000
288.370; -338.000;-1217.000;-1200.000
288.509; -154.500; -728.000; -645.000
288.648; -149.600; -770.000; -548.000
288.787;    3.600; -243.000;  -87.000
288.926;  -80.300; -454.000; -475.000
289.065;  325.700;  859.000;  672.000
289.204;  -66.000; -377.000; -217.000
289.344; -146.400; -791.000; -690.000
289.483;   80.700;  416.000;  304.000
289.622;    5.500; -291.000; -149.000
289.761;   30.300; -309.000; -166.000
289.900; -174.400; -785.000; -626.000
290.039;   14.700;  -12.000;  -95.000
290.178;  -30.000; -274.000; -180.000
290.317; -104.700; -618.000; -479.000
290.456;  -77.900; -463.000; -451.000
290.595; -250.000; -961.000; -833.000
290.734; -246.500; -904.000; -891.000
290.873; -114.700; -456.000; -420.000
291.011; -184.600; -833.000; -843.000
291.150; -196.600; -770.000; -682.000
291.289;   31.000; -343.000; -110.000
291.428; -158.900; -599.000; -480.000
291.567;  -55.600; -370.000; -442.000
291.706;    9.900;  109.000;  154.000
291.845; -146.400; -597.000; -505.000
291.984; -300.500;-1234.000;-1061.000
292.122;  233.300;  602.000;  582.000
292.261;  137.900;  620.000;  463.000
292.400;   88.700; -144.000;  211.000
292.539; -198.900; -959.000; -813.000
292.678;   -6.700; -325.000; -300.000
292.816; -299.200;-1136.000; -965.000
292.955; -150.900; -844.000; -684.000
293.094;  -28.100; -173.000; -337.000
293.233;  -36.900; -556.000; -400.000
293.371;   -5.400; -225.000;  -84.000
293.510; -173.400; -866.000; -780.000
293.649; -244.100; -959.000; -924.000
293.787; -107.200;-1083.000;-1012.000
293.926;   33.900; -113.000;  -32.000
294.065;  -34.000; -379.000; -290.000
294.203;  155.800;  298.000;  406.000
294.342;  105.900;   74.000;  156.000
294.481;12672.000;51180.000; -836.000
294.619;  -14.000; -425.000; -582.000
294.758; -276.000;-1230.000;-1137.000
294.896;  187.500; -125.000;    5.000
295.035; -238.200;-1040.000;-1006.000
295.174; -181.600;-1082.000; -954.000
295.312;  -46.000; -323.000; -203.000
295.451;    7.200; -307.000; -428.000
295.589;  -65.900; -389.000; -518.000
295.728;   98.600; -292.000; -165.000
295.866;   28.400;  -36.000;  -51.000
296.005;  -84.400; -584.000; -341.000
296.143;  -99.700; -558.000; -596.000
296.282; -143.900; -957.000; -881.000
296.420; -138.000; -657.000; -557.000
296.559; -122.900; -892.000; -633.000
296.697;   62.900; -847.000; -665.000
296.835;  186.200;-1141.000;-1002.000
296.974;  159.200;  -23.000;   39.000
297.112;   54.300; -443.000; -504.000
297.251; -105.500; -815.000; -755.000
297.389;  237.400; -576.000; -438.000
297.527;  138.900; -145.000;  -83.000
297.666;  -45.400; -486.000; -438.000
297.804;  -82.800; -404.000; -264.000
297.942;   35.100; -136.000; -161.000
298.081;  -21.900; -183.000;   63.000
298.219;  194.600;  -17.000;  -19.000
298.357;  109.000; -144.000;  -71.000
298.495;  119.600; -810.000; -812.000
298.634;  205.800;  245.000;  219.000
298.772;  155.600; -220.000; -338.000
298.910;  -30.300; -309.000; -182.000
299.048;   27.300; -130.000; -153.000
299.187;  -17.600; -350.000; -250.000
299.325;   94.700;   52.000;  122.000
299.463;  128.700; -389.000; -299.000
299.601;  291.800; -327.000; -271.000
299.739; -190.900; -908.000; -883.000
299.877; -112.800; -791.000; -703.000
300.016;  -98.800;-1095.000; -935.000
300.154;  374.200;  -19.000; -161.000
300.292;  115.200; -428.000; -348.000
300.430;  121.600; -408.000; -291.000
300.568; -191.100; -940.000; -874.000
300.706;  -53.500; -366.000; -469.000
300.844; -120.900;-1108.000; -979.000
300.982;  282.800;  246.000;  282.000
301.120; -201.400; -965.000; -866.000
301.258;  -80.200; -812.000; -705.000
301.396;  121.400;  104.000;  -41.000
301.534;  227.700; -218.000; -293.000
301.672;   37.500; -664.000; -521.000
301.810;  138.800; -613.000; -545.000
301.948;  322.400;   53.000;  149.000
302.086; 1159.100; -250.000;  -32.000
302.224; 1889.500; -610.000; -585.000
302.362;  150.400; -558.000; -622.000
302.500;  -26.500; -923.000; -893.000
302.638;  263.800;  128.000;  245.000
302.776;   43.100; -352.000; -408.000
302.913;  140.900;  447.000;  236.000
303.051;   37.100;  -86.000;  -23.000
303.189;  173.900;   90.000;  118.000
303.327;  -10.300; -341.000; -256.000
303.465; -146.400; -832.000; -588.000
303.603; -172.200; -805.000; -604.000
303.740;  278.700;  417.000;  241.000
303.878;   55.200; -800.000; -759.000
304.016; -142.900; -915.000; -790.000
304.154; -232.400;-1123.000;-1152.000
304.291;  -20.900; -505.000; -554.000
304.429;   91.300;  102.000;   74.000
304.567; -195.900; -908.000; -893.000
304.705;  -91.800; -408.000; -515.000
304.842;  221.400; -616.000; -540.000
304.980;  149.800;  215.000;   35.000
305.118;  130.000; -367.000; -365.000
305.255;  -98.200; -945.000; -927.000
305.393;  197.400;  178.000;  239.000
305.531; -203.100;-1173.000; -956.000
305.668;  -93.700; -663.000; -582.000
305.806;  216.800; -358.000; -439.000
305.943;  221.400; -629.000; -637.000
306.081;  142.400; -378.000; -267.000
306.219; -177.000; -863.000; -748.000
306.356;   63.300;  158.000;   27.000
306.494;  348.500;  981.000;  761.000
306.631;   37.600;  -11.000;  -55.000
306.769;   75.000; -613.000; -485.000
306.906;    6.700; -284.000; -258.000
307.044;  -55.300; -473.000; -488.000
307.181;  -96.600; -410.000; -332.000
307.319;   94.300;  112.000;   87.000
307.456; -339.700;-1191.000;-1153.000
307.594; -143.500; -980.000; -727.000
307.731;   35.200; -371.000; -164.000
307.868;   53.100;  -15.000;   20.000
308.006; -233.400; -961.000; -847.000
308.143;  -80.000; -618.000; -330.000
308.281;  463.900;  -37.000; -254.000
308.418;   84.200; -748.000; -640.000
308.555;  -93.600; -400.000; -250.000
308.693;  -80.700; -577.000; -573.000
308.830; -154.900; -712.000; -657.000
308.967;   42.100; -215.000;  -95.000
309.105;  -23.400; -507.000; -396.000
309.242;  175.200; -468.000; -367.000
309.379;  888.000; -577.000; -655.000
309.517;   -3.700; -936.000; -948.000
309.654; -178.700; -910.000; -734.000
309.791;  -68.500; -662.000; -580.000
309.928; -197.300; -977.000; -914.000
310.065;  445.700;  819.000;  697.000
310.203;   18.700; -825.000; -850.000
310.340;   64.800; -465.000; -321.000
310.477; -103.100; -412.000; -516.000
310.614;  -61.900; -383.000; -473.000
310.751;  -84.400; -427.000; -518.000
310.889;   30.600;    1.000;   11.000
311.026; -253.600;-1161.000; -939.000
311.163;  -36.400; -386.000; -380.000
311.300;  -98.900; -512.000; -479.000
311.437;  -84.400; -658.000; -619.000
311.574; -267.700;-1226.000; -985.000
311.711;  -32.200; -595.000; -433.000
311.848;  -46.800; -380.000; -388.000
311.985;  105.100;  270.000;   93.000
312.122; -192.800; -932.000; -762.000
312.259; -172.700; -941.000; -994.000
312.396; -100.600; -508.000; -551.000
312.533; -107.700; -812.000; -790.000
312.670; -220.800;-1070.000; -898.000
312.807;    4.700; -352.000; -367.000
312.944;  -59.900; -513.000; -611.000
313.081;   16.000; -150.000; -415.000
313.218; -185.300;-1111.000; -867.000
313.355;   62.300; -531.000; -449.000
313.492;   47.700; -455.000; -292.000
313.629;  356.600;  815.000;  735.000
313.766; -278.700;-1176.000;-1008.000
313.902;   66.700; -186.000;   21.000
314.039;  -59.200; -372.000; -289.000
314.176;  148.800;  286.000;  192.000
314.313; -120.200; -569.000; -473.000
314.450;  -96.000; -788.000; -684.000
314.587;  -43.400; -468.000; -480.000
314.723;   66.500;  -78.000;  130.000
314.860;  141.300;  318.000;  332.000
314.997;  132.400;  223.000;  142.000
315.134;  -10.900; -385.000; -368.000
315.270;   -6.100; -480.000; -496.000
315.407; -215.000;-1094.000; -967.000
315.544;  -29.300; -657.000; -538.000
315.681;  -95.800; -681.000; -565.000
315.817;  154.100; -133.000; -176.000
315.954;   84.500; -613.000; -392.000
316.091; -189.400;-1045.000;-1023.000
316.227;    3.500;  -71.000; -179.000
316.364;   64.800;   23.000;    6.000
316.500;  -17.200; -113.000; -300.000
316.637;   -9.100; -181.000; -302.000
316.774; -134.300; -625.000; -358.000
316.910; -127.000; -598.000; -629.000
317.047; -106.100; -487.000; -351.000
317.183;  -33.900; -435.000; -566.000
317.320;    1.600; -367.000; -321.000
317.456;  -86.400; -733.000; -805.000
317.593; -153.100; -598.000; -641.000
317.729;  107.100;  168.000;  -67.000
317.866; -388.200;-1434.000;-1285.000
318.002; -115.600; -708.000; -948.000
318.139; -174.700; -883.000; -867.000
318.275; -173.400;-1003.000; -738.000
318.412;  -94.300; -517.000; -336.000
318.548;   -1.600; -751.000; -720.000
318.685; -154.400; -985.000; -888.000
318.821; -117.300; -762.000; -735.000
318.957;   16.300;   34.000;  -23.000
319.094;  119.000;  297.000;  154.000
319.230; -105.100; -756.000; -742.000
319.367;  308.700; -471.000; -520.000
319.503;  157.700; -538.000; -436.000
319.639; -152.800; -877.000; -793.000
319.775;  -95.200; -750.000; -685.000
319.912;  -75.200; -424.000; -519.000
320.048; -156.900;-1184.000;-1184.000
320.184;  223.800;   59.000;   70.000
320.321; -110.100; -497.000; -467.000
320.457;  220.300;  475.000;  662.000
320.593;  -98.700; -375.000; -382.000
320.729; -168.300; -732.000; -734.000
320.866; -121.300; -577.000; -635.000
321.002; -118.100; -759.000; -809.000
321.138;  -11.900; -135.000; -211.000
321.274;  171.000; -148.000; -115.000
321.410;  -30.400; -585.000; -353.000
321.546;  -43.100;-1011.000; -911.000
321.683;  174.900;  400.000;  185.000
321.819;   65.600;  -48.000; -117.000
321.955; -166.000; -743.000; -722.000
322.091;  -42.000; -585.000; -540.000
322.227;   -6.100; -382.000; -202.000
322.363;   42.400; -320.000; -215.000
322.499;  -55.200; -343.000; -331.000
322.635;  365.100;  636.000;  443.000
322.771;   87.000; -139.000;   12.000
322.907;  271.700;  129.000;  327.000
323.043;   11.000; -115.000; -206.000
323.179;   -9.400; -394.000; -363.000
323.315;  109.600; -401.000; -371.000
323.451;  251.000; -328.000; -236.000
323.587;  176.400;  -60.000;  -77.000
323.723;   53.400; -682.000; -601.000
323.859;    2.100; -258.000;  -76.000
323.995;  -32.200; -467.000; -409.000
324.131; -211.100; -967.000; -892.000
324.267;   -1.700; -254.000; -276.000
324.402; -227.600; -960.000; -983.000
324.538;   20.000; -279.000; -104.000
324.674;   98.800;  164.000;   77.000
324.810;  417.600;  226.000;  308.000
324.946;   87.800; -810.000; -658.000
325.082;  -83.100; -568.000; -475.000
325.217;   22.400;  -62.000;   16.000
325.353; -141.200; -764.000; -659.000
325.489; -114.300; -540.000; -506.000
325.625;  -83.600; -579.000; -525.000
325.760;  163.100;  517.000;  376.000
325.896;  -47.300; -515.000; -702.000
326.032;  -64.000; -403.000; -352.000
326.168;  -69.600; -462.000; -369.000
326.303;  -96.600; -352.000; -461.000
326.439;   -4.400; -336.000; -276.000
326.575;   42.500; -190.000;  -29.000
326.710;   72.200; -156.000;  -30.000
326.846;  -25.000;  146.000;  103.000
326.982; -146.000; -530.000; -548.000
327.117;  -95.600; -481.000; -442.000
327.253; -141.600; -745.000; -742.000
327.388; -276.900;-1137.000;-1153.000
327.524;  -23.300; -811.000; -578.000
327.659;   11.800;  -58.000;  -22.000
327.795;   13.600;   69.000;   45.000
327.931; -139.500; -723.000; -499.000
328.066;   20.100; -417.000; -276.000
328.202;   36.900;   12.000; -129.000
328.337;  282.800;  957.000;  713.000
328.473;   15.500;  -12.000;  -74.000
328.608;    6.000; -256.000; -267.000
328.743; -143.000; -799.000; -664.000
328.879;   81.800;  214.000;  114.000
329.014; -110.700; -102.000; -122.000
329.150; -131.500; -358.000; -483.000
329.285;  -97.800; -465.000; -466.000
329.421;  -30.600; -548.000; -246.000
329.556;  -14.400;  -36.000;   85.000
329.691; -152.000; -633.000; -615.000
329.827; -101.500; -626.000; -480.000
329.962;  -40.900;  131.000; -301.000
330.097; -159.300; -673.000; -585.000
330.233;  -35.400; -410.000; -223.000
330.368; -251.400; -839.000; -628.000
330.503;   65.100;    3.000;   98.000
330.638;   60.100;  -93.000; -125.000
330.774;  -68.700; -609.000; -530.000
330.909;  -41.700; -434.000; -244.000
331.044; -144.300; -714.000; -708.000
331.179; -334.000;-1217.000;-1109.000
331.315;  103.900;   77.000;   20.000
331.450;   92.700;  157.000;  285.000
331.585; -130.900; -805.000; -706.000
331.720; -126.900; -510.000; -460.000
331.855;   69.100;  -35.000; -102.000
331.990;  474.000;   62.000;  138.000
332.126;  306.500; -110.000;   71.000
332.261;  -23.100; -379.000; -265.000
332.396;   55.300; -135.000; -242.000
332.531; -212.200;-1074.000;-1031.000
332.666;   93.400; -519.000; -363.000
332.801; -167.000; -726.000; -807.000
332.936;   34.700; -192.000; -122.000
333.071; -282.600; -870.000; -817.000
333.206;   91.500;  307.000;  379.000
333.341;  121.200;  344.000;  418.000
333.476; -127.600; -627.000; -623.000
333.611;   -3.000; -251.000; -173.000
333.746;  -42.900; -381.000; -464.000
333.881; -180.700; -973.000; -935.000
334.016; -204.200; -936.000; -917.000
334.151; -231.400; -746.000; -702.000
334.286;  116.000;  152.000;  186.000
334.421;   30.100; -125.000; -178.000
334.556; -104.700; -611.000; -567.000
334.690; -113.300; -631.000; -577.000
334.825;  174.800;  381.000;   83.000
334.960;  -60.600; -285.000; -413.000
335.095;   87.800;  135.000;  -91.000
335.230; -147.300; -722.000; -738.000
335.365; -225.100;-1084.000; -990.000
335.499; -244.400;-1108.000;-1037.000
335.634;  123.100;    9.000;  534.000
335.769; -158.400; -755.000; -720.000
335.904;  -33.700; -603.000; -561.000
336.038;  -51.900; -735.000; -657.000
336.173; -142.300;-1206.000;-1194.000
336.308;  112.400; -116.000; -189.000
336.443;   69.200; -544.000; -634.000
336.577;  -95.400; -936.000; -787.000
336.712;  187.900;   -4.000;  -12.000
336.847;  -32.000; -724.000; -607.000
336.981;  225.200; -272.000; -208.000
337.116;  608.600;  615.000;  501.000
337.250;  391.100; -434.000; -421.000
337.385;  443.600; -297.000; -208.000
337.520;  170.900; -632.000; -603.000
337.654;  -54.200; -215.000; -126.000
337.789; -203.100; -989.000; -933.000
337.923;  -15.200; -104.000; -205.000
338.058; -117.300; -673.000; -738.000
338.192;   -9.600; -611.000; -488.000
338.327;   76.700;  -18.000; -155.000
338.461;  -90.300; -299.000; -469.000
338.596; -105.800; -780.000; -638.000
338.730; -162.200; -767.000; -803.000
338.865;  219.900;  -46.000; -140.000
338.999; -110.700; -846.000; -702.000
339.134;    2.900; -634.000; -536.000
339.268;   18.400; -741.000; -603.000
339.403;  642.700; -740.000; -775.000
339.537;  186.600; -894.000; -820.000
339.671; -193.900; -829.000; -813.000
339.806;  -67.100; -556.000; -512.000
339.940;   80.800; -261.000; -235.000
340.074; -177.600; -685.000; -510.000
340.209;   -6.100; -351.000; -230.000
340.343; -143.100; -517.000; -573.000
340.477;  392.100;  998.000; 1036.000
340.612; -135.600;-1033.000; -900.000
340.746;  258.700; -199.000; -243.000
340.880;  -96.600; -924.000; -785.000
341.014;   37.100;  -45.000; -154.000
341.149; -209.200; -756.000; -718.000
341.283; -162.100; -839.000; -754.000
341.417; -147.500;-1124.000; -938.000
341.551;  364.800; -768.000; -708.000
341.685;  -10.400; -633.000; -611.000
341.820;  -54.400; -562.000; -493.000
341.954;  -62.800; -218.000; -349.000
342.088; -247.700;-1102.000;-1019.000
342.222;  124.200;  565.000;  618.000
342.356;  -52.600; -395.000; -335.000
342.490; -147.400; -880.000; -841.000
342.624;   -2.700; -339.000; -242.000
342.758;   43.700; -364.000; -312.000
342.892;  -58.000; -710.000; -585.000
343.026;  -48.800;  -58.000; -116.000
343.160;  -34.200; -426.000; -376.000
343.294; -134.000; -474.000; -337.000
343.428;    8.700; -488.000; -448.000
343.562;   52.800; -172.000;  -23.000
343.696;   48.600; -385.000; -314.000
343.830;    4.400; -362.000; -356.000
343.964;  117.700; -231.000; -168.000
344.098; 1783.400;  199.000;   70.000
344.232; 1577.900; -266.000; -127.000
344.366;  238.500; -567.000; -453.000
344.500;  178.200; -665.000; -744.000
344.634;  100.200; -324.000; -164.000
344.768;   35.900; -531.000; -341.000
344.902;   61.100;  278.000;  256.000
345.035; -103.700; -556.000; -496.000
345.169; -241.300; -933.000; -656.000
345.303;    2.400; -308.000; -482.000
345.437; -109.400; -826.000; -717.000
345.571;  -89.100; -675.000; -594.000
345.704; -104.000; -309.000; -532.000
345.838;   26.600; -331.000; -284.000
345.972;  -24.400; -543.000; -495.000
346.106;  345.100; -179.000; -190.000
346.239;  783.100; -312.000; -243.000
346.373;   77.100; -343.000; -302.000
346.507; -263.700; -950.000; -962.000
346.640;  336.200;  -30.000;   13.000
346.774;  -24.400; -650.000; -797.000
346.908;   52.300; -138.000;  -11.000
347.041; -160.100; -646.000; -593.000
347.175;   71.300;  259.000;   27.000
347.309;  -75.100; -698.000; -628.000
347.442; -132.400; -883.000; -732.000
347.576;  632.600;  670.000;  668.000
347.709;  501.400; -123.000;  -52.000
347.843; -162.400; -933.000; -825.000
347.976;  159.900;  235.000;  294.000
348.110; -325.100;-1268.000;-1186.000
348.243; -153.300; -679.000; -772.000
348.377;   68.200;  -26.000;   60.000
348.510;  168.800;  403.000;  540.000
348.644;  -31.300;  -37.000; -159.000
348.777;   58.200;  180.000;  191.000
348.911;  -41.600; -142.000; -112.000
349.044;  426.300;  471.000;  448.000
349.178;  354.000;-1069.000;-1006.000
349.311;  279.700;  141.000;  255.000
349.444;  -17.500; -927.000; -813.000
349.578;   39.500; -347.000; -200.000
349.711; -163.200; -959.000; -862.000
349.845;   76.000; -661.000; -591.000
349.978; -267.800;-1224.000;-1137.000
350.111; -119.700; -546.000; -612.000
350.244; -115.700; -596.000; -700.000
350.378;   95.900; -392.000; -393.000
350.511; -119.200; -393.000; -426.000
350.644; -182.900; -808.000; -806.000
350.778;   47.700;  168.000;  104.000
350.911;  104.500;  134.000;  140.000
351.044; -113.600; -685.000; -615.000
351.177;   29.700; -321.000; -281.000
351.310;   30.800;    3.000; -131.000
351.444;  -69.500; -888.000; -788.000
351.577;  278.300;  140.000;   90.000
351.710;  278.400;  593.000;  417.000
351.843;  -13.500; -165.000;  -77.000
351.976;   71.400;  149.000;  -79.000
352.109; -116.900; -621.000; -612.000
352.242;   27.100; -464.000; -419.000
352.376;  -85.100; -580.000; -636.000
352.509;  411.700; -437.000; -356.000
352.642;   50.400; -654.000; -604.000
352.775;  198.700; -141.000;  -98.000
352.908; -206.200; -933.000; -904.000
353.041; -142.900; -814.000; -824.000
353.174;  -72.400; -551.000; -424.000
353.307; -136.300; -753.000; -764.000
353.440;  203.600;  541.000;  453.000
353.573; -146.200; -957.000;-1008.000
353.706;   -8.900; -384.000; -558.000
353.839;   60.100; -264.000; -220.000
353.971; -154.800; -657.000; -512.000
354.104;  -82.200; -896.000; -835.000
354.237;   -7.400; -627.000; -662.000
354.370; -125.500; -846.000; -879.000
354.503; -303.700;-1231.000;-1308.000
354.636;   17.400; -529.000; -348.000
354.769; -200.900; -937.000; -860.000
354.902;   80.900; -230.000; -139.000
355.034;   16.600; -164.000; -220.000
355.167;   19.800; -262.000; -162.000
355.300; -177.200;-1061.000; -880.000
355.433; 1759.800;  -71.000;  -14.000
355.565; 2650.000; -402.000; -384.000
355.698;  684.600; -356.000; -296.000
355.831;   41.200; -882.000; -801.000
355.964;  268.300; -285.000; -170.000
356.096; -132.200; -856.000; -843.000
356.229;   78.900; -523.000; -530.000
356.362;  595.600; -373.000; -266.000
356.494; 1169.800; -229.000; -162.000
356.627;  999.300;  269.000;  377.000
356.760; 1244.700;  120.000;   53.000
356.892; 1647.300; -286.000; -601.000
357.025; 1342.500;  403.000;  389.000
357.157; 1266.600; -167.000; -179.000
357.290; 1078.900; -856.000; -713.000
357.423;  355.200; -667.000; -556.000
357.555;  296.800; -217.000; -228.000
357.688;  300.100; -483.000; -364.000
357.820;  837.600; -870.000; -877.000
357.953; 6674.100; -563.000; -589.000
358.085; 1566.500; -632.000; -612.000
358.218; 2506.400;-1131.000; -932.000
358.350;  515.000;  -58.000;  312.000
358.483; -205.700;-1300.000;-1187.000
358.615;   40.000;-1182.000;-1078.000
358.747;  -52.700;-1187.000;-1058.000
358.880;  124.500; -810.000; -744.000
359.012;   50.100; -376.000; -202.000
359.145;  -29.500; -480.000; -511.000
359.277;  132.600; -962.000; -913.000
359.409; 5654.000;  536.000;  231.000
359.542; 1437.300; -738.000; -688.000
359.674;  186.700;   46.000;   13.000
359.806;  -68.200; -565.000; -438.000
359.939;  -34.800; -617.000; -516.000
360.071;  -22.400; -583.000; -579.000
360.203;   47.600; -411.000; -364.000
360.335;  145.200;  164.000;  -16.000
360.468;  374.400; -249.000; -307.000
360.600; 4454.500; -547.000; -454.000
360.732; 4677.800; -546.000; -423.000
360.864;  629.600;-1216.000;-1044.000
360.996;  662.000; -516.000; -554.000
361.129;  108.300; -389.000; -598.000
361.261;  122.100;  110.000; -113.000
361.393;  -18.900; -252.000; -214.000
361.525;  115.400;   94.000;  244.000
361.657;  -76.200; -821.000; -703.000
361.789;  135.200; -139.000; -155.000
361.921;  585.000; -642.000; -593.000
362.053;  620.400;  524.000;  541.000
362.185;  170.800;  288.000;   72.000
362.318; -104.100; -709.000; -705.000
362.450;  292.700;  294.000;  444.000
362.582;  336.700; -913.000; -870.000
362.714;  -20.500; -353.000; -332.000
362.846; -129.700; -606.000; -490.000
362.978; -232.000; -941.000; -811.000
363.109;  201.000; -161.000; -260.000
363.241;  896.100; -739.000; -749.000
363.373;  780.600; -649.000; -564.000
363.505; 1194.200; -186.000;  -91.000
363.637;  315.200; -787.000; -601.000
363.769; -212.300;-1067.000;-1080.000
363.901;  -73.500; -596.000; -654.000
364.033; -224.200;-1103.000;-1062.000
364.165;   85.500; -283.000; -283.000
364.296;  168.200; -316.000; -177.000
364.428;   90.500;-1344.000;-1220.000
364.560; -152.000; -679.000; -661.000
364.692;  -74.300; -738.000; -835.000
364.824;  596.500; -588.000; -456.000
364.955;  852.400; -402.000; -564.000
365.087; 1405.300;-1097.000; -852.000
365.219;   69.500; -686.000; -816.000
365.351; -105.400; -526.000; -572.000
365.482;  174.500;  300.000;  240.000
365.614;  -15.100; -402.000; -314.000
365.746; -133.400; -729.000; -752.000
365.877; -153.400; -706.000; -672.000
366.009;  491.900;  -35.000;  -62.000
366.141; -178.900;-1249.000;-1134.000
366.272; -155.000; -803.000; -719.000
366.404; -195.900;-1005.000; -874.000
366.535;   22.500; -139.000;  -12.000
366.667; -174.000; -644.000; -649.000
366.799;  172.900;  353.000;  203.000
366.930; -172.900; -862.000; -996.000
367.062;  298.000; -639.000; -613.000
367.193;  277.600; -872.000; -842.000
367.325;  -71.900; -580.000; -684.000
367.456;  196.000; -246.000;   31.000
367.588;  365.300; -371.000; -318.000
367.719;  126.500;  -44.000;  -45.000
367.851;   18.200; -222.000; -241.000
367.982;  -57.500; -875.000; -732.000
368.113;  259.600; -475.000; -358.000
368.245; -180.700; -960.000; -841.000
368.376;   36.800; -254.000; -302.000
368.508;   17.300; -188.000; -263.000
368.639; -227.600;-1166.000;-1034.000
368.770;   22.400; -670.000; -589.000
368.902;  -72.000; -836.000; -926.000
369.033; -180.600; -906.000; -855.000
369.164;  -23.600; -720.000; -653.000
369.296; -163.500; -452.000; -601.000
369.427;   92.600; -209.000; -144.000
369.558;  -25.300; -593.000; -377.000
369.689; -108.600; -721.000; -569.000
369.821; -226.700; -951.000; -845.000
369.952;   44.800;   42.000; -108.000
370.083;  -64.400; -229.000; -108.000
370.214; -104.200; -735.000; -650.000
370.345;   65.500;   65.000;   81.000
370.477; -114.700; -810.000; -790.000
370.608;  512.700; -328.000; -264.000
370.739;  -43.000;-1233.000;-1292.000
370.870;  -37.300;-1102.000; -923.000
371.001;  216.900; -378.000; -467.000
371.132; -110.400; -754.000; -735.000
371.263;   57.100;  -42.000; -148.000
371.394; -223.000; -841.000; -748.000
371.525;  165.100;  345.000;  225.000
371.657; -151.900; -808.000; -670.000
371.788;  217.900;  103.000;  199.000
371.919;  391.500; -384.000; -304.000
372.050; 7087.600;  -91.000; -156.000
372.181; 1956.000; -188.000; -294.000
372.311;  808.200;   42.000; -127.000
372.442;  115.400; -457.000; -451.000
372.573;   47.900; -444.000; -340.000
372.704; -209.600;-1008.000; -980.000
372.835;  222.900; -228.000; -289.000
372.966;  -71.100; -646.000; -554.000
373.097;  -39.500; -575.000; -711.000
373.228;  -40.400; -717.000; -542.000
373.359;  327.900; -824.000; -536.000
373.490; 1963.600; -881.000; -727.000
373.620; 2320.100;-1001.000; -803.000
373.751; 3637.500; -332.000; -396.000
373.882; 1590.800; -663.000; -733.000
374.013;  190.700; -449.000; -262.000
374.143;   10.200; -581.000; -659.000
374.274; -155.400; -987.000; -908.000
374.405;  422.900; -388.000; -276.000
374.536;  959.100; -526.000; -387.000
374.666; 2322.700; -759.000; -807.000
374.797;  469.700; -817.000; -868.000
374.928; 1854.500; -710.000; -560.000
375.058; 1745.200; -535.000; -500.000
375.189;  213.100;  -59.000;  -93.000
375.320; -143.500; -928.000;-1034.000
375.450;  -12.300; -625.000; -616.000
375.581;  -43.900; -526.000; -436.000
375.712;   -6.900; -574.000; -250.000
375.842;  703.500; -438.000; -415.000
375.973;  489.700; -554.000; -513.000
376.103;  -11.000; -665.000; -648.000
376.234;  -81.400; -531.000; -552.000
376.364;  -27.000; -944.000; -867.000
376.495;  713.100;  925.000;  529.000
376.625;   66.500; -472.000; -485.000
376.756;  222.000; -709.000; -678.000
376.886; -110.900;-1178.000;-1026.000
377.017;  124.100;-1048.000;-1061.000
377.147;  591.300; -786.000; -782.000
377.278;  192.200;  174.000;  228.000
377.408; -173.400; -801.000; -815.000
377.538; -124.300; -707.000; -693.000
377.669;  -97.100; -537.000; -613.000
377.799; -109.200; -645.000; -635.000
377.929;  -37.000; -610.000; -428.000
378.060; -177.200; -781.000; -847.000
378.190;  -77.100; -726.000; -531.000
378.320;    4.900; -401.000; -406.000
378.451;   62.900; -131.000;  -22.000
378.581;   62.800;  -67.000; -110.000
378.711;  412.700; 1035.000;  866.000
378.841;   40.400; -533.000; -675.000
378.972;  -75.400; -871.000; -751.000
379.102;   78.500; -652.000; -579.000
379.232;   33.400; -126.000;  -73.000
379.362; -140.300;-1001.000; -885.000
379.492;  104.200; -373.000; -424.000
379.623;  275.800;    0.000;  111.000
379.753; -103.900;-1107.000; -974.000
379.883;  481.600;   59.000;  156.000
380.013;   49.400;-1081.000;-1017.000
380.143; -155.300;-1097.000;-1056.000
380.273; -134.800; -985.000; -861.000
380.403;  101.600; -344.000; -257.000
380.533;    4.000; -651.000; -664.000
380.663;  282.800;  173.000;  128.000
380.793;  -90.600;-1027.000;-1074.000
380.923;   81.500; -103.000;  -34.000
381.053; -143.600; -613.000; -623.000
381.183;   12.300; -106.000; -248.000
381.313;  122.400; -656.000; -470.000
381.443;  144.700; -692.000; -473.000
381.573;  530.300; -402.000; -409.000
381.703;  682.100;-1249.000;-1095.000
381.833; -169.300;-1454.000;-1336.000
381.963;  300.200; -134.000;  -87.000
382.093; 2672.300; -925.000; -909.000
382.223;  873.100; -713.000; -602.000
382.353;   26.000; -801.000; -608.000
382.482;  860.600;-1091.000; -964.000
382.612; 1537.300; -872.000; -644.000
382.742;  899.000; -695.000; -622.000
382.872;  615.700; -565.000; -551.000
383.002;  197.600;  347.000; -132.000
383.131;  100.300; -226.000; -160.000
383.261;    5.600; -706.000; -768.000
383.391;  573.400; -552.000; -377.000
383.521; 5411.000;  451.000;  263.000
383.650; 1112.500; -947.000; -904.000
383.780;   -3.300; -783.000; -656.000
383.910;  291.900;  880.000;  802.000
384.039;  149.700; -794.000; -656.000
384.169;  447.800;-1205.000;-1017.000
384.299;   57.100; -650.000; -662.000
384.428;  -95.900; -764.000; -680.000
384.558;   35.300; -308.000; -275.000
384.687;   -4.700; -414.000; -334.000
384.817;  156.100;   75.000;   -2.000
384.947;  169.100; -234.000; -141.000
385.076;  681.600;  982.000;  912.000
385.206;  295.700;  369.000;  480.000
385.335;   65.900; -549.000; -417.000
385.465;  -91.100; -655.000; -663.000
385.594;  407.000;  -53.000;  -44.000
385.724;  934.200; -868.000; -838.000
385.853;  351.300; -296.000; -270.000
385.982; 2871.600; -743.000; -787.000
386.112; 4199.700;-1052.000; -871.000
386.241;  356.700; -307.000; -312.000
386.371;  174.700; -174.000;  -87.000
386.500;   67.200; -825.000; -789.000
386.629;  137.900; -874.000; -817.000
386.759;  230.200;  -43.000;   68.000
386.888;  135.000; -170.000; -250.000
387.017;  -37.800; -648.000; -620.000
387.147;   -1.600; -771.000; -798.000
387.276;   93.100; -410.000; -397.000
387.405;  117.900; -398.000; -342.000
387.535;   -2.300; -452.000; -361.000
387.664;  -36.400; -692.000; -620.000
387.793;  242.500; -198.000; -113.000
387.922; 1188.100;  255.000;  200.000
388.052;  177.500; -576.000; -423.000
388.181;  228.400; -342.000; -472.000
388.310;  201.200; -889.000; -710.000
388.439;   67.900; -749.000; -742.000
388.568;  453.200;  365.000;  244.000
388.697; 2203.200; -756.000; -653.000
388.826;  443.100; -768.000; -666.000
388.956;  210.700; -285.000; -307.000
389.085;   34.500; -347.000; -287.000
389.214; -137.700; -842.000; -872.000
389.343;  -76.400; -645.000; -413.000
389.472;  808.600;  126.000;  149.000
389.601;  990.200;   91.000;    0.000
389.730;  131.800; -568.000; -687.000
389.859;  217.000;  226.000;   46.000
389.988;  469.800; -423.000; -408.000
390.117;  327.400; -168.000; -146.000
390.246;   78.700; -331.000; -320.000
390.375;  268.600; -673.000; -626.000
390.504;  -73.500; -703.000; -621.000
390.633; -129.100; -672.000; -726.000
390.761;  -53.400; -732.000; -645.000
390.890;  157.800;   -4.000; -130.000
391.019;   29.100; -421.000; -441.000
391.148; -207.600; -826.000; -855.000
391.277;  -42.000; -576.000; -493.000
391.406;  -81.900; -821.000; -805.000
391.534;  161.000;  574.000; -301.000
391.663;  -66.300; -583.000; -645.000
391.792;  -69.900; -673.000; -701.000
391.921;  285.800;   -3.000;   15.000
392.050;  525.200; -287.000; -228.000
392.178;  -32.600;-1206.000;-1061.000
392.307;  372.500; -758.000; -712.000
392.436;  173.600; -427.000; -641.000
392.564;  110.000;  166.000;   -6.000
392.693; -145.300; -860.000; -682.000
392.822;  469.200; -529.000; -534.000
392.950;  214.700; -880.000; -714.000
393.079;  766.500; -188.000; -328.000
393.208;   90.500; -488.000; -511.000
393.336;   65.100; -170.000; -145.000
393.465;  -36.700; -317.000; -199.000
393.593;  101.000;   62.000;   79.000
393.722; -223.200;-1121.000; -916.000
393.850;   18.600; -188.000;  -61.000
393.979; -251.900; -926.000; -805.000
394.107;  -69.600; -517.000; -537.000
394.236;   39.300; -570.000; -507.000
394.364;  591.400;  383.000;  206.000
394.493;  982.000; -911.000; -767.000
394.621;   47.800; -955.000; -916.000
394.750; 1330.300; -873.000; -923.000
394.878; 5361.700; -247.000; -149.000
395.007; 6858.000; -721.000; -807.000
395.135;  508.500; -790.000; -721.000
395.263; -139.500;-1038.000;-1040.000
395.392;  108.600;  -25.000; -107.000
395.520; -232.700; -818.000; -679.000
395.648;  -65.800; -865.000; -915.000
395.777;   33.600; -366.000; -405.000
395.905;   11.200; -449.000; -564.000
396.033;   95.800;  217.000;  172.000
396.162; 1583.600; -399.000; -453.000
396.290; 1309.300;  -17.000;   -2.000
396.418;  315.700; -555.000; -514.000
396.546;  -84.400; -571.000; -466.000
396.674; -117.500; -850.000; -878.000
396.803;   60.600;  -72.000;  -23.000
396.931;  280.600; -179.000; -199.000
397.059;  134.600;-1026.000; -989.000
397.187; -141.100;-1026.000; -975.000
397.315; -205.900; -884.000; -649.000
397.443; -110.700; -592.000; -443.000
397.572; -117.000; -578.000; -424.000
397.700;   83.500; -607.000; -614.000
397.828;   61.700;  120.000;  -90.000
397.956;  -48.200; -508.000; -478.000
398.084; -103.300; -767.000; -626.000
398.212;  171.200;  137.000;  124.000
398.340;  112.500;  -56.000;  159.000
398.468;  164.900; -390.000; -169.000
398.596; -194.500; -993.000; -953.000
398.724; -154.900; -762.000; -767.000
398.852; -267.700;-1024.000; -976.000
398.980;  -61.200; -560.000; -560.000
399.108;  -35.600; -982.000; -735.000
399.236;  145.300;   13.000;    8.000
399.363;   72.700;  222.000;  196.000
399.491;  -51.200; -404.000; -398.000
399.619; -213.000; -829.000; -800.000
399.747; -131.000; -859.000; -771.000
399.875;  218.600;  220.000;  234.000
400.003;  -52.100; -359.000; -284.000
400.130; -122.000; -421.000; -341.000
400.258;   13.900;  -83.000;   38.000
400.386;  -86.000; -352.000; -168.000
400.514;  -11.000; -526.000; -587.000
400.641; -133.500; -928.000; -802.000
400.769; -228.600; -979.000; -888.000
400.897; -110.900; -838.000; -793.000
401.025;   88.100; -166.000; -152.000
401.152;   69.400;  220.000;   38.000
401.280;  -81.000; -430.000; -429.000
401.408; -173.000; -712.000; -576.000
401.535; -137.200; -735.000; -758.000
401.663; -314.900;-1134.000;-1054.000
401.790;  -96.300; -514.000; -525.000
401.918;  184.000;  436.000;  405.000
402.046;   60.400;  134.000;  122.000
402.173;  -24.800;  -18.000;    7.000
402.301;  -27.800; -519.000; -397.000
402.428;  146.400;  528.000;  383.000
402.556; -230.100;-1188.000; -913.000
402.683;   23.100;  -20.000;   -1.000
402.811;   78.700;  -37.000; -206.000
402.938;   34.300;   20.000;   27.000
403.066;  446.300; -574.000; -558.000
403.193;  642.400;  299.000;  239.000
403.321;  547.800; -396.000; -574.000
403.448;  663.300;   83.000;   27.000
403.575;  345.000;  -90.000;  -46.000
403.703; -156.400; -732.000; -557.000
403.830;  -49.400; -531.000; -496.000
403.957; -226.900;-1117.000;-1023.000
404.085;   97.500;  -61.000; -172.000
404.212;  298.600;  -50.000;   63.000
404.339;  586.600; -566.000; -306.000
404.467;10369.200; -612.000; -524.000
404.594; 6743.900; -287.000; -227.000
404.721; 1666.500; -869.000; -764.000
404.848;  231.300; -113.000; -202.000
404.976; -121.200; -856.000; -783.000
405.103;   52.600;  -14.000;  -82.000
405.230;   58.700;  190.000;  226.000
405.357;  137.300;  117.000;   44.000
405.484;  527.800;  -49.000;    5.000
405.612;  116.900; -548.000; -563.000
405.739;  -63.500; -488.000; -243.000
405.866;  255.200;  669.000;  385.000
405.993;  -30.200; -398.000; -102.000
406.120; -188.500; -801.000; -887.000
406.247;  -85.900; -323.000; -342.000
406.374; 1016.600;  540.000;  629.000
406.501;  266.300; -632.000; -702.000
406.628;  -87.300; -621.000; -589.000
406.755; -122.800; -803.000; -620.000
406.882;    2.500; -228.000; -277.000
407.009; -129.100; -719.000; -628.000
407.136;  225.100; -480.000; -401.000
407.263;  313.000; -939.000; -829.000
407.390;  -80.300; -692.000; -614.000
407.517; -249.800;-1139.000;-1187.000
407.644;   -9.300; -332.000; -256.000
407.771;  -58.200; -249.000; -287.000
407.898;  103.900;  168.000;  328.000
408.025;  -83.300; -421.000; -313.000
408.151;  107.500;   82.000;  153.000
408.278;  -46.300; -267.000; -216.000
408.405; -152.200; -931.000; -899.000
408.532;  -57.300; -549.000; -542.000
408.659; -158.200; -677.000; -648.000
408.785; -342.200;-1298.000;-1170.000
408.912;  -44.000; -412.000; -296.000
409.039; -178.400; -610.000; -686.000
409.166; -120.000; -591.000; -555.000
409.292; -126.100; -571.000; -534.000
409.419; -133.000; -665.000; -649.000
409.546; -127.500; -431.000; -192.000
409.672; -123.200; -713.000; -545.000
409.799;   37.900;  -36.000;   34.000
409.926;  -36.700; -180.000; -179.000
410.052; -305.000;-1127.000;-1091.000
410.179;  -34.600; -368.000; -392.000
410.305;  -93.400; -375.000; -493.000
410.432;   -6.900; -220.000; -333.000
410.558; -141.000; -305.000; -380.000
410.685; -117.300; -688.000; -431.000
410.812; -131.300; -409.000; -588.000
410.938; -205.900; -964.000; -808.000
411.065; -130.500; -671.000; -645.000
411.191;   42.700; -189.000; -174.000
411.317; -188.700; -823.000; -742.000
411.444;  -36.100; -317.000; -246.000
411.570;  -71.100; -339.000; -294.000
411.697; -180.100; -758.000; -752.000
411.823; -293.700; -989.000; -999.000
411.949;    9.400;  -56.000;   17.000
412.076; -171.000; -539.000; -519.000
412.202; -150.000; -758.000; -757.000
412.329; -202.600; -798.000; -752.000
412.455; -170.900; -821.000; -657.000
412.581;    6.600;  -15.000;  172.000
412.707;  -25.800; -540.000; -457.000
412.834;  116.300;  156.000;  219.000
412.960;  -96.900; -785.000; -784.000
413.086; -160.400; -743.000; -701.000
413.212;  423.700;  604.000;  578.000
413.339;  -69.900; -685.000; -701.000
413.465;  103.500; -364.000; -310.000
413.591; -122.900; -757.000; -474.000
413.717;   -9.500; -358.000; -366.000
413.843; -219.700; -839.000; -861.000
413.969;  -46.200;  -47.000; -292.000
414.096; -171.300; -679.000; -679.000
414.222;   60.000;  -33.000;   85.000
414.348;   55.300; -652.000; -385.000
414.474;  302.800;   38.000;  -52.000
414.600;   21.100; -126.000; -144.000
414.726;   54.900;  -96.000;  -55.000
414.852;  -37.000; -365.000; -342.000
414.978;  187.300;  104.000;  -18.000
415.104;  146.500;   38.000;   80.000
415.230;  117.100; -329.000; -330.000
415.356;  104.100; -409.000; -514.000
415.482;  460.000;   13.000;  -35.000
415.608;  555.900; -247.000; -323.000
415.734; 1871.100;   67.000;   38.000
415.860;38392.100; -875.000; -767.000
415.986;24933.400; -685.000; -607.000
416.111; 2015.900; -798.000; -652.000
416.237;  511.300; -424.000; -571.000
416.363; 2243.500; -765.000; -733.000
416.489; 7288.800; -324.000; -251.000
416.615;  703.900; -707.000; -742.000
416.741;    3.300; -677.000; -784.000
416.866; -125.100; -673.000; -736.000
416.992; -160.500; -801.000; -818.000
417.118;   26.000;  -41.000;  -80.000
417.244;  -33.300; -798.000; -531.000
417.369; -105.000; -801.000; -612.000
417.495;   61.800; -325.000; -254.000
417.621;  -92.100;-1015.000; -803.000
417.746;   94.200; -579.000; -572.000
417.872;  168.900; -254.000; -144.000
417.998;  151.500; -515.000; -530.000
418.123; 2073.500;-1073.000; -845.000
418.249; 9530.900; -512.000; -601.000
418.374; 1130.700; -916.000; -824.000
418.500;  264.800; -383.000; -482.000
418.626;  288.800;   70.000;  -59.000
418.751;  302.300; -549.000; -448.000
418.877;  407.500; -637.000; -643.000
419.002; 3662.800; -688.000; -560.000
419.128;22298.400; -930.000; -721.000
419.253; 4864.300; -967.000; -837.000
419.379;  698.500; -391.000; -338.000
419.504;  764.400;  325.000;  415.000
419.629;  917.600; -393.000; -212.000
419.755; 6727.200; -317.000; -254.000
419.880;35728.000;  -98.000;   67.000
420.006;20807.800; -280.000; -221.000
420.131;51107.200; -662.000; -775.000
420.256; 6645.200; -315.000; -316.000
420.382;  961.300; -665.000; -687.000
420.507;  190.400; -649.000; -778.000
420.632;  348.400; -337.000; -339.000
420.758;  596.400; -251.000; -425.000
420.883;  -82.600; -876.000; -672.000
421.008; -124.400; -775.000; -619.000
421.133; -126.900; -509.000; -467.000
421.259;   24.300; -325.000; -259.000
421.384; -186.600; -834.000; -693.000
421.509;    7.000;-1052.000; -862.000
421.634; 2641.800; -936.000; -820.000
421.759; 1020.000; -359.000; -327.000
421.885;  -69.200; -717.000; -656.000
422.010;  -62.200; -673.000; -542.000
422.135; -218.000; -695.000; -727.000
422.260;  144.800;  340.000;  280.000
422.385;  -21.800;   12.000;  -98.000
422.510;  111.100;  151.000;  -26.000
422.635;  104.100;  -87.000;  -43.000
422.760;  245.000; -766.000; -791.000
422.885;  176.700;  -57.000;  -80.000
423.010;   19.600; -112.000; -169.000
423.135; -125.800; -481.000; -561.000
423.260;   85.000; -150.000; -245.000
423.385;  215.100;  476.000;  222.000
423.510;  170.100;   71.000;  -22.000
423.635;  229.700;  133.000;   45.000
423.760;  212.200;  383.000;  328.000
423.885;  175.400;  336.000;  391.000
424.010;  102.300;  -68.000;  -13.000
424.135;   52.700;    5.000;  -33.000
424.259; -103.700; -654.000; -457.000
424.384;  -49.000; -279.000; -272.000
424.509;   62.400; -260.000; -186.000
424.634; -150.900; -761.000; -623.000
424.759;  -10.200; -688.000; -544.000
424.883;   49.700; -506.000; -527.000
425.008;  401.800; -502.000; -410.000
425.133; 3659.900; -679.000; -653.000
425.258; 1540.700; -517.000; -381.000
425.382; 2098.400; -867.000; -774.000
425.507; 4866.000; -487.000; -543.000
425.632;  755.300; -802.000; -663.000
425.756;  871.100; -256.000; -146.000
425.881;11771.700; -831.000; -857.000
426.006;28293.700; -604.000; -355.000
426.130; 4153.800; -696.000; -508.000
426.255;  605.100; -611.000; -491.000
426.379;  336.400; -189.000; -577.000
426.504;  848.100;  660.000;  544.000
426.629; 7870.800; -519.000; -466.000
426.753; 4771.600;   64.000;  -46.000
426.878;  555.800; -252.000; -288.000
427.002;  424.500; -651.000; -668.000
427.127; 3148.200;  -35.000; -158.000
427.251;20468.300;  372.000;  401.000
427.375; 5220.100; -191.000; -173.000
427.500; 4507.800; -616.000; -610.000
427.624; 1354.800; -234.000; -400.000
427.749;  276.700; -216.000; -225.000
427.873;   12.400; -499.000; -412.000
427.997;    6.600; -222.000; -230.000
428.122;  236.500;  795.000;  703.000
428.246;  285.100;  433.000;  434.000
428.371; -175.900; -869.000; -773.000
428.495; -104.900; -624.000; -646.000
428.619;   33.200; -186.000; -117.000
428.743;  154.200;   65.000;  132.000
428.868;  122.800; -732.000; -643.000
428.992; 2809.200; -219.000; -326.000
429.116; 1090.200; -329.000; -357.000
429.240;  624.100;  419.000;  426.000
429.365;   47.000; -454.000; -574.000
429.489;   52.000; -638.000; -647.000
429.613;  119.200; -236.000; -177.000
429.737;  158.700; -563.000; -432.000
429.861;  601.900; -247.000; -133.000
429.985;10687.700; -425.000; -305.000
430.109;10428.500; -770.000; -908.000
430.234; 1271.800;   76.000;  -50.000
430.358;  198.200; -250.000; -160.000
430.482;  -26.200; -672.000; -564.000
430.606;  -24.500; -655.000; -375.000
430.730;  166.000; -437.000; -388.000
430.854;  371.100; -909.000; -835.000
430.978;  -40.500; -795.000; -764.000
431.102;  -39.600; -499.000; -422.000
431.226;  -79.600; -874.000; -815.000
431.350;  176.600;  345.000;  422.000
431.474;  -75.500; -661.000; -373.000
431.597; -249.400;-1060.000; -848.000
431.721;  -89.400; -276.000; -267.000
431.845; -199.700; -704.000; -472.000
431.969;  -80.500; -304.000; -349.000
432.093; -109.100; -395.000; -317.000
432.217;   82.000;   32.000;   82.000
432.341; -132.800; -523.000; -518.000
432.464;  107.700;   96.000;   40.000
432.588;  517.000; -401.000; -329.000
432.712;  255.700;  -52.000;  -52.000
432.836;  164.700;  213.000;  263.000
432.959;   21.500; -372.000; -311.000
433.083;  231.200;   11.000;    2.000
433.207;  778.500;  285.000;  930.000
433.330; 9525.600; -391.000; -200.000
433.454;10642.200; -654.000; -638.000
433.578; 6276.600;  583.000;  278.000
433.701; 1119.000; -623.000; -675.000
433.825;  358.300; -292.000; -299.000
433.949;  520.900;   28.000;  -72.000
434.072;  248.000; -410.000; -323.000
434.196;   38.900; -309.000; -117.000
434.319; 7986.700;25482.000;25124.000
434.443; 1515.000; -656.000; -603.000
434.566; 4785.900;  281.000;   62.000
434.690;  727.900; -637.000; -383.000
434.813;  138.800; -251.000; -173.000
434.937;  -71.100; -569.000; -696.000
435.060;   26.000; -423.000; -332.000
435.184;  837.200; -492.000; -217.000
435.307;  433.100;  159.000;  102.000
435.431;   65.500;  -40.000;   24.000
435.554;  -81.700; -399.000; -240.000
435.677;  -80.100; -350.000; -258.000
435.801;   13.400;  -25.000;   49.000
435.924;   80.200;    1.000;  -67.000
436.048; -143.800;-1019.000; -732.000
436.171;  -32.800; -240.000;  -66.000
436.294;    5.200; -248.000; -229.000
436.417;  224.600; -963.000; -849.000
436.541; -170.200; -814.000; -840.000
436.664;    1.500; -242.000; -316.000
436.787;   52.100;   13.000;  113.000
436.910; -120.800; -792.000; -422.000
437.034;  117.900;  142.000;  143.000
437.157;  262.200;  -11.000;    0.000
437.280;   -8.300; -392.000; -292.000
437.403;  -36.000; -982.000; -869.000
437.526; 1584.500; -903.000; -865.000
437.649; 4892.800; -505.000; -332.000
437.772;  672.400; -692.000; -540.000
437.896;  328.800;  700.000;  544.000
438.019;  -91.300; -758.000; -503.000
438.142; -101.300; -596.000; -506.000
438.265;  101.800; -639.000; -670.000
438.388; 1325.000; -520.000; -410.000
438.511;  255.400; -597.000; -394.000
438.634;   -2.500; -247.000; -125.000
438.757; -217.800; -693.000; -619.000
438.880;   41.600;  -34.000;  -57.000
439.003;  -74.900; -417.000; -437.000
439.126;  -30.200; -287.000; -167.000
439.248;  -33.900;  -98.000; -139.000
439.371;  -16.300;    9.000;  -53.000
439.494;  161.000;  510.000;  439.000
439.617;    8.000;   65.000;  -88.000
439.740; -310.500; -968.000; -816.000
439.863; -236.700; -755.000; -595.000
439.986; -206.000; -476.000; -431.000
440.108;   14.700; -161.000; -112.000
440.231; -248.600; -950.000; -836.000
440.354;   26.100;  -64.000; -150.000
440.477;  148.700; -566.000; -542.000
440.599;  122.900; -200.000; -225.000
440.722; -178.000; -709.000; -586.000
440.845;  246.100;  751.000;  928.000
440.968; -135.900; -415.000; -311.000
441.090;  -43.300; -199.000;  -33.000
441.213; -273.800;-1021.000; -825.000
441.336;    4.100; -159.000;   -5.000
441.458;  -77.500; -549.000; -396.000
441.581;  -77.800; -628.000; -629.000
441.703;  -60.900; -152.000;   13.000
441.826; -142.000; -557.000; -400.000
441.948;  -36.800;   56.000;   51.000
442.071;  162.800;  555.000;  424.000
442.193; -168.500; -531.000; -485.000
442.316;  121.900;  152.000;   97.000
442.438;  142.900; -233.000;  -10.000
442.561;  254.500;  272.000;  262.000
442.683; 1323.300; -809.000; -522.000
442.806; 2490.200;   -8.000;   74.000
442.928;  106.400; -859.000; -604.000
443.051;  -34.500; -577.000; -373.000
443.173; -133.300; -341.000; -339.000
443.295; -101.700; -263.000; -371.000
443.418;  -54.200; -321.000;  -29.000
443.540;   88.000; -106.000;   -4.000
443.662; -183.900; -563.000; -465.000
443.785;   72.300;  335.000;  199.000
443.907; -165.800; -362.000; -208.000
444.029; -189.000; -767.000; -494.000
444.152; -252.900; -644.000; -554.000
444.274;   29.200;  -18.000;  -24.000
444.396; -166.500; -461.000; -221.000
444.518; -171.100; -691.000; -454.000
444.640; -134.100; -268.000; -111.000
444.763;   54.300;  388.000;  249.000
444.885; -155.800; -432.000; -392.000
445.007;   33.700;   35.000;   86.000
445.129; -180.200; -610.000; -515.000
445.251; -130.600; -372.000; -439.000
445.373; -225.700; -537.000; -386.000
445.495;   87.300;  242.000;  350.000
445.617;  180.000;  853.000;  753.000
445.739;  -47.400; -215.000;  -97.000
445.861;    3.200; -245.000; -112.000
445.984;    2.500; -267.000; -101.000
446.105;  561.200; -418.000; -251.000
446.227; 1321.300; -176.000;  -19.000
446.349;   45.900; -358.000; -249.000
446.471; -115.100; -615.000; -448.000
446.593;  -14.500; -316.000;   19.000
446.715;   86.300;  -67.000;   41.000
446.837;  230.700;  697.000;  832.000
446.959; -109.800; -457.000; -478.000
447.081; -188.200; -628.000; -518.000
447.203;  220.200;  862.000;  834.000
447.325;  -96.200; -270.000;   42.000
447.446;  106.600;  286.000;  530.000
447.568; -242.800; -921.000; -803.000
447.690;  -85.400; -236.000; -245.000
447.812; -224.800; -798.000; -519.000
447.933;   42.400;  155.000;  127.000
448.055;  -91.500; -306.000; -261.000
448.177;  401.700;   31.000;   79.000
448.299;  230.700; -935.000; -727.000
448.420;  141.500;  -25.000;  159.000
448.542;  -11.600;   -3.000;   33.000
448.664;   67.300;  109.000;  322.000
448.785;   26.500;  265.000;   83.000
448.907;  -83.900; -614.000; -353.000
449.028;  -29.300; -771.000; -471.000
449.150;  235.500;  492.000;  589.000
449.272; -338.700;-1044.000; -913.000
449.393;  165.800;  612.000;  694.000
449.515; -218.100; -634.000; -581.000
449.636;  -26.500; -264.000; -155.000
449.758;  188.800;  763.000;  622.000
449.879; -116.500; -498.000; -396.000
450.001;  -75.300; -149.000;  -49.000
450.122;   21.200;  -95.000;  162.000
450.244;   22.500;   37.000;  364.000
450.365; -118.000; -495.000; -301.000
450.486;    7.500;   80.000;  268.000
450.608;  138.200;  393.000;  326.000
450.729;  212.400;  578.000;  645.000
450.850;   42.100; -574.000; -466.000
450.972; 1438.400; -552.000; -389.000
451.093; 8738.000;  190.000;  588.000
451.214; 3225.000; -516.000; -337.000
451.336;  737.600;  773.000;  579.000
451.457;  164.300;  264.000;  393.000
451.578;   -9.500; -118.000;  -74.000
451.699; -183.900; -546.000; -540.000
451.821;  -62.000; -284.000;  -50.000
451.942;   46.300;  278.000;  285.000
452.063;  158.700;  228.000;  419.000
452.184; 1123.900;  -54.000;  -49.000
452.305; 1897.400;  103.000;  170.000
452.427;  221.100; -549.000; -301.000
452.548;   63.000;   23.000;   79.000
452.669;  -58.300; -257.000;  -89.000
452.790;   21.800;    3.000;  -18.000
452.911;   41.300;  195.000;  259.000
453.032;  -33.100; -289.000;  -60.000
453.153;    5.600;  -29.000;   81.000
453.274;  214.300;  737.000;  868.000
453.395;    2.500;  -51.000;  175.000
453.516;  378.400; 1317.000; 1388.000
453.637;  -50.500; -205.000; -150.000
453.758;  -41.400;   15.000;   69.000
453.879; -193.200; -462.000; -250.000
454.000;  256.200; 1086.000;  948.000
454.121; -169.200; -554.000; -326.000
454.242; -138.700; -599.000; -383.000
454.362;  -48.600;  -99.000;  114.000
454.483;   16.900; -309.000; -229.000
454.604;  187.300;  512.000;  580.000
454.725; -158.600; -627.000; -555.000
454.846; -190.400; -474.000; -406.000
454.967;   37.100;  230.000;  539.000
455.087;    4.300;  179.000;  153.000
455.208;  148.700;  554.000;  856.000
455.329;  -45.000;  -22.000;   82.000
455.450;  169.500;  473.000;  633.000
455.570;  -79.000; -234.000; -211.000
455.691;   -1.800;  201.000;  407.000
455.812; -181.900; -270.000;  -92.000
455.932;   -4.200;  107.000;  -97.000
456.053;  -92.900;   36.000;   24.000
456.173; -170.400; -433.000; -355.000
456.294; -212.900; -476.000; -303.000
456.415;  -40.500;  -73.000;   70.000
456.535;   10.500;  297.000;  273.000
456.656;   19.300;  132.000;  240.000
456.776;  -67.900;    3.000;  298.000
456.897;  113.900;  308.000;  513.000
457.017;  -71.900; -153.000;   -3.000
457.138; -122.700; -402.000; -249.000
457.258;   17.100;  263.000;  224.000
457.379;   79.000;  509.000;  521.000
457.499;   63.200;  443.000;  432.000
457.620; -162.000; -407.000; -231.000
457.740; -130.400; -132.000;  -11.000
457.860;  -11.700;   87.000;   44.000
457.981;  -17.400;  132.000;  124.000
458.101;  -58.000;  -89.000;   40.000
458.221;   67.400;  336.000;  402.000
458.342;   -6.400;   -4.000;  -37.000
458.462;  109.900;  617.000;  352.000
458.582;  -22.800; -302.000; -294.000
458.703;   71.200;  303.000;  154.000
458.823;   29.300;   22.000;  163.000
458.943;  113.800;  341.000;  467.000
459.063;   53.800; 1124.000;  192.000
459.183;   46.800;  328.000;  313.000
459.304;  126.800;  315.000;  517.000
459.424;  -59.500; -246.000;  -89.000
459.544;  739.200;  388.000;  764.000
459.664; 1473.300;  499.000;  506.000
459.784;  637.000; 1004.000; 1175.000
459.904;  175.700;  867.000;  744.000
460.024;  245.500;  867.000;  684.000
460.144;  126.000;  449.000;  554.000
460.264;   85.900;  515.000;  327.000
460.385; -121.700; -145.000; -119.000
460.505;  194.100;  905.000;  858.000
460.625;  -93.100;  -17.000;  -68.000
460.745;   36.000;  396.000;  541.000
460.864;  -32.400;  153.000;  469.000
460.984;  138.200;  499.000;  573.000
461.104;  381.600; 1656.000; 1775.000
461.224;  140.000;  657.000;  650.000
461.344;   46.700;  431.000;  360.000
461.464;   41.400;  258.000;  513.000
461.584;   30.300;  283.000;  466.000
461.704;   -9.200;   58.000;  108.000
461.824;  -41.400;  238.000;  259.000
461.943;   24.800;  191.000;  130.000
462.063;  -64.600;    2.000;  324.000
462.183;  190.600;  639.000;  717.000
462.303;  275.800; 1678.000; 1230.000
462.422;  149.700;  781.000;  840.000
462.542;    0.200;  271.000;  391.000
462.662;  161.000;  353.000;  380.000
462.782;  535.700;  833.000;  572.000
462.901;  964.600;  545.000;  717.000
463.021;  606.500; 1702.000; 1638.000
463.141;   30.900;  337.000;  770.000
463.260;   52.500;  614.000;  474.000
463.380;  150.300;  902.000;  884.000
463.499;    8.600;  342.000;  332.000
463.619;   27.900;  581.000;  559.000
463.738;  295.700; 1644.000;  903.000
463.858;  128.800;  657.000;  811.000
463.978;   52.000;  542.000;  396.000
464.097;  198.800;  921.000; 1114.000
464.217;  282.200; 1196.000; 1143.000
464.336;  284.700; 1068.000; 1130.000
464.455;  -12.300;  328.000;  659.000
464.575;  202.100;  597.000;  602.000
464.694;  383.300; 1204.000; 1179.000
464.814;  340.800; 1190.000; 1138.000
464.933;  247.900; 1095.000; 1027.000
465.052;  318.500; 1412.000; 1054.000
465.172;  236.100;  922.000;  799.000
465.291;  359.600; 1376.000; 1320.000
465.410;   90.900;  462.000;  735.000
465.530;  279.600; 1355.000; 1310.000
465.649;  219.600; 1209.000; 1273.000
465.768;  380.400; 1673.000; 1508.000
465.888;  217.800;  941.000; 1174.000
466.007;  304.600; 1335.000; 1440.000
466.126;   41.600;  721.000;  641.000
466.245;  208.200; 1176.000; 1187.000
466.364;   89.100;  950.000; 1060.000
466.484;  214.800; 1024.000; 1213.000
466.603;  144.000; 1101.000; 1222.000
466.722;  315.100; 1490.000; 1769.000
466.841;  238.900; 1151.000; 1401.000
466.960;  160.700; 1069.000;  972.000
467.079;  363.200; 1971.000; 1786.000
467.198;  181.100; 1238.000; 1181.000
467.317;  233.700; 1768.000; 1162.000
467.436;  268.100; 1709.000; 1261.000
467.555;  325.900; 1796.000; 1746.000
467.674;  202.800; 1227.000; 1329.000
467.793;  171.600; 1376.000; 1374.000
467.912;  266.100; 1658.000; 1539.000
468.031;  342.100; 2038.000; 1930.000
468.150;  397.700; 1842.000; 1837.000
468.269;  500.700; 2313.000; 2090.000
468.388;  438.100; 2168.000; 2339.000
468.507;  617.100; 2884.000; 2903.000
468.626;  652.600; 2555.000; 2541.000
468.744;  348.700; 2018.000; 2174.000
468.863;  549.400; 2312.000; 2523.000
468.982;  254.400; 1503.000; 1555.000
469.101;  539.800; 2788.000; 2692.000
469.220;  364.300; 2333.000; 2176.000
469.338;  582.600; 2935.000; 3051.000
469.457;  461.000; 2719.000; 2545.000
469.576;  815.900; 3953.000; 3784.000
469.695;  597.000; 2877.000; 3066.000
469.813;  961.200; 4148.000; 4192.000
469.932;  911.300; 4255.000; 4485.000
470.051;  951.700; 4075.000; 4161.000
470.169; 1760.500; 4470.000; 4338.000
470.288; 2891.100; 4700.000; 4809.000
470.406; 1648.000; 5059.000; 5194.000
470.525; 1339.800; 6101.000; 5787.000
470.644; 1409.400; 6847.000; 6794.000
470.762; 1766.300; 8397.000; 7873.000
470.881; 1952.900; 8651.000; 8464.000
470.999; 2206.600; 9685.000; 9151.000
471.118; 2264.700;11174.000;10711.000

