
Integration time [ms]: 100.000
Averaging Nr. [scans]: 40
Smoothing Nr. [pixels]: 0
Data measured with spectrometer [name]: 2101012U2
Wave   ;Sample   ;Dark     ;Reference
[nm]   ;[counts] ;[counts] ;[counts] 

197.733;   56.000;  516.000;  404.000
197.879;  -82.275; -610.000; -634.000
198.025;  -45.625; -475.000; -420.000
198.171;  -74.625; -602.000; -612.000
198.317;  -28.650; -401.000; -316.000
198.463;  -58.775; -655.000; -404.000
198.609;   21.550;  181.000; -137.000
198.755;  -78.050; -644.000; -410.000
198.901;  -51.050; -505.000; -424.000
199.047;  -59.675; -615.000; -488.000
199.193;  -32.675; -230.000; -468.000
199.339;  -52.375; -222.000; -369.000
199.485;   33.575;  330.000;  271.000
199.631;    5.100;  227.000;  310.000
199.777;  -52.100; -466.000; -398.000
199.923;  -57.575; -610.000; -424.000
200.069;   -4.025; -141.000;  -58.000
200.215;   33.625;  128.000;  453.000
200.361;   56.800;  243.000;  477.000
200.507;  -71.025; -600.000; -373.000
200.653;  -26.200; -371.000; -194.000
200.798;  -38.000; -215.000; -125.000
200.944;  -18.575; -146.000;  -41.000
201.090;   33.525;   61.000;  222.000
201.236;    3.750; -116.000; -158.000
201.382;  120.925;  874.000;  903.000
201.528;  -14.800;  -58.000;  -48.000
201.674;  -65.050; -386.000; -293.000
201.819;  -66.000; -540.000; -439.000
201.965;  -80.050; -699.000; -447.000
202.111;  -24.200; -273.000; -226.000
202.257;  -41.675; -250.000; -238.000
202.402;    7.350;   13.000;  -36.000
202.548;  -36.675; -169.000; -116.000
202.694;   88.425;  410.000; -183.000
202.840;  -66.825; -603.000; -531.000
202.985;  -77.750; -681.000; -639.000
203.131; -100.550; -832.000; -666.000
203.277;  -26.950; -199.000; -262.000
203.423;  -65.825; -434.000; -520.000
203.568;  -40.300; -462.000; -237.000
203.714;  -58.300; -535.000; -542.000
203.860;  -71.200; -682.000; -641.000
204.005;    0.500;  112.000;  167.000
204.151;   72.975;  561.000;  556.000
204.296;  -46.875; -354.000; -221.000
204.442;  -72.625; -600.000; -547.000
204.588;  -82.950; -592.000; -579.000
204.733;   18.350;  178.000;  168.000
204.879; -127.850;-1018.000; -822.000
205.025;   11.850;  -99.000;  126.000
205.170;    0.900;  -17.000;   94.000
205.316;   80.525;  438.000;  661.000
205.461;  -82.375; -698.000; -554.000
205.607;   71.625;  609.000;  665.000
205.752;  -77.275; -626.000; -551.000
205.898;  -51.725; -501.000; -391.000
206.043;  -52.425; -578.000; -506.000
206.189;  -49.350; -243.000; -285.000
206.334;   71.475;  554.000;  606.000
206.480;   76.300;  409.000;  239.000
206.625;  -81.275; -529.000; -552.000
206.771;  -47.375; -451.000; -373.000
206.916;  -44.250; -210.000; -537.000
207.062;  -60.100; -545.000; -591.000
207.207;  -60.350; -546.000; -443.000
207.353;   40.850;  185.000;  460.000
207.498;   13.075;  196.000;   85.000
207.643;  -40.800; -501.000; -370.000
207.789; -130.275;-1069.000; -910.000
207.934;  -80.850; -665.000; -713.000
208.080;  -20.825; -154.000;   66.000
208.225;  -19.225;  -22.000;  -57.000
208.370;  -83.450; -727.000; -619.000
208.516;  -76.950; -741.000; -487.000
208.661;  -34.125; -127.000;  -69.000
208.806;  -14.950; -165.000; -171.000
208.952; -116.750;-1044.000; -731.000
209.097;   55.725;  378.000;  349.000
209.242;  -40.550; -307.000; -382.000
209.387;   71.700;  392.000;  350.000
209.533;  -46.400; -321.000; -350.000
209.678;   61.800;  472.000;  543.000
209.823;  -56.975; -408.000; -310.000
209.969;  -86.625; -860.000; -757.000
210.114;  -91.300; -907.000; -719.000
210.259; -105.650; -939.000; -889.000
210.404;  -20.025; -171.000;  103.000
210.549;    4.225;  108.000;    3.000
210.695;  -12.675;   -3.000;  -95.000
210.840;   20.625;   94.000;   67.000
210.985;  -60.125; -484.000; -303.000
211.130;   66.000;  268.000;  406.000
211.275;    2.425;  207.000;  199.000
211.420;  -57.675; -300.000; -289.000
211.566;  -72.300; -536.000; -489.000
211.711;   18.350;  218.000;  157.000
211.856;  -62.600; -545.000; -519.000
212.001;    7.125;  151.000;   44.000
212.146;   20.000;  153.000;   49.000
212.291;   -9.725; -210.000; -186.000
212.436;  -35.850; -280.000;   -6.000
212.581;  -87.575; -685.000; -653.000
212.726;  -85.625; -487.000; -538.000
212.871;  -57.875; -552.000; -217.000
213.016; -139.875;-1172.000;-1029.000
213.161;   56.150;  406.000;  291.000
213.306;  -63.650; -435.000; -577.000
213.451;  -93.950; -778.000; -689.000
213.596;  -44.200; -455.000; -347.000
213.741;  -38.950; -448.000; -538.000
213.886;  -72.275; -498.000; -517.000
214.031;  -18.275; -294.000; -124.000
214.176;  -60.400; -408.000; -341.000
214.321;   -9.700; -296.000; -157.000
214.466;  -31.950; -163.000;  -43.000
214.611;    6.475;  -61.000;  -10.000
214.756; -120.600; -948.000; -858.000
214.901;  -34.800; -388.000; -226.000
215.046; -118.025; -797.000; -825.000
215.191;   -0.050;  128.000;   35.000
215.336;  -11.900; -157.000;  -19.000
215.480;  -56.250; -684.000; -505.000
215.625;  -16.075; -175.000;  -19.000
215.770;  -86.700; -757.000; -662.000
215.915;   -4.700;   -5.000;  -97.000
216.060;   -3.800; -113.000;  -21.000
216.205; -113.500; -731.000; -779.000
216.349;  -68.200; -470.000; -533.000
216.494; -137.625; -939.000; -867.000
216.639; -113.600; -823.000; -888.000
216.784;  -98.800; -577.000; -525.000
216.929;   40.625;  392.000;  281.000
217.073;  -14.575; -244.000;  -31.000
217.218;    4.850;   78.000;  -47.000
217.363;  -79.600; -656.000; -618.000
217.507;  -72.150; -623.000; -588.000
217.652; -117.825; -845.000; -874.000
217.797;  -82.100; -708.000; -659.000
217.942; -102.300; -856.000; -720.000
218.086;   58.975;  608.000;  539.000
218.231;  -28.800; -174.000;  -26.000
218.376;  -33.475; -337.000; -229.000
218.520;  -12.300;  -41.000;   96.000
218.665;  -25.750; -338.000; -204.000
218.810;  -45.875; -275.000; -233.000
218.954;   18.225;  201.000;   35.000
219.099; -120.550; -713.000; -963.000
219.243;  -69.000; -589.000; -554.000
219.388;  -46.550; -264.000; -136.000
219.532;   -5.375; -116.000; -116.000
219.677;  -71.275; -564.000; -521.000
219.822;   -3.825;   33.000;   89.000
219.966;    0.950;   17.000;  -99.000
220.111;  -21.825; -328.000;  -40.000
220.255; -110.975; -797.000; -750.000
220.400;  -28.025; -180.000; -146.000
220.544;  -67.225; -516.000; -450.000
220.689;  -45.600; -422.000; -451.000
220.833;  -32.275; -123.000;  -58.000
220.978;  -53.475; -393.000; -563.000
221.122;   14.100;  319.000;  307.000
221.267; -113.675; -906.000; -837.000
221.411;  -73.800; -478.000; -394.000
221.555;   -1.200; -104.000;  -23.000
221.700;  -47.475; -329.000; -222.000
221.844;   25.125;  255.000;  272.000
221.989;  -49.950; -328.000; -311.000
222.133;  -36.800; -289.000; -307.000
222.277;  -18.950;    5.000;   78.000
222.422;    4.950;  227.000;  113.000
222.566;  -36.675; -381.000; -214.000
222.711;  -46.300; -414.000; -479.000
222.855;  -79.375; -643.000; -586.000
222.999;  -73.200; -642.000; -717.000
223.144;  -28.975; -195.000; -194.000
223.288;   50.075;  423.000;  251.000
223.432;   13.850;  184.000;  230.000
223.576;    4.750;  152.000;  -21.000
223.721;   20.450;  364.000;  273.000
223.865;  -49.350; -472.000; -475.000
224.009;  238.850; 1673.000; 1631.000
224.153;  -76.375; -660.000; -671.000
224.298;  -74.550; -531.000; -489.000
224.442;  -23.575;  -74.000;  -33.000
224.586;  -23.375; -169.000; -106.000
224.730;  -93.875; -858.000; -670.000
224.875; -107.650; -739.000; -688.000
225.019;    5.850;  102.000;  188.000
225.163;   33.600;  208.000;  341.000
225.307;   15.850;   97.000;  -91.000
225.451;   37.925;  360.000;  481.000
225.595;   22.975;  264.000;  176.000
225.739;  -29.925; -170.000;  -94.000
225.884;   -1.625;   86.000;    5.000
226.028;  -98.375; -760.000; -626.000
226.172;  -46.800; -260.000; -273.000
226.316; -122.675; -941.000; -902.000
226.460;  -62.475; -645.000; -493.000
226.604;  -52.550; -406.000; -400.000
226.748; -101.200; -836.000; -733.000
226.892;  -44.225; -227.000; -181.000
227.036;  -34.725; -537.000; -447.000
227.180;  -59.800; -551.000; -375.000
227.324;  -60.800; -561.000; -580.000
227.468; -118.700; -819.000; -717.000
227.612;    7.600;  242.000;  -28.000
227.756;  -86.700; -845.000; -698.000
227.900;   56.850;  342.000;  441.000
228.044;  -54.575; -509.000; -290.000
228.188;   54.100;  448.000;  568.000
228.332;  -91.775; -546.000; -472.000
228.476;  -37.825; -223.000; -149.000
228.620;  -35.625; -210.000; -150.000
228.764;   59.750;  431.000;  349.000
228.908;  -40.325; -155.000;   30.000
229.052;  -57.675; -615.000; -528.000
229.195;   -9.350; -172.000;   13.000
229.339;  -36.650; -235.000; -305.000
229.483;  -35.850;    5.000; -162.000
229.627;   -9.575; -156.000;  139.000
229.771;  -46.100; -218.000; -294.000
229.915;   16.050;  230.000;   79.000
230.059; -101.650; -648.000; -663.000
230.202;  -38.800; -370.000; -317.000
230.346;  -23.450; -107.000;  107.000
230.490;  -72.750; -489.000; -521.000
230.634;  -99.425; -736.000; -553.000
230.777;   63.775;  478.000;  509.000
230.921;  -65.600; -450.000; -359.000
231.065;  -40.475; -246.000; -286.000
231.209;    7.625;  261.000;  265.000
231.352;   27.075;   54.000;   40.000
231.496;    5.125;  568.000;  188.000
231.640;  -78.525; -693.000; -621.000
231.783;   53.725;  546.000;  525.000
231.927;  -39.450; -294.000; -365.000
232.071; -118.300; -962.000; -736.000
232.214; -103.225; -980.000; -764.000
232.358; -109.950; -683.000; -599.000
232.502;    1.250;  -19.000;    7.000
232.645; -135.775;-1090.000; -927.000
232.789;  -32.900; -257.000; -218.000
232.933;  -51.100; -407.000; -224.000
233.076; -121.275;-1038.000; -897.000
233.220; -102.225; -752.000; -777.000
233.363;  -64.275; -669.000; -477.000
233.507;   58.900;  371.000;  129.000
233.650;  -86.775; -764.000; -834.000
233.794;   34.275;  438.000;  461.000
233.938;  -50.300; -530.000; -362.000
234.081;  -19.050;  -93.000;   31.000
234.225;  -74.075; -631.000; -539.000
234.368; -110.800; -773.000; -723.000
234.512;  -38.100; -385.000; -299.000
234.655;  -84.300; -582.000; -555.000
234.798;  -68.375; -493.000; -466.000
234.942; -120.650; -884.000;-1002.000
235.085;  -68.550; -651.000; -443.000
235.229;  -78.675; -405.000; -410.000
235.372;  -35.975; -247.000; -191.000
235.516;  -65.400; -397.000; -321.000
235.659;   24.675;   92.000;  121.000
235.802;   -7.650;  -38.000;  -22.000
235.946;   19.925;  335.000;  215.000
236.089;    1.800;  126.000;  250.000
236.233;   41.825;  275.000;  298.000
236.376;  -61.575; -235.000; -378.000
236.519;  -40.900; -297.000; -319.000
236.663;  -29.725; -215.000; -117.000
236.806; -123.475;-1029.000; -999.000
236.949;   41.550;  543.000;  431.000
237.092;   51.725;  412.000;  391.000
237.236;  -90.025; -589.000; -502.000
237.379;   60.775;  352.000;  428.000
237.522; -109.000; -879.000; -768.000
237.666;  -22.825; -271.000;   18.000
237.809; -114.875; -851.000; -823.000
237.952;   35.300;  469.000;  271.000
238.095;  -64.200; -447.000; -442.000
238.238;   74.125;  688.000;  700.000
238.382;    0.650;  166.000;  103.000
238.525;  -68.500; -598.000; -511.000
238.668; -134.850;-1060.000; -985.000
238.811;  -79.375; -638.000; -643.000
238.954;  -66.175; -483.000; -334.000
239.097;   81.800;  617.000;  664.000
239.241;   33.875;  394.000;  326.000
239.384;  -35.200; -254.000; -214.000
239.527;  -58.800; -424.000; -224.000
239.670; -138.725; -994.000;-1091.000
239.813; -110.950; -696.000; -658.000
239.956;   68.075;  579.000;  473.000
240.099; -116.000; -778.000; -725.000
240.242;   53.525;  428.000;  432.000
240.385;   31.900;  466.000;  450.000
240.528;  -71.450; -706.000; -473.000
240.671;   13.975;  189.000;  134.000
240.814;  -39.225; -441.000; -158.000
240.957;  -96.550; -767.000; -578.000
241.100;  -82.325; -779.000; -755.000
241.243; -145.125;-1234.000; -893.000
241.386;  -60.175; -508.000; -379.000
241.529; -101.050; -735.000; -547.000
241.672;  -64.825; -566.000; -495.000
241.815; -120.975; -832.000; -808.000
241.958;  -21.600; -125.000; -182.000
242.101;  -88.225; -545.000; -390.000
242.244;  -39.825; -270.000; -325.000
242.387;  -60.200; -304.000; -246.000
242.530;   46.050;  470.000;  134.000
242.673;  -46.500; -381.000; -309.000
242.815; -118.475; -925.000; -899.000
242.958;  -65.950; -482.000; -381.000
243.101;   14.800;  132.000;  187.000
243.244;  -91.325; -564.000; -521.000
243.387;  -50.050; -313.000; -316.000
243.530;  -99.025; -657.000; -674.000
243.672;    6.175;   43.000;  -92.000
243.815;  -65.900; -355.000; -283.000
243.958;    7.100;   98.000;  -26.000
244.101;  -15.950;   59.000;  -16.000
244.243;  -13.225;  -47.000;  101.000
244.386; -112.800; -761.000; -630.000
244.529;  -27.600; -132.000; -139.000
244.672; -163.275;-1154.000; -951.000
244.814;  -81.825; -621.000; -794.000
244.957;  -56.150; -380.000; -304.000
245.100;  -70.825; -489.000; -489.000
245.242;  -66.900; -387.000; -374.000
245.385;   -3.375;  -59.000;  -39.000
245.528; -114.350; -871.000; -705.000
245.670;   81.500;  612.000;  634.000
245.813; -101.825; -599.000; -547.000
245.956;  -34.000; -324.000; -275.000
246.098;  -79.200; -508.000; -650.000
246.241;    7.625;  194.000;   48.000
246.383;  -20.950; -119.000;  -73.000
246.526;  -68.375; -454.000; -525.000
246.669; -136.025; -889.000; -780.000
246.811;   18.975;  172.000;   -1.000
246.954;  -73.450; -512.000; -426.000
247.096;  -34.050;  -84.000;   -6.000
247.239;  -80.025; -482.000; -445.000
247.381;  -72.050; -647.000; -488.000
247.524;   68.400;  645.000;  679.000
247.666;  -14.375;   58.000;   11.000
247.809; -116.550; -887.000; -691.000
247.951;  -23.000;  -75.000;  138.000
248.094;   18.900;  432.000;  308.000
248.236; -156.125;-1262.000;-1238.000
248.378;  -20.175; -356.000;  -81.000
248.521;  -36.800; -334.000; -337.000
248.663;  -49.875; -236.000; -267.000
248.806;  -30.525; -300.000; -266.000
248.948; -121.400; -886.000; -763.000
249.090;  -59.525; -428.000; -398.000
249.233;  -68.650; -344.000; -381.000
249.375;  -73.975; -474.000; -451.000
249.518;  -17.950;  -83.000; -133.000
249.660;  -12.300; -103.000;    3.000
249.802; -159.900;-1303.000;-1189.000
249.945;  -78.750; -612.000; -540.000
250.087; -130.325; -834.000; -768.000
250.229;  -48.350; -362.000; -480.000
250.371;  -75.100; -494.000; -439.000
250.514;  -55.625; -310.000; -244.000
250.656;  -35.700;   69.000;  102.000
250.798; -113.675; -849.000; -800.000
250.940;  -71.450; -322.000; -322.000
251.083;  -34.575; -335.000; -111.000
251.225;   36.925;  338.000;  310.000
251.367;  -37.250; -274.000; -373.000
251.509;  -42.925; -265.000; -210.000
251.651; -103.775; -731.000; -671.000
251.794;   37.950;  538.000;  632.000
251.936; -107.575; -821.000; -747.000
252.078;  -94.000; -540.000; -461.000
252.220;  -87.025; -645.000; -477.000
252.362;   48.125;  344.000;  462.000
252.504;  -84.600; -677.000; -584.000
252.646; -116.125; -875.000; -722.000
252.788;  -22.975;   14.000; -128.000
252.931;  -38.225; -257.000; -253.000
253.073;  -46.175; -376.000; -317.000
253.215;  -26.425;  141.000;  122.000
253.357;  -17.275;   82.000; -153.000
253.499;  -60.400; -374.000; -234.000
253.641;  -96.125; -749.000; -594.000
253.783;  -94.500; -609.000; -527.000
253.925;  -79.150; -586.000; -591.000
254.067; -116.425; -744.000; -667.000
254.209;  -38.100; -391.000; -259.000
254.351; -135.950; -865.000; -883.000
254.493;  -63.175; -441.000; -417.000
254.635; -126.750; -936.000; -818.000
254.777;  -79.125; -752.000; -687.000
254.918;  -66.900; -512.000; -430.000
255.060;  -48.575; -551.000; -395.000
255.202;  -58.175; -473.000; -261.000
255.344;  -81.000; -658.000; -455.000
255.486;  -83.200; -471.000; -406.000
255.628; -112.775; -780.000; -781.000
255.770;  -93.000; -676.000; -536.000
255.912;  -61.175; -559.000; -468.000
256.053;  -91.125; -730.000; -508.000
256.195;  143.125; 1008.000;  903.000
256.337; -110.550; -861.000; -595.000
256.479;   45.025;  532.000;  416.000
256.621;  -43.675; -394.000; -212.000
256.762; -102.675; -789.000; -742.000
256.904;   23.775;  485.000;  487.000
257.046;  -46.975; -381.000; -271.000
257.188;  -61.600; -351.000; -264.000
257.329;  -72.175; -525.000; -464.000
257.471; -113.900; -939.000; -807.000
257.613;  -76.625; -584.000; -498.000
257.755; -144.300;-1073.000; -982.000
257.896;   35.700;  286.000;  392.000
258.038;  -76.025; -403.000; -352.000
258.180;  -37.300; -354.000; -279.000
258.321;  -92.250; -581.000; -457.000
258.463;   -6.175;  -71.000;  133.000
258.605;  -87.675; -562.000; -570.000
258.746; -103.625; -886.000; -772.000
258.888; -148.650;-1026.000;-1020.000
259.029;   19.500;  121.000;   -8.000
259.171; -104.750; -614.000; -550.000
259.313;   -1.250;  -49.000;  -47.000
259.454;  -83.525; -536.000; -414.000
259.596;  -51.375; -483.000; -390.000
259.737;  -82.300; -590.000; -474.000
259.879;   25.000;  217.000;  311.000
260.020;   64.450;  901.000;  636.000
260.162;  -31.775; -146.000; -253.000
260.303; -116.825; -768.000; -687.000
260.445;  -75.325; -609.000; -613.000
260.586;   18.525;  392.000;  157.000
260.728;  -46.800; -360.000; -248.000
260.869;  -70.325; -350.000; -343.000
261.011;   72.375;  706.000;  537.000
261.152;  -61.000; -479.000; -319.000
261.293;  -72.175; -576.000; -595.000
261.435;  -26.800; -219.000; -184.000
261.576;  -57.175; -455.000; -325.000
261.718;   38.875;  420.000;  470.000
261.859; -121.750; -940.000; -949.000
262.000; -133.625; -951.000;-1016.000
262.142;  -27.200;  -52.000;  -60.000
262.283; -125.275; -808.000; -691.000
262.424;  -91.925; -666.000; -625.000
262.566; -150.375;-1161.000; -983.000
262.707; -105.850; -840.000; -830.000
262.848; -119.650; -769.000; -726.000
262.990;  -49.200; -362.000; -345.000
263.131;   68.125;  650.000;  681.000
263.272;  -14.350;  -61.000;  -41.000
263.413; -101.025; -589.000; -561.000
263.555;  -62.000; -669.000; -143.000
263.696; -103.100; -550.000; -641.000
263.837;  -46.550; -449.000; -551.000
263.978;  -11.950;   -5.000;  -77.000
264.119;  -36.525; -283.000; -264.000
264.261; -110.350; -847.000; -630.000
264.402;    0.725;   33.000;   40.000
264.543;  -66.925; -509.000; -524.000
264.684;  -12.650;   61.000;  -50.000
264.825;  -95.950; -816.000; -538.000
264.966;  -10.925;  -84.000;  -67.000
265.107; -115.100; -646.000; -670.000
265.248; -123.850; -825.000; -812.000
265.390;  -19.175;  152.000;   -9.000
265.531;  -25.875; -238.000; -107.000
265.672;  -70.225; -557.000; -630.000
265.813;   43.550;  563.000;  439.000
265.954; -142.325; -959.000; -940.000
266.095;  -21.750; -372.000; -322.000
266.236; -102.425; -686.000; -548.000
266.377;  -33.325; -243.000; -297.000
266.518;  -67.225; -619.000; -547.000
266.659;   22.650;  170.000;  268.000
266.800;  -12.500;   83.000;   85.000
266.941;  -84.600; -487.000; -478.000
267.082;   16.350;  354.000;   99.000
267.223;  -50.850; -344.000; -273.000
267.364; -115.700; -892.000; -686.000
267.504;  -24.150;    3.000;  135.000
267.645;   -2.700;  160.000;   67.000
267.786;  -44.475; -147.000;  -86.000
267.927;  -72.125; -473.000; -379.000
268.068;  -24.825; -186.000;  -61.000
268.209;  -54.450; -175.000; -413.000
268.350;  -67.775; -388.000; -532.000
268.490;  -94.700; -648.000; -521.000
268.631;   27.800;  127.000;  225.000
268.772; -101.125; -874.000; -647.000
268.913;  -52.300; -328.000; -476.000
269.054;  -34.400; -117.000;   12.000
269.194;  -58.300; -418.000; -402.000
269.335; -164.125;-1137.000;-1074.000
269.476;   -6.825;   33.000;  -35.000
269.617;  -58.075; -347.000; -392.000
269.757;  -95.950; -713.000; -646.000
269.898; -111.975; -856.000; -613.000
270.039;  -77.650; -415.000; -405.000
270.180; -139.150; -952.000; -816.000
270.320;  -31.225; -190.000; -250.000
270.461;  -48.850; -277.000; -249.000
270.602;  -17.725; -186.000; -156.000
270.742; -120.000; -868.000; -943.000
270.883;  -64.050; -442.000; -390.000
271.023;  -79.825; -358.000; -357.000
271.164;  -85.800; -607.000; -528.000
271.305; -109.325; -666.000; -654.000
271.445;  -89.675; -722.000; -683.000
271.586;  -79.675; -462.000; -283.000
271.726;  -47.975; -397.000; -322.000
271.867;  -96.300; -594.000; -534.000
272.008;   52.475; -473.000; -285.000
272.148;   54.450;  462.000;  468.000
272.289;   -0.300; -113.000; -181.000
272.429;   -9.475;   19.000;  185.000
272.570; -108.200; -633.000; -737.000
272.710; -100.925; -825.000; -775.000
272.851;  -33.750;  113.000; -130.000
272.991; -153.800;-1173.000;-1077.000
273.131;  -67.800; -419.000; -459.000
273.272; -104.650; -683.000; -723.000
273.412;  -14.575; -143.000;  -31.000
273.553;  -70.750; -488.000; -507.000
273.693;  117.350;  913.000;  858.000
273.834; -120.575; -894.000; -692.000
273.974;  -85.525; -664.000; -615.000
274.114; -105.800; -772.000; -560.000
274.255;   34.525;  414.000;  373.000
274.395;  -35.625; -180.000; -125.000
274.535;   13.275;  199.000;  350.000
274.676;    5.725;  225.000;   94.000
274.816;    3.475;  110.000;   34.000
274.956;  -91.525; -624.000; -690.000
275.097; -106.475;-1014.000; -922.000
275.237; -114.575; -913.000; -803.000
275.377;  -98.325; -778.000; -689.000
275.517; -154.400; -878.000; -937.000
275.658;  -71.025; -590.000; -555.000
275.798;  -87.775; -606.000; -413.000
275.938;    3.150;  215.000;  323.000
276.078;  -93.550; -626.000; -395.000
276.218;    3.300;   99.000;  104.000
276.359; -129.750;-1026.000;-1024.000
276.499;  -89.050; -605.000; -446.000
276.639;  -34.550; -305.000; -151.000
276.779;  -57.175; -475.000; -357.000
276.919; -129.600; -783.000; -624.000
277.059;  -22.750; -261.000; -212.000
277.199;  -53.550; -357.000; -259.000
277.340;   33.375;  287.000;  175.000
277.480; -118.500; -840.000; -693.000
277.620;   16.050;  192.000;   16.000
277.760; -196.250;-1533.000;-1294.000
277.900;   -1.425;  113.000;   33.000
278.040;   -9.400;  137.000;  159.000
278.180;   25.675;  270.000;  170.000
278.320;  -13.350;   21.000;   56.000
278.460;  -79.225; -443.000; -469.000
278.600; -102.125; -708.000; -598.000
278.740;   39.575;  448.000;  224.000
278.880; -118.200; -768.000; -791.000
279.020;  -27.025; -194.000; -144.000
279.160; -106.925; -672.000; -595.000
279.300; -122.500; -926.000; -873.000
279.440;  -98.850; -709.000; -622.000
279.579;  -80.525;-1014.000; -929.000
279.719;  -73.100; -410.000; -394.000
279.859;   36.200;   -4.000;   41.000
279.999;  -14.200; -208.000;  101.000
280.139;  -45.775; -435.000; -387.000
280.279; -103.275; -708.000; -745.000
280.419;  -15.400; -229.000; -147.000
280.559;  -49.400; -259.000; -180.000
280.698;  -94.875; -790.000; -639.000
280.838; -111.825; -778.000; -800.000
280.978;  -96.250; -846.000; -790.000
281.118; -124.100; -811.000; -704.000
281.257;    3.200;   24.000;    6.000
281.397; -139.675;-1094.000; -960.000
281.537;  -91.200; -599.000; -712.000
281.677;  -36.100; -150.000; -101.000
281.816;  -85.200; -700.000; -630.000
281.956;  -50.975; -193.000; -257.000
282.096;  -61.175; -539.000; -396.000
282.235; -105.250; -672.000; -638.000
282.375;  -31.475; -243.000;  -98.000
282.515; -100.075; -715.000; -707.000
282.654;    9.425;   29.000;  106.000
282.794;   23.950;  388.000;  244.000
282.934;  -66.625; -530.000; -491.000
283.073; -138.775;-1030.000; -857.000
283.213;  -63.850; -460.000; -467.000
283.353;  -68.475; -408.000; -349.000
283.492;  -40.275; -264.000; -296.000
283.632;  -51.325; -254.000; -168.000
283.771;  -89.525; -859.000; -730.000
283.911;  -67.425; -369.000; -260.000
284.050; -107.075; -794.000; -748.000
284.190; -161.025;-1229.000;-1096.000
284.329; -137.400;-1055.000; -964.000
284.469;  -97.825; -516.000; -591.000
284.608;  -61.875; -559.000; -598.000
284.748;  -93.450; -614.000; -570.000
284.887;  -13.450;  -87.000;  -20.000
285.027; -127.675; -844.000; -892.000
285.166;  -39.650; -192.000; -249.000
285.306;  -25.800; -116.000;  -33.000
285.445;  -37.325; -229.000; -343.000
285.584;  -90.950; -630.000; -494.000
285.724;  -56.850; -282.000; -322.000
285.863; -109.425; -857.000; -507.000
286.002;  -63.525; -366.000; -276.000
286.142;  -98.700; -715.000; -622.000
286.281;  -62.775; -525.000; -493.000
286.420;  -88.950; -554.000; -417.000
286.560;   81.725;  653.000;  623.000
286.699; -149.875; -958.000; -912.000
286.838;  -92.575; -590.000; -591.000
286.978; -105.000; -533.000; -537.000
287.117; -129.275;-1085.000; -950.000
287.256;  -36.150; -228.000; -211.000
287.395;  -59.750; -197.000; -378.000
287.535;  -73.350; -370.000; -298.000
287.674;  -82.575; -509.000; -484.000
287.813;   35.250;  661.000;  533.000
287.952; -122.100;-1010.000; -871.000
288.091; -150.750;-1049.000; -915.000
288.231;   -8.525;   13.000;   15.000
288.370; -171.500;-1217.000;-1200.000
288.509;  -90.575; -728.000; -645.000
288.648;  -92.750; -770.000; -548.000
288.787;  -45.575; -243.000;  -87.000
288.926;  -74.200; -454.000; -475.000
289.065;   88.950;  859.000;  672.000
289.204;  -68.100; -377.000; -217.000
289.344;  -93.475; -791.000; -690.000
289.483;   11.675;  416.000;  304.000
289.622;  -30.250; -291.000; -149.000
289.761;  -35.700; -309.000; -166.000
289.900; -101.300; -785.000; -626.000
290.039;  -26.775;  -12.000;  -95.000
290.178;  -27.925; -274.000; -180.000
290.317; -105.725; -618.000; -479.000
290.456;  -66.175; -463.000; -451.000
290.595; -121.625; -961.000; -833.000
290.734; -124.050; -904.000; -891.000
290.873;  -66.200; -456.000; -420.000
291.011; -115.225; -833.000; -843.000
291.150; -106.325; -770.000; -682.000
291.289;  -36.250; -343.000; -110.000
291.428;  -99.100; -599.000; -480.000
291.567;  -76.950; -370.000; -442.000
291.706;  -15.225;  109.000;  154.000
291.845;  -88.900; -597.000; -505.000
291.984; -180.575;-1234.000;-1061.000
292.122;   59.975;  602.000;  582.000
292.261;   34.275;  620.000;  463.000
292.400;   -8.750; -144.000;  211.000
292.539; -128.125; -959.000; -813.000
292.678;  -44.925; -325.000; -300.000
292.816; -159.775;-1136.000; -965.000
292.955; -110.550; -844.000; -684.000
293.094;  -39.525; -173.000; -337.000
293.233;  -66.250; -556.000; -400.000
293.371;  -35.425; -225.000;  -84.000
293.510; -114.875; -866.000; -780.000
293.649; -135.600; -959.000; -924.000
293.787; -124.700;-1083.000;-1012.000
293.926;  -24.725; -113.000;  -32.000
294.065;  -57.225; -379.000; -290.000
294.203;   24.975;  298.000;  406.000
294.342;   27.675;   74.000;  156.000
294.481; 5284.975;51180.000; -836.000
294.619;  -45.850; -425.000; -582.000
294.758; -163.725;-1230.000;-1137.000
294.896;    1.725; -125.000;    5.000
295.035; -147.625;-1040.000;-1006.000
295.174; -128.475;-1082.000; -954.000
295.312;  -50.975; -323.000; -203.000
295.451;  -46.300; -307.000; -428.000
295.589;  -79.750; -389.000; -518.000
295.728;   -7.025; -292.000; -165.000
295.866;  -36.225;  -36.000;  -51.000
296.005;  -75.800; -584.000; -341.000
296.143;  -83.300; -558.000; -596.000
296.282; -111.600; -957.000; -881.000
296.420;  -90.425; -657.000; -557.000
296.559; -101.175; -892.000; -633.000
296.697;  -70.150; -847.000; -665.000
296.835; -101.550;-1141.000;-1002.000
296.974;    7.900;  -23.000;   39.000
297.112;  -48.900; -443.000; -504.000
297.251; -107.725; -815.000; -755.000
297.389;  -29.825; -576.000; -438.000
297.527;  -12.200; -145.000;  -83.000
297.666;  -58.700; -486.000; -438.000
297.804;  -64.350; -404.000; -264.000
297.942;  -10.775; -136.000; -161.000
298.081;  -18.425; -183.000;   63.000
298.219;    8.675;  -17.000;  -19.000
298.357;  -31.850; -144.000;  -71.000
298.495;  -77.100; -810.000; -812.000
298.634;   10.175;  245.000;  219.000
298.772;  -30.975; -220.000; -338.000
298.910;  -73.275; -309.000; -182.000
299.048;  -30.325; -130.000; -153.000
299.187;  -53.925; -350.000; -250.000
299.325;    4.550;   52.000;  122.000
299.463;  -52.325; -389.000; -299.000
299.601;  -10.150; -327.000; -271.000
299.739; -143.950; -908.000; -883.000
299.877; -106.700; -791.000; -703.000
300.016; -119.925;-1095.000; -935.000
300.154;   34.225;  -19.000; -161.000
300.292;  -44.575; -428.000; -348.000
300.430;  -31.750; -408.000; -291.000
300.568; -137.450; -940.000; -874.000
300.706;  -66.050; -366.000; -469.000
300.844; -123.825;-1108.000; -979.000
300.982;   48.900;  246.000;  282.000
301.120; -125.225; -965.000; -866.000
301.258;  -94.700; -812.000; -705.000
301.396;  -21.575;  104.000;  -41.000
301.534;  -35.100; -218.000; -293.000
301.672;  -92.800; -664.000; -521.000
301.810;  -67.600; -613.000; -545.000
301.948;  -10.525;   53.000;  149.000
302.086;  192.325; -250.000;  -32.000
302.224;  222.450; -610.000; -585.000
302.362;  -67.600; -558.000; -622.000
302.500; -119.350; -923.000; -893.000
302.638;   25.950;  128.000;  245.000
302.776;  -46.400; -352.000; -408.000
302.913;   23.250;  447.000;  236.000
303.051;  -41.575;  -86.000;  -23.000
303.189;   -6.550;   90.000;  118.000
303.327;  -59.475; -341.000; -256.000
303.465; -102.800; -832.000; -588.000
303.603; -101.725; -805.000; -604.000
303.740;   55.550;  417.000;  241.000
303.878;  -93.725; -800.000; -759.000
304.016; -102.975; -915.000; -790.000
304.154; -157.675;-1123.000;-1152.000
304.291;  -55.950; -505.000; -554.000
304.429;   -1.725;  102.000;   74.000
304.567; -138.500; -908.000; -893.000
304.705;  -72.650; -408.000; -515.000
304.842;  -34.450; -616.000; -540.000
304.980;   10.125;  215.000;   35.000
305.118;  -22.750; -367.000; -365.000
305.255; -135.350; -945.000; -927.000
305.393;   35.200;  178.000;  239.000
305.531; -139.625;-1173.000; -956.000
305.668;  -80.025; -663.000; -582.000
305.806;   -7.800; -358.000; -439.000
305.943;  -14.325; -629.000; -637.000
306.081;  -21.875; -378.000; -267.000
306.219; -111.725; -863.000; -748.000
306.356;    0.675;  158.000;   27.000
306.494;   97.750;  981.000;  761.000
306.631;   -5.825;  -11.000;  -55.000
306.769;  -32.450; -613.000; -485.000
306.906;  -38.325; -284.000; -258.000
307.044;  -61.925; -473.000; -488.000
307.181;  -65.075; -410.000; -332.000
307.319;   -0.400;  112.000;   87.000
307.456; -167.050;-1191.000;-1153.000
307.594; -106.750; -980.000; -727.000
307.731;  -33.300; -371.000; -164.000
307.868;   -6.900;  -15.000;   20.000
308.006; -150.825; -961.000; -847.000
308.143;  -86.825; -618.000; -330.000
308.281;   40.250;  -37.000; -254.000
308.418;  -58.700; -748.000; -640.000
308.555;  -73.075; -400.000; -250.000
308.693;  -84.750; -577.000; -573.000
308.830; -101.100; -712.000; -657.000
308.967;   -9.025; -215.000;  -95.000
309.105;  -50.600; -507.000; -396.000
309.242;  -16.050; -468.000; -367.000
309.379;   19.250; -577.000; -655.000
309.517;  -95.250; -936.000; -948.000
309.654; -117.450; -910.000; -734.000
309.791;  -69.100; -662.000; -580.000
309.928; -123.775; -977.000; -914.000
310.065;  131.225;  819.000;  697.000
310.203;  -94.575; -825.000; -850.000
310.340;  -39.800; -465.000; -321.000
310.477;  -93.575; -412.000; -516.000
310.614;  -77.150; -383.000; -473.000
310.751;  -84.700; -427.000; -518.000
310.889;  -20.175;    1.000;   11.000
311.026; -143.525;-1161.000; -939.000
311.163;  -47.100; -386.000; -380.000
311.300;  -87.050; -512.000; -479.000
311.437;  -72.450; -658.000; -619.000
311.574; -158.100;-1226.000; -985.000
311.711;  -70.525; -595.000; -433.000
311.848;  -56.500; -380.000; -388.000
311.985;    5.225;  270.000;   93.000
312.122; -133.750; -932.000; -762.000
312.259; -112.325; -941.000; -994.000
312.396;  -75.375; -508.000; -551.000
312.533;  -85.275; -812.000; -790.000
312.670; -144.550;-1070.000; -898.000
312.807;  -22.425; -352.000; -367.000
312.944;  -76.725; -513.000; -611.000
313.081;  -40.300; -150.000; -415.000
313.218;  -97.775;-1111.000; -867.000
313.355;  -14.100; -531.000; -449.000
313.492;  -22.000; -455.000; -292.000
313.629;  123.300;  815.000;  735.000
313.766; -161.050;-1176.000;-1008.000
313.902;  -16.775; -186.000;   21.000
314.039;  -50.325; -372.000; -289.000
314.176;   16.475;  286.000;  192.000
314.313;  -64.975; -569.000; -473.000
314.450;  -75.200; -788.000; -684.000
314.587;  -61.050; -468.000; -480.000
314.723;    5.950;  -78.000;  130.000
314.860;   24.300;  318.000;  332.000
314.997;   26.650;  223.000;  142.000
315.134;  -41.225; -385.000; -368.000
315.270;  -40.800; -480.000; -496.000
315.407; -116.300;-1094.000; -967.000
315.544;  -50.750; -657.000; -538.000
315.681;  -67.975; -681.000; -565.000
315.817;   31.375; -133.000; -176.000
315.954;    9.000; -613.000; -392.000
316.091; -115.025;-1045.000;-1023.000
316.227;  -25.900;  -71.000; -179.000
316.364;   -1.950;   23.000;    6.000
316.500;  -52.000; -113.000; -300.000
316.637;  -48.650; -181.000; -302.000
316.774;  -97.400; -625.000; -358.000
316.910;  -88.000; -598.000; -629.000
317.047;  -79.725; -487.000; -351.000
317.183;  -58.550; -435.000; -566.000
317.320;   22.400; -367.000; -321.000
317.456;  -30.200; -733.000; -805.000
317.593;  -94.825; -598.000; -641.000
317.729;    0.550;  168.000;  -67.000
317.866; -196.650;-1434.000;-1285.000
318.002; -103.675; -708.000; -948.000
318.139; -126.175; -883.000; -867.000
318.275; -107.675;-1003.000; -738.000
318.412;  -78.650; -517.000; -336.000
318.548;  -77.450; -751.000; -720.000
318.685; -107.425; -985.000; -888.000
318.821;  -93.450; -762.000; -735.000
318.957;  -32.000;   34.000;  -23.000
319.094;   25.925;  297.000;  154.000
319.230;  -98.975; -756.000; -742.000
319.367;   -2.825; -471.000; -520.000
319.503;  -30.025; -538.000; -436.000
319.639; -101.225; -877.000; -793.000
319.775;  -97.800; -750.000; -685.000
319.912;  -60.325; -424.000; -519.000
320.048; -102.125;-1184.000;-1184.000
320.184;   85.025;   59.000;   70.000
320.321;  -65.050; -497.000; -467.000
320.457;   64.650;  475.000;  662.000
320.593;  -75.225; -375.000; -382.000
320.729; -102.425; -732.000; -734.000
320.866;  -83.950; -577.000; -635.000
321.002;  -84.025; -759.000; -809.000
321.138;  -50.175; -135.000; -211.000
321.274;    7.050; -148.000; -115.000
321.410;  -69.925; -585.000; -353.000
321.546; -102.350;-1011.000; -911.000
321.683;   22.850;  400.000;  185.000
321.819;  -34.975;  -48.000; -117.000
321.955; -119.150; -743.000; -722.000
322.091;  -79.175; -585.000; -540.000
322.227;  -56.775; -382.000; -202.000
322.363;  -45.500; -320.000; -215.000
322.499;  -64.900; -343.000; -331.000
322.635;   93.725;  636.000;  443.000
322.771;  -15.025; -139.000;   12.000
322.907;   48.175;  129.000;  327.000
323.043;  -41.050; -115.000; -206.000
323.179;  -55.550; -394.000; -363.000
323.315;  -50.525; -401.000; -371.000
323.451;   15.800; -328.000; -236.000
323.587;   50.650;  -60.000;  -77.000
323.723;  -57.900; -682.000; -601.000
323.859;  -43.800; -258.000;  -76.000
323.995;  -55.025; -467.000; -409.000
324.131; -144.000; -967.000; -892.000
324.267;  -39.925; -254.000; -276.000
324.402; -153.300; -960.000; -983.000
324.538;  -35.850; -279.000; -104.000
324.674;   -4.600;  164.000;   77.000
324.810;   41.075;  226.000;  308.000
324.946;  -64.300; -810.000; -658.000
325.082;  -81.300; -568.000; -475.000
325.217;  -24.950;  -62.000;   16.000
325.353; -121.275; -764.000; -659.000
325.489;  -95.475; -540.000; -506.000
325.625;  -82.125; -579.000; -525.000
325.760;   81.325;  517.000;  376.000
325.896;   11.400; -515.000; -702.000
326.032;  -58.825; -403.000; -352.000
326.168;  -73.300; -462.000; -369.000
326.303;  -61.500; -352.000; -461.000
326.439;  -13.475; -336.000; -276.000
326.575;  -22.600; -190.000;  -29.000
326.710;  -22.350; -156.000;  -30.000
326.846;  -22.400;  146.000;  103.000
326.982;  -93.700; -530.000; -548.000
327.117;  -85.400; -481.000; -442.000
327.253;  -91.250; -745.000; -742.000
327.388; -134.725;-1137.000;-1153.000
327.524;  -94.575; -811.000; -578.000
327.659;  -36.875;  -58.000;  -22.000
327.795;  -29.200;   69.000;   45.000
327.931;  -81.050; -723.000; -499.000
328.066;  -28.975; -417.000; -276.000
328.202;  -33.725;   12.000; -129.000
328.337;   94.150;  957.000;  713.000
328.473;    7.525;  -12.000;  -74.000
328.608;  -33.050; -256.000; -267.000
328.743; -123.900; -799.000; -664.000
328.879;    1.300;  214.000;  114.000
329.014;  -39.550; -102.000; -122.000
329.150;  -82.250; -358.000; -483.000
329.285;  -86.550; -465.000; -466.000
329.421;  -46.925; -548.000; -246.000
329.556;  -21.450;  -36.000;   85.000
329.691;  -88.475; -633.000; -615.000
329.827;  -86.675; -626.000; -480.000
329.962;  -45.625;  131.000; -301.000
330.097;  -83.800; -673.000; -585.000
330.233;  -40.275; -410.000; -223.000
330.368; -123.725; -839.000; -628.000
330.503;   -8.650;    3.000;   98.000
330.638;  -21.625;  -93.000; -125.000
330.774;  -89.450; -609.000; -530.000
330.909;  -57.675; -434.000; -244.000
331.044;  -92.025; -714.000; -708.000
331.179; -170.075;-1217.000;-1109.000
331.315;  -11.075;   77.000;   20.000
331.450;   -4.150;  157.000;  285.000
331.585; -100.650; -805.000; -706.000
331.720;  -96.350; -510.000; -460.000
331.855;   -5.650;  -35.000; -102.000
331.990;  418.100;   62.000;  138.000
332.126;  234.375; -110.000;   71.000
332.261;   -5.300; -379.000; -265.000
332.396;   18.650; -135.000; -242.000
332.531;  -76.450;-1074.000;-1031.000
332.666;   89.300; -519.000; -363.000
332.801;  -99.900; -726.000; -807.000
332.936;  -33.450; -192.000; -122.000
333.071; -139.625; -870.000; -817.000
333.206;   -1.925;  307.000;  379.000
333.341;   12.550;  344.000;  418.000
333.476;  -91.125; -627.000; -623.000
333.611;  -43.500; -251.000; -173.000
333.746;  -55.450; -381.000; -464.000
333.881; -128.325; -973.000; -935.000
334.016; -123.125; -936.000; -917.000
334.151; -123.875; -746.000; -702.000
334.286;   11.675;  152.000;  186.000
334.421;  -21.375; -125.000; -178.000
334.556;  -97.300; -611.000; -567.000
334.690;  -89.225; -631.000; -577.000
334.825;   62.875;  381.000;   83.000
334.960;  -78.150; -285.000; -413.000
335.095;   -1.050;  135.000;  -91.000
335.230;  -95.850; -722.000; -738.000
335.365; -124.875;-1084.000; -990.000
335.499; -142.775;-1108.000;-1037.000
335.634;    6.975;    9.000;  534.000
335.769; -105.900; -755.000; -720.000
335.904;  -62.125; -603.000; -561.000
336.038;  -52.625; -735.000; -657.000
336.173; -123.250;-1206.000;-1194.000
336.308;    7.900; -116.000; -189.000
336.443;   51.525; -544.000; -634.000
336.577;  -58.575; -936.000; -787.000
336.712;   74.025;   -4.000;  -12.000
336.847;  -31.650; -724.000; -607.000
336.981;   50.550; -272.000; -208.000
337.116;  271.425;  615.000;  501.000
337.250;   99.375; -434.000; -421.000
337.385;  466.050; -297.000; -208.000
337.520;  225.250; -632.000; -603.000
337.654;  -45.200; -215.000; -126.000
337.789; -131.675; -989.000; -933.000
337.923;  -48.600; -104.000; -205.000
338.058; -110.750; -673.000; -738.000
338.192;  -57.075; -611.000; -488.000
338.327;   -7.650;  -18.000; -155.000
338.461;  -63.675; -299.000; -469.000
338.596; -105.100; -780.000; -638.000
338.730; -108.275; -767.000; -803.000
338.865;  145.225;  -46.000; -140.000
338.999;   -0.150; -846.000; -702.000
339.134;   -0.125; -634.000; -536.000
339.268;   32.975; -741.000; -603.000
339.403;  566.075; -740.000; -775.000
339.537;  263.775; -894.000; -820.000
339.671;  -97.250; -829.000; -813.000
339.806;  -38.725; -556.000; -512.000
339.940;   41.050; -261.000; -235.000
340.074; -111.900; -685.000; -510.000
340.209;  -48.050; -351.000; -230.000
340.343; -105.050; -517.000; -573.000
340.477;  127.150;  998.000; 1036.000
340.612;    2.875;-1033.000; -900.000
340.746;  237.750; -199.000; -243.000
340.880;  -99.050; -924.000; -785.000
341.014;  -32.725;  -45.000; -154.000
341.149; -129.150; -756.000; -718.000
341.283; -117.375; -839.000; -754.000
341.417; -143.075;-1124.000; -938.000
341.551;  -40.650; -768.000; -708.000
341.685;  -71.225; -633.000; -611.000
341.820;  -55.675; -562.000; -493.000
341.954;  -69.500; -218.000; -349.000
342.088; -148.425;-1102.000;-1019.000
342.222;   39.500;  565.000;  618.000
342.356;  -84.800; -395.000; -335.000
342.490; -128.300; -880.000; -841.000
342.624;  -49.150; -339.000; -242.000
342.758;  -69.900; -364.000; -312.000
342.892; -103.000; -710.000; -585.000
343.026;  -58.250;  -58.000; -116.000
343.160;  -66.000; -426.000; -376.000
343.294;  -87.250; -474.000; -337.000
343.428;  -81.775; -488.000; -448.000
343.562;  -44.175; -172.000;  -23.000
343.696;  -42.825; -385.000; -314.000
343.830;  -53.950; -362.000; -356.000
343.964;  -24.475; -231.000; -168.000
344.098;  273.950;  199.000;   70.000
344.232;  228.700; -266.000; -127.000
344.366;   66.350; -567.000; -453.000
344.500;  -54.225; -665.000; -744.000
344.634;  -45.700; -324.000; -164.000
344.768;  -63.375; -531.000; -341.000
344.902;  -22.200;  278.000;  256.000
345.035;  -77.275; -556.000; -496.000
345.169; -151.775; -933.000; -656.000
345.303;  -64.525; -308.000; -482.000
345.437; -103.325; -826.000; -717.000
345.571;  -72.225; -675.000; -594.000
345.704;  -74.050; -309.000; -532.000
345.838;  -27.925; -331.000; -284.000
345.972;  -72.250; -543.000; -495.000
346.106;  250.325; -179.000; -190.000
346.239;  493.800; -312.000; -243.000
346.373;  -25.750; -343.000; -302.000
346.507; -152.075; -950.000; -962.000
346.640;   18.750;  -30.000;   13.000
346.774;  -91.375; -650.000; -797.000
346.908;  -42.375; -138.000;  -11.000
347.041;  -99.925; -646.000; -593.000
347.175;   -4.225;  259.000;   27.000
347.309; -110.825; -698.000; -628.000
347.442; -114.750; -883.000; -732.000
347.576;  119.650;  670.000;  668.000
347.709;   33.500; -123.000;  -52.000
347.843; -138.575; -933.000; -825.000
347.976;   25.250;  235.000;  294.000
348.110; -195.750;-1268.000;-1186.000
348.243; -103.650; -679.000; -772.000
348.377;  -10.900;  -26.000;   60.000
348.510;   43.525;  403.000;  540.000
348.644;  -48.375;  -37.000; -159.000
348.777;  -19.525;  180.000;  191.000
348.911;  -67.825; -142.000; -112.000
349.044;   79.800;  471.000;  448.000
349.178;  -62.925;-1069.000;-1006.000
349.311;  100.625;  141.000;  255.000
349.444;   34.150; -927.000; -813.000
349.578;  -23.225; -347.000; -200.000
349.711; -130.325; -959.000; -862.000
349.845;  -78.325; -661.000; -591.000
349.978; -159.225;-1224.000;-1137.000
350.111;  -87.025; -546.000; -612.000
350.244; -120.900; -596.000; -700.000
350.378;  -58.050; -392.000; -393.000
350.511;  -84.275; -393.000; -426.000
350.644; -102.200; -808.000; -806.000
350.778;    2.425;  168.000;  104.000
350.911;  -13.375;  134.000;  140.000
351.044;  -98.900; -685.000; -615.000
351.177;  -59.450; -321.000; -281.000
351.310;  -46.200;    3.000; -131.000
351.444; -104.650; -888.000; -788.000
351.577;   34.675;  140.000;   90.000
351.710;   67.050;  593.000;  417.000
351.843;  -48.000; -165.000;  -77.000
351.976;  -13.400;  149.000;  -79.000
352.109; -115.150; -621.000; -612.000
352.242;  -62.475; -464.000; -419.000
352.376;  -98.350; -580.000; -636.000
352.509;    9.825; -437.000; -356.000
352.642; -107.600; -654.000; -604.000
352.775;   -7.950; -141.000;  -98.000
352.908; -120.800; -933.000; -904.000
353.041; -114.225; -814.000; -824.000
353.174;  -85.975; -551.000; -424.000
353.307; -108.500; -753.000; -764.000
353.440;   43.550;  541.000;  453.000
353.573; -110.725; -957.000;-1008.000
353.706;  -50.725; -384.000; -558.000
353.839;  -31.825; -264.000; -220.000
353.971;  -97.400; -657.000; -512.000
354.104; -101.900; -896.000; -835.000
354.237;  -86.925; -627.000; -662.000
354.370; -103.375; -846.000; -879.000
354.503; -169.575;-1231.000;-1308.000
354.636;  -26.075; -529.000; -348.000
354.769; -126.050; -937.000; -860.000
354.902;  -28.650; -230.000; -139.000
355.034;  -33.750; -164.000; -220.000
355.167;  -12.500; -262.000; -162.000
355.300;  -76.250;-1061.000; -880.000
355.433; 1459.900;  -71.000;  -14.000
355.565; 2271.925; -402.000; -384.000
355.698;  578.075; -356.000; -296.000
355.831;   -0.575; -882.000; -801.000
355.964;   17.950; -285.000; -170.000
356.096;  -95.125; -856.000; -843.000
356.229;  -14.975; -523.000; -530.000
356.362;  521.125; -373.000; -266.000
356.494;  912.475; -229.000; -162.000
356.627;  326.625;  269.000;  377.000
356.760;  879.600;  120.000;   53.000
356.892; 1506.525; -286.000; -601.000
357.025;  328.200;  403.000;  389.000
357.157;  226.200; -167.000; -179.000
357.290; 1240.150; -856.000; -713.000
357.423;  378.525; -667.000; -556.000
357.555;   92.825; -217.000; -228.000
357.688;  104.175; -483.000; -364.000
357.820;  158.550; -870.000; -877.000
357.953; 1456.475; -563.000; -589.000
358.085;  209.775; -632.000; -612.000
358.218;   86.500;-1131.000; -932.000
358.350;   32.475;  -58.000;  312.000
358.483; -181.425;-1300.000;-1187.000
358.615; -129.150;-1182.000;-1078.000
358.747; -161.225;-1187.000;-1058.000
358.880;  -54.300; -810.000; -744.000
359.012;  -58.700; -376.000; -202.000
359.145;  -72.825; -480.000; -511.000
359.277;  -59.525; -962.000; -913.000
359.409; 1243.125;  536.000;  231.000
359.542;  255.250; -738.000; -688.000
359.674;    7.500;   46.000;   13.000
359.806;  -87.350; -565.000; -438.000
359.939;  -42.550; -617.000; -516.000
360.071;   15.100; -583.000; -579.000
360.203;  -30.400; -411.000; -364.000
360.335;   10.025;  164.000;  -16.000
360.468;   86.350; -249.000; -307.000
360.600; 1321.525; -547.000; -454.000
360.732; 4265.850; -546.000; -423.000
360.864;  631.300;-1216.000;-1044.000
360.996;   68.125; -516.000; -554.000
361.129;  -46.750; -389.000; -598.000
361.261;  -19.525;  110.000; -113.000
361.393;  -70.200; -252.000; -214.000
361.525;   -9.675;   94.000;  244.000
361.657; -121.400; -821.000; -703.000
361.789;  -40.350; -139.000; -155.000
361.921;  -55.750; -642.000; -593.000
362.053;   68.425;  524.000;  541.000
362.185;   11.075;  288.000;   72.000
362.318; -105.600; -709.000; -705.000
362.450;   24.725;  294.000;  444.000
362.582;  -91.750; -913.000; -870.000
362.714;  -60.075; -353.000; -332.000
362.846;  -94.675; -606.000; -490.000
362.978; -143.550; -941.000; -811.000
363.109;  -35.975; -161.000; -260.000
363.241;  131.025; -739.000; -749.000
363.373;  608.775; -649.000; -564.000
363.505; 1051.575; -186.000;  -91.000
363.637;  236.650; -787.000; -601.000
363.769; -139.500;-1067.000;-1080.000
363.901;  -85.475; -596.000; -654.000
364.033; -159.600;-1103.000;-1062.000
364.165;  -40.750; -283.000; -283.000
364.296;   89.225; -316.000; -177.000
364.428;  194.450;-1344.000;-1220.000
364.560;  -71.325; -679.000; -661.000
364.692;  -82.375; -738.000; -835.000
364.824;  -17.125; -588.000; -456.000
364.955;  508.100; -402.000; -564.000
365.087; 1753.875;-1097.000; -852.000
365.219;  107.775; -686.000; -816.000
365.351;  -79.000; -526.000; -572.000
365.482;   31.750;  300.000;  240.000
365.614;  -77.475; -402.000; -314.000
365.746; -103.475; -729.000; -752.000
365.877;  -97.650; -706.000; -672.000
366.009;  411.225;  -35.000;  -62.000
366.141;  -25.000;-1249.000;-1134.000
366.272; -110.450; -803.000; -719.000
366.404; -123.600;-1005.000; -874.000
366.535;  -26.700; -139.000;  -12.000
366.667; -113.725; -644.000; -649.000
366.799;   23.675;  353.000;  203.000
366.930; -141.750; -862.000; -996.000
367.062;  188.425; -639.000; -613.000
367.193;  338.300; -872.000; -842.000
367.325;  -50.125; -580.000; -684.000
367.456;  -23.425; -246.000;   31.000
367.588;  269.375; -371.000; -318.000
367.719;   33.675;  -44.000;  -45.000
367.851;  -63.000; -222.000; -241.000
367.982; -124.600; -875.000; -732.000
368.113;  -34.975; -475.000; -358.000
368.245; -154.600; -960.000; -841.000
368.376;  -49.200; -254.000; -302.000
368.508;  -69.100; -188.000; -263.000
368.639; -158.300;-1166.000;-1034.000
368.770;  -97.450; -670.000; -589.000
368.902; -116.575; -836.000; -926.000
369.033; -124.875; -906.000; -855.000
369.164;  -42.475; -720.000; -653.000
369.296; -111.325; -452.000; -601.000
369.427;  -35.475; -209.000; -144.000
369.558;  -86.325; -593.000; -377.000
369.689;  -86.900; -721.000; -569.000
369.821; -140.700; -951.000; -845.000
369.952;  -33.675;   42.000; -108.000
370.083;  -77.025; -229.000; -108.000
370.214;  -97.450; -735.000; -650.000
370.345;  -43.100;   65.000;   81.000
370.477; -111.650; -810.000; -790.000
370.608;    2.450; -328.000; -264.000
370.739; -132.200;-1233.000;-1292.000
370.870; -130.675;-1102.000; -923.000
371.001;  -32.575; -378.000; -467.000
371.132; -113.350; -754.000; -735.000
371.263;  -52.175;  -42.000; -148.000
371.394; -148.075; -841.000; -748.000
371.525;    7.975;  345.000;  225.000
371.657; -121.300; -808.000; -670.000
371.788;   16.250;  103.000;  199.000
371.919;  -18.925; -384.000; -304.000
372.050; 1221.900;  -91.000; -156.000
372.181;  353.050; -188.000; -294.000
372.311;   82.375;   42.000; -127.000
372.442;  -50.000; -457.000; -451.000
372.573;  -60.600; -444.000; -340.000
372.704; -159.875;-1008.000; -980.000
372.835;  -26.225; -228.000; -289.000
372.966;  -91.375; -646.000; -554.000
373.097; -107.725; -575.000; -711.000
373.228; -106.425; -717.000; -542.000
373.359;  -55.950; -824.000; -536.000
373.490;  149.800; -881.000; -727.000
373.620;  226.125;-1001.000; -803.000
373.751;  498.975; -332.000; -396.000
373.882;  200.350; -663.000; -733.000
374.013;  -45.900; -449.000; -262.000
374.143;  -77.325; -581.000; -659.000
374.274; -134.500; -987.000; -908.000
374.405;   47.700; -388.000; -276.000
374.536;  102.725; -526.000; -387.000
374.666;  250.200; -759.000; -807.000
374.797;  -31.050; -817.000; -868.000
374.928;  151.075; -710.000; -560.000
375.058;  164.000; -535.000; -500.000
375.189;   -3.225;  -59.000;  -93.000
375.320; -136.750; -928.000;-1034.000
375.450;  -52.225; -625.000; -616.000
375.581;  -58.100; -526.000; -436.000
375.712;  -48.750; -574.000; -250.000
375.842;   -3.475; -438.000; -415.000
375.973;  -22.875; -554.000; -513.000
376.103; -102.650; -665.000; -648.000
376.234;  -97.450; -531.000; -552.000
376.364; -125.875; -944.000; -867.000
376.495;  134.475;  925.000;  529.000
376.625;  -78.075; -472.000; -485.000
376.756;  -73.125; -709.000; -678.000
376.886; -155.925;-1178.000;-1026.000
377.017;  130.125;-1048.000;-1061.000
377.147;  649.650; -786.000; -782.000
377.278;   77.425;  174.000;  228.000
377.408; -134.850; -801.000; -815.000
377.538; -107.375; -707.000; -693.000
377.669; -102.900; -537.000; -613.000
377.799; -115.275; -645.000; -635.000
377.929;  -93.900; -610.000; -428.000
378.060; -128.550; -781.000; -847.000
378.190;  -58.075; -726.000; -531.000
378.320;  -59.400; -401.000; -406.000
378.451;  -30.425; -131.000;  -22.000
378.581;  -28.025;  -67.000; -110.000
378.711;   91.050; 1035.000;  866.000
378.841;  -78.950; -533.000; -675.000
378.972; -126.100; -871.000; -751.000
379.102;  -83.000; -652.000; -579.000
379.232;  -56.250; -126.000;  -73.000
379.362; -131.050;-1001.000; -885.000
379.492;  -75.275; -373.000; -424.000
379.623;   30.975;    0.000;  111.000
379.753; -134.750;-1107.000; -974.000
379.883;   55.225;   59.000;  156.000
380.013; -108.475;-1081.000;-1017.000
380.143; -131.525;-1097.000;-1056.000
380.273; -117.925; -985.000; -861.000
380.403;    0.650; -344.000; -257.000
380.533;  -67.175; -651.000; -664.000
380.663;   -0.200;  173.000;  128.000
380.793; -162.575;-1027.000;-1074.000
380.923;  -58.725; -103.000;  -34.000
381.053; -112.850; -613.000; -623.000
381.183;  -50.425; -106.000; -248.000
381.313;  -75.525; -656.000; -470.000
381.443;  -56.275; -692.000; -473.000
381.573;  -38.200; -402.000; -409.000
381.703;  -93.150;-1249.000;-1095.000
381.833; -194.425;-1454.000;-1336.000
381.963;   10.625; -134.000;  -87.000
382.093;  382.850; -925.000; -909.000
382.223;   79.725; -713.000; -602.000
382.353;  -93.875; -801.000; -608.000
382.482;  -14.900;-1091.000; -964.000
382.612;  156.400; -872.000; -644.000
382.742;   76.625; -695.000; -622.000
382.872;  -27.200; -565.000; -551.000
383.002;   12.600;  347.000; -132.000
383.131;  -45.850; -226.000; -160.000
383.261;  -45.700; -706.000; -768.000
383.391;  324.700; -552.000; -377.000
383.521; 5115.900;  451.000;  263.000
383.650; 1525.725; -947.000; -904.000
383.780;   32.475; -783.000; -656.000
383.910;   90.900;  880.000;  802.000
384.039;  -83.325; -794.000; -656.000
384.169;  -90.100;-1205.000;-1017.000
384.299;  -92.750; -650.000; -662.000
384.428; -121.975; -764.000; -680.000
384.558;  -72.150; -308.000; -275.000
384.687;  -79.700; -414.000; -334.000
384.817;  -23.150;   75.000;   -2.000
384.947;  -46.550; -234.000; -141.000
385.076;  135.425;  982.000;  912.000
385.206;   35.700;  369.000;  480.000
385.335;  -64.175; -549.000; -417.000
385.465; -121.475; -655.000; -663.000
385.594;   -0.775;  -53.000;  -44.000
385.724;   10.150; -868.000; -838.000
385.853;  -25.575; -296.000; -270.000
385.982;  325.475; -743.000; -787.000
386.112;  628.525;-1052.000; -871.000
386.241;    0.700; -307.000; -312.000
386.371;  -33.025; -174.000;  -87.000
386.500;  -72.775; -825.000; -789.000
386.629;  -15.250; -874.000; -817.000
386.759;   70.250;  -43.000;   68.000
386.888;  -27.775; -170.000; -250.000
387.017; -101.475; -648.000; -620.000
387.147; -119.475; -771.000; -798.000
387.276;  -71.700; -410.000; -397.000
387.405;  -60.275; -398.000; -342.000
387.535;  -70.550; -452.000; -361.000
387.664;  -81.200; -692.000; -620.000
387.793;  -26.800; -198.000; -113.000
387.922;  140.700;  255.000;  200.000
388.052;  -72.300; -576.000; -423.000
388.181;  -66.800; -342.000; -472.000
388.310; -113.400; -889.000; -710.000
388.439; -115.850; -749.000; -742.000
388.568;   27.125;  365.000;  244.000
388.697;  239.175; -756.000; -653.000
388.826;  -18.900; -768.000; -666.000
388.956;  -53.400; -285.000; -307.000
389.085;  -72.175; -347.000; -287.000
389.214; -122.075; -842.000; -872.000
389.343;  -75.600; -645.000; -413.000
389.472;  535.675;  126.000;  149.000
389.601;  627.425;   91.000;    0.000
389.730;  -23.325; -568.000; -687.000
389.859;    5.325;  226.000;   46.000
389.988;   23.700; -423.000; -408.000
390.117;   29.375; -168.000; -146.000
390.246;  -51.025; -331.000; -320.000
390.375;  -76.475; -673.000; -626.000
390.504;  -88.075; -703.000; -621.000
390.633; -128.525; -672.000; -726.000
390.761; -102.975; -732.000; -645.000
390.890;  -31.800;   -4.000; -130.000
391.019;  -70.125; -421.000; -441.000
391.148; -141.650; -826.000; -855.000
391.277;  -93.025; -576.000; -493.000
391.406; -138.725; -821.000; -805.000
391.534;   -0.500;  574.000; -301.000
391.663; -107.450; -583.000; -645.000
391.792; -114.400; -673.000; -701.000
391.921;  -30.500;   -3.000;   15.000
392.050;  -10.850; -287.000; -228.000
392.178; -148.900;-1206.000;-1061.000
392.307;  -54.325; -758.000; -712.000
392.436;  -65.600; -427.000; -641.000
392.564;   -1.700;  166.000;   -6.000
392.693; -109.400; -860.000; -682.000
392.822;   -6.150; -529.000; -534.000
392.950;  -71.050; -880.000; -714.000
393.079;   50.775; -188.000; -328.000
393.208;  -66.175; -488.000; -511.000
393.336;  -25.825; -170.000; -145.000
393.465;  -59.150; -317.000; -199.000
393.593;  -12.975;   62.000;   79.000
393.722; -161.175;-1121.000; -916.000
393.850;  -34.725; -188.000;  -61.000
393.979; -150.825; -926.000; -805.000
394.107;  -78.650; -517.000; -537.000
394.236;  -68.000; -570.000; -507.000
394.364;   94.625;  383.000;  206.000
394.493;   34.075; -911.000; -767.000
394.621;    3.650; -955.000; -916.000
394.750; 1133.450; -873.000; -923.000
394.878; 4467.325; -247.000; -149.000
395.007; 6502.950; -721.000; -807.000
395.135;  577.350; -790.000; -721.000
395.263;  -79.250;-1038.000;-1040.000
395.392;  -10.475;  -25.000; -107.000
395.520; -144.775; -818.000; -679.000
395.648; -133.725; -865.000; -915.000
395.777;  -68.100; -366.000; -405.000
395.905;  -97.300; -449.000; -564.000
396.033;  -14.225;  217.000;  172.000
396.162;   97.450; -399.000; -453.000
396.290;  106.475;  -17.000;   -2.000
396.418;  -58.425; -555.000; -514.000
396.546; -106.200; -571.000; -466.000
396.674; -128.250; -850.000; -878.000
396.803;  -49.800;  -72.000;  -23.000
396.931;  -39.150; -179.000; -199.000
397.059; -136.675;-1026.000; -989.000
397.187; -145.725;-1026.000; -975.000
397.315; -149.025; -884.000; -649.000
397.443; -109.425; -592.000; -443.000
397.572; -113.275; -578.000; -424.000
397.700; -111.625; -607.000; -614.000
397.828;  -55.000;  120.000;  -90.000
397.956;  -41.675; -508.000; -478.000
398.084;  -36.475; -767.000; -626.000
398.212;  -20.650;  137.000;  124.000
398.340;  -30.425;  -56.000;  159.000
398.468;  -64.800; -390.000; -169.000
398.596; -157.075; -993.000; -953.000
398.724; -135.350; -762.000; -767.000
398.852; -154.850;-1024.000; -976.000
398.980;  -86.525; -560.000; -560.000
399.108; -113.725; -982.000; -735.000
399.236;   -3.425;   13.000;    8.000
399.363;   -3.450;  222.000;  196.000
399.491;  -68.200; -404.000; -398.000
399.619; -124.325; -829.000; -800.000
399.747; -104.075; -859.000; -771.000
399.875;   15.375;  220.000;  234.000
400.003;  -55.250; -359.000; -284.000
400.130;  -98.275; -421.000; -341.000
400.258;  -48.775;  -83.000;   38.000
400.386;  -65.050; -352.000; -168.000
400.514; -112.975; -526.000; -587.000
400.641; -146.925; -928.000; -802.000
400.769; -163.975; -979.000; -888.000
400.897; -134.900; -838.000; -793.000
401.025;  -45.125; -166.000; -152.000
401.152;  -24.450;  220.000;   38.000
401.280;  -89.600; -430.000; -429.000
401.408; -125.175; -712.000; -576.000
401.535; -125.000; -735.000; -758.000
401.663; -200.200;-1134.000;-1054.000
401.790;  -90.175; -514.000; -525.000
401.918;   17.525;  436.000;  405.000
402.046;  -17.700;  134.000;  122.000
402.173;  -53.675;  -18.000;    7.000
402.301;  -79.600; -519.000; -397.000
402.428;   12.900;  528.000;  383.000
402.556; -178.400;-1188.000; -913.000
402.683;  -51.025;  -20.000;   -1.000
402.811;  -20.400;  -37.000; -206.000
402.938;  -29.400;   20.000;   27.000
403.066;   -7.975; -574.000; -558.000
403.193;   87.150;  299.000;  239.000
403.321;   54.575; -396.000; -574.000
403.448;  111.750;   83.000;   27.000
403.575;   30.550;  -90.000;  -46.000
403.703; -120.575; -732.000; -557.000
403.830;  -70.575; -531.000; -496.000
403.957; -131.875;-1117.000;-1023.000
404.085;   18.375;  -61.000; -172.000
404.212;  102.300;  -50.000;   63.000
404.339;  420.975; -566.000; -306.000
404.467; 8939.350; -612.000; -524.000
404.594; 5439.125; -287.000; -227.000
404.721;  933.025; -869.000; -764.000
404.848;  101.575; -113.000; -202.000
404.976; -105.050; -856.000; -783.000
405.103;  -17.750;  -14.000;  -82.000
405.230;  -14.200;  190.000;  226.000
405.357;   36.950;  117.000;   44.000
405.484;  399.425;  -49.000;    5.000
405.612;  118.575; -548.000; -563.000
405.739;  -77.850; -488.000; -243.000
405.866;   59.325;  669.000;  385.000
405.993;  -61.550; -398.000; -102.000
406.120; -145.000; -801.000; -887.000
406.247;  -95.175; -323.000; -342.000
406.374;  102.325;  540.000;  629.000
406.501;  -87.450; -632.000; -702.000
406.628;  -93.850; -621.000; -589.000
406.755; -141.575; -803.000; -620.000
406.882;  -62.475; -228.000; -277.000
407.009; -125.475; -719.000; -628.000
407.136;  -58.325; -480.000; -401.000
407.263;  -69.125; -939.000; -829.000
407.390;  -99.000; -692.000; -614.000
407.517; -186.400;-1139.000;-1187.000
407.644;  -89.850; -332.000; -256.000
407.771; -100.575; -249.000; -287.000
407.898;  -11.850;  168.000;  328.000
408.025; -105.725; -421.000; -313.000
408.151;  -38.375;   82.000;  153.000
408.278;  -64.225; -267.000; -216.000
408.405; -131.400; -931.000; -899.000
408.532; -105.300; -549.000; -542.000
408.659; -115.475; -677.000; -648.000
408.785; -203.575;-1298.000;-1170.000
408.912;  -48.425; -412.000; -296.000
409.039; -117.400; -610.000; -686.000
409.166; -101.400; -591.000; -555.000
409.292; -127.350; -571.000; -534.000
409.419; -124.800; -665.000; -649.000
409.546; -103.000; -431.000; -192.000
409.672; -115.900; -713.000; -545.000
409.799;  -52.725;  -36.000;   34.000
409.926;  -57.975; -180.000; -179.000
410.052; -186.700;-1127.000;-1091.000
410.179;  -86.400; -368.000; -392.000
410.305; -103.175; -375.000; -493.000
410.432;  -37.650; -220.000; -333.000
410.558;  -97.825; -305.000; -380.000
410.685; -124.375; -688.000; -431.000
410.812; -107.225; -409.000; -588.000
410.938; -141.975; -964.000; -808.000
411.065; -109.975; -671.000; -645.000
411.191;  -33.750; -189.000; -174.000
411.317; -146.575; -823.000; -742.000
411.444;  -80.275; -317.000; -246.000
411.570;  -70.525; -339.000; -294.000
411.697; -133.500; -758.000; -752.000
411.823; -189.175; -989.000; -999.000
411.949;  -54.700;  -56.000;   17.000
412.076; -116.125; -539.000; -519.000
412.202; -137.725; -758.000; -757.000
412.329; -147.350; -798.000; -752.000
412.455; -122.425; -821.000; -657.000
412.581;  -38.575;  -15.000;  172.000
412.707;  -99.600; -540.000; -457.000
412.834;   -4.150;  156.000;  219.000
412.960; -116.200; -785.000; -784.000
413.086; -123.550; -743.000; -701.000
413.212;   87.625;  604.000;  578.000
413.339; -104.475; -685.000; -701.000
413.465;  -79.175; -364.000; -310.000
413.591; -115.975; -757.000; -474.000
413.717;  -60.425; -358.000; -366.000
413.843; -133.300; -839.000; -861.000
413.969;  -61.450;  -47.000; -292.000
414.096; -108.850; -679.000; -679.000
414.222;   -3.325;  -33.000;   85.000
414.348;  -86.825; -652.000; -385.000
414.474;   -3.050;   38.000;  -52.000
414.600;  -22.550; -126.000; -144.000
414.726;  -14.250;  -96.000;  -55.000
414.852;  -36.025; -365.000; -342.000
414.978;   23.825;  104.000;  -18.000
415.104;   40.450;   38.000;   80.000
415.230;   39.325; -329.000; -330.000
415.356;   58.150; -409.000; -514.000
415.482;  213.075;   13.000;  -35.000
415.608;  388.075; -247.000; -323.000
415.734; 1308.000;   67.000;   38.000
415.860;27137.550; -875.000; -767.000
415.986;22455.600; -685.000; -607.000
416.111; 2117.725; -798.000; -652.000
416.237;  444.200; -424.000; -571.000
416.363; 1669.450; -765.000; -733.000
416.489; 6716.975; -324.000; -251.000
416.615;  910.375; -707.000; -742.000
416.741;   53.650; -677.000; -784.000
416.866;  -67.275; -673.000; -736.000
416.992; -108.000; -801.000; -818.000
417.118;  -29.875;  -41.000;  -80.000
417.244;  -70.625; -798.000; -531.000
417.369;  -84.875; -801.000; -612.000
417.495;  -15.650; -325.000; -254.000
417.621; -106.225;-1015.000; -803.000
417.746;   -6.800; -579.000; -572.000
417.872;   52.300; -254.000; -144.000
417.998;  111.975; -515.000; -530.000
418.123; 1510.075;-1073.000; -845.000
418.249; 8579.200; -512.000; -601.000
418.374; 1461.850; -916.000; -824.000
418.500;  222.425; -383.000; -482.000
418.626;  148.425;   70.000;  -59.000
418.751;  154.650; -549.000; -448.000
418.877;  289.975; -637.000; -643.000
419.002; 2570.475; -688.000; -560.000
419.128;19376.200; -930.000; -721.000
419.253; 5549.425; -967.000; -837.000
419.379;  767.725; -391.000; -338.000
419.504;  585.425;  325.000;  415.000
419.629;  808.050; -393.000; -212.000
419.755; 5328.200; -317.000; -254.000
419.880;34777.725;  -98.000;   67.000
420.006;17478.125; -280.000; -221.000
420.131;43366.975; -662.000; -775.000
420.256; 7012.050; -315.000; -316.000
420.382;  941.750; -665.000; -687.000
420.507;  166.850; -649.000; -778.000
420.632;   31.450; -337.000; -339.000
420.758;   36.675; -251.000; -425.000
420.883; -105.725; -876.000; -672.000
421.008; -113.125; -775.000; -619.000
421.133;  -96.125; -509.000; -467.000
421.259;  -59.525; -325.000; -259.000
421.384; -140.425; -834.000; -693.000
421.509; -133.975;-1052.000; -862.000
421.634;  130.900; -936.000; -820.000
421.759;   65.525; -359.000; -327.000
421.885; -108.250; -717.000; -656.000
422.010; -110.075; -673.000; -542.000
422.135; -167.650; -695.000; -727.000
422.260;    5.900;  340.000;  280.000
422.385;  -62.625;   12.000;  -98.000
422.510;   -8.300;  151.000;  -26.000
422.635;  -19.050;  -87.000;  -43.000
422.760;  -40.150; -766.000; -791.000
422.885;   -6.525;  -57.000;  -80.000
423.010;  -26.200; -112.000; -169.000
423.135;  -90.275; -481.000; -561.000
423.260;  -45.150; -150.000; -245.000
423.385;    1.450;  476.000;  222.000
423.510;  -10.400;   71.000;  -22.000
423.635;   -5.225;  133.000;   45.000
423.760;   35.450;  383.000;  328.000
423.885;   23.550;  336.000;  391.000
424.010;  -14.925;  -68.000;  -13.000
424.135;  -36.500;    5.000;  -33.000
424.259;  -79.575; -654.000; -457.000
424.384;  -64.975; -279.000; -272.000
424.509;  -30.775; -260.000; -186.000
424.634;  -98.825; -761.000; -623.000
424.759;  -26.850; -688.000; -544.000
424.883;   -2.775; -506.000; -527.000
425.008;  183.425; -502.000; -410.000
425.133; 2857.700; -679.000; -653.000
425.258; 1551.075; -517.000; -381.000
425.382;  483.550; -867.000; -774.000
425.507; 1119.250; -487.000; -543.000
425.632;  348.375; -802.000; -663.000
425.756;  692.875; -256.000; -146.000
425.881;10128.125; -831.000; -857.000
426.006;31276.000; -604.000; -355.000
426.130; 5126.350; -696.000; -508.000
426.255;  716.550; -611.000; -491.000
426.379;  283.125; -189.000; -577.000
426.504;  492.725;  660.000;  544.000
426.629; 5601.050; -519.000; -466.000
426.753; 4354.325;   64.000;  -46.000
426.878;  535.100; -252.000; -288.000
427.002;  325.950; -651.000; -668.000
427.127; 2075.250;  -35.000; -158.000
427.251;17229.650;  372.000;  401.000
427.375; 5631.400; -191.000; -173.000
427.500; 1296.300; -616.000; -610.000
427.624;  401.500; -234.000; -400.000
427.749;   68.675; -216.000; -225.000
427.873;  -26.200; -499.000; -412.000
427.997;  -51.875; -222.000; -230.000
428.122;   43.575;  795.000;  703.000
428.246;   25.975;  433.000;  434.000
428.371; -147.950; -869.000; -773.000
428.495; -123.600; -624.000; -646.000
428.619;  -44.675; -186.000; -117.000
428.743;   -2.500;   65.000;  132.000
428.868;  -77.725; -732.000; -643.000
428.992;  466.850; -219.000; -326.000
429.116;  152.475; -329.000; -357.000
429.240;   89.700;  419.000;  426.000
429.365;  -55.500; -454.000; -574.000
429.489;  -65.425; -638.000; -647.000
429.613;   16.275; -236.000; -177.000
429.737;   65.675; -563.000; -432.000
429.861;  365.925; -247.000; -133.000
429.985; 7828.725; -425.000; -305.000
430.109;10056.050; -770.000; -908.000
430.234; 1220.675;   76.000;  -50.000
430.358;  129.550; -250.000; -160.000
430.482;  -44.900; -672.000; -564.000
430.606;  -92.900; -655.000; -375.000
430.730;  -71.000; -437.000; -388.000
430.854;  -93.400; -909.000; -835.000
430.978; -106.700; -795.000; -764.000
431.102;  -89.975; -499.000; -422.000
431.226; -130.950; -874.000; -815.000
431.350;   24.650;  345.000;  422.000
431.474;  -87.125; -661.000; -373.000
431.597; -185.425;-1060.000; -848.000
431.721;  -66.500; -276.000; -267.000
431.845; -129.775; -704.000; -472.000
431.969;  -82.950; -304.000; -349.000
432.093;  -94.150; -395.000; -317.000
432.217;  -17.525;   32.000;   82.000
432.341;  -91.975; -523.000; -518.000
432.464;  -23.100;   96.000;   40.000
432.588;  -43.050; -401.000; -329.000
432.712;   10.275;  -52.000;  -52.000
432.836;   49.225;  213.000;  263.000
432.959;   19.425; -372.000; -311.000
433.083;  156.725;   11.000;    2.000
433.207;  551.725;  285.000;  930.000
433.330; 7561.525; -391.000; -200.000
433.454;10494.575; -654.000; -638.000
433.578; 5833.050;  583.000;  278.000
433.701; 1262.275; -623.000; -675.000
433.825;  137.375; -292.000; -299.000
433.949;   34.575;   28.000;  -72.000
434.072;  -26.350; -410.000; -323.000
434.196;   -4.425; -309.000; -117.000
434.319; 3480.825;25482.000;25124.000
434.443;  860.575; -656.000; -603.000
434.566; 4081.300;  281.000;   62.000
434.690;  905.700; -637.000; -383.000
434.813;  127.400; -251.000; -173.000
434.937;  -30.075; -569.000; -696.000
435.060;  -81.125; -423.000; -332.000
435.184;  -19.625; -492.000; -217.000
435.307;   -9.225;  159.000;  102.000
435.431;  -40.225;  -40.000;   24.000
435.554;  -83.425; -399.000; -240.000
435.677; -100.600; -350.000; -258.000
435.801;  -58.100;  -25.000;   49.000
435.924;  -43.325;    1.000;  -67.000
436.048; -152.500;-1019.000; -732.000
436.171;  -79.425; -240.000;  -66.000
436.294;  -13.075; -248.000; -229.000
436.417;  216.925; -963.000; -849.000
436.541;  -36.400; -814.000; -840.000
436.664;  -50.800; -242.000; -316.000
436.787;  -40.325;   13.000;  113.000
436.910; -125.525; -792.000; -422.000
437.034;  -20.350;  142.000;  143.000
437.157;    2.800;  -11.000;    0.000
437.280;  -93.775; -392.000; -292.000
437.403; -145.400; -982.000; -869.000
437.526;  -22.825; -903.000; -865.000
437.649;  417.850; -505.000; -332.000
437.772;  -29.925; -692.000; -540.000
437.896;   62.150;  700.000;  544.000
438.019; -126.250; -758.000; -503.000
438.142; -116.575; -596.000; -506.000
438.265; -120.950; -639.000; -670.000
438.388;   13.700; -520.000; -410.000
438.511;  -82.775; -597.000; -394.000
438.634;  -75.425; -247.000; -125.000
438.757; -135.600; -693.000; -619.000
438.880;  -60.700;  -34.000;  -57.000
439.003; -120.850; -417.000; -437.000
439.126;  -84.450; -287.000; -167.000
439.248;  -70.325;  -98.000; -139.000
439.371;  -57.900;    9.000;  -53.000
439.494;    1.550;  510.000;  439.000
439.617;  -50.750;   65.000;  -88.000
439.740; -179.250; -968.000; -816.000
439.863; -144.250; -755.000; -595.000
439.986; -140.250; -476.000; -431.000
440.108;  -59.625; -161.000; -112.000
440.231; -168.625; -950.000; -836.000
440.354;  -63.250;  -64.000; -150.000
440.477; -112.875; -566.000; -542.000
440.599;  -86.300; -200.000; -225.000
440.722; -138.550; -709.000; -586.000
440.845;   45.475;  751.000;  928.000
440.968; -112.700; -415.000; -311.000
441.090;  -90.375; -199.000;  -33.000
441.213; -170.550;-1021.000; -825.000
441.336;  -56.450; -159.000;   -5.000
441.458; -123.550; -549.000; -396.000
441.581; -135.950; -628.000; -629.000
441.703;  -83.525; -152.000;   13.000
441.826; -124.575; -557.000; -400.000
441.948;  -56.675;   56.000;   51.000
442.071;   15.575;  555.000;  424.000
442.193; -129.300; -531.000; -485.000
442.316;  -15.000;  152.000;   97.000
442.438;   52.150; -233.000;  -10.000
442.561;   63.575;  272.000;  262.000
442.683;   27.250; -809.000; -522.000
442.806;  211.150;   -8.000;   74.000
442.928; -114.075; -859.000; -604.000
443.051; -104.475; -577.000; -373.000
443.173; -115.250; -341.000; -339.000
443.295;  -98.200; -263.000; -371.000
443.418;  -95.350; -321.000;  -29.000
443.540;  -37.175; -106.000;   -4.000
443.662; -133.200; -563.000; -465.000
443.785;  -21.350;  335.000;  199.000
443.907; -100.075; -362.000; -208.000
444.029; -126.675; -767.000; -494.000
444.152; -167.325; -644.000; -554.000
444.274;  -50.025;  -18.000;  -24.000
444.396; -130.875; -461.000; -221.000
444.518; -127.700; -691.000; -454.000
444.640; -112.825; -268.000; -111.000
444.763;  -37.575;  388.000;  249.000
444.885; -129.125; -432.000; -392.000
445.007;  -41.300;   35.000;   86.000
445.129; -136.425; -610.000; -515.000
445.251; -121.500; -372.000; -439.000
445.373; -158.400; -537.000; -386.000
445.495;  -25.025;  242.000;  350.000
445.617;   24.250;  853.000;  753.000
445.739;  -88.450; -215.000;  -97.000
445.861;  -69.300; -245.000; -112.000
445.984;  -72.350; -267.000; -101.000
446.105;  -28.425; -418.000; -251.000
446.227;   92.200; -176.000;  -19.000
446.349;  -90.250; -358.000; -249.000
446.471; -126.875; -615.000; -448.000
446.593;  -97.550; -316.000;   19.000
446.715;  -59.600;  -67.000;   41.000
446.837;   40.375;  697.000;  832.000
446.959; -111.975; -457.000; -478.000
447.081; -134.700; -628.000; -518.000
447.203;   37.800;  862.000;  834.000
447.325;  -92.700; -270.000;   42.000
447.446;   -8.325;  286.000;  530.000
447.568; -160.775; -921.000; -803.000
447.690;  -85.400; -236.000; -245.000
447.812; -165.600; -798.000; -519.000
447.933;  -28.400;  155.000;  127.000
448.055;  -69.800; -306.000; -261.000
448.177;    3.975;   31.000;   79.000
448.299; -113.700; -935.000; -727.000
448.420;  -13.675;  -25.000;  159.000
448.542;  -66.075;   -3.000;   33.000
448.664;  -22.425;  109.000;  322.000
448.785;  -59.875;  265.000;   83.000
448.907; -100.625; -614.000; -353.000
449.028; -122.300; -771.000; -471.000
449.150;   32.925;  492.000;  589.000
449.272; -184.350;-1044.000; -913.000
449.393;   27.275;  612.000;  694.000
449.515; -149.250; -634.000; -581.000
449.636;  -77.250; -264.000; -155.000
449.758;   17.250;  763.000;  622.000
449.879;  -91.600; -498.000; -396.000
450.001;  -73.475; -149.000;  -49.000
450.122;  -46.700;  -95.000;  162.000
450.244;  -34.775;   37.000;  364.000
450.365;  -78.375; -495.000; -301.000
450.486;  -12.675;   80.000;  268.000
450.608;   48.300;  393.000;  326.000
450.729;  102.500;  578.000;  645.000
450.850;   86.600; -574.000; -466.000
450.972; 1190.550; -552.000; -389.000
451.093; 7947.900;  190.000;  588.000
451.214; 4084.700; -516.000; -337.000
451.336;  669.000;  773.000;  579.000
451.457;  127.100;  264.000;  393.000
451.578;  -32.825; -118.000;  -74.000
451.699; -112.025; -546.000; -540.000
451.821;  -66.875; -284.000;  -50.000
451.942;    3.725;  278.000;  285.000
452.063;   40.400;  228.000;  419.000
452.184;  796.225;  -54.000;  -49.000
452.305; 1749.825;  103.000;  170.000
452.427;  336.425; -549.000; -301.000
452.548;   -5.475;   23.000;   79.000
452.669;  -70.675; -257.000;  -89.000
452.790;  -45.525;    3.000;  -18.000
452.911;  -31.175;  195.000;  259.000
453.032;  -70.475; -289.000;  -60.000
453.153;  -70.275;  -29.000;   81.000
453.274;   54.350;  737.000;  868.000
453.395;  -74.875;  -51.000;  175.000
453.516;   48.850; 1317.000; 1388.000
453.637; -103.200; -205.000; -150.000
453.758;  -55.875;   15.000;   69.000
453.879; -142.650; -462.000; -250.000
454.000;   60.675; 1086.000;  948.000
454.121; -127.450; -554.000; -326.000
454.242; -115.850; -599.000; -383.000
454.362;  -67.125;  -99.000;  114.000
454.483;  -33.000; -309.000; -229.000
454.604;   47.300;  512.000;  580.000
454.725; -126.600; -627.000; -555.000
454.846; -127.900; -474.000; -406.000
454.967;  -27.825;  230.000;  539.000
455.087;  -51.325;  179.000;  153.000
455.208;    2.575;  554.000;  856.000
455.329;  -64.650;  -22.000;   82.000
455.450;   44.175;  473.000;  633.000
455.570;  -69.450; -234.000; -211.000
455.691;  -51.475;  201.000;  407.000
455.812; -108.800; -270.000;  -92.000
455.932;  -65.400;  107.000;  -97.000
456.053;  -90.900;   36.000;   24.000
456.173; -100.850; -433.000; -355.000
456.294; -142.300; -476.000; -303.000
456.415;  -73.275;  -73.000;   70.000
456.535;  -60.050;  297.000;  273.000
456.656;  -36.950;  132.000;  240.000
456.776;  -73.575;    3.000;  298.000
456.897;  -11.775;  308.000;  513.000
457.017;  -81.150; -153.000;   -3.000
457.138; -118.825; -402.000; -249.000
457.258;  -30.450;  263.000;  224.000
457.379;  -22.050;  509.000;  521.000
457.499;  -35.250;  443.000;  432.000
457.620; -131.250; -407.000; -231.000
457.740; -103.475; -132.000;  -11.000
457.860;  -60.250;   87.000;   44.000
457.981;  -50.925;  132.000;  124.000
458.101;  -77.725;  -89.000;   40.000
458.221;  -26.625;  336.000;  402.000
458.342;  -57.850;   -4.000;  -37.000
458.462;   41.275;  617.000;  352.000
458.582;   20.675; -302.000; -294.000
458.703;   79.525;  303.000;  154.000
458.823;   13.725;   22.000;  163.000
458.943;   39.450;  341.000;  467.000
459.063;   17.350; 1124.000;  192.000
459.183;  -31.750;  328.000;  313.000
459.304;    4.425;  315.000;  517.000
459.424;  -36.400; -246.000;  -89.000
459.544;  476.800;  388.000;  764.000
459.664; 1294.600;  499.000;  506.000
459.784;  517.625; 1004.000; 1175.000
459.904;   77.875;  867.000;  744.000
460.024;   43.825;  867.000;  684.000
460.144;  -13.825;  449.000;  554.000
460.264;  -32.275;  515.000;  327.000
460.385; -101.725; -145.000; -119.000
460.505;   21.325;  905.000;  858.000
460.625;  -88.825;  -17.000;  -68.000
460.745;  -37.075;  396.000;  541.000
460.864;  -51.675;  153.000;  469.000
460.984;   15.900;  499.000;  573.000
461.104;  126.850; 1656.000; 1775.000
461.224;    2.675;  657.000;  650.000
461.344;  -31.875;  431.000;  360.000
461.464;  -43.375;  258.000;  513.000
461.584;  -34.125;  283.000;  466.000
461.704;  -58.150;   58.000;  108.000
461.824;  -71.275;  238.000;  259.000
461.943;  -45.100;  191.000;  130.000
462.063;  -86.100;    2.000;  324.000
462.183;   15.175;  639.000;  717.000
462.303;   66.175; 1678.000; 1230.000
462.422;   30.250;  781.000;  840.000
462.542;  -43.725;  271.000;  391.000
462.662;   30.300;  353.000;  380.000
462.782;  315.300;  833.000;  572.000
462.901;  725.825;  545.000;  717.000
463.021;  381.650; 1702.000; 1638.000
463.141;    4.925;  337.000;  770.000
463.260;  -19.550;  614.000;  474.000
463.380;   15.025;  902.000;  884.000
463.499;  -37.200;  342.000;  332.000
463.619;  -36.900;  581.000;  559.000
463.738;   88.825; 1644.000;  903.000
463.858;   17.075;  657.000;  811.000
463.978;  -25.925;  542.000;  396.000
464.097;   50.950;  921.000; 1114.000
464.217;  143.900; 1196.000; 1143.000
464.336;  148.650; 1068.000; 1130.000
464.455;  -33.800;  328.000;  659.000
464.575;    2.200;  597.000;  602.000
464.694;  120.650; 1204.000; 1179.000
464.814;  168.325; 1190.000; 1138.000
464.933;   95.725; 1095.000; 1027.000
465.052;   93.975; 1412.000; 1054.000
465.172;   63.300;  922.000;  799.000
465.291;   96.900; 1376.000; 1320.000
465.410;   -4.800;  462.000;  735.000
465.530;   67.075; 1355.000; 1310.000
465.649;   61.200; 1209.000; 1273.000
465.768;  120.950; 1673.000; 1508.000
465.888;   42.575;  941.000; 1174.000
466.007;   91.050; 1335.000; 1440.000
466.126;   -8.325;  721.000;  641.000
466.245;   37.025; 1176.000; 1187.000
466.364;   11.650;  950.000; 1060.000
466.484;   42.450; 1024.000; 1213.000
466.603;   15.275; 1101.000; 1222.000
466.722;  104.500; 1490.000; 1769.000
466.841;   51.625; 1151.000; 1401.000
466.960;   42.600; 1069.000;  972.000
467.079;  128.700; 1971.000; 1786.000
467.198;   60.875; 1238.000; 1181.000
467.317;   93.000; 1768.000; 1162.000
467.436;   72.000; 1709.000; 1261.000
467.555;  109.925; 1796.000; 1746.000
467.674;   62.600; 1227.000; 1329.000
467.793;   39.775; 1376.000; 1374.000
467.912;   74.750; 1658.000; 1539.000
468.031;  127.475; 2038.000; 1930.000
468.150;  122.650; 1842.000; 1837.000
468.269;  161.700; 2313.000; 2090.000
468.388;  181.175; 2168.000; 2339.000
468.507;  243.250; 2884.000; 2903.000
468.626;  266.125; 2555.000; 2541.000
468.744;  142.625; 2018.000; 2174.000
468.863;  196.175; 2312.000; 2523.000
468.982;   79.650; 1503.000; 1555.000
469.101;  207.800; 2788.000; 2692.000
469.220;  150.200; 2333.000; 2176.000
469.338;  235.675; 2935.000; 3051.000
469.457;  205.925; 2719.000; 2545.000
469.576;  347.350; 3953.000; 3784.000
469.695;  228.150; 2877.000; 3066.000
469.813;  405.775; 4148.000; 4192.000
469.932;  404.350; 4255.000; 4485.000
470.051;  448.725; 4075.000; 4161.000
470.169; 1027.850; 4470.000; 4338.000
470.288; 1992.925; 4700.000; 4809.000
470.406; 1143.425; 5059.000; 5194.000
470.525;  674.400; 6101.000; 5787.000
470.644;  628.675; 6847.000; 6794.000
470.762;  786.850; 8397.000; 7873.000
470.881;  913.300; 8651.000; 8464.000
470.999; 1067.275; 9685.000; 9151.000
471.118; 1104.150;11174.000;10711.000

