
Integration time [ms]: 100.000
Averaging Nr. [scans]: 40
Smoothing Nr. [pixels]: 0
Data measured with spectrometer [name]: 2101012U2
Wave   ;Sample   ;Dark     ;Reference
[nm]   ;[counts] ;[counts] ;[counts] 

197.733;   65.675;  516.000;  404.000
197.879;  -87.575; -610.000; -634.000
198.025;  -60.075; -475.000; -420.000
198.171;  -73.875; -602.000; -612.000
198.317;  -35.550; -401.000; -316.000
198.463;  -53.225; -655.000; -404.000
198.609;   29.750;  181.000; -137.000
198.755;  -78.675; -644.000; -410.000
198.901;  -57.275; -505.000; -424.000
199.047;  -67.575; -615.000; -488.000
199.193;  -37.900; -230.000; -468.000
199.339;  -26.600; -222.000; -369.000
199.485;   40.200;  330.000;  271.000
199.631;    8.850;  227.000;  310.000
199.777;  -63.675; -466.000; -398.000
199.923;  -55.125; -610.000; -424.000
200.069;   -1.450; -141.000;  -58.000
200.215;   44.800;  128.000;  453.000
200.361;   29.525;  243.000;  477.000
200.507;  -77.550; -600.000; -373.000
200.653;  -37.850; -371.000; -194.000
200.798;  -32.875; -215.000; -125.000
200.944;   -6.275; -146.000;  -41.000
201.090;   47.675;   61.000;  222.000
201.236;  -13.550; -116.000; -158.000
201.382;  138.725;  874.000;  903.000
201.528;    0.025;  -58.000;  -48.000
201.674;  -55.025; -386.000; -293.000
201.819;  -72.275; -540.000; -439.000
201.965;  -92.950; -699.000; -447.000
202.111;  -43.550; -273.000; -226.000
202.257;  -40.000; -250.000; -238.000
202.402;    4.625;   13.000;  -36.000
202.548;  -29.000; -169.000; -116.000
202.694;   82.175;  410.000; -183.000
202.840;  -75.725; -603.000; -531.000
202.985;  -84.775; -681.000; -639.000
203.131; -109.950; -832.000; -666.000
203.277;  -25.500; -199.000; -262.000
203.423;  -51.750; -434.000; -520.000
203.568;  -51.400; -462.000; -237.000
203.714;  -58.175; -535.000; -542.000
203.860;  -85.850; -682.000; -641.000
204.005;   14.975;  112.000;  167.000
204.151;   68.875;  561.000;  556.000
204.296;  -41.200; -354.000; -221.000
204.442;  -80.925; -600.000; -547.000
204.588;  -80.775; -592.000; -579.000
204.733;   13.450;  178.000;  168.000
204.879; -138.300;-1018.000; -822.000
205.025;    6.900;  -99.000;  126.000
205.170;   15.000;  -17.000;   94.000
205.316;   71.825;  438.000;  661.000
205.461;  -72.450; -698.000; -554.000
205.607;   76.975;  609.000;  665.000
205.752;  -80.075; -626.000; -551.000
205.898;  -59.075; -501.000; -391.000
206.043;  -72.725; -578.000; -506.000
206.189;  -44.725; -243.000; -285.000
206.334;   97.400;  554.000;  606.000
206.480;   82.975;  409.000;  239.000
206.625;  -91.100; -529.000; -552.000
206.771;  -48.850; -451.000; -373.000
206.916;  -32.950; -210.000; -537.000
207.062;  -73.100; -545.000; -591.000
207.207;  -64.600; -546.000; -443.000
207.353;   58.750;  185.000;  460.000
207.498;   10.225;  196.000;   85.000
207.643;  -53.500; -501.000; -370.000
207.789; -136.875;-1069.000; -910.000
207.934; -106.000; -665.000; -713.000
208.080;  -27.600; -154.000;   66.000
208.225;   -6.625;  -22.000;  -57.000
208.370;  -77.075; -727.000; -619.000
208.516;  -80.525; -741.000; -487.000
208.661;  -31.275; -127.000;  -69.000
208.806;  -35.675; -165.000; -171.000
208.952; -126.625;-1044.000; -731.000
209.097;   70.825;  378.000;  349.000
209.242;  -47.925; -307.000; -382.000
209.387;   63.300;  392.000;  350.000
209.533;  -40.550; -321.000; -350.000
209.678;   77.950;  472.000;  543.000
209.823;  -48.800; -408.000; -310.000
209.969; -107.850; -860.000; -757.000
210.114; -110.600; -907.000; -719.000
210.259; -114.900; -939.000; -889.000
210.404;  -11.375; -171.000;  103.000
210.549;   13.200;  108.000;    3.000
210.695;  -23.550;   -3.000;  -95.000
210.840;   38.750;   94.000;   67.000
210.985;  -66.600; -484.000; -303.000
211.130;   75.275;  268.000;  406.000
211.275;   14.225;  207.000;  199.000
211.420;  -63.050; -300.000; -289.000
211.566;  -67.050; -536.000; -489.000
211.711;   20.875;  218.000;  157.000
211.856;  -67.125; -545.000; -519.000
212.001;   -5.700;  151.000;   44.000
212.146;   21.325;  153.000;   49.000
212.291;  -30.800; -210.000; -186.000
212.436;  -30.775; -280.000;   -6.000
212.581;  -93.575; -685.000; -653.000
212.726;  -69.700; -487.000; -538.000
212.871;  -59.975; -552.000; -217.000
213.016; -154.875;-1172.000;-1029.000
213.161;   57.200;  406.000;  291.000
213.306;  -70.325; -435.000; -577.000
213.451;  -98.050; -778.000; -689.000
213.596;  -36.600; -455.000; -347.000
213.741;  -65.300; -448.000; -538.000
213.886;  -87.725; -498.000; -517.000
214.031;  -17.925; -294.000; -124.000
214.176;  -51.025; -408.000; -341.000
214.321;  -23.475; -296.000; -157.000
214.466;  -24.550; -163.000;  -43.000
214.611;   -6.900;  -61.000;  -10.000
214.756; -122.200; -948.000; -858.000
214.901;  -12.700; -388.000; -226.000
215.046; -115.550; -797.000; -825.000
215.191;    2.250;  128.000;   35.000
215.336;  -12.275; -157.000;  -19.000
215.480;  -74.625; -684.000; -505.000
215.625;   -0.700; -175.000;  -19.000
215.770;  -95.200; -757.000; -662.000
215.915;    6.075;   -5.000;  -97.000
216.060;    0.750; -113.000;  -21.000
216.205; -105.775; -731.000; -779.000
216.349;  -80.250; -470.000; -533.000
216.494; -135.475; -939.000; -867.000
216.639; -128.325; -823.000; -888.000
216.784;  -89.875; -577.000; -525.000
216.929;   42.825;  392.000;  281.000
217.073;  -20.000; -244.000;  -31.000
217.218;    5.625;   78.000;  -47.000
217.363;  -85.700; -656.000; -618.000
217.507;  -84.750; -623.000; -588.000
217.652; -135.600; -845.000; -874.000
217.797;  -92.225; -708.000; -659.000
217.942; -107.300; -856.000; -720.000
218.086;   67.250;  608.000;  539.000
218.231;  -19.975; -174.000;  -26.000
218.376;  -52.550; -337.000; -229.000
218.520;    6.150;  -41.000;   96.000
218.665;  -37.775; -338.000; -204.000
218.810;  -51.375; -275.000; -233.000
218.954;   21.325;  201.000;   35.000
219.099; -110.675; -713.000; -963.000
219.243;  -80.650; -589.000; -554.000
219.388;  -35.650; -264.000; -136.000
219.532;   -9.625; -116.000; -116.000
219.677;  -86.300; -564.000; -521.000
219.822;   -2.200;   33.000;   89.000
219.966;    4.500;   17.000;  -99.000
220.111;  -35.850; -328.000;  -40.000
220.255;  -96.400; -797.000; -750.000
220.400;  -27.600; -180.000; -146.000
220.544;  -66.700; -516.000; -450.000
220.689;  -66.750; -422.000; -451.000
220.833;  -16.300; -123.000;  -58.000
220.978;  -39.725; -393.000; -563.000
221.122;   32.525;  319.000;  307.000
221.267; -120.400; -906.000; -837.000
221.411;  -78.225; -478.000; -394.000
221.555;  -10.300; -104.000;  -23.000
221.700;  -42.925; -329.000; -222.000
221.844;   33.400;  255.000;  272.000
221.989;  -52.900; -328.000; -311.000
222.133;  -41.575; -289.000; -307.000
222.277;   -1.125;    5.000;   78.000
222.422;   12.675;  227.000;  113.000
222.566;  -43.650; -381.000; -214.000
222.711;  -70.150; -414.000; -479.000
222.855;  -81.525; -643.000; -586.000
222.999;  -82.900; -642.000; -717.000
223.144;  -31.750; -195.000; -194.000
223.288;   38.050;  423.000;  251.000
223.432;   25.475;  184.000;  230.000
223.576;   11.950;  152.000;  -21.000
223.721;   40.625;  364.000;  273.000
223.865;  -49.650; -472.000; -475.000
224.009;  291.725; 1673.000; 1631.000
224.153;  -84.725; -660.000; -671.000
224.298;  -62.250; -531.000; -489.000
224.442;  -10.400;  -74.000;  -33.000
224.586;   -9.775; -169.000; -106.000
224.730; -103.775; -858.000; -670.000
224.875; -102.750; -739.000; -688.000
225.019;    8.575;  102.000;  188.000
225.163;   46.175;  208.000;  341.000
225.307;    5.250;   97.000;  -91.000
225.451;   50.250;  360.000;  481.000
225.595;   21.625;  264.000;  176.000
225.739;   -8.150; -170.000;  -94.000
225.884;    0.675;   86.000;    5.000
226.028; -107.025; -760.000; -626.000
226.172;  -41.950; -260.000; -273.000
226.316; -115.525; -941.000; -902.000
226.460;  -79.125; -645.000; -493.000
226.604;  -49.800; -406.000; -400.000
226.748; -102.950; -836.000; -733.000
226.892;  -44.600; -227.000; -181.000
227.036;  -48.625; -537.000; -447.000
227.180;  -61.400; -551.000; -375.000
227.324;  -71.700; -561.000; -580.000
227.468; -105.375; -819.000; -717.000
227.612;   12.825;  242.000;  -28.000
227.756; -109.375; -845.000; -698.000
227.900;   43.475;  342.000;  441.000
228.044;  -51.075; -509.000; -290.000
228.188;   47.700;  448.000;  568.000
228.332;  -96.475; -546.000; -472.000
228.476;  -23.550; -223.000; -149.000
228.620;  -36.450; -210.000; -150.000
228.764;   60.350;  431.000;  349.000
228.908;  -38.275; -155.000;   30.000
229.052;  -69.075; -615.000; -528.000
229.195;  -18.625; -172.000;   13.000
229.339;  -48.350; -235.000; -305.000
229.483;  -38.775;    5.000; -162.000
229.627;    0.750; -156.000;  139.000
229.771;  -51.125; -218.000; -294.000
229.915;   13.125;  230.000;   79.000
230.059; -102.000; -648.000; -663.000
230.202;  -54.375; -370.000; -317.000
230.346;  -25.725; -107.000;  107.000
230.490;  -61.550; -489.000; -521.000
230.634; -112.825; -736.000; -553.000
230.777;   58.675;  478.000;  509.000
230.921;  -56.850; -450.000; -359.000
231.065;  -50.850; -246.000; -286.000
231.209;   35.575;  261.000;  265.000
231.352;   16.825;   54.000;   40.000
231.496;    6.525;  568.000;  188.000
231.640;  -79.275; -693.000; -621.000
231.783;   63.275;  546.000;  525.000
231.927;  -49.125; -294.000; -365.000
232.071; -131.500; -962.000; -736.000
232.214; -114.475; -980.000; -764.000
232.358;  -99.300; -683.000; -599.000
232.502;    4.875;  -19.000;    7.000
232.645; -140.125;-1090.000; -927.000
232.789;  -37.675; -257.000; -218.000
232.933;  -36.850; -407.000; -224.000
233.076; -134.200;-1038.000; -897.000
233.220; -115.025; -752.000; -777.000
233.363;  -83.450; -669.000; -477.000
233.507;   57.625;  371.000;  129.000
233.650; -117.100; -764.000; -834.000
233.794;   40.125;  438.000;  461.000
233.938;  -70.350; -530.000; -362.000
234.081;   -5.675;  -93.000;   31.000
234.225;  -69.025; -631.000; -539.000
234.368; -109.275; -773.000; -723.000
234.512;  -52.325; -385.000; -299.000
234.655;  -92.000; -582.000; -555.000
234.798;  -73.350; -493.000; -466.000
234.942; -143.625; -884.000;-1002.000
235.085;  -73.650; -651.000; -443.000
235.229;  -73.100; -405.000; -410.000
235.372;  -58.400; -247.000; -191.000
235.516;  -60.450; -397.000; -321.000
235.659;   14.925;   92.000;  121.000
235.802;  -11.425;  -38.000;  -22.000
235.946;   32.475;  335.000;  215.000
236.089;   27.850;  126.000;  250.000
236.233;   57.175;  275.000;  298.000
236.376;  -46.225; -235.000; -378.000
236.519;  -65.550; -297.000; -319.000
236.663;  -25.450; -215.000; -117.000
236.806; -140.125;-1029.000; -999.000
236.949;   63.900;  543.000;  431.000
237.092;   62.425;  412.000;  391.000
237.236;  -88.950; -589.000; -502.000
237.379;   80.450;  352.000;  428.000
237.522; -116.350; -879.000; -768.000
237.666;  -13.950; -271.000;   18.000
237.809; -117.800; -851.000; -823.000
237.952;   28.875;  469.000;  271.000
238.095;  -64.575; -447.000; -442.000
238.238;   72.900;  688.000;  700.000
238.382;   -4.875;  166.000;  103.000
238.525;  -85.875; -598.000; -511.000
238.668; -139.625;-1060.000; -985.000
238.811;  -87.825; -638.000; -643.000
238.954;  -66.400; -483.000; -334.000
239.097;   87.375;  617.000;  664.000
239.241;   25.250;  394.000;  326.000
239.384;  -28.200; -254.000; -214.000
239.527;  -65.275; -424.000; -224.000
239.670; -153.400; -994.000;-1091.000
239.813; -112.100; -696.000; -658.000
239.956;   59.900;  579.000;  473.000
240.099; -119.525; -778.000; -725.000
240.242;   56.175;  428.000;  432.000
240.385;   43.200;  466.000;  450.000
240.528;  -78.200; -706.000; -473.000
240.671;    5.200;  189.000;  134.000
240.814;  -54.150; -441.000; -158.000
240.957;  -98.025; -767.000; -578.000
241.100; -101.525; -779.000; -755.000
241.243; -146.900;-1234.000; -893.000
241.386;  -58.650; -508.000; -379.000
241.529;  -91.225; -735.000; -547.000
241.672;  -63.600; -566.000; -495.000
241.815; -127.800; -832.000; -808.000
241.958;  -27.250; -125.000; -182.000
242.101;  -90.200; -545.000; -390.000
242.244;  -47.450; -270.000; -325.000
242.387;  -52.850; -304.000; -246.000
242.530;   44.700;  470.000;  134.000
242.673;  -59.825; -381.000; -309.000
242.815; -121.950; -925.000; -899.000
242.958;  -63.825; -482.000; -381.000
243.101;   10.675;  132.000;  187.000
243.244;  -93.750; -564.000; -521.000
243.387;  -55.875; -313.000; -316.000
243.530; -106.525; -657.000; -674.000
243.672;  -15.375;   43.000;  -92.000
243.815;  -55.600; -355.000; -283.000
243.958;  -11.850;   98.000;  -26.000
244.101;  -10.750;   59.000;  -16.000
244.243;   -7.875;  -47.000;  101.000
244.386; -115.125; -761.000; -630.000
244.529;  -27.475; -132.000; -139.000
244.672; -153.475;-1154.000; -951.000
244.814; -108.800; -621.000; -794.000
244.957;  -55.825; -380.000; -304.000
245.100;  -82.475; -489.000; -489.000
245.242;  -60.825; -387.000; -374.000
245.385;    0.550;  -59.000;  -39.000
245.528; -122.225; -871.000; -705.000
245.670;   85.550;  612.000;  634.000
245.813;  -87.250; -599.000; -547.000
245.956;  -44.900; -324.000; -275.000
246.098;  -71.950; -508.000; -650.000
246.241;   -1.700;  194.000;   48.000
246.383;   -5.825; -119.000;  -73.000
246.526;  -82.900; -454.000; -525.000
246.669; -121.825; -889.000; -780.000
246.811;   -4.325;  172.000;   -1.000
246.954;  -58.600; -512.000; -426.000
247.096;  -34.825;  -84.000;   -6.000
247.239;  -71.000; -482.000; -445.000
247.381;  -79.975; -647.000; -488.000
247.524;   84.100;  645.000;  679.000
247.666;  -10.325;   58.000;   11.000
247.809; -115.875; -887.000; -691.000
247.951;   -9.575;  -75.000;  138.000
248.094;   27.575;  432.000;  308.000
248.236; -176.400;-1262.000;-1238.000
248.378;  -53.000; -356.000;  -81.000
248.521;  -50.475; -334.000; -337.000
248.663;  -45.075; -236.000; -267.000
248.806;  -43.525; -300.000; -266.000
248.948; -137.925; -886.000; -763.000
249.090;  -60.575; -428.000; -398.000
249.233;  -80.575; -344.000; -381.000
249.375;  -80.850; -474.000; -451.000
249.518;  -30.000;  -83.000; -133.000
249.660;  -12.100; -103.000;    3.000
249.802; -184.950;-1303.000;-1189.000
249.945;  -92.400; -612.000; -540.000
250.087; -112.825; -834.000; -768.000
250.229;  -53.850; -362.000; -480.000
250.371;  -71.350; -494.000; -439.000
250.514;  -60.025; -310.000; -244.000
250.656;  -72.500;   69.000;  102.000
250.798; -119.925; -849.000; -800.000
250.940;  -68.275; -322.000; -322.000
251.083;  -47.175; -335.000; -111.000
251.225;   59.175;  338.000;  310.000
251.367;  -52.225; -274.000; -373.000
251.509;  -42.400; -265.000; -210.000
251.651; -110.750; -731.000; -671.000
251.794;   52.250;  538.000;  632.000
251.936; -109.325; -821.000; -747.000
252.078;  -80.775; -540.000; -461.000
252.220;  -86.750; -645.000; -477.000
252.362;   22.925;  344.000;  462.000
252.504;  -99.275; -677.000; -584.000
252.646; -127.950; -875.000; -722.000
252.788;  -26.675;   14.000; -128.000
252.931;  -55.475; -257.000; -253.000
253.073;  -69.400; -376.000; -317.000
253.215;  -28.200;  141.000;  122.000
253.357;  -21.200;   82.000; -153.000
253.499;  -64.025; -374.000; -234.000
253.641;  -99.400; -749.000; -594.000
253.783;  -95.175; -609.000; -527.000
253.925; -100.725; -586.000; -591.000
254.067; -105.675; -744.000; -667.000
254.209;  -50.475; -391.000; -259.000
254.351; -144.975; -865.000; -883.000
254.493;  -81.050; -441.000; -417.000
254.635; -146.900; -936.000; -818.000
254.777; -102.775; -752.000; -687.000
254.918;  -81.850; -512.000; -430.000
255.060;  -72.475; -551.000; -395.000
255.202;  -63.650; -473.000; -261.000
255.344;  -79.250; -658.000; -455.000
255.486;  -85.875; -471.000; -406.000
255.628; -118.250; -780.000; -781.000
255.770; -102.475; -676.000; -536.000
255.912;  -67.400; -559.000; -468.000
256.053;  -94.975; -730.000; -508.000
256.195;  160.300; 1008.000;  903.000
256.337; -102.600; -861.000; -595.000
256.479;   65.525;  532.000;  416.000
256.621;  -49.850; -394.000; -212.000
256.762; -114.600; -789.000; -742.000
256.904;   57.050;  485.000;  487.000
257.046;  -61.500; -381.000; -271.000
257.188;  -48.150; -351.000; -264.000
257.329;  -80.400; -525.000; -464.000
257.471; -114.725; -939.000; -807.000
257.613;  -68.525; -584.000; -498.000
257.755; -155.700;-1073.000; -982.000
257.896;   21.950;  286.000;  392.000
258.038;  -77.825; -403.000; -352.000
258.180;  -51.175; -354.000; -279.000
258.321;  -98.250; -581.000; -457.000
258.463;  -21.050;  -71.000;  133.000
258.605;  -93.225; -562.000; -570.000
258.746; -100.500; -886.000; -772.000
258.888; -148.000;-1026.000;-1020.000
259.029;    9.875;  121.000;   -8.000
259.171;  -96.750; -614.000; -550.000
259.313;  -10.675;  -49.000;  -47.000
259.454;  -77.375; -536.000; -414.000
259.596;  -62.750; -483.000; -390.000
259.737;  -60.525; -590.000; -474.000
259.879;   31.000;  217.000;  311.000
260.020;   73.900;  901.000;  636.000
260.162;  -30.100; -146.000; -253.000
260.303; -135.725; -768.000; -687.000
260.445;  -83.550; -609.000; -613.000
260.586;   31.450;  392.000;  157.000
260.728;  -48.875; -360.000; -248.000
260.869; -135.425; -350.000; -343.000
261.011;   79.025;  706.000;  537.000
261.152;  -72.425; -479.000; -319.000
261.293;  -91.775; -576.000; -595.000
261.435;  -44.875; -219.000; -184.000
261.576;  -56.125; -455.000; -325.000
261.718;   41.575;  420.000;  470.000
261.859; -139.900; -940.000; -949.000
262.000; -151.225; -951.000;-1016.000
262.142;  -35.950;  -52.000;  -60.000
262.283; -132.175; -808.000; -691.000
262.424;  -96.475; -666.000; -625.000
262.566; -152.975;-1161.000; -983.000
262.707; -116.550; -840.000; -830.000
262.848; -127.625; -769.000; -726.000
262.990;  -59.025; -362.000; -345.000
263.131;   84.275;  650.000;  681.000
263.272;  -15.775;  -61.000;  -41.000
263.413; -101.400; -589.000; -561.000
263.555;  -81.400; -669.000; -143.000
263.696;  -94.725; -550.000; -641.000
263.837;  -57.100; -449.000; -551.000
263.978;   -6.750;   -5.000;  -77.000
264.119;  -68.325; -283.000; -264.000
264.261; -124.825; -847.000; -630.000
264.402;  -11.850;   33.000;   40.000
264.543;  -74.125; -509.000; -524.000
264.684;   -9.950;   61.000;  -50.000
264.825;  -82.425; -816.000; -538.000
264.966;  -16.475;  -84.000;  -67.000
265.107; -129.525; -646.000; -670.000
265.248; -134.025; -825.000; -812.000
265.390;  -28.100;  152.000;   -9.000
265.531;  -27.400; -238.000; -107.000
265.672; -109.900; -557.000; -630.000
265.813;   45.025;  563.000;  439.000
265.954; -153.625; -959.000; -940.000
266.095;  -28.750; -372.000; -322.000
266.236; -109.650; -686.000; -548.000
266.377;  -55.450; -243.000; -297.000
266.518;  -69.300; -619.000; -547.000
266.659;   16.675;  170.000;  268.000
266.800;   -6.075;   83.000;   85.000
266.941;  -95.650; -487.000; -478.000
267.082;   12.325;  354.000;   99.000
267.223;  -54.400; -344.000; -273.000
267.364; -120.550; -892.000; -686.000
267.504;  -30.950;    3.000;  135.000
267.645;    2.125;  160.000;   67.000
267.786;  -29.925; -147.000;  -86.000
267.927;  -91.450; -473.000; -379.000
268.068;  -19.900; -186.000;  -61.000
268.209;  -54.950; -175.000; -413.000
268.350;  -78.750; -388.000; -532.000
268.490;  -87.500; -648.000; -521.000
268.631;   14.175;  127.000;  225.000
268.772; -112.300; -874.000; -647.000
268.913;  -59.325; -328.000; -476.000
269.054;  -21.200; -117.000;   12.000
269.194;  -52.650; -418.000; -402.000
269.335; -159.250;-1137.000;-1074.000
269.476;  -37.375;   33.000;  -35.000
269.617;  -64.475; -347.000; -392.000
269.757; -104.825; -713.000; -646.000
269.898; -123.500; -856.000; -613.000
270.039;  -77.000; -415.000; -405.000
270.180; -145.225; -952.000; -816.000
270.320;  -32.625; -190.000; -250.000
270.461;  -55.875; -277.000; -249.000
270.602;  -29.175; -186.000; -156.000
270.742; -134.250; -868.000; -943.000
270.883;  -85.275; -442.000; -390.000
271.023;  -65.375; -358.000; -357.000
271.164;  -75.975; -607.000; -528.000
271.305; -106.100; -666.000; -654.000
271.445; -116.700; -722.000; -683.000
271.586;  -70.125; -462.000; -283.000
271.726;  -54.525; -397.000; -322.000
271.867; -105.625; -594.000; -534.000
272.008;  -41.875; -473.000; -285.000
272.148;   39.300;  462.000;  468.000
272.289;  -36.600; -113.000; -181.000
272.429;  -14.100;   19.000;  185.000
272.570; -126.325; -633.000; -737.000
272.710; -118.250; -825.000; -775.000
272.851;  -29.125;  113.000; -130.000
272.991; -169.600;-1173.000;-1077.000
273.131;  -83.025; -419.000; -459.000
273.272; -120.875; -683.000; -723.000
273.412;  -13.675; -143.000;  -31.000
273.553;  -96.550; -488.000; -507.000
273.693;   99.600;  913.000;  858.000
273.834; -144.800; -894.000; -692.000
273.974;  -91.750; -664.000; -615.000
274.114; -116.825; -772.000; -560.000
274.255;   42.175;  414.000;  373.000
274.395;  -51.000; -180.000; -125.000
274.535;   13.075;  199.000;  350.000
274.676;   25.075;  225.000;   94.000
274.816;  -16.175;  110.000;   34.000
274.956; -101.350; -624.000; -690.000
275.097; -146.650;-1014.000; -922.000
275.237; -149.200; -913.000; -803.000
275.377; -124.225; -778.000; -689.000
275.517; -165.800; -878.000; -937.000
275.658;  -90.925; -590.000; -555.000
275.798;  -81.775; -606.000; -413.000
275.938;    5.225;  215.000;  323.000
276.078;  -89.850; -626.000; -395.000
276.218;  -17.775;   99.000;  104.000
276.359; -151.775;-1026.000;-1024.000
276.499;  -94.675; -605.000; -446.000
276.639;  -19.900; -305.000; -151.000
276.779;  -74.025; -475.000; -357.000
276.919; -112.050; -783.000; -624.000
277.059;  -49.650; -261.000; -212.000
277.199;  -60.700; -357.000; -259.000
277.340;   22.075;  287.000;  175.000
277.480; -134.075; -840.000; -693.000
277.620;    6.200;  192.000;   16.000
277.760; -219.175;-1533.000;-1294.000
277.900;  -17.425;  113.000;   33.000
278.040;    0.450;  137.000;  159.000
278.180;    7.775;  270.000;  170.000
278.320;   -9.650;   21.000;   56.000
278.460;  -77.925; -443.000; -469.000
278.600;  -97.675; -708.000; -598.000
278.740;   45.375;  448.000;  224.000
278.880; -131.225; -768.000; -791.000
279.020;  -50.625; -194.000; -144.000
279.160;  -96.150; -672.000; -595.000
279.300; -152.600; -926.000; -873.000
279.440; -110.325; -709.000; -622.000
279.579; -151.025;-1014.000; -929.000
279.719;  -90.400; -410.000; -394.000
279.859;   -1.150;   -4.000;   41.000
279.999;  -39.050; -208.000;  101.000
280.139;  -74.050; -435.000; -387.000
280.279; -138.350; -708.000; -745.000
280.419;  -39.275; -229.000; -147.000
280.559;  -55.300; -259.000; -180.000
280.698; -105.550; -790.000; -639.000
280.838; -117.875; -778.000; -800.000
280.978; -111.250; -846.000; -790.000
281.118; -110.125; -811.000; -704.000
281.257;    0.450;   24.000;    6.000
281.397; -174.700;-1094.000; -960.000
281.537; -120.725; -599.000; -712.000
281.677;  -35.275; -150.000; -101.000
281.816; -106.375; -700.000; -630.000
281.956;  -38.025; -193.000; -257.000
282.096;  -77.450; -539.000; -396.000
282.235; -114.050; -672.000; -638.000
282.375;  -41.825; -243.000;  -98.000
282.515; -121.075; -715.000; -707.000
282.654;    2.525;   29.000;  106.000
282.794;   11.125;  388.000;  244.000
282.934;  -83.625; -530.000; -491.000
283.073; -146.350;-1030.000; -857.000
283.213;  -75.200; -460.000; -467.000
283.353;  -71.175; -408.000; -349.000
283.492;  -41.525; -264.000; -296.000
283.632;  -52.525; -254.000; -168.000
283.771; -106.700; -859.000; -730.000
283.911;  -75.025; -369.000; -260.000
284.050; -135.500; -794.000; -748.000
284.190; -158.000;-1229.000;-1096.000
284.329; -159.525;-1055.000; -964.000
284.469; -112.375; -516.000; -591.000
284.608;  -86.600; -559.000; -598.000
284.748;  -92.950; -614.000; -570.000
284.887;  -16.275;  -87.000;  -20.000
285.027; -141.475; -844.000; -892.000
285.166;  -64.375; -192.000; -249.000
285.306;  -33.700; -116.000;  -33.000
285.445;  -67.650; -229.000; -343.000
285.584; -101.550; -630.000; -494.000
285.724;  -63.325; -282.000; -322.000
285.863; -123.675; -857.000; -507.000
286.002;  -71.300; -366.000; -276.000
286.142; -120.750; -715.000; -622.000
286.281;  -96.825; -525.000; -493.000
286.420;  -86.325; -554.000; -417.000
286.560;   83.975;  653.000;  623.000
286.699; -157.950; -958.000; -912.000
286.838; -110.875; -590.000; -591.000
286.978; -112.025; -533.000; -537.000
287.117; -148.275;-1085.000; -950.000
287.256;  -55.525; -228.000; -211.000
287.395;  -66.750; -197.000; -378.000
287.535;  -72.800; -370.000; -298.000
287.674; -100.800; -509.000; -484.000
287.813;   28.400;  661.000;  533.000
287.952; -157.500;-1010.000; -871.000
288.091; -160.000;-1049.000; -915.000
288.231;  -13.925;   13.000;   15.000
288.370; -181.650;-1217.000;-1200.000
288.509; -105.225; -728.000; -645.000
288.648;  -99.650; -770.000; -548.000
288.787;  -66.275; -243.000;  -87.000
288.926;  -74.400; -454.000; -475.000
289.065;  103.100;  859.000;  672.000
289.204;  -73.950; -377.000; -217.000
289.344; -123.600; -791.000; -690.000
289.483;   19.500;  416.000;  304.000
289.622;  -55.625; -291.000; -149.000
289.761;  -30.100; -309.000; -166.000
289.900; -124.050; -785.000; -626.000
290.039;  -24.875;  -12.000;  -95.000
290.178;  -55.975; -274.000; -180.000
290.317; -113.175; -618.000; -479.000
290.456;  -80.775; -463.000; -451.000
290.595; -147.000; -961.000; -833.000
290.734; -154.375; -904.000; -891.000
290.873;  -69.625; -456.000; -420.000
291.011; -138.250; -833.000; -843.000
291.150; -125.375; -770.000; -682.000
291.289;  -62.775; -343.000; -110.000
291.428; -106.825; -599.000; -480.000
291.567;  -79.575; -370.000; -442.000
291.706;   -3.200;  109.000;  154.000
291.845; -113.825; -597.000; -505.000
291.984; -190.150;-1234.000;-1061.000
292.122;   64.200;  602.000;  582.000
292.261;   26.600;  620.000;  463.000
292.400;    5.850; -144.000;  211.000
292.539; -128.225; -959.000; -813.000
292.678;  -48.925; -325.000; -300.000
292.816; -157.725;-1136.000; -965.000
292.955; -123.700; -844.000; -684.000
293.094;  -47.825; -173.000; -337.000
293.233;  -65.575; -556.000; -400.000
293.371;  -51.800; -225.000;  -84.000
293.510; -139.400; -866.000; -780.000
293.649; -151.750; -959.000; -924.000
293.787; -159.950;-1083.000;-1012.000
293.926;  -36.625; -113.000;  -32.000
294.065;  -76.700; -379.000; -290.000
294.203;   29.075;  298.000;  406.000
294.342;  -17.850;   74.000;  156.000
294.481; 5717.950;51180.000; -836.000
294.619;  -53.850; -425.000; -582.000
294.758; -171.700;-1230.000;-1137.000
294.896;  -19.750; -125.000;    5.000
295.035; -173.000;-1040.000;-1006.000
295.174; -163.300;-1082.000; -954.000
295.312;  -59.900; -323.000; -203.000
295.451;  -82.350; -307.000; -428.000
295.589;  -84.850; -389.000; -518.000
295.728;  -21.125; -292.000; -165.000
295.866;  -34.400;  -36.000;  -51.000
296.005;  -96.325; -584.000; -341.000
296.143;  -96.575; -558.000; -596.000
296.282; -140.400; -957.000; -881.000
296.420; -111.525; -657.000; -557.000
296.559; -121.075; -892.000; -633.000
296.697; -117.750; -847.000; -665.000
296.835; -174.750;-1141.000;-1002.000
296.974;  -14.800;  -23.000;   39.000
297.112;  -89.150; -443.000; -504.000
297.251; -126.350; -815.000; -755.000
297.389;  -89.125; -576.000; -438.000
297.527;  -43.925; -145.000;  -83.000
297.666; -103.425; -486.000; -438.000
297.804;  -85.025; -404.000; -264.000
297.942;  -28.050; -136.000; -161.000
298.081;  -30.725; -183.000;   63.000
298.219;  -33.600;  -17.000;  -19.000
298.357;  -61.625; -144.000;  -71.000
298.495; -147.550; -810.000; -812.000
298.634;  -10.975;  245.000;  219.000
298.772;  -51.575; -220.000; -338.000
298.910;  -64.475; -309.000; -182.000
299.048;  -41.625; -130.000; -153.000
299.187;  -52.575; -350.000; -250.000
299.325;  -20.950;   52.000;  122.000
299.463;  -90.975; -389.000; -299.000
299.601;  -54.050; -327.000; -271.000
299.739; -147.725; -908.000; -883.000
299.877; -113.275; -791.000; -703.000
300.016; -157.600;-1095.000; -935.000
300.154;  -32.350;  -19.000; -161.000
300.292;  -91.825; -428.000; -348.000
300.430;  -73.725; -408.000; -291.000
300.568; -147.550; -940.000; -874.000
300.706;  -78.825; -366.000; -469.000
300.844; -162.475;-1108.000; -979.000
300.982;   39.925;  246.000;  282.000
301.120; -151.875; -965.000; -866.000
301.258; -112.575; -812.000; -705.000
301.396;  -22.600;  104.000;  -41.000
301.534;  -61.075; -218.000; -293.000
301.672;  -97.100; -664.000; -521.000
301.810; -119.150; -613.000; -545.000
301.948;  -26.300;   53.000;  149.000
302.086;  -40.400; -250.000;  -32.000
302.224; -112.675; -610.000; -585.000
302.362; -120.775; -558.000; -622.000
302.500; -131.675; -923.000; -893.000
302.638;  -18.275;  128.000;  245.000
302.776;  -51.700; -352.000; -408.000
302.913;   11.550;  447.000;  236.000
303.051;  -52.825;  -86.000;  -23.000
303.189;   -5.375;   90.000;  118.000
303.327;  -63.325; -341.000; -256.000
303.465; -108.025; -832.000; -588.000
303.603; -116.625; -805.000; -604.000
303.740;   16.250;  417.000;  241.000
303.878; -123.525; -800.000; -759.000
304.016; -135.625; -915.000; -790.000
304.154; -187.625;-1123.000;-1152.000
304.291;  -88.600; -505.000; -554.000
304.429;   -9.250;  102.000;   74.000
304.567; -155.350; -908.000; -893.000
304.705;  -86.450; -408.000; -515.000
304.842;  -99.100; -616.000; -540.000
304.980;    0.350;  215.000;   35.000
305.118;  -65.750; -367.000; -365.000
305.255; -160.000; -945.000; -927.000
305.393;   13.575;  178.000;  239.000
305.531; -179.450;-1173.000; -956.000
305.668; -103.700; -663.000; -582.000
305.806;  -80.400; -358.000; -439.000
305.943;  -99.775; -629.000; -637.000
306.081;  -58.525; -378.000; -267.000
306.219; -129.475; -863.000; -748.000
306.356;  -11.250;  158.000;   27.000
306.494;   83.950;  981.000;  761.000
306.631;  -38.825;  -11.000;  -55.000
306.769;  -87.625; -613.000; -485.000
306.906;  -78.225; -284.000; -258.000
307.044;  -96.100; -473.000; -488.000
307.181;  -89.650; -410.000; -332.000
307.319;  -15.375;  112.000;   87.000
307.456; -192.400;-1191.000;-1153.000
307.594; -155.425; -980.000; -727.000
307.731;  -45.825; -371.000; -164.000
307.868;  -40.600;  -15.000;   20.000
308.006; -147.625; -961.000; -847.000
308.143; -106.500; -618.000; -330.000
308.281;  -47.475;  -37.000; -254.000
308.418; -110.875; -748.000; -640.000
308.555; -103.125; -400.000; -250.000
308.693; -114.200; -577.000; -573.000
308.830; -139.750; -712.000; -657.000
308.967;  -34.575; -215.000;  -95.000
309.105;  -76.850; -507.000; -396.000
309.242;  -79.275; -468.000; -367.000
309.379; -124.700; -577.000; -655.000
309.517; -156.725; -936.000; -948.000
309.654; -132.975; -910.000; -734.000
309.791; -100.625; -662.000; -580.000
309.928; -153.950; -977.000; -914.000
310.065;   81.625;  819.000;  697.000
310.203; -151.100; -825.000; -850.000
310.340;  -99.000; -465.000; -321.000
310.477;  -99.825; -412.000; -516.000
310.614;  -96.775; -383.000; -473.000
310.751; -109.875; -427.000; -518.000
310.889;  -43.400;    1.000;   11.000
311.026; -166.225;-1161.000; -939.000
311.163;  -79.075; -386.000; -380.000
311.300;  -94.800; -512.000; -479.000
311.437; -101.300; -658.000; -619.000
311.574; -181.350;-1226.000; -985.000
311.711; -105.325; -595.000; -433.000
311.848;  -68.650; -380.000; -388.000
311.985;   -8.000;  270.000;   93.000
312.122; -139.975; -932.000; -762.000
312.259; -157.675; -941.000; -994.000
312.396; -116.200; -508.000; -551.000
312.533; -121.625; -812.000; -790.000
312.670; -170.875;-1070.000; -898.000
312.807;  -72.675; -352.000; -367.000
312.944; -107.000; -513.000; -611.000
313.081;  -76.850; -150.000; -415.000
313.218; -153.950;-1111.000; -867.000
313.355;  -96.500; -531.000; -449.000
313.492;  -72.025; -455.000; -292.000
313.629;   67.025;  815.000;  735.000
313.766; -187.400;-1176.000;-1008.000
313.902;  -33.425; -186.000;   21.000
314.039;  -70.175; -372.000; -289.000
314.176;    6.200;  286.000;  192.000
314.313; -118.775; -569.000; -473.000
314.450; -124.625; -788.000; -684.000
314.587; -102.950; -468.000; -480.000
314.723;  -32.125;  -78.000;  130.000
314.860;   -0.775;  318.000;  332.000
314.997;  -10.950;  223.000;  142.000
315.134;  -76.675; -385.000; -368.000
315.270;  -96.775; -480.000; -496.000
315.407; -175.125;-1094.000; -967.000
315.544; -106.150; -657.000; -538.000
315.681; -108.775; -681.000; -565.000
315.817;  -43.975; -133.000; -176.000
315.954; -107.950; -613.000; -392.000
316.091; -179.675;-1045.000;-1023.000
316.227;  -40.300;  -71.000; -179.000
316.364;  -27.300;   23.000;    6.000
316.500;  -60.600; -113.000; -300.000
316.637;  -78.525; -181.000; -302.000
316.774; -108.875; -625.000; -358.000
316.910; -124.200; -598.000; -629.000
317.047;  -92.175; -487.000; -351.000
317.183; -103.000; -435.000; -566.000
317.320;  -82.475; -367.000; -321.000
317.456; -132.850; -733.000; -805.000
317.593; -120.175; -598.000; -641.000
317.729;   -9.800;  168.000;  -67.000
317.866; -227.825;-1434.000;-1285.000
318.002; -120.750; -708.000; -948.000
318.139; -154.125; -883.000; -867.000
318.275; -152.600;-1003.000; -738.000
318.412;  -89.700; -517.000; -336.000
318.548; -132.475; -751.000; -720.000
318.685; -157.125; -985.000; -888.000
318.821; -132.000; -762.000; -735.000
318.957;  -46.425;   34.000;  -23.000
319.094;   17.850;  297.000;  154.000
319.230; -144.700; -756.000; -742.000
319.367;  -93.950; -471.000; -520.000
319.503;  -91.550; -538.000; -436.000
319.639; -129.875; -877.000; -793.000
319.775; -116.550; -750.000; -685.000
319.912;  -79.450; -424.000; -519.000
320.048; -195.575;-1184.000;-1184.000
320.184;  -15.475;   59.000;   70.000
320.321;  -85.950; -497.000; -467.000
320.457;   31.275;  475.000;  662.000
320.593;  -95.400; -375.000; -382.000
320.729; -127.375; -732.000; -734.000
320.866; -109.550; -577.000; -635.000
321.002; -134.175; -759.000; -809.000
321.138;  -76.500; -135.000; -211.000
321.274;  -40.825; -148.000; -115.000
321.410;  -98.175; -585.000; -353.000
321.546; -164.000;-1011.000; -911.000
321.683;    9.150;  400.000;  185.000
321.819;  -27.750;  -48.000; -117.000
321.955; -132.225; -743.000; -722.000
322.091;  -99.975; -585.000; -540.000
322.227;  -64.825; -382.000; -202.000
322.363;  -65.275; -320.000; -215.000
322.499;  -77.275; -343.000; -331.000
322.635;   36.625;  636.000;  443.000
322.771;  -50.925; -139.000;   12.000
322.907;   24.600;  129.000;  327.000
323.043;  -72.425; -115.000; -206.000
323.179;  -75.625; -394.000; -363.000
323.315;  -83.525; -401.000; -371.000
323.451;  -77.900; -328.000; -236.000
323.587;  -51.500;  -60.000;  -77.000
323.723; -123.625; -682.000; -601.000
323.859;  -55.250; -258.000;  -76.000
323.995;  -77.675; -467.000; -409.000
324.131; -148.700; -967.000; -892.000
324.267;  -59.175; -254.000; -276.000
324.402; -166.425; -960.000; -983.000
324.538;  -67.650; -279.000; -104.000
324.674;  -16.600;  164.000;   77.000
324.810;   -2.775;  226.000;  308.000
324.946;  -94.350; -810.000; -658.000
325.082;  -97.425; -568.000; -475.000
325.217;  -25.950;  -62.000;   16.000
325.353; -112.900; -764.000; -659.000
325.489; -116.375; -540.000; -506.000
325.625; -111.050; -579.000; -525.000
325.760;   17.625;  517.000;  376.000
325.896;  -99.075; -515.000; -702.000
326.032;  -76.225; -403.000; -352.000
326.168;  -80.150; -462.000; -369.000
326.303;  -75.800; -352.000; -461.000
326.439;  -52.025; -336.000; -276.000
326.575;  -36.350; -190.000;  -29.000
326.710;  -43.700; -156.000;  -30.000
326.846;  -24.525;  146.000;  103.000
326.982; -119.775; -530.000; -548.000
327.117; -103.600; -481.000; -442.000
327.253; -128.525; -745.000; -742.000
327.388; -167.025;-1137.000;-1153.000
327.524; -122.850; -811.000; -578.000
327.659;  -37.150;  -58.000;  -22.000
327.795;  -26.850;   69.000;   45.000
327.931; -115.475; -723.000; -499.000
328.066;  -72.175; -417.000; -276.000
328.202;  -53.700;   12.000; -129.000
328.337;   85.600;  957.000;  713.000
328.473;   15.425;  -12.000;  -74.000
328.608;  -59.650; -256.000; -267.000
328.743; -139.200; -799.000; -664.000
328.879;  -13.150;  214.000;  114.000
329.014;  -55.850; -102.000; -122.000
329.150; -102.975; -358.000; -483.000
329.285; -104.650; -465.000; -466.000
329.421;  -80.000; -548.000; -246.000
329.556;  -47.425;  -36.000;   85.000
329.691; -128.050; -633.000; -615.000
329.827; -106.375; -626.000; -480.000
329.962;  -68.025;  131.000; -301.000
330.097; -115.975; -673.000; -585.000
330.233;  -86.700; -410.000; -223.000
330.368; -147.375; -839.000; -628.000
330.503;  -38.750;    3.000;   98.000
330.638;  -27.150;  -93.000; -125.000
330.774; -115.675; -609.000; -530.000
330.909;  -69.250; -434.000; -244.000
331.044; -115.125; -714.000; -708.000
331.179; -189.125;-1217.000;-1109.000
331.315;  -27.275;   77.000;   20.000
331.450;  -11.875;  157.000;  285.000
331.585; -125.100; -805.000; -706.000
331.720; -109.525; -510.000; -460.000
331.855;  -52.875;  -35.000; -102.000
331.990;  -45.075;   62.000;  138.000
332.126;  -45.325; -110.000;   71.000
332.261;  -88.725; -379.000; -265.000
332.396;  -61.300; -135.000; -242.000
332.531; -176.825;-1074.000;-1031.000
332.666;  -98.750; -519.000; -363.000
332.801; -128.900; -726.000; -807.000
332.936;  -49.300; -192.000; -122.000
333.071; -185.700; -870.000; -817.000
333.206;   -7.375;  307.000;  379.000
333.341;    6.025;  344.000;  418.000
333.476; -110.425; -627.000; -623.000
333.611;  -60.375; -251.000; -173.000
333.746;  -79.050; -381.000; -464.000
333.881; -166.725; -973.000; -935.000
334.016; -162.625; -936.000; -917.000
334.151; -155.775; -746.000; -702.000
334.286;  -27.225;  152.000;  186.000
334.421;  -36.625; -125.000; -178.000
334.556;  -99.875; -611.000; -567.000
334.690; -114.475; -631.000; -577.000
334.825;   26.150;  381.000;   83.000
334.960;  -94.150; -285.000; -413.000
335.095;  -40.900;  135.000;  -91.000
335.230; -135.625; -722.000; -738.000
335.365; -173.775;-1084.000; -990.000
335.499; -178.775;-1108.000;-1037.000
335.634;  -20.625;    9.000;  534.000
335.769; -152.675; -755.000; -720.000
335.904; -125.875; -603.000; -561.000
336.038; -140.525; -735.000; -657.000
336.173; -198.175;-1206.000;-1194.000
336.308;  -79.000; -116.000; -189.000
336.443;  -86.925; -544.000; -634.000
336.577; -148.575; -936.000; -787.000
336.712;  -24.625;   -4.000;  -12.000
336.847; -136.175; -724.000; -607.000
336.981;  -89.200; -272.000; -208.000
337.116;   33.650;  615.000;  501.000
337.250;  -92.200; -434.000; -421.000
337.385;  -74.925; -297.000; -208.000
337.520; -136.700; -632.000; -603.000
337.654;  -71.425; -215.000; -126.000
337.789; -158.025; -989.000; -933.000
337.923;  -62.100; -104.000; -205.000
338.058; -137.625; -673.000; -738.000
338.192; -111.650; -611.000; -488.000
338.327;  -55.725;  -18.000; -155.000
338.461; -111.850; -299.000; -469.000
338.596; -128.150; -780.000; -638.000
338.730; -139.175; -767.000; -803.000
338.865;  -36.700;  -46.000; -140.000
338.999; -145.925; -846.000; -702.000
339.134; -117.150; -634.000; -536.000
339.268; -125.700; -741.000; -603.000
339.403; -136.950; -740.000; -775.000
339.537; -151.625; -894.000; -820.000
339.671; -159.825; -829.000; -813.000
339.806; -109.125; -556.000; -512.000
339.940;  -68.675; -261.000; -235.000
340.074; -125.550; -685.000; -510.000
340.209;  -72.475; -351.000; -230.000
340.343; -121.550; -517.000; -573.000
340.477;  121.550;  998.000; 1036.000
340.612; -164.350;-1033.000; -900.000
340.746;  -78.750; -199.000; -243.000
340.880; -148.775; -924.000; -785.000
341.014;  -34.800;  -45.000; -154.000
341.149; -142.300; -756.000; -718.000
341.283; -142.325; -839.000; -754.000
341.417; -189.000;-1124.000; -938.000
341.551; -128.900; -768.000; -708.000
341.685; -121.775; -633.000; -611.000
341.820; -106.800; -562.000; -493.000
341.954;  -79.150; -218.000; -349.000
342.088; -175.425;-1102.000;-1019.000
342.222;   49.475;  565.000;  618.000
342.356; -112.825; -395.000; -335.000
342.490; -151.050; -880.000; -841.000
342.624;  -79.325; -339.000; -242.000
342.758;  -78.350; -364.000; -312.000
342.892; -125.050; -710.000; -585.000
343.026;  -62.150;  -58.000; -116.000
343.160;  -80.850; -426.000; -376.000
343.294; -101.100; -474.000; -337.000
343.428; -102.050; -488.000; -448.000
343.562;  -39.400; -172.000;  -23.000
343.696;  -83.650; -385.000; -314.000
343.830;  -87.450; -362.000; -356.000
343.964;  -56.050; -231.000; -168.000
344.098;  -31.575;  199.000;   70.000
344.232;  -57.850; -266.000; -127.000
344.366; -107.675; -567.000; -453.000
344.500; -131.300; -665.000; -744.000
344.634;  -72.725; -324.000; -164.000
344.768; -102.450; -531.000; -341.000
344.902;  -16.575;  278.000;  256.000
345.035; -107.650; -556.000; -496.000
345.169; -148.900; -933.000; -656.000
345.303;  -83.425; -308.000; -482.000
345.437; -138.250; -826.000; -717.000
345.571; -127.450; -675.000; -594.000
345.704;  -78.000; -309.000; -532.000
345.838;  -72.700; -331.000; -284.000
345.972; -106.550; -543.000; -495.000
346.106;  -41.400; -179.000; -190.000
346.239;  -69.675; -312.000; -243.000
346.373;  -76.950; -343.000; -302.000
346.507; -177.725; -950.000; -962.000
346.640;  -51.250;  -30.000;   13.000
346.774; -131.575; -650.000; -797.000
346.908;  -43.900; -138.000;  -11.000
347.041; -133.850; -646.000; -593.000
347.175;  -24.100;  259.000;   27.000
347.309; -127.150; -698.000; -628.000
347.442; -139.175; -883.000; -732.000
347.576;   60.050;  670.000;  668.000
347.709;  -49.425; -123.000;  -52.000
347.843; -161.250; -933.000; -825.000
347.976;   11.425;  235.000;  294.000
348.110; -204.575;-1268.000;-1186.000
348.243; -130.600; -679.000; -772.000
348.377;  -30.275;  -26.000;   60.000
348.510;   27.600;  403.000;  540.000
348.644;  -68.200;  -37.000; -159.000
348.777;  -48.050;  180.000;  191.000
348.911;  -69.375; -142.000; -112.000
349.044;   17.650;  471.000;  448.000
349.178; -180.700;-1069.000;-1006.000
349.311;   -5.850;  141.000;  255.000
349.444; -149.400; -927.000; -813.000
349.578;  -65.775; -347.000; -200.000
349.711; -152.750; -959.000; -862.000
349.845; -119.325; -661.000; -591.000
349.978; -198.525;-1224.000;-1137.000
350.111; -112.875; -546.000; -612.000
350.244; -128.675; -596.000; -700.000
350.378;  -96.575; -392.000; -393.000
350.511;  -85.075; -393.000; -426.000
350.644; -145.225; -808.000; -806.000
350.778;  -29.350;  168.000;  104.000
350.911;  -15.825;  134.000;  140.000
351.044; -123.025; -685.000; -615.000
351.177;  -71.250; -321.000; -281.000
351.310;  -44.525;    3.000; -131.000
351.444; -153.625; -888.000; -788.000
351.577;  -29.925;  140.000;   90.000
351.710;   60.025;  593.000;  417.000
351.843;  -57.450; -165.000;  -77.000
351.976;  -27.050;  149.000;  -79.000
352.109; -122.775; -621.000; -612.000
352.242;  -95.225; -464.000; -419.000
352.376; -132.975; -580.000; -636.000
352.509;  -87.475; -437.000; -356.000
352.642; -180.475; -654.000; -604.000
352.775;  -59.525; -141.000;  -98.000
352.908; -173.475; -933.000; -904.000
353.041; -150.925; -814.000; -824.000
353.174;  -90.125; -551.000; -424.000
353.307; -147.450; -753.000; -764.000
353.440;   24.325;  541.000;  453.000
353.573; -166.450; -957.000;-1008.000
353.706; -128.700; -384.000; -558.000
353.839;  -83.000; -264.000; -220.000
353.971; -112.225; -657.000; -512.000
354.104; -151.050; -896.000; -835.000
354.237; -124.775; -627.000; -662.000
354.370; -141.550; -846.000; -879.000
354.503; -211.500;-1231.000;-1308.000
354.636;  -77.350; -529.000; -348.000
354.769; -156.900; -937.000; -860.000
354.902;  -93.675; -230.000; -139.000
355.034;  -57.575; -164.000; -220.000
355.167;  -70.725; -262.000; -162.000
355.300; -184.650;-1061.000; -880.000
355.433;  -37.050;  -71.000;  -14.000
355.565;  -90.825; -402.000; -384.000
355.698;  -73.200; -356.000; -296.000
355.831; -159.925; -882.000; -801.000
355.964;  -68.300; -285.000; -170.000
356.096; -165.125; -856.000; -843.000
356.229; -121.425; -523.000; -530.000
356.362;  -79.125; -373.000; -266.000
356.494;  -66.025; -229.000; -162.000
356.627;  -14.825;  269.000;  377.000
356.760;  -24.975;  120.000;   53.000
356.892; -135.350; -286.000; -601.000
357.025;   18.900;  403.000;  389.000
357.157;  -55.800; -167.000; -179.000
357.290; -161.325; -856.000; -713.000
357.423; -123.875; -667.000; -556.000
357.555;  -67.825; -217.000; -228.000
357.688; -103.725; -483.000; -364.000
357.820; -162.825; -870.000; -877.000
357.953; -117.100; -563.000; -589.000
358.085; -134.975; -632.000; -612.000
358.218; -181.350;-1131.000; -932.000
358.350;  -42.325;  -58.000;  312.000
358.483; -218.575;-1300.000;-1187.000
358.615; -183.500;-1182.000;-1078.000
358.747; -200.500;-1187.000;-1058.000
358.880; -147.575; -810.000; -744.000
359.012;  -85.350; -376.000; -202.000
359.145; -116.550; -480.000; -511.000
359.277; -166.900; -962.000; -913.000
359.409;   14.550;  536.000;  231.000
359.542; -153.425; -738.000; -688.000
359.674;  -35.600;   46.000;   13.000
359.806; -104.350; -565.000; -438.000
359.939; -100.475; -617.000; -516.000
360.071; -120.700; -583.000; -579.000
360.203;  -90.825; -411.000; -364.000
360.335;  -32.950;  164.000;  -16.000
360.468;  -72.625; -249.000; -307.000
360.600; -120.175; -547.000; -454.000
360.732; -116.900; -546.000; -423.000
360.864; -210.100;-1216.000;-1044.000
360.996;  -99.450; -516.000; -554.000
361.129; -109.350; -389.000; -598.000
361.261;  -42.225;  110.000; -113.000
361.393;  -75.475; -252.000; -214.000
361.525;  -19.300;   94.000;  244.000
361.657; -149.450; -821.000; -703.000
361.789;  -55.750; -139.000; -155.000
361.921; -115.575; -642.000; -593.000
362.053;   30.750;  524.000;  541.000
362.185;  -14.300;  288.000;   72.000
362.318; -150.550; -709.000; -705.000
362.450;    2.750;  294.000;  444.000
362.582; -176.250; -913.000; -870.000
362.714;  -89.425; -353.000; -332.000
362.846; -118.100; -606.000; -490.000
362.978; -172.275; -941.000; -811.000
363.109;  -87.875; -161.000; -260.000
363.241; -136.850; -739.000; -749.000
363.373; -127.175; -649.000; -564.000
363.505;  -58.825; -186.000;  -91.000
363.637; -136.300; -787.000; -601.000
363.769; -192.700;-1067.000;-1080.000
363.901; -127.175; -596.000; -654.000
364.033; -196.975;-1103.000;-1062.000
364.165;  -63.875; -283.000; -283.000
364.296;  -83.100; -316.000; -177.000
364.428; -220.450;-1344.000;-1220.000
364.560; -128.000; -679.000; -661.000
364.692; -136.975; -738.000; -835.000
364.824; -112.400; -588.000; -456.000
364.955;  -94.350; -402.000; -564.000
365.087; -190.275;-1097.000; -852.000
365.219; -133.525; -686.000; -816.000
365.351; -120.375; -526.000; -572.000
365.482;   -8.350;  300.000;  240.000
365.614;  -85.650; -402.000; -314.000
365.746; -140.750; -729.000; -752.000
365.877; -139.400; -706.000; -672.000
366.009;  -47.200;  -35.000;  -62.000
366.141; -205.125;-1249.000;-1134.000
366.272; -163.350; -803.000; -719.000
366.404; -151.525;-1005.000; -874.000
366.535;  -52.800; -139.000;  -12.000
366.667; -129.300; -644.000; -649.000
366.799;    8.500;  353.000;  203.000
366.930; -170.400; -862.000; -996.000
367.062; -123.925; -639.000; -613.000
367.193; -164.200; -872.000; -842.000
367.325; -110.075; -580.000; -684.000
367.456;  -89.000; -246.000;   31.000
367.588; -105.025; -371.000; -318.000
367.719;  -53.475;  -44.000;  -45.000
367.851;  -72.700; -222.000; -241.000
367.982; -171.675; -875.000; -732.000
368.113;  -88.675; -475.000; -358.000
368.245; -176.050; -960.000; -841.000
368.376;  -78.275; -254.000; -302.000
368.508;  -94.300; -188.000; -263.000
368.639; -189.675;-1166.000;-1034.000
368.770; -131.275; -670.000; -589.000
368.902; -151.750; -836.000; -926.000
369.033; -157.050; -906.000; -855.000
369.164; -130.300; -720.000; -653.000
369.296; -127.700; -452.000; -601.000
369.427;  -76.225; -209.000; -144.000
369.558; -105.975; -593.000; -377.000
369.689; -139.875; -721.000; -569.000
369.821; -178.675; -951.000; -845.000
369.952;  -37.125;   42.000; -108.000
370.083;  -74.975; -229.000; -108.000
370.214; -132.475; -735.000; -650.000
370.345;  -43.100;   65.000;   81.000
370.477; -147.425; -810.000; -790.000
370.608;  -80.725; -328.000; -264.000
370.739; -197.150;-1233.000;-1292.000
370.870; -167.425;-1102.000; -923.000
371.001; -102.200; -378.000; -467.000
371.132; -134.675; -754.000; -735.000
371.263;  -39.850;  -42.000; -148.000
371.394; -161.350; -841.000; -748.000
371.525;   -4.725;  345.000;  225.000
371.657; -152.125; -808.000; -670.000
371.788;  -23.900;  103.000;  199.000
371.919; -104.400; -384.000; -304.000
372.050;  -47.425;  -91.000; -156.000
372.181;  -55.025; -188.000; -294.000
372.311;  -43.175;   42.000; -127.000
372.442; -111.050; -457.000; -451.000
372.573;  -87.875; -444.000; -340.000
372.704; -161.875;-1008.000; -980.000
372.835;  -72.450; -228.000; -289.000
372.966; -141.525; -646.000; -554.000
373.097; -155.650; -575.000; -711.000
373.228; -136.200; -717.000; -542.000
373.359; -136.300; -824.000; -536.000
373.490; -160.775; -881.000; -727.000
373.620; -166.350;-1001.000; -803.000
373.751; -108.125; -332.000; -396.000
373.882; -135.475; -663.000; -733.000
374.013;  -89.600; -449.000; -262.000
374.143; -125.775; -581.000; -659.000
374.274; -175.275; -987.000; -908.000
374.405;  -78.950; -388.000; -276.000
374.536; -114.050; -526.000; -387.000
374.666; -145.050; -759.000; -807.000
374.797; -150.150; -817.000; -868.000
374.928; -129.750; -710.000; -560.000
375.058; -130.550; -535.000; -500.000
375.189;  -59.225;  -59.000;  -93.000
375.320; -174.500; -928.000;-1034.000
375.450; -127.300; -625.000; -616.000
375.581; -113.425; -526.000; -436.000
375.712;  -92.150; -574.000; -250.000
375.842; -109.875; -438.000; -415.000
375.973; -119.725; -554.000; -513.000
376.103; -138.925; -665.000; -648.000
376.234; -117.475; -531.000; -552.000
376.364; -174.600; -944.000; -867.000
376.495;   61.100;  925.000;  529.000
376.625; -109.350; -472.000; -485.000
376.756; -126.050; -709.000; -678.000
376.886; -202.825;-1178.000;-1026.000
377.017; -191.650;-1048.000;-1061.000
377.147; -158.875; -786.000; -782.000
377.278;   -4.950;  174.000;  228.000
377.408; -156.950; -801.000; -815.000
377.538; -132.525; -707.000; -693.000
377.669; -129.975; -537.000; -613.000
377.799; -149.800; -645.000; -635.000
377.929; -121.025; -610.000; -428.000
378.060; -176.475; -781.000; -847.000
378.190; -132.375; -726.000; -531.000
378.320;  -98.350; -401.000; -406.000
378.451;  -43.175; -131.000;  -22.000
378.581;  -59.450;  -67.000; -110.000
378.711;   70.050; 1035.000;  866.000
378.841; -126.900; -533.000; -675.000
378.972; -160.900; -871.000; -751.000
379.102; -134.600; -652.000; -579.000
379.232;  -74.100; -126.000;  -73.000
379.362; -174.575;-1001.000; -885.000
379.492; -121.600; -373.000; -424.000
379.623;  -38.050;    0.000;  111.000
379.753; -170.550;-1107.000; -974.000
379.883;  -19.700;   59.000;  156.000
380.013; -192.600;-1081.000;-1017.000
380.143; -197.225;-1097.000;-1056.000
380.273; -176.575; -985.000; -861.000
380.403;  -84.200; -344.000; -257.000
380.533; -158.950; -651.000; -664.000
380.663;  -20.750;  173.000;  128.000
380.793; -195.425;-1027.000;-1074.000
380.923;  -77.950; -103.000;  -34.000
381.053; -140.200; -613.000; -623.000
381.183;  -71.925; -106.000; -248.000
381.313; -129.475; -656.000; -470.000
381.443; -117.425; -692.000; -473.000
381.573; -110.675; -402.000; -409.000
381.703; -202.075;-1249.000;-1095.000
381.833; -240.825;-1454.000;-1336.000
381.963;  -33.850; -134.000;  -87.000
382.093; -182.925; -925.000; -909.000
382.223; -130.975; -713.000; -602.000
382.353; -142.975; -801.000; -608.000
382.482; -193.650;-1091.000; -964.000
382.612; -156.500; -872.000; -644.000
382.742; -122.850; -695.000; -622.000
382.872; -111.775; -565.000; -551.000
383.002;  -27.275;  347.000; -132.000
383.131;  -77.550; -226.000; -160.000
383.261; -146.150; -706.000; -768.000
383.391; -120.200; -552.000; -377.000
383.521;    2.725;  451.000;  263.000
383.650; -182.800; -947.000; -904.000
383.780; -143.750; -783.000; -656.000
383.910;   59.625;  880.000;  802.000
384.039; -156.250; -794.000; -656.000
384.169; -222.750;-1205.000;-1017.000
384.299; -135.375; -650.000; -662.000
384.428; -125.275; -764.000; -680.000
384.558; -106.650; -308.000; -275.000
384.687;  -95.575; -414.000; -334.000
384.817;  -42.775;   75.000;   -2.000
384.947;  -72.625; -234.000; -141.000
385.076;   67.550;  982.000;  912.000
385.206;   12.900;  369.000;  480.000
385.335; -109.875; -549.000; -417.000
385.465; -153.500; -655.000; -663.000
385.594;  -49.375;  -53.000;  -44.000
385.724; -164.850; -868.000; -838.000
385.853;  -99.225; -296.000; -270.000
385.982; -135.875; -743.000; -787.000
386.112; -165.125;-1052.000; -871.000
386.241; -101.100; -307.000; -312.000
386.371;  -66.325; -174.000;  -87.000
386.500; -169.475; -825.000; -789.000
386.629; -148.300; -874.000; -817.000
386.759;  -44.975;  -43.000;   68.000
386.888;  -80.150; -170.000; -250.000
387.017; -130.175; -648.000; -620.000
387.147; -161.600; -771.000; -798.000
387.276; -115.250; -410.000; -397.000
387.405; -100.400; -398.000; -342.000
387.535; -104.425; -452.000; -361.000
387.664; -136.300; -692.000; -620.000
387.793;  -73.350; -198.000; -113.000
387.922;  -34.125;  255.000;  200.000
388.052; -120.300; -576.000; -423.000
388.181; -102.800; -342.000; -472.000
388.310; -160.325; -889.000; -710.000
388.439; -165.775; -749.000; -742.000
388.568;  -22.850;  365.000;  244.000
388.697; -150.175; -756.000; -653.000
388.826; -131.575; -768.000; -666.000
388.956;  -89.325; -285.000; -307.000
389.085;  -95.700; -347.000; -287.000
389.214; -153.400; -842.000; -872.000
389.343; -134.975; -645.000; -413.000
389.472;  -22.200;  126.000;  149.000
389.601;  -35.625;   91.000;    0.000
389.730; -118.225; -568.000; -687.000
389.859;   -9.750;  226.000;   46.000
389.988;  -92.675; -423.000; -408.000
390.117;  -91.625; -168.000; -146.000
390.246;  -88.575; -331.000; -320.000
390.375; -143.400; -673.000; -626.000
390.504; -135.150; -703.000; -621.000
390.633; -163.675; -672.000; -726.000
390.761; -151.250; -732.000; -645.000
390.890;  -60.475;   -4.000; -130.000
391.019; -105.750; -421.000; -441.000
391.148; -162.925; -826.000; -855.000
391.277; -119.625; -576.000; -493.000
391.406; -164.375; -821.000; -805.000
391.534;  -31.850;  574.000; -301.000
391.663; -129.475; -583.000; -645.000
391.792; -138.075; -673.000; -701.000
391.921;  -56.350;   -3.000;   15.000
392.050;  -82.925; -287.000; -228.000
392.178; -205.425;-1206.000;-1061.000
392.307; -151.100; -758.000; -712.000
392.436; -132.900; -427.000; -641.000
392.564;  -34.050;  166.000;   -6.000
392.693; -160.925; -860.000; -682.000
392.822; -128.600; -529.000; -534.000
392.950; -159.075; -880.000; -714.000
393.079; -105.125; -188.000; -328.000
393.208; -125.900; -488.000; -511.000
393.336;  -60.225; -170.000; -145.000
393.465;  -66.825; -317.000; -199.000
393.593;  -45.150;   62.000;   79.000
393.722; -200.200;-1121.000; -916.000
393.850;  -68.625; -188.000;  -61.000
393.979; -186.700; -926.000; -805.000
394.107; -122.700; -517.000; -537.000
394.236; -126.900; -570.000; -507.000
394.364;  -19.475;  383.000;  206.000
394.493; -166.525; -911.000; -767.000
394.621; -176.150; -955.000; -916.000
394.750; -171.575; -873.000; -923.000
394.878;  -88.700; -247.000; -149.000
395.007; -144.725; -721.000; -807.000
395.135; -145.400; -790.000; -721.000
395.263; -184.550;-1038.000;-1040.000
395.392;  -52.525;  -25.000; -107.000
395.520; -172.750; -818.000; -679.000
395.648; -158.700; -865.000; -915.000
395.777; -114.650; -366.000; -405.000
395.905; -139.050; -449.000; -564.000
396.033;  -33.025;  217.000;  172.000
396.162; -111.050; -399.000; -453.000
396.290;  -72.825;  -17.000;   -2.000
396.418; -107.850; -555.000; -514.000
396.546; -151.950; -571.000; -466.000
396.674; -168.200; -850.000; -878.000
396.803;  -40.575;  -72.000;  -23.000
396.931;  -82.000; -179.000; -199.000
397.059; -208.150;-1026.000; -989.000
397.187; -176.625;-1026.000; -975.000
397.315; -166.050; -884.000; -649.000
397.443; -120.650; -592.000; -443.000
397.572; -122.675; -578.000; -424.000
397.700; -132.175; -607.000; -614.000
397.828;  -72.600;  120.000;  -90.000
397.956; -119.775; -508.000; -478.000
398.084; -169.025; -767.000; -626.000
398.212;  -36.850;  137.000;  124.000
398.340;  -48.875;  -56.000;  159.000
398.468;  -97.800; -390.000; -169.000
398.596; -194.450; -993.000; -953.000
398.724; -164.900; -762.000; -767.000
398.852; -184.100;-1024.000; -976.000
398.980; -115.450; -560.000; -560.000
399.108; -150.050; -982.000; -735.000
399.236;  -44.275;   13.000;    8.000
399.363;  -27.375;  222.000;  196.000
399.491; -118.175; -404.000; -398.000
399.619; -164.800; -829.000; -800.000
399.747; -174.150; -859.000; -771.000
399.875;   -7.525;  220.000;  234.000
400.003; -109.200; -359.000; -284.000
400.130; -132.175; -421.000; -341.000
400.258;  -54.650;  -83.000;   38.000
400.386;  -85.975; -352.000; -168.000
400.514; -126.575; -526.000; -587.000
400.641; -185.825; -928.000; -802.000
400.769; -164.050; -979.000; -888.000
400.897; -171.325; -838.000; -793.000
401.025;  -63.100; -166.000; -152.000
401.152;  -34.425;  220.000;   38.000
401.280; -104.625; -430.000; -429.000
401.408; -155.425; -712.000; -576.000
401.535; -156.925; -735.000; -758.000
401.663; -229.275;-1134.000;-1054.000
401.790; -111.350; -514.000; -525.000
401.918;    4.075;  436.000;  405.000
402.046;  -46.325;  134.000;  122.000
402.173;  -59.600;  -18.000;    7.000
402.301; -114.475; -519.000; -397.000
402.428;    7.350;  528.000;  383.000
402.556; -193.175;-1188.000; -913.000
402.683;  -78.775;  -20.000;   -1.000
402.811;  -61.800;  -37.000; -206.000
402.938;  -59.350;   20.000;   27.000
403.066; -122.625; -574.000; -558.000
403.193;  -29.000;  299.000;  239.000
403.321; -111.550; -396.000; -574.000
403.448;  -33.750;   83.000;   27.000
403.575;  -57.775;  -90.000;  -46.000
403.703; -151.075; -732.000; -557.000
403.830; -119.075; -531.000; -496.000
403.957; -206.900;-1117.000;-1023.000
404.085;  -84.200;  -61.000; -172.000
404.212;  -54.300;  -50.000;   63.000
404.339;  -92.950; -566.000; -306.000
404.467; -110.825; -612.000; -524.000
404.594;  -87.425; -287.000; -227.000
404.721; -145.725; -869.000; -764.000
404.848;  -56.150; -113.000; -202.000
404.976; -174.675; -856.000; -783.000
405.103;  -59.000;  -14.000;  -82.000
405.230;  -38.350;  190.000;  226.000
405.357;  -53.975;  117.000;   44.000
405.484;  -63.325;  -49.000;    5.000
405.612; -117.200; -548.000; -563.000
405.739; -114.750; -488.000; -243.000
405.866;   21.350;  669.000;  385.000
405.993;  -94.725; -398.000; -102.000
406.120; -171.000; -801.000; -887.000
406.247; -104.750; -323.000; -342.000
406.374;   18.025;  540.000;  629.000
406.501; -132.700; -632.000; -702.000
406.628; -132.175; -621.000; -589.000
406.755; -149.900; -803.000; -620.000
406.882;  -74.725; -228.000; -277.000
407.009; -136.500; -719.000; -628.000
407.136;  -96.100; -480.000; -401.000
407.263; -176.100; -939.000; -829.000
407.390; -153.225; -692.000; -614.000
407.517; -217.150;-1139.000;-1187.000
407.644;  -93.675; -332.000; -256.000
407.771; -113.975; -249.000; -287.000
407.898;  -29.775;  168.000;  328.000
408.025; -108.575; -421.000; -313.000
408.151;  -51.650;   82.000;  153.000
408.278;  -98.100; -267.000; -216.000
408.405; -186.850; -931.000; -899.000
408.532; -139.850; -549.000; -542.000
408.659; -154.925; -677.000; -648.000
408.785; -214.950;-1298.000;-1170.000
408.912;  -97.550; -412.000; -296.000
409.039; -132.725; -610.000; -686.000
409.166; -140.250; -591.000; -555.000
409.292; -128.375; -571.000; -534.000
409.419; -140.925; -665.000; -649.000
409.546; -109.850; -431.000; -192.000
409.672; -136.575; -713.000; -545.000
409.799;  -69.550;  -36.000;   34.000
409.926;  -80.750; -180.000; -179.000
410.052; -229.150;-1127.000;-1091.000
410.179; -131.075; -368.000; -392.000
410.305; -109.425; -375.000; -493.000
410.432;  -98.525; -220.000; -333.000
410.558; -107.225; -305.000; -380.000
410.685; -142.775; -688.000; -431.000
410.812; -129.025; -409.000; -588.000
410.938; -172.125; -964.000; -808.000
411.065; -134.150; -671.000; -645.000
411.191;  -62.625; -189.000; -174.000
411.317; -173.925; -823.000; -742.000
411.444;  -84.875; -317.000; -246.000
411.570;  -81.725; -339.000; -294.000
411.697; -139.200; -758.000; -752.000
411.823; -198.225; -989.000; -999.000
411.949;  -79.800;  -56.000;   17.000
412.076; -136.800; -539.000; -519.000
412.202; -159.600; -758.000; -757.000
412.329; -162.475; -798.000; -752.000
412.455; -143.100; -821.000; -657.000
412.581;  -51.200;  -15.000;  172.000
412.707; -121.350; -540.000; -457.000
412.834;  -14.050;  156.000;  219.000
412.960; -163.775; -785.000; -784.000
413.086; -153.600; -743.000; -701.000
413.212;    9.625;  604.000;  578.000
413.339; -159.425; -685.000; -701.000
413.465; -111.950; -364.000; -310.000
413.591; -161.725; -757.000; -474.000
413.717;  -95.750; -358.000; -366.000
413.843; -177.200; -839.000; -861.000
413.969;  -98.050;  -47.000; -292.000
414.096; -131.675; -679.000; -679.000
414.222;  -49.425;  -33.000;   85.000
414.348; -139.675; -652.000; -385.000
414.474;  -55.775;   38.000;  -52.000
414.600;  -80.875; -126.000; -144.000
414.726;  -71.925;  -96.000;  -55.000
414.852; -116.275; -365.000; -342.000
414.978;  -46.775;  104.000;  -18.000
415.104;  -45.750;   38.000;   80.000
415.230; -110.950; -329.000; -330.000
415.356; -133.975; -409.000; -514.000
415.482;  -63.375;   13.000;  -35.000
415.608;  -96.325; -247.000; -323.000
415.734;  -43.625;   67.000;   38.000
415.860; -172.625; -875.000; -767.000
415.986; -140.175; -685.000; -607.000
416.111; -148.625; -798.000; -652.000
416.237; -131.950; -424.000; -571.000
416.363; -154.025; -765.000; -733.000
416.489; -105.175; -324.000; -251.000
416.615; -165.625; -707.000; -742.000
416.741; -136.325; -677.000; -784.000
416.866; -153.350; -673.000; -736.000
416.992; -179.175; -801.000; -818.000
417.118;  -90.650;  -41.000;  -80.000
417.244; -156.650; -798.000; -531.000
417.369; -156.525; -801.000; -612.000
417.495; -105.900; -325.000; -254.000
417.621; -201.325;-1015.000; -803.000
417.746; -128.250; -579.000; -572.000
417.872;  -71.000; -254.000; -144.000
417.998; -138.575; -515.000; -530.000
418.123; -204.725;-1073.000; -845.000
418.249; -121.975; -512.000; -601.000
418.374; -174.900; -916.000; -824.000
418.500; -117.900; -383.000; -482.000
418.626;  -42.275;   70.000;  -59.000
418.751; -118.450; -549.000; -448.000
418.877; -160.375; -637.000; -643.000
419.002; -148.675; -688.000; -560.000
419.128; -189.725; -930.000; -721.000
419.253; -179.400; -967.000; -837.000
419.379; -121.200; -391.000; -338.000
419.504;  -14.650;  325.000;  415.000
419.629;  -88.200; -393.000; -212.000
419.755;  -75.500; -317.000; -254.000
419.880;  -99.850;  -98.000;   67.000
420.006; -100.400; -280.000; -221.000
420.131; -149.475; -662.000; -775.000
420.256; -115.350; -315.000; -316.000
420.382; -149.700; -665.000; -687.000
420.507; -159.025; -649.000; -778.000
420.632; -109.575; -337.000; -339.000
420.758;  -92.700; -251.000; -425.000
420.883; -172.750; -876.000; -672.000
421.008; -161.075; -775.000; -619.000
421.133; -128.950; -509.000; -467.000
421.259;  -92.275; -325.000; -259.000
421.384; -181.475; -834.000; -693.000
421.509; -176.850;-1052.000; -862.000
421.634; -185.450; -936.000; -820.000
421.759; -122.250; -359.000; -327.000
421.885; -146.500; -717.000; -656.000
422.010; -130.725; -673.000; -542.000
422.135; -172.350; -695.000; -727.000
422.260;  -14.425;  340.000;  280.000
422.385;  -84.175;   12.000;  -98.000
422.510;  -43.250;  151.000;  -26.000
422.635;  -80.425;  -87.000;  -43.000
422.760; -146.800; -766.000; -791.000
422.885;  -59.800;  -57.000;  -80.000
423.010;  -70.300; -112.000; -169.000
423.135; -120.775; -481.000; -561.000
423.260;  -77.900; -150.000; -245.000
423.385;  -21.700;  476.000;  222.000
423.510;  -48.900;   71.000;  -22.000
423.635;  -67.900;  133.000;   45.000
423.760;   -8.700;  383.000;  328.000
423.885;  -19.925;  336.000;  391.000
424.010;  -65.575;  -68.000;  -13.000
424.135;  -66.775;    5.000;  -33.000
424.259; -133.450; -654.000; -457.000
424.384; -133.000; -279.000; -272.000
424.509;  -86.225; -260.000; -186.000
424.634; -170.425; -761.000; -623.000
424.759; -136.725; -688.000; -544.000
424.883; -132.475; -506.000; -527.000
425.008; -140.225; -502.000; -410.000
425.133; -150.525; -679.000; -653.000
425.258; -126.950; -517.000; -381.000
425.382; -159.925; -867.000; -774.000
425.507; -135.625; -487.000; -543.000
425.632; -176.425; -802.000; -663.000
425.756; -104.275; -256.000; -146.000
425.881; -172.250; -831.000; -857.000
426.006; -134.150; -604.000; -355.000
426.130; -146.025; -696.000; -508.000
426.255; -134.525; -611.000; -491.000
426.379;  -83.525; -189.000; -577.000
426.504;   22.100;  660.000;  544.000
426.629; -151.100; -519.000; -466.000
426.753;  -46.375;   64.000;  -46.000
426.878;  -93.450; -252.000; -288.000
427.002; -171.075; -651.000; -668.000
427.127;  -93.450;  -35.000; -158.000
427.251;  -12.350;  372.000;  401.000
427.375; -105.250; -191.000; -173.000
427.500; -149.525; -616.000; -610.000
427.624; -109.125; -234.000; -400.000
427.749;  -98.300; -216.000; -225.000
427.873; -134.625; -499.000; -412.000
427.997;  -95.125; -222.000; -230.000
428.122;   28.375;  795.000;  703.000
428.246;   -8.800;  433.000;  434.000
428.371; -184.150; -869.000; -773.000
428.495; -152.400; -624.000; -646.000
428.619;  -88.100; -186.000; -117.000
428.743;  -51.075;   65.000;  132.000
428.868; -169.425; -732.000; -643.000
428.992; -107.025; -219.000; -326.000
429.116; -128.100; -329.000; -357.000
429.240;  -37.975;  419.000;  426.000
429.365; -131.600; -454.000; -574.000
429.489; -149.500; -638.000; -647.000
429.613;  -90.225; -236.000; -177.000
429.737; -128.525; -563.000; -432.000
429.861; -122.850; -247.000; -133.000
429.985; -119.950; -425.000; -305.000
430.109; -201.950; -770.000; -908.000
430.234;  -41.125;   76.000;  -50.000
430.358; -107.850; -250.000; -160.000
430.482; -156.050; -672.000; -564.000
430.606; -147.425; -655.000; -375.000
430.730; -130.900; -437.000; -388.000
430.854; -185.900; -909.000; -835.000
430.978; -168.825; -795.000; -764.000
431.102; -131.700; -499.000; -422.000
431.226; -177.275; -874.000; -815.000
431.350;  -16.025;  345.000;  422.000
431.474; -128.225; -661.000; -373.000
431.597; -195.200;-1060.000; -848.000
431.721; -106.125; -276.000; -267.000
431.845; -159.350; -704.000; -472.000
431.969; -104.150; -304.000; -349.000
432.093; -120.700; -395.000; -317.000
432.217;  -46.400;   32.000;   82.000
432.341; -132.325; -523.000; -518.000
432.464;  -66.775;   96.000;   40.000
432.588; -130.975; -401.000; -329.000
432.712;  -71.325;  -52.000;  -52.000
432.836;  -42.350;  213.000;  263.000
432.959; -110.225; -372.000; -311.000
433.083;  -71.625;   11.000;    2.000
433.207;    9.150;  285.000;  930.000
433.330;  -97.425; -391.000; -200.000
433.454; -146.400; -654.000; -638.000
433.578;   -6.375;  583.000;  278.000
433.701; -167.300; -623.000; -675.000
433.825; -124.025; -292.000; -299.000
433.949;  -78.975;   28.000;  -72.000
434.072; -116.625; -410.000; -323.000
434.196;  -82.025; -309.000; -117.000
434.319; 3715.750;25482.000;25124.000
434.443; -156.600; -656.000; -603.000
434.566;  -35.500;  281.000;   62.000
434.690; -143.000; -637.000; -383.000
434.813; -113.600; -251.000; -173.000
434.937; -150.700; -569.000; -696.000
435.060; -123.800; -423.000; -332.000
435.184; -135.575; -492.000; -217.000
435.307;  -66.200;  159.000;  102.000
435.431;  -68.350;  -40.000;   24.000
435.554; -102.850; -399.000; -240.000
435.677; -115.400; -350.000; -258.000
435.801;  -58.275;  -25.000;   49.000
435.924;  -72.500;    1.000;  -67.000
436.048; -190.675;-1019.000; -732.000
436.171; -116.425; -240.000;  -66.000
436.294; -110.950; -248.000; -229.000
436.417; -200.025; -963.000; -849.000
436.541; -175.300; -814.000; -840.000
436.664;  -86.650; -242.000; -316.000
436.787;  -65.000;   13.000;  113.000
436.910; -149.550; -792.000; -422.000
437.034;  -42.900;  142.000;  143.000
437.157;  -57.525;  -11.000;    0.000
437.280; -125.800; -392.000; -292.000
437.403; -194.150; -982.000; -869.000
437.526; -203.575; -903.000; -865.000
437.649; -128.100; -505.000; -332.000
437.772; -154.975; -692.000; -540.000
437.896;   29.975;  700.000;  544.000
438.019; -160.375; -758.000; -503.000
438.142; -133.050; -596.000; -506.000
438.265; -164.350; -639.000; -670.000
438.388; -110.950; -520.000; -410.000
438.511; -147.500; -597.000; -394.000
438.634; -127.200; -247.000; -125.000
438.757; -163.350; -693.000; -619.000
438.880;  -65.950;  -34.000;  -57.000
439.003; -123.075; -417.000; -437.000
439.126;  -95.050; -287.000; -167.000
439.248;  -90.400;  -98.000; -139.000
439.371;  -77.600;    9.000;  -53.000
439.494;    8.050;  510.000;  439.000
439.617;  -62.450;   65.000;  -88.000
439.740; -202.375; -968.000; -816.000
439.863; -150.125; -755.000; -595.000
439.986; -141.025; -476.000; -431.000
440.108;  -89.350; -161.000; -112.000
440.231; -199.975; -950.000; -836.000
440.354;  -78.950;  -64.000; -150.000
440.477; -157.700; -566.000; -542.000
440.599; -134.000; -200.000; -225.000
440.722; -154.650; -709.000; -586.000
440.845;   51.975;  751.000;  928.000
440.968; -129.000; -415.000; -311.000
441.090;  -86.775; -199.000;  -33.000
441.213; -197.775;-1021.000; -825.000
441.336;  -77.000; -159.000;   -5.000
441.458; -116.675; -549.000; -396.000
441.581; -150.650; -628.000; -629.000
441.703; -106.850; -152.000;   13.000
441.826; -135.650; -557.000; -400.000
441.948;  -67.425;   56.000;   51.000
442.071;   -1.825;  555.000;  424.000
442.193; -144.725; -531.000; -485.000
442.316;  -59.050;  152.000;   97.000
442.438; -103.400; -233.000;  -10.000
442.561;  -46.975;  272.000;  262.000
442.683; -162.750; -809.000; -522.000
442.806;  -71.925;   -8.000;   74.000
442.928; -179.775; -859.000; -604.000
443.051; -139.675; -577.000; -373.000
443.173; -125.175; -341.000; -339.000
443.295; -123.025; -263.000; -371.000
443.418; -106.175; -321.000;  -29.000
443.540;  -80.975; -106.000;   -4.000
443.662; -154.225; -563.000; -465.000
443.785;  -40.075;  335.000;  199.000
443.907; -132.375; -362.000; -208.000
444.029; -163.250; -767.000; -494.000
444.152; -174.675; -644.000; -554.000
444.274;  -70.825;  -18.000;  -24.000
444.396; -147.425; -461.000; -221.000
444.518; -157.225; -691.000; -454.000
444.640; -142.100; -268.000; -111.000
444.763;  -47.125;  388.000;  249.000
444.885; -146.850; -432.000; -392.000
445.007;  -54.475;   35.000;   86.000
445.129; -138.500; -610.000; -515.000
445.251; -135.600; -372.000; -439.000
445.373; -169.125; -537.000; -386.000
445.495;  -24.075;  242.000;  350.000
445.617;   29.775;  853.000;  753.000
445.739; -105.225; -215.000;  -97.000
445.861; -101.475; -245.000; -112.000
445.984; -108.750; -267.000; -101.000
446.105; -123.775; -418.000; -251.000
446.227;  -84.400; -176.000;  -19.000
446.349; -145.175; -358.000; -249.000
446.471; -164.100; -615.000; -448.000
446.593; -118.575; -316.000;   19.000
446.715;  -83.975;  -67.000;   41.000
446.837;   29.575;  697.000;  832.000
446.959; -138.600; -457.000; -478.000
447.081; -166.250; -628.000; -518.000
447.203;   42.400;  862.000;  834.000
447.325;  -97.100; -270.000;   42.000
447.446;  -40.950;  286.000;  530.000
447.568; -206.500; -921.000; -803.000
447.690; -124.225; -236.000; -245.000
447.812; -179.000; -798.000; -519.000
447.933;  -65.200;  155.000;  127.000
448.055;  -98.425; -306.000; -261.000
448.177;  -55.175;   31.000;   79.000
448.299; -213.350; -935.000; -727.000
448.420;  -56.300;  -25.000;  159.000
448.542;  -71.175;   -3.000;   33.000
448.664;  -53.525;  109.000;  322.000
448.785;  -68.025;  265.000;   83.000
448.907; -134.725; -614.000; -353.000
449.028; -167.350; -771.000; -471.000
449.150;   -3.475;  492.000;  589.000
449.272; -207.250;-1044.000; -913.000
449.393;    8.050;  612.000;  694.000
449.515; -168.550; -634.000; -581.000
449.636; -101.375; -264.000; -155.000
449.758;   13.950;  763.000;  622.000
449.879; -123.425; -498.000; -396.000
450.001; -116.725; -149.000;  -49.000
450.122;  -75.550;  -95.000;  162.000
450.244;  -66.725;   37.000;  364.000
450.365; -132.525; -495.000; -301.000
450.486;  -66.425;   80.000;  268.000
450.608;  -57.600;  393.000;  326.000
450.729;    5.375;  578.000;  645.000
450.850; -150.925; -574.000; -466.000
450.972; -165.425; -552.000; -389.000
451.093;  -23.075;  190.000;  588.000
451.214; -146.675; -516.000; -337.000
451.336;   30.275;  773.000;  579.000
451.457;  -46.500;  264.000;  393.000
451.578;  -84.650; -118.000;  -74.000
451.699; -147.900; -546.000; -540.000
451.821; -111.200; -284.000;  -50.000
451.942;  -44.000;  278.000;  285.000
452.063;  -30.400;  228.000;  419.000
452.184; -109.450;  -54.000;  -49.000
452.305;  -50.675;  103.000;  170.000
452.427; -135.625; -549.000; -301.000
452.548;  -81.775;   23.000;   79.000
452.669; -114.575; -257.000;  -89.000
452.790;  -94.300;    3.000;  -18.000
452.911;  -48.125;  195.000;  259.000
453.032; -117.450; -289.000;  -60.000
453.153;  -86.250;  -29.000;   81.000
453.274;   36.875;  737.000;  868.000
453.395;  -82.125;  -51.000;  175.000
453.516;   57.350; 1317.000; 1388.000
453.637; -117.650; -205.000; -150.000
453.758; -102.650;   15.000;   69.000
453.879; -143.275; -462.000; -250.000
454.000;   52.450; 1086.000;  948.000
454.121; -161.400; -554.000; -326.000
454.242; -155.725; -599.000; -383.000
454.362;  -92.500;  -99.000;  114.000
454.483; -119.150; -309.000; -229.000
454.604;   -6.175;  512.000;  580.000
454.725; -174.350; -627.000; -555.000
454.846; -160.925; -474.000; -406.000
454.967;  -46.675;  230.000;  539.000
455.087;  -53.850;  179.000;  153.000
455.208;   -1.575;  554.000;  856.000
455.329;  -83.125;  -22.000;   82.000
455.450;  -19.975;  473.000;  633.000
455.570; -127.825; -234.000; -211.000
455.691;  -65.375;  201.000;  407.000
455.812; -135.675; -270.000;  -92.000
455.932;  -84.850;  107.000;  -97.000
456.053;  -87.900;   36.000;   24.000
456.173; -129.800; -433.000; -355.000
456.294; -159.450; -476.000; -303.000
456.415;  -91.175;  -73.000;   70.000
456.535;  -46.850;  297.000;  273.000
456.656;  -55.350;  132.000;  240.000
456.776;  -82.325;    3.000;  298.000
456.897;  -30.300;  308.000;  513.000
457.017; -101.775; -153.000;   -3.000
457.138; -137.000; -402.000; -249.000
457.258;  -64.525;  263.000;  224.000
457.379;  -32.850;  509.000;  521.000
457.499;  -37.500;  443.000;  432.000
457.620; -143.050; -407.000; -231.000
457.740; -111.675; -132.000;  -11.000
457.860;  -73.900;   87.000;   44.000
457.981;  -79.375;  132.000;  124.000
458.101; -112.025;  -89.000;   40.000
458.221;  -41.375;  336.000;  402.000
458.342;  -93.600;   -4.000;  -37.000
458.462;  -38.875;  617.000;  352.000
458.582; -121.175; -302.000; -294.000
458.703;  -69.350;  303.000;  154.000
458.823;  -77.975;   22.000;  163.000
458.943;  -39.075;  341.000;  467.000
459.063;  -78.025; 1124.000;  192.000
459.183;  -46.125;  328.000;  313.000
459.304;  -14.950;  315.000;  517.000
459.424; -108.325; -246.000;  -89.000
459.544;  -17.800;  388.000;  764.000
459.664;  -22.000;  499.000;  506.000
459.784;   43.425; 1004.000; 1175.000
459.904;   -1.000;  867.000;  744.000
460.024;   22.025;  867.000;  684.000
460.144;  -36.325;  449.000;  554.000
460.264;  -40.825;  515.000;  327.000
460.385; -115.100; -145.000; -119.000
460.505;   26.450;  905.000;  858.000
460.625; -111.550;  -17.000;  -68.000
460.745;  -38.650;  396.000;  541.000
460.864;  -73.650;  153.000;  469.000
460.984;  -28.425;  499.000;  573.000
461.104;  108.775; 1656.000; 1775.000
461.224;    0.100;  657.000;  650.000
461.344;  -59.775;  431.000;  360.000
461.464;  -69.950;  258.000;  513.000
461.584;  -50.675;  283.000;  466.000
461.704; -109.525;   58.000;  108.000
461.824;  -77.475;  238.000;  259.000
461.943;  -58.525;  191.000;  130.000
462.063;  -95.425;    2.000;  324.000
462.183;    1.325;  639.000;  717.000
462.303;   80.625; 1678.000; 1230.000
462.422;    3.350;  781.000;  840.000
462.542;  -65.775;  271.000;  391.000
462.662;  -44.425;  353.000;  380.000
462.782;  -27.925;  833.000;  572.000
462.901;  -23.375;  545.000;  717.000
463.021;  116.850; 1702.000; 1638.000
463.141;  -43.275;  337.000;  770.000
463.260;  -30.200;  614.000;  474.000
463.380;  -11.450;  902.000;  884.000
463.499;  -55.475;  342.000;  332.000
463.619;  -48.825;  581.000;  559.000
463.738;   89.400; 1644.000;  903.000
463.858;    0.150;  657.000;  811.000
463.978;  -54.825;  542.000;  396.000
464.097;   20.025;  921.000; 1114.000
464.217;   44.300; 1196.000; 1143.000
464.336;   61.000; 1068.000; 1130.000
464.455;  -57.400;  328.000;  659.000
464.575;  -28.750;  597.000;  602.000
464.694;   35.825; 1204.000; 1179.000
464.814;   27.850; 1190.000; 1138.000
464.933;   16.975; 1095.000; 1027.000
465.052;   42.225; 1412.000; 1054.000
465.172;   16.725;  922.000;  799.000
465.291;   79.400; 1376.000; 1320.000
465.410;   -7.850;  462.000;  735.000
465.530;   69.900; 1355.000; 1310.000
465.649;   44.350; 1209.000; 1273.000
465.768;   97.800; 1673.000; 1508.000
465.888;   19.900;  941.000; 1174.000
466.007;   68.650; 1335.000; 1440.000
466.126;  -22.675;  721.000;  641.000
466.245;   32.775; 1176.000; 1187.000
466.364;    5.375;  950.000; 1060.000
466.484;   48.975; 1024.000; 1213.000
466.603;    7.575; 1101.000; 1222.000
466.722;   96.075; 1490.000; 1769.000
466.841;   35.775; 1151.000; 1401.000
466.960;   15.125; 1069.000;  972.000
467.079;  129.550; 1971.000; 1786.000
467.198;   19.100; 1238.000; 1181.000
467.317;   76.950; 1768.000; 1162.000
467.436;   58.650; 1709.000; 1261.000
467.555;  121.700; 1796.000; 1746.000
467.674;   53.150; 1227.000; 1329.000
467.793;   23.950; 1376.000; 1374.000
467.912;   68.025; 1658.000; 1539.000
468.031;  119.850; 2038.000; 1930.000
468.150;  110.575; 1842.000; 1837.000
468.269;  153.625; 2313.000; 2090.000
468.388;  163.200; 2168.000; 2339.000
468.507;  250.875; 2884.000; 2903.000
468.626;  218.200; 2555.000; 2541.000
468.744;  132.000; 2018.000; 2174.000
468.863;  204.875; 2312.000; 2523.000
468.982;   74.700; 1503.000; 1555.000
469.101;  220.700; 2788.000; 2692.000
469.220;  134.625; 2333.000; 2176.000
469.338;  244.750; 2935.000; 3051.000
469.457;  179.375; 2719.000; 2545.000
469.576;  325.100; 3953.000; 3784.000
469.695;  232.000; 2877.000; 3066.000
469.813;  400.025; 4148.000; 4192.000
469.932;  369.250; 4255.000; 4485.000
470.051;  334.200; 4075.000; 4161.000
470.169;  392.125; 4470.000; 4338.000
470.288;  410.650; 4700.000; 4809.000
470.406;  460.075; 5059.000; 5194.000
470.525;  550.075; 6101.000; 5787.000
470.644;  617.775; 6847.000; 6794.000
470.762;  767.475; 8397.000; 7873.000
470.881;  843.475; 8651.000; 8464.000
470.999;  980.800; 9685.000; 9151.000
471.118; 1085.075;11174.000;10711.000

