
Integration time [ms]: 200.000
Averaging Nr. [scans]: 10
Smoothing Nr. [pixels]: 0
Data measured with spectrometer [name]: 2101012U2
Wave   ;Sample   ;Dark     ;Reference
[nm]   ;[counts] ;[counts] ;[counts] 

197.733;  105.500;  516.000;  404.000
197.879; -175.900; -610.000; -634.000
198.025;  -94.600; -475.000; -420.000
198.171; -168.100; -602.000; -612.000
198.317;  -64.500; -401.000; -316.000
198.463; -141.000; -655.000; -404.000
198.609;   76.900;  181.000; -137.000
198.755; -168.000; -644.000; -410.000
198.901; -147.100; -505.000; -424.000
199.047; -150.000; -615.000; -488.000
199.193;  -83.100; -230.000; -468.000
199.339;  -95.200; -222.000; -369.000
199.485;   91.600;  330.000;  271.000
199.631;   -1.400;  227.000;  310.000
199.777;  -93.000; -466.000; -398.000
199.923; -137.100; -610.000; -424.000
200.069;   42.000; -141.000;  -58.000
200.215;  135.100;  128.000;  453.000
200.361;   53.900;  243.000;  477.000
200.507; -134.800; -600.000; -373.000
200.653;  -54.200; -371.000; -194.000
200.798;  -61.000; -215.000; -125.000
200.944;  -41.700; -146.000;  -41.000
201.090;   92.100;   61.000;  222.000
201.236;   -9.000; -116.000; -158.000
201.382;  271.200;  874.000;  903.000
201.528;   11.200;  -58.000;  -48.000
201.674;  -82.400; -386.000; -293.000
201.819; -138.800; -540.000; -439.000
201.965; -178.300; -699.000; -447.000
202.111;  -23.900; -273.000; -226.000
202.257;  -60.700; -250.000; -238.000
202.402;    4.500;   13.000;  -36.000
202.548;  -68.700; -169.000; -116.000
202.694;  181.400;  410.000; -183.000
202.840; -121.700; -603.000; -531.000
202.985; -146.400; -681.000; -639.000
203.131; -200.300; -832.000; -666.000
203.277;  -50.200; -199.000; -262.000
203.423; -105.300; -434.000; -520.000
203.568;  -84.400; -462.000; -237.000
203.714; -137.000; -535.000; -542.000
203.860; -171.300; -682.000; -641.000
204.005;   35.100;  112.000;  167.000
204.151;  164.300;  561.000;  556.000
204.296;  -96.300; -354.000; -221.000
204.442; -139.000; -600.000; -547.000
204.588; -170.900; -592.000; -579.000
204.733;   42.500;  178.000;  168.000
204.879; -271.000;-1018.000; -822.000
205.025;   -5.200;  -99.000;  126.000
205.170;    5.100;  -17.000;   94.000
205.316;  154.100;  438.000;  661.000
205.461; -197.100; -698.000; -554.000
205.607;  195.800;  609.000;  665.000
205.752; -145.600; -626.000; -551.000
205.898; -104.100; -501.000; -391.000
206.043; -133.400; -578.000; -506.000
206.189;  -69.700; -243.000; -285.000
206.334;  158.700;  554.000;  606.000
206.480;  150.100;  409.000;  239.000
206.625; -189.900; -529.000; -552.000
206.771; -111.100; -451.000; -373.000
206.916;  -75.400; -210.000; -537.000
207.062; -126.800; -545.000; -591.000
207.207; -139.500; -546.000; -443.000
207.353;   86.700;  185.000;  460.000
207.498;   33.400;  196.000;   85.000
207.643;  -99.300; -501.000; -370.000
207.789; -276.800;-1069.000; -910.000
207.934; -207.800; -665.000; -713.000
208.080;  -20.400; -154.000;   66.000
208.225;   -0.300;  -22.000;  -57.000
208.370; -177.400; -727.000; -619.000
208.516; -158.900; -741.000; -487.000
208.661;  -32.500; -127.000;  -69.000
208.806;  -25.900; -165.000; -171.000
208.952; -237.300;-1044.000; -731.000
209.097;  152.200;  378.000;  349.000
209.242;  -83.200; -307.000; -382.000
209.387;  128.500;  392.000;  350.000
209.533;  -98.800; -321.000; -350.000
209.678;  168.300;  472.000;  543.000
209.823; -110.200; -408.000; -310.000
209.969; -200.400; -860.000; -757.000
210.114; -236.900; -907.000; -719.000
210.259; -238.100; -939.000; -889.000
210.404;    5.400; -171.000;  103.000
210.549;   30.900;  108.000;    3.000
210.695;  -37.600;   -3.000;  -95.000
210.840;   86.600;   94.000;   67.000
210.985; -125.100; -484.000; -303.000
211.130;  154.400;  268.000;  406.000
211.275;   59.300;  207.000;  199.000
211.420;  -81.700; -300.000; -289.000
211.566; -135.400; -536.000; -489.000
211.711;   98.500;  218.000;  157.000
211.856; -148.200; -545.000; -519.000
212.001;   22.900;  151.000;   44.000
212.146;   24.600;  153.000;   49.000
212.291;   -6.500; -210.000; -186.000
212.436;  -58.700; -280.000;   -6.000
212.581; -160.400; -685.000; -653.000
212.726; -168.800; -487.000; -538.000
212.871; -106.900; -552.000; -217.000
213.016; -284.500;-1172.000;-1029.000
213.161;  154.800;  406.000;  291.000
213.306; -155.600; -435.000; -577.000
213.451; -190.500; -778.000; -689.000
213.596; -116.800; -455.000; -347.000
213.741; -143.000; -448.000; -538.000
213.886; -130.500; -498.000; -517.000
214.031;  -39.800; -294.000; -124.000
214.176; -115.400; -408.000; -341.000
214.321;  -36.800; -296.000; -157.000
214.466;  -57.700; -163.000;  -43.000
214.611;    8.400;  -61.000;  -10.000
214.756; -251.400; -948.000; -858.000
214.901;  -42.200; -388.000; -226.000
215.046; -255.500; -797.000; -825.000
215.191;   36.500;  128.000;   35.000
215.336;    3.300; -157.000;  -19.000
215.480; -120.500; -684.000; -505.000
215.625;  -21.400; -175.000;  -19.000
215.770; -165.800; -757.000; -662.000
215.915;  -36.900;   -5.000;  -97.000
216.060;    5.200; -113.000;  -21.000
216.205; -232.100; -731.000; -779.000
216.349; -126.400; -470.000; -533.000
216.494; -301.300; -939.000; -867.000
216.639; -232.600; -823.000; -888.000
216.784; -147.400; -577.000; -525.000
216.929;   98.800;  392.000;  281.000
217.073;   -6.800; -244.000;  -31.000
217.218;   49.400;   78.000;  -47.000
217.363; -166.200; -656.000; -618.000
217.507; -182.300; -623.000; -588.000
217.652; -260.900; -845.000; -874.000
217.797; -197.400; -708.000; -659.000
217.942; -210.600; -856.000; -720.000
218.086;  171.500;  608.000;  539.000
218.231;  -19.100; -174.000;  -26.000
218.376;  -55.700; -337.000; -229.000
218.520;   -7.100;  -41.000;   96.000
218.665;  -66.000; -338.000; -204.000
218.810;  -93.300; -275.000; -233.000
218.954;   25.500;  201.000;   35.000
219.099; -247.800; -713.000; -963.000
219.243; -149.000; -589.000; -554.000
219.388;  -45.700; -264.000; -136.000
219.532;  -25.700; -116.000; -116.000
219.677; -139.700; -564.000; -521.000
219.822;   26.100;   33.000;   89.000
219.966;   21.800;   17.000;  -99.000
220.111;  -68.700; -328.000;  -40.000
220.255; -196.000; -797.000; -750.000
220.400;  -32.200; -180.000; -146.000
220.544; -151.600; -516.000; -450.000
220.689; -105.100; -422.000; -451.000
220.833;  -59.500; -123.000;  -58.000
220.978;  -78.000; -393.000; -563.000
221.122;   13.100;  319.000;  307.000
221.267; -222.000; -906.000; -837.000
221.411; -106.700; -478.000; -394.000
221.555;  -20.700; -104.000;  -23.000
221.700; -121.200; -329.000; -222.000
221.844;   80.100;  255.000;  272.000
221.989;  -84.000; -328.000; -311.000
222.133;  -57.800; -289.000; -307.000
222.277;    1.200;    5.000;   78.000
222.422;   47.300;  227.000;  113.000
222.566;  -71.200; -381.000; -214.000
222.711;  -95.700; -414.000; -479.000
222.855; -173.700; -643.000; -586.000
222.999; -168.000; -642.000; -717.000
223.144;  -55.700; -195.000; -194.000
223.288;  127.400;  423.000;  251.000
223.432;   59.500;  184.000;  230.000
223.576;   40.000;  152.000;  -21.000
223.721;   89.500;  364.000;  273.000
223.865;  -91.300; -472.000; -475.000
224.009;  538.500; 1673.000; 1631.000
224.153; -125.800; -660.000; -671.000
224.298; -112.200; -531.000; -489.000
224.442;  -32.300;  -74.000;  -33.000
224.586;  -30.500; -169.000; -106.000
224.730; -173.600; -858.000; -670.000
224.875; -215.400; -739.000; -688.000
225.019;   34.200;  102.000;  188.000
225.163;  134.500;  208.000;  341.000
225.307;   67.000;   97.000;  -91.000
225.451;  102.100;  360.000;  481.000
225.595;   51.500;  264.000;  176.000
225.739;    0.400; -170.000;  -94.000
225.884;   11.700;   86.000;    5.000
226.028; -171.800; -760.000; -626.000
226.172;  -74.000; -260.000; -273.000
226.316; -240.000; -941.000; -902.000
226.460; -108.900; -645.000; -493.000
226.604;  -82.500; -406.000; -400.000
226.748; -198.700; -836.000; -733.000
226.892;  -69.700; -227.000; -181.000
227.036;  -97.000; -537.000; -447.000
227.180; -117.700; -551.000; -375.000
227.324; -114.700; -561.000; -580.000
227.468; -241.100; -819.000; -717.000
227.612;   42.000;  242.000;  -28.000
227.756; -241.500; -845.000; -698.000
227.900;  123.200;  342.000;  441.000
228.044; -123.500; -509.000; -290.000
228.188;  108.300;  448.000;  568.000
228.332; -132.100; -546.000; -472.000
228.476;  -42.400; -223.000; -149.000
228.620;  -63.500; -210.000; -150.000
228.764;  141.400;  431.000;  349.000
228.908;  -51.200; -155.000;   30.000
229.052; -118.000; -615.000; -528.000
229.195;  -25.100; -172.000;   13.000
229.339;  -65.400; -235.000; -305.000
229.483;  -48.900;    5.000; -162.000
229.627;    1.900; -156.000;  139.000
229.771;  -96.300; -218.000; -294.000
229.915;   46.700;  230.000;   79.000
230.059; -188.800; -648.000; -663.000
230.202;  -65.300; -370.000; -317.000
230.346;   -7.400; -107.000;  107.000
230.490; -106.200; -489.000; -521.000
230.634; -232.500; -736.000; -553.000
230.777;  179.700;  478.000;  509.000
230.921; -122.000; -450.000; -359.000
231.065;  -78.500; -246.000; -286.000
231.209;   69.900;  261.000;  265.000
231.352;   71.400;   54.000;   40.000
231.496;   53.100;  568.000;  188.000
231.640; -161.100; -693.000; -621.000
231.783;  150.600;  546.000;  525.000
231.927;  -82.700; -294.000; -365.000
232.071; -242.000; -962.000; -736.000
232.214; -219.700; -980.000; -764.000
232.358; -197.900; -683.000; -599.000
232.502;   68.600;  -19.000;    7.000
232.645; -264.700;-1090.000; -927.000
232.789;  -51.600; -257.000; -218.000
232.933;  -71.700; -407.000; -224.000
233.076; -236.600;-1038.000; -897.000
233.220; -202.900; -752.000; -777.000
233.363; -152.200; -669.000; -477.000
233.507;  129.900;  371.000;  129.000
233.650; -194.000; -764.000; -834.000
233.794;  108.200;  438.000;  461.000
233.938; -102.700; -530.000; -362.000
234.081;  -22.200;  -93.000;   31.000
234.225; -139.800; -631.000; -539.000
234.368; -215.600; -773.000; -723.000
234.512;  -62.800; -385.000; -299.000
234.655; -174.600; -582.000; -555.000
234.798; -115.200; -493.000; -466.000
234.942; -274.800; -884.000;-1002.000
235.085; -138.000; -651.000; -443.000
235.229; -129.500; -405.000; -410.000
235.372;  -64.100; -247.000; -191.000
235.516;  -73.200; -397.000; -321.000
235.659;   58.000;   92.000;  121.000
235.802;  -19.400;  -38.000;  -22.000
235.946;   82.300;  335.000;  215.000
236.089;   45.300;  126.000;  250.000
236.233;   99.700;  275.000;  298.000
236.376;  -69.900; -235.000; -378.000
236.519;  -66.700; -297.000; -319.000
236.663;  -21.900; -215.000; -117.000
236.806; -271.100;-1029.000; -999.000
236.949;  161.400;  543.000;  431.000
237.092;  129.200;  412.000;  391.000
237.236; -156.600; -589.000; -502.000
237.379;  132.400;  352.000;  428.000
237.522; -243.500; -879.000; -768.000
237.666;    7.400; -271.000;   18.000
237.809; -241.000; -851.000; -823.000
237.952;   78.200;  469.000;  271.000
238.095; -144.600; -447.000; -442.000
238.238;  184.200;  688.000;  700.000
238.382;  -10.500;  166.000;  103.000
238.525; -164.700; -598.000; -511.000
238.668; -287.800;-1060.000; -985.000
238.811; -155.300; -638.000; -643.000
238.954; -112.500; -483.000; -334.000
239.097;  217.700;  617.000;  664.000
239.241;   63.900;  394.000;  326.000
239.384;  -58.700; -254.000; -214.000
239.527; -109.000; -424.000; -224.000
239.670; -311.000; -994.000;-1091.000
239.813; -218.000; -696.000; -658.000
239.956;  174.200;  579.000;  473.000
240.099; -225.300; -778.000; -725.000
240.242;  121.700;  428.000;  432.000
240.385;  120.300;  466.000;  450.000
240.528; -127.800; -706.000; -473.000
240.671;   59.700;  189.000;  134.000
240.814;  -50.400; -441.000; -158.000
240.957; -193.400; -767.000; -578.000
241.100; -175.100; -779.000; -755.000
241.243; -296.800;-1234.000; -893.000
241.386; -111.600; -508.000; -379.000
241.529; -176.500; -735.000; -547.000
241.672; -117.500; -566.000; -495.000
241.815; -227.800; -832.000; -808.000
241.958;  -38.800; -125.000; -182.000
242.101; -134.800; -545.000; -390.000
242.244;  -76.500; -270.000; -325.000
242.387;  -87.200; -304.000; -246.000
242.530;  138.000;  470.000;  134.000
242.673;  -54.700; -381.000; -309.000
242.815; -214.300; -925.000; -899.000
242.958; -135.900; -482.000; -381.000
243.101;   62.400;  132.000;  187.000
243.244; -163.500; -564.000; -521.000
243.387;  -59.900; -313.000; -316.000
243.530; -179.700; -657.000; -674.000
243.672;    7.100;   43.000;  -92.000
243.815; -117.800; -355.000; -283.000
243.958;    0.300;   98.000;  -26.000
244.101;   44.400;   59.000;  -16.000
244.243;  -21.600;  -47.000;  101.000
244.386; -208.400; -761.000; -630.000
244.529;  -66.800; -132.000; -139.000
244.672; -334.800;-1154.000; -951.000
244.814; -204.500; -621.000; -794.000
244.957;  -91.200; -380.000; -304.000
245.100; -148.300; -489.000; -489.000
245.242; -115.900; -387.000; -374.000
245.385;  -18.500;  -59.000;  -39.000
245.528; -259.800; -871.000; -705.000
245.670;  225.400;  612.000;  634.000
245.813; -152.400; -599.000; -547.000
245.956;  -34.900; -324.000; -275.000
246.098; -122.900; -508.000; -650.000
246.241;   -2.500;  194.000;   48.000
246.383;  -34.600; -119.000;  -73.000
246.526; -161.000; -454.000; -525.000
246.669; -223.100; -889.000; -780.000
246.811;   56.600;  172.000;   -1.000
246.954; -114.100; -512.000; -426.000
247.096;  -35.600;  -84.000;   -6.000
247.239; -130.900; -482.000; -445.000
247.381; -119.800; -647.000; -488.000
247.524;  170.900;  645.000;  679.000
247.666;   -0.400;   58.000;   11.000
247.809; -200.400; -887.000; -691.000
247.951;   10.900;  -75.000;  138.000
248.094;   88.200;  432.000;  308.000
248.236; -314.300;-1262.000;-1238.000
248.378;    4.200; -356.000;  -81.000
248.521;  -31.700; -334.000; -337.000
248.663;  -66.300; -236.000; -267.000
248.806;  -34.300; -300.000; -266.000
248.948; -172.900; -886.000; -763.000
249.090;  -92.900; -428.000; -398.000
249.233;  -92.100; -344.000; -381.000
249.375; -109.700; -474.000; -451.000
249.518;  -48.700;  -83.000; -133.000
249.660;    1.500; -103.000;    3.000
249.802; -368.600;-1303.000;-1189.000
249.945; -132.800; -612.000; -540.000
250.087; -212.300; -834.000; -768.000
250.229; -114.500; -362.000; -480.000
250.371; -133.700; -494.000; -439.000
250.514;  -76.900; -310.000; -244.000
250.656; -133.700;   69.000;  102.000
250.798; -221.100; -849.000; -800.000
250.940; -113.000; -322.000; -322.000
251.083;  -23.400; -335.000; -111.000
251.225;  109.200;  338.000;  310.000
251.367;  -63.900; -274.000; -373.000
251.509;  -66.500; -265.000; -210.000
251.651; -194.300; -731.000; -671.000
251.794;  116.200;  538.000;  632.000
251.936; -200.100; -821.000; -747.000
252.078; -158.800; -540.000; -461.000
252.220; -141.400; -645.000; -477.000
252.362;  186.800;  344.000;  462.000
252.504; -108.800; -677.000; -584.000
252.646; -219.400; -875.000; -722.000
252.788;   -3.400;   14.000; -128.000
252.931;  -60.700; -257.000; -253.000
253.073;  -66.100; -376.000; -317.000
253.215;    9.000;  141.000;  122.000
253.357;  -30.500;   82.000; -153.000
253.499;  -96.100; -374.000; -234.000
253.641; -151.400; -749.000; -594.000
253.783; -175.400; -609.000; -527.000
253.925; -133.000; -586.000; -591.000
254.067; -203.500; -744.000; -667.000
254.209;  -42.700; -391.000; -259.000
254.351; -269.700; -865.000; -883.000
254.493; -112.100; -441.000; -417.000
254.635; -217.900; -936.000; -818.000
254.777; -170.300; -752.000; -687.000
254.918; -147.900; -512.000; -430.000
255.060;  -88.000; -551.000; -395.000
255.202;  -99.700; -473.000; -261.000
255.344; -144.800; -658.000; -455.000
255.486; -105.900; -471.000; -406.000
255.628; -205.200; -780.000; -781.000
255.770; -188.000; -676.000; -536.000
255.912; -110.600; -559.000; -468.000
256.053; -173.900; -730.000; -508.000
256.195;  316.100; 1008.000;  903.000
256.337; -167.400; -861.000; -595.000
256.479;  159.200;  532.000;  416.000
256.621;  -76.200; -394.000; -212.000
256.762; -164.600; -789.000; -742.000
256.904;  148.500;  485.000;  487.000
257.046;  -82.300; -381.000; -271.000
257.188;  -64.900; -351.000; -264.000
257.329; -109.500; -525.000; -464.000
257.471; -213.900; -939.000; -807.000
257.613; -142.800; -584.000; -498.000
257.755; -276.200;-1073.000; -982.000
257.896;   91.400;  286.000;  392.000
258.038; -147.000; -403.000; -352.000
258.180;  -69.100; -354.000; -279.000
258.321; -169.600; -581.000; -457.000
258.463;    7.700;  -71.000;  133.000
258.605; -156.900; -562.000; -570.000
258.746; -197.100; -886.000; -772.000
258.888; -295.000;-1026.000;-1020.000
259.029;   63.900;  121.000;   -8.000
259.171; -171.300; -614.000; -550.000
259.313;   10.100;  -49.000;  -47.000
259.454; -136.000; -536.000; -414.000
259.596; -107.100; -483.000; -390.000
259.737; -179.700; -590.000; -474.000
259.879;   81.800;  217.000;  311.000
260.020;  200.100;  901.000;  636.000
260.162;  -29.500; -146.000; -253.000
260.303; -221.500; -768.000; -687.000
260.445; -158.200; -609.000; -613.000
260.586;   84.200;  392.000;  157.000
260.728;  -61.900; -360.000; -248.000
260.869; -115.500; -350.000; -343.000
261.011;  186.300;  706.000;  537.000
261.152;  -80.800; -479.000; -319.000
261.293; -152.500; -576.000; -595.000
261.435;  -53.800; -219.000; -184.000
261.576;  -78.100; -455.000; -325.000
261.718;  115.000;  420.000;  470.000
261.859; -238.500; -940.000; -949.000
262.000; -242.700; -951.000;-1016.000
262.142;  -13.400;  -52.000;  -60.000
262.283; -212.400; -808.000; -691.000
262.424; -173.300; -666.000; -625.000
262.566; -309.100;-1161.000; -983.000
262.707; -211.200; -840.000; -830.000
262.848; -220.800; -769.000; -726.000
262.990;  -86.400; -362.000; -345.000
263.131;  194.000;  650.000;  681.000
263.272;    4.800;  -61.000;  -41.000
263.413; -142.700; -589.000; -561.000
263.555; -118.300; -669.000; -143.000
263.696; -159.300; -550.000; -641.000
263.837; -127.400; -449.000; -551.000
263.978;    4.100;   -5.000;  -77.000
264.119;  -49.700; -283.000; -264.000
264.261; -182.300; -847.000; -630.000
264.402;   24.800;   33.000;   40.000
264.543; -145.100; -509.000; -524.000
264.684;    1.100;   61.000;  -50.000
264.825; -171.500; -816.000; -538.000
264.966;  -18.100;  -84.000;  -67.000
265.107; -242.800; -646.000; -670.000
265.248; -227.800; -825.000; -812.000
265.390;    1.500;  152.000;   -9.000
265.531;   -3.400; -238.000; -107.000
265.672; -165.300; -557.000; -630.000
265.813;  144.800;  563.000;  439.000
265.954; -272.700; -959.000; -940.000
266.095;  -21.900; -372.000; -322.000
266.236; -161.000; -686.000; -548.000
266.377;  -56.800; -243.000; -297.000
266.518; -119.700; -619.000; -547.000
266.659;   75.500;  170.000;  268.000
266.800;   41.900;   83.000;   85.000
266.941; -159.500; -487.000; -478.000
267.082;   44.800;  354.000;   99.000
267.223;  -87.400; -344.000; -273.000
267.364; -230.500; -892.000; -686.000
267.504;   11.300;    3.000;  135.000
267.645;   42.000;  160.000;   67.000
267.786;  -30.800; -147.000;  -86.000
267.927; -113.100; -473.000; -379.000
268.068;    7.400; -186.000;  -61.000
268.209;  -76.700; -175.000; -413.000
268.350; -119.100; -388.000; -532.000
268.490; -142.600; -648.000; -521.000
268.631;  102.000;  127.000;  225.000
268.772; -217.500; -874.000; -647.000
268.913;  -65.900; -328.000; -476.000
269.054;  -14.100; -117.000;   12.000
269.194;  -80.600; -418.000; -402.000
269.335; -279.400;-1137.000;-1074.000
269.476;  -18.500;   33.000;  -35.000
269.617;  -85.800; -347.000; -392.000
269.757; -171.900; -713.000; -646.000
269.898; -181.500; -856.000; -613.000
270.039;  -99.800; -415.000; -405.000
270.180; -262.700; -952.000; -816.000
270.320;  -24.900; -190.000; -250.000
270.461;  -59.800; -277.000; -249.000
270.602;   -6.700; -186.000; -156.000
270.742; -227.400; -868.000; -943.000
270.883; -109.500; -442.000; -390.000
271.023; -114.600; -358.000; -357.000
271.164; -118.200; -607.000; -528.000
271.305; -192.100; -666.000; -654.000
271.445; -168.800; -722.000; -683.000
271.586; -115.000; -462.000; -283.000
271.726;  -58.700; -397.000; -322.000
271.867; -109.000; -594.000; -534.000
272.008;  328.700; -473.000; -285.000
272.148;  251.300;  462.000;  468.000
272.289;   35.500; -113.000; -181.000
272.429;   75.900;   19.000;  185.000
272.570; -156.200; -633.000; -737.000
272.710; -214.600; -825.000; -775.000
272.851;  -18.300;  113.000; -130.000
272.991; -310.200;-1173.000;-1077.000
273.131; -120.000; -419.000; -459.000
273.272; -184.600; -683.000; -723.000
273.412;   44.600; -143.000;  -31.000
273.553; -107.000; -488.000; -507.000
273.693;  305.600;  913.000;  858.000
273.834; -170.500; -894.000; -692.000
273.974; -111.300; -664.000; -615.000
274.114; -174.100; -772.000; -560.000
274.255;  166.600;  414.000;  373.000
274.395;    0.000; -180.000; -125.000
274.535;   92.600;  199.000;  350.000
274.676;   78.800;  225.000;   94.000
274.816;   23.400;  110.000;   34.000
274.956; -160.400; -624.000; -690.000
275.097; -128.500;-1014.000; -922.000
275.237; -216.600; -913.000; -803.000
275.377; -174.300; -778.000; -689.000
275.517; -293.000; -878.000; -937.000
275.658;  -84.700; -590.000; -555.000
275.798; -124.500; -606.000; -413.000
275.938;   70.800;  215.000;  323.000
276.078; -150.000; -626.000; -395.000
276.218;   58.200;   99.000;  104.000
276.359; -258.900;-1026.000;-1024.000
276.499; -127.400; -605.000; -446.000
276.639;  -26.000; -305.000; -151.000
276.779;  -91.400; -475.000; -357.000
276.919; -187.900; -783.000; -624.000
277.059;  -30.700; -261.000; -212.000
277.199;  -68.300; -357.000; -259.000
277.340;  107.300;  287.000;  175.000
277.480; -202.700; -840.000; -693.000
277.620;   76.100;  192.000;   16.000
277.760; -388.200;-1533.000;-1294.000
277.900;   31.000;  113.000;   33.000
278.040;   62.200;  137.000;  159.000
278.180;   88.900;  270.000;  170.000
278.320;   38.800;   21.000;   56.000
278.460; -160.500; -443.000; -469.000
278.600; -153.100; -708.000; -598.000
278.740;  121.300;  448.000;  224.000
278.880; -130.000; -768.000; -791.000
279.020;   36.600; -194.000; -144.000
279.160; -160.700; -672.000; -595.000
279.300; -220.900; -926.000; -873.000
279.440; -163.700; -709.000; -622.000
279.579;  -43.800;-1014.000; -929.000
279.719; -100.200; -410.000; -394.000
279.859;  136.300;   -4.000;   41.000
279.999;   44.500; -208.000;  101.000
280.139;  -52.900; -435.000; -387.000
280.279; -146.100; -708.000; -745.000
280.419;    2.600; -229.000; -147.000
280.559;  -35.800; -259.000; -180.000
280.698; -137.600; -790.000; -639.000
280.838; -200.300; -778.000; -800.000
280.978; -173.500; -846.000; -790.000
281.118; -192.500; -811.000; -704.000
281.257;   37.900;   24.000;    6.000
281.397; -237.600;-1094.000; -960.000
281.537; -197.500; -599.000; -712.000
281.677;  -26.400; -150.000; -101.000
281.816; -156.300; -700.000; -630.000
281.956;  -27.700; -193.000; -257.000
282.096;  -80.500; -539.000; -396.000
282.235; -207.800; -672.000; -638.000
282.375;  -34.300; -243.000;  -98.000
282.515; -183.500; -715.000; -707.000
282.654;   89.300;   29.000;  106.000
282.794;  116.300;  388.000;  244.000
282.934;  -77.200; -530.000; -491.000
283.073; -243.100;-1030.000; -857.000
283.213;  -77.300; -460.000; -467.000
283.353;  -40.000; -408.000; -349.000
283.492;  -39.500; -264.000; -296.000
283.632;  -46.500; -254.000; -168.000
283.771; -172.900; -859.000; -730.000
283.911;  -76.500; -369.000; -260.000
284.050; -188.100; -794.000; -748.000
284.190; -312.100;-1229.000;-1096.000
284.329; -280.400;-1055.000; -964.000
284.469; -103.500; -516.000; -591.000
284.608; -126.200; -559.000; -598.000
284.748; -158.900; -614.000; -570.000
284.887;   11.500;  -87.000;  -20.000
285.027; -220.000; -844.000; -892.000
285.166;  -29.500; -192.000; -249.000
285.306;   55.500; -116.000;  -33.000
285.445;  -72.000; -229.000; -343.000
285.584; -167.400; -630.000; -494.000
285.724;  -70.300; -282.000; -322.000
285.863; -213.000; -857.000; -507.000
286.002; -100.300; -366.000; -276.000
286.142; -210.800; -715.000; -622.000
286.281; -112.800; -525.000; -493.000
286.420; -149.800; -554.000; -417.000
286.560;  250.400;  653.000;  623.000
286.699; -264.200; -958.000; -912.000
286.838; -133.900; -590.000; -591.000
286.978; -149.800; -533.000; -537.000
287.117; -251.200;-1085.000; -950.000
287.256;  -33.600; -228.000; -211.000
287.395;  -22.900; -197.000; -378.000
287.535;  -68.600; -370.000; -298.000
287.674; -143.900; -509.000; -484.000
287.813;  163.100;  661.000;  533.000
287.952; -239.800;-1010.000; -871.000
288.091; -260.600;-1049.000; -915.000
288.231;   78.000;   13.000;   15.000
288.370; -335.600;-1217.000;-1200.000
288.509; -171.400; -728.000; -645.000
288.648; -151.300; -770.000; -548.000
288.787;  -23.400; -243.000;  -87.000
288.926;  -86.600; -454.000; -475.000
289.065;  271.500;  859.000;  672.000
289.204;  -77.900; -377.000; -217.000
289.344; -173.000; -791.000; -690.000
289.483;   73.500;  416.000;  304.000
289.622;  -19.200; -291.000; -149.000
289.761;  -12.800; -309.000; -166.000
289.900; -188.500; -785.000; -626.000
290.039;   15.000;  -12.000;  -95.000
290.178;  -50.600; -274.000; -180.000
290.317; -173.300; -618.000; -479.000
290.456; -148.700; -463.000; -451.000
290.595; -256.600; -961.000; -833.000
290.734; -230.500; -904.000; -891.000
290.873; -126.800; -456.000; -420.000
291.011; -214.800; -833.000; -843.000
291.150; -164.500; -770.000; -682.000
291.289;  -15.900; -343.000; -110.000
291.428; -180.000; -599.000; -480.000
291.567;  -53.000; -370.000; -442.000
291.706;   29.100;  109.000;  154.000
291.845; -137.800; -597.000; -505.000
291.984; -281.200;-1234.000;-1061.000
292.122;  180.800;  602.000;  582.000
292.261;  130.700;  620.000;  463.000
292.400;   21.600; -144.000;  211.000
292.539; -258.200; -959.000; -813.000
292.678;  -59.300; -325.000; -300.000
292.816; -278.600;-1136.000; -965.000
292.955; -153.200; -844.000; -684.000
293.094;  -54.200; -173.000; -337.000
293.233;  -88.000; -556.000; -400.000
293.371;  -40.000; -225.000;  -84.000
293.510; -177.100; -866.000; -780.000
293.649; -234.400; -959.000; -924.000
293.787; -117.800;-1083.000;-1012.000
293.926;   26.900; -113.000;  -32.000
294.065;  -64.200; -379.000; -290.000
294.203;  130.200;  298.000;  406.000
294.342;   65.900;   74.000;  156.000
294.481;11295.400;51180.000; -836.000
294.619;   -2.700; -425.000; -582.000
294.758; -280.400;-1230.000;-1137.000
294.896;  138.400; -125.000;    5.000
295.035; -241.000;-1040.000;-1006.000
295.174; -231.900;-1082.000; -954.000
295.312;  -77.700; -323.000; -203.000
295.451;    1.600; -307.000; -428.000
295.589;  -85.400; -389.000; -518.000
295.728;   97.400; -292.000; -165.000
295.866;   41.400;  -36.000;  -51.000
296.005; -109.000; -584.000; -341.000
296.143; -115.700; -558.000; -596.000
296.282; -193.000; -957.000; -881.000
296.420; -125.600; -657.000; -557.000
296.559; -145.100; -892.000; -633.000
296.697;   40.400; -847.000; -665.000
296.835;  104.800;-1141.000;-1002.000
296.974;  156.200;  -23.000;   39.000
297.112;   72.400; -443.000; -504.000
297.251; -122.200; -815.000; -755.000
297.389;  166.800; -576.000; -438.000
297.527;  120.400; -145.000;  -83.000
297.666; -113.100; -486.000; -438.000
297.804;  -79.100; -404.000; -264.000
297.942;   16.400; -136.000; -161.000
298.081;   30.900; -183.000;   63.000
298.219;  131.900;  -17.000;  -19.000
298.357;  122.500; -144.000;  -71.000
298.495;   47.200; -810.000; -812.000
298.634;  166.500;  245.000;  219.000
298.772;  152.500; -220.000; -338.000
298.910;  -42.600; -309.000; -182.000
299.048;   10.400; -130.000; -153.000
299.187;  -29.500; -350.000; -250.000
299.325;   90.200;   52.000;  122.000
299.463;   97.400; -389.000; -299.000
299.601;  245.800; -327.000; -271.000
299.739; -196.600; -908.000; -883.000
299.877; -144.000; -791.000; -703.000
300.016; -134.900;-1095.000; -935.000
300.154;  327.600;  -19.000; -161.000
300.292;  110.400; -428.000; -348.000
300.430;   52.600; -408.000; -291.000
300.568; -208.600; -940.000; -874.000
300.706;  -74.100; -366.000; -469.000
300.844; -145.500;-1108.000; -979.000
300.982;  232.400;  246.000;  282.000
301.120; -242.600; -965.000; -866.000
301.258; -123.400; -812.000; -705.000
301.396;   68.500;  104.000;  -41.000
301.534;  158.300; -218.000; -293.000
301.672;  -26.200; -664.000; -521.000
301.810;   46.200; -613.000; -545.000
301.948;  269.000;   53.000;  149.000
302.086; 1012.500; -250.000;  -32.000
302.224; 1663.000; -610.000; -585.000
302.362;   66.800; -558.000; -622.000
302.500;  -66.400; -923.000; -893.000
302.638;  232.500;  128.000;  245.000
302.776;   13.200; -352.000; -408.000
302.913;  147.600;  447.000;  236.000
303.051;   13.100;  -86.000;  -23.000
303.189;  145.000;   90.000;  118.000
303.327;  -42.000; -341.000; -256.000
303.465; -119.900; -832.000; -588.000
303.603; -165.200; -805.000; -604.000
303.740;  216.500;  417.000;  241.000
303.878;   46.100; -800.000; -759.000
304.016; -164.600; -915.000; -790.000
304.154; -253.300;-1123.000;-1152.000
304.291;  -46.300; -505.000; -554.000
304.429;   78.100;  102.000;   74.000
304.567; -223.100; -908.000; -893.000
304.705;  -94.200; -408.000; -515.000
304.842;  129.700; -616.000; -540.000
304.980;  149.900;  215.000;   35.000
305.118;   73.100; -367.000; -365.000
305.255; -179.000; -945.000; -927.000
305.393;  141.600;  178.000;  239.000
305.531; -186.300;-1173.000; -956.000
305.668; -122.700; -663.000; -582.000
305.806;  146.800; -358.000; -439.000
305.943;  140.400; -629.000; -637.000
306.081;   93.800; -378.000; -267.000
306.219; -179.000; -863.000; -748.000
306.356;   55.200;  158.000;   27.000
306.494;  305.200;  981.000;  761.000
306.631;   48.200;  -11.000;  -55.000
306.769;   51.700; -613.000; -485.000
306.906;    7.800; -284.000; -258.000
307.044;  -83.000; -473.000; -488.000
307.181;  -81.400; -410.000; -332.000
307.319;   56.400;  112.000;   87.000
307.456; -304.300;-1191.000;-1153.000
307.594; -144.600; -980.000; -727.000
307.731;   -9.700; -371.000; -164.000
307.868;   29.200;  -15.000;   20.000
308.006; -230.000; -961.000; -847.000
308.143;  -94.700; -618.000; -330.000
308.281;  399.500;  -37.000; -254.000
308.418;   26.300; -748.000; -640.000
308.555; -111.200; -400.000; -250.000
308.693; -118.100; -577.000; -573.000
308.830; -163.400; -712.000; -657.000
308.967;   36.100; -215.000;  -95.000
309.105;  -51.100; -507.000; -396.000
309.242;  114.800; -468.000; -367.000
309.379;  732.200; -577.000; -655.000
309.517;  -80.400; -936.000; -948.000
309.654; -181.200; -910.000; -734.000
309.791;  -69.100; -662.000; -580.000
309.928; -202.200; -977.000; -914.000
310.065;  367.400;  819.000;  697.000
310.203;  -33.900; -825.000; -850.000
310.340;   20.600; -465.000; -321.000
310.477; -121.700; -412.000; -516.000
310.614; -107.800; -383.000; -473.000
310.751; -103.300; -427.000; -518.000
310.889;  -16.900;    1.000;   11.000
311.026; -261.200;-1161.000; -939.000
311.163;  -42.800; -386.000; -380.000
311.300; -120.700; -512.000; -479.000
311.437; -100.100; -658.000; -619.000
311.574; -269.900;-1226.000; -985.000
311.711;  -83.400; -595.000; -433.000
311.848;  -40.100; -380.000; -388.000
311.985;   85.100;  270.000;   93.000
312.122; -179.400; -932.000; -762.000
312.259; -182.000; -941.000; -994.000
312.396; -133.100; -508.000; -551.000
312.533; -136.500; -812.000; -790.000
312.670; -222.600;-1070.000; -898.000
312.807;  -33.700; -352.000; -367.000
312.944; -120.600; -513.000; -611.000
313.081;  -48.200; -150.000; -415.000
313.218; -190.400;-1111.000; -867.000
313.355;   63.400; -531.000; -449.000
313.492;   54.900; -455.000; -292.000
313.629;  327.300;  815.000;  735.000
313.766; -284.500;-1176.000;-1008.000
313.902;   -3.000; -186.000;   21.000
314.039;  -73.600; -372.000; -289.000
314.176;  107.500;  286.000;  192.000
314.313; -136.400; -569.000; -473.000
314.450; -127.500; -788.000; -684.000
314.587; -101.500; -468.000; -480.000
314.723;   49.500;  -78.000;  130.000
314.860;   92.800;  318.000;  332.000
314.997;   79.000;  223.000;  142.000
315.134;  -28.800; -385.000; -368.000
315.270;  -22.100; -480.000; -496.000
315.407; -211.800;-1094.000; -967.000
315.544;  -71.700; -657.000; -538.000
315.681; -134.600; -681.000; -565.000
315.817;  108.800; -133.000; -176.000
315.954;   74.700; -613.000; -392.000
316.091; -239.800;-1045.000;-1023.000
316.227;   -6.500;  -71.000; -179.000
316.364;   16.800;   23.000;    6.000
316.500;  -48.700; -113.000; -300.000
316.637;  -49.700; -181.000; -302.000
316.774; -154.700; -625.000; -358.000
316.910; -150.700; -598.000; -629.000
317.047; -121.100; -487.000; -351.000
317.183;  -40.200; -435.000; -566.000
317.320;  -20.200; -367.000; -321.000
317.456;  -78.500; -733.000; -805.000
317.593; -151.800; -598.000; -641.000
317.729;   31.100;  168.000;  -67.000
317.866; -390.900;-1434.000;-1285.000
318.002; -160.300; -708.000; -948.000
318.139; -173.700; -883.000; -867.000
318.275; -203.500;-1003.000; -738.000
318.412;  -76.800; -517.000; -336.000
318.548;  -56.300; -751.000; -720.000
318.685; -171.500; -985.000; -888.000
318.821; -173.600; -762.000; -735.000
318.957;    7.000;   34.000;  -23.000
319.094;  137.200;  297.000;  154.000
319.230; -125.100; -756.000; -742.000
319.367;  233.300; -471.000; -520.000
319.503;  126.500; -538.000; -436.000
319.639; -151.200; -877.000; -793.000
319.775; -106.100; -750.000; -685.000
319.912;  -54.800; -424.000; -519.000
320.048; -168.000;-1184.000;-1184.000
320.184;  220.900;   59.000;   70.000
320.321;  -93.700; -497.000; -467.000
320.457;  179.800;  475.000;  662.000
320.593;  -69.200; -375.000; -382.000
320.729; -176.900; -732.000; -734.000
320.866; -101.200; -577.000; -635.000
321.002; -107.100; -759.000; -809.000
321.138;   -6.400; -135.000; -211.000
321.274;  178.800; -148.000; -115.000
321.410;  -63.900; -585.000; -353.000
321.546;  -87.000;-1011.000; -911.000
321.683;  137.800;  400.000;  185.000
321.819;   72.800;  -48.000; -117.000
321.955; -196.900; -743.000; -722.000
322.091;  -71.100; -585.000; -540.000
322.227;  -11.900; -382.000; -202.000
322.363;   -0.100; -320.000; -215.000
322.499;  -62.100; -343.000; -331.000
322.635;  349.900;  636.000;  443.000
322.771;   95.400; -139.000;   12.000
322.907;  194.700;  129.000;  327.000
323.043;    4.800; -115.000; -206.000
323.179;  -16.000; -394.000; -363.000
323.315;   42.100; -401.000; -371.000
323.451;  192.000; -328.000; -236.000
323.587;  138.700;  -60.000;  -77.000
323.723;   73.800; -682.000; -601.000
323.859;  -26.600; -258.000;  -76.000
323.995;  -25.500; -467.000; -409.000
324.131; -214.100; -967.000; -892.000
324.267;  -46.800; -254.000; -276.000
324.402; -225.600; -960.000; -983.000
324.538;   26.800; -279.000; -104.000
324.674;   98.000;  164.000;   77.000
324.810;  333.300;  226.000;  308.000
324.946;   57.900; -810.000; -658.000
325.082; -128.900; -568.000; -475.000
325.217;    8.900;  -62.000;   16.000
325.353; -168.000; -764.000; -659.000
325.489; -179.000; -540.000; -506.000
325.625; -109.400; -579.000; -525.000
325.760;  192.500;  517.000;  376.000
325.896;  -25.400; -515.000; -702.000
326.032;  -82.500; -403.000; -352.000
326.168; -103.400; -462.000; -369.000
326.303;  -69.800; -352.000; -461.000
326.439;   -1.400; -336.000; -276.000
326.575;   44.700; -190.000;  -29.000
326.710;   14.300; -156.000;  -30.000
326.846;  -11.200;  146.000;  103.000
326.982; -140.400; -530.000; -548.000
327.117; -123.500; -481.000; -442.000
327.253; -153.400; -745.000; -742.000
327.388; -304.300;-1137.000;-1153.000
327.524;  -43.300; -811.000; -578.000
327.659;    4.000;  -58.000;  -22.000
327.795;    9.700;   69.000;   45.000
327.931; -170.100; -723.000; -499.000
328.066;  -10.300; -417.000; -276.000
328.202;   49.000;   12.000; -129.000
328.337;  293.100;  957.000;  713.000
328.473;   11.500;  -12.000;  -74.000
328.608;   34.700; -256.000; -267.000
328.743; -151.900; -799.000; -664.000
328.879;   85.800;  214.000;  114.000
329.014; -106.100; -102.000; -122.000
329.150;  -96.300; -358.000; -483.000
329.285;  -91.200; -465.000; -466.000
329.421;  -75.900; -548.000; -246.000
329.556;    9.500;  -36.000;   85.000
329.691; -144.700; -633.000; -615.000
329.827; -124.200; -626.000; -480.000
329.962;  -22.900;  131.000; -301.000
330.097; -150.000; -673.000; -585.000
330.233;  -55.400; -410.000; -223.000
330.368; -214.700; -839.000; -628.000
330.503;   20.000;    3.000;   98.000
330.638;   14.000;  -93.000; -125.000
330.774;  -91.800; -609.000; -530.000
330.909;  -62.600; -434.000; -244.000
331.044; -142.700; -714.000; -708.000
331.179; -345.300;-1217.000;-1109.000
331.315;   54.800;   77.000;   20.000
331.450;  106.200;  157.000;  285.000
331.585; -138.300; -805.000; -706.000
331.720; -117.200; -510.000; -460.000
331.855;   17.500;  -35.000; -102.000
331.990;  520.000;   62.000;  138.000
332.126;  282.400; -110.000;   71.000
332.261;   -7.800; -379.000; -265.000
332.396;   -0.200; -135.000; -242.000
332.531; -183.600;-1074.000;-1031.000
332.666;   84.100; -519.000; -363.000
332.801; -175.500; -726.000; -807.000
332.936;  -13.800; -192.000; -122.000
333.071; -251.700; -870.000; -817.000
333.206;   66.800;  307.000;  379.000
333.341;   81.000;  344.000;  418.000
333.476; -139.600; -627.000; -623.000
333.611;  -39.200; -251.000; -173.000
333.746;  -55.300; -381.000; -464.000
333.881; -213.200; -973.000; -935.000
334.016; -240.900; -936.000; -917.000
334.151; -233.700; -746.000; -702.000
334.286;  116.600;  152.000;  186.000
334.421;  -24.500; -125.000; -178.000
334.556; -131.400; -611.000; -567.000
334.690; -147.200; -631.000; -577.000
334.825;  138.100;  381.000;   83.000
334.960;  -73.100; -285.000; -413.000
335.095;   40.600;  135.000;  -91.000
335.230; -185.500; -722.000; -738.000
335.365; -244.600;-1084.000; -990.000
335.499; -240.800;-1108.000;-1037.000
335.634;   78.300;    9.000;  534.000
335.769; -182.300; -755.000; -720.000
335.904;  -84.200; -603.000; -561.000
336.038;  -82.600; -735.000; -657.000
336.173; -216.100;-1206.000;-1194.000
336.308;   37.000; -116.000; -189.000
336.443;   76.900; -544.000; -634.000
336.577; -158.200; -936.000; -787.000
336.712;  127.900;   -4.000;  -12.000
336.847; -100.400; -724.000; -607.000
336.981;  157.100; -272.000; -208.000
337.116;  543.200;  615.000;  501.000
337.250;  261.200; -434.000; -421.000
337.385;  485.200; -297.000; -208.000
337.520;  208.300; -632.000; -603.000
337.654;  -28.600; -215.000; -126.000
337.789; -234.600; -989.000; -933.000
337.923;  -13.700; -104.000; -205.000
338.058; -136.800; -673.000; -738.000
338.192;  -38.800; -611.000; -488.000
338.327;   58.900;  -18.000; -155.000
338.461;  -57.800; -299.000; -469.000
338.596; -168.200; -780.000; -638.000
338.730; -172.100; -767.000; -803.000
338.865;  235.600;  -46.000; -140.000
338.999;  -76.300; -846.000; -702.000
339.134;  -19.600; -634.000; -536.000
339.268;   42.000; -741.000; -603.000
339.403;  688.500; -740.000; -775.000
339.537;  198.700; -894.000; -820.000
339.671; -175.700; -829.000; -813.000
339.806;  -70.300; -556.000; -512.000
339.940;   73.500; -261.000; -235.000
340.074; -153.500; -685.000; -510.000
340.209;  -83.600; -351.000; -230.000
340.343; -128.900; -517.000; -573.000
340.477;  336.900;  998.000; 1036.000
340.612;  -92.200;-1033.000; -900.000
340.746;  270.400; -199.000; -243.000
340.880; -147.600; -924.000; -785.000
341.014;    8.000;  -45.000; -154.000
341.149; -206.400; -756.000; -718.000
341.283; -210.600; -839.000; -754.000
341.417; -151.200;-1124.000; -938.000
341.551;  212.800; -768.000; -708.000
341.685;  -56.600; -633.000; -611.000
341.820;  -68.000; -562.000; -493.000
341.954;  -56.100; -218.000; -349.000
342.088; -279.100;-1102.000;-1019.000
342.222;  109.000;  565.000;  618.000
342.356; -103.000; -395.000; -335.000
342.490; -195.700; -880.000; -841.000
342.624;  -68.100; -339.000; -242.000
342.758;   21.000; -364.000; -312.000
342.892; -105.400; -710.000; -585.000
343.026;  -44.800;  -58.000; -116.000
343.160;  -87.900; -426.000; -376.000
343.294; -125.000; -474.000; -337.000
343.428;  -17.000; -488.000; -448.000
343.562;   27.000; -172.000;  -23.000
343.696;  -16.100; -385.000; -314.000
343.830;  -15.100; -362.000; -356.000
343.964;   61.400; -231.000; -168.000
344.098; 1593.200;  199.000;   70.000
344.232; 1353.400; -266.000; -127.000
344.366;  172.200; -567.000; -453.000
344.500;  124.200; -665.000; -744.000
344.634;   60.600; -324.000; -164.000
344.768;   12.600; -531.000; -341.000
344.902;   50.500;  278.000;  256.000
345.035; -125.500; -556.000; -496.000
345.169; -232.400; -933.000; -656.000
345.303;  -30.300; -308.000; -482.000
345.437; -113.600; -826.000; -717.000
345.571;  -84.300; -675.000; -594.000
345.704;  -82.600; -309.000; -532.000
345.838;   36.300; -331.000; -284.000
345.972;  -31.100; -543.000; -495.000
346.106;  339.700; -179.000; -190.000
346.239;  806.200; -312.000; -243.000
346.373;   55.400; -343.000; -302.000
346.507; -240.500; -950.000; -962.000
346.640;  297.300;  -30.000;   13.000
346.774;  -74.900; -650.000; -797.000
346.908;   31.800; -138.000;  -11.000
347.041; -162.700; -646.000; -593.000
347.175;   82.300;  259.000;   27.000
347.309; -110.600; -698.000; -628.000
347.442; -171.800; -883.000; -732.000
347.576;  527.400;  670.000;  668.000
347.709;  359.000; -123.000;  -52.000
347.843; -171.900; -933.000; -825.000
347.976;  119.300;  235.000;  294.000
348.110; -343.800;-1268.000;-1186.000
348.243; -190.000; -679.000; -772.000
348.377;   32.500;  -26.000;   60.000
348.510;  135.700;  403.000;  540.000
348.644;  -44.700;  -37.000; -159.000
348.777;   54.700;  180.000;  191.000
348.911;  -42.400; -142.000; -112.000
349.044;  307.900;  471.000;  448.000
349.178;  252.300;-1069.000;-1006.000
349.311;  260.700;  141.000;  255.000
349.444;   28.400; -927.000; -813.000
349.578;    7.700; -347.000; -200.000
349.711; -187.100; -959.000; -862.000
349.845;  -25.500; -661.000; -591.000
349.978; -255.400;-1224.000;-1137.000
350.111; -128.400; -546.000; -612.000
350.244; -130.200; -596.000; -700.000
350.378;   31.500; -392.000; -393.000
350.511;  -89.300; -393.000; -426.000
350.644; -178.400; -808.000; -806.000
350.778;   61.500;  168.000;  104.000
350.911;   57.300;  134.000;  140.000
351.044; -130.800; -685.000; -615.000
351.177;  -17.500; -321.000; -281.000
351.310;  -16.400;    3.000; -131.000
351.444; -178.100; -888.000; -788.000
351.577;  269.900;  140.000;   90.000
351.710;  244.000;  593.000;  417.000
351.843;  -38.900; -165.000;  -77.000
351.976;   39.600;  149.000;  -79.000
352.109; -176.800; -621.000; -612.000
352.242;  -43.900; -464.000; -419.000
352.376;  -83.900; -580.000; -636.000
352.509;  322.600; -437.000; -356.000
352.642;   42.200; -654.000; -604.000
352.775;  113.100; -141.000;  -98.000
352.908; -219.100; -933.000; -904.000
353.041; -178.100; -814.000; -824.000
353.174;  -89.500; -551.000; -424.000
353.307; -173.900; -753.000; -764.000
353.440;  174.900;  541.000;  453.000
353.573; -175.200; -957.000;-1008.000
353.706;  -67.400; -384.000; -558.000
353.839;  -13.000; -264.000; -220.000
353.971; -156.000; -657.000; -512.000
354.104; -150.800; -896.000; -835.000
354.237;  -51.300; -627.000; -662.000
354.370; -143.500; -846.000; -879.000
354.503; -357.000;-1231.000;-1308.000
354.636;  -36.600; -529.000; -348.000
354.769; -241.800; -937.000; -860.000
354.902;   40.100; -230.000; -139.000
355.034;   12.800; -164.000; -220.000
355.167;  -15.600; -262.000; -162.000
355.300; -188.700;-1061.000; -880.000
355.433; 1843.200;  -71.000;  -14.000
355.565; 2985.900; -402.000; -384.000
355.698;  742.200; -356.000; -296.000
355.831;  -14.500; -882.000; -801.000
355.964;  171.100; -285.000; -170.000
356.096; -149.600; -856.000; -843.000
356.229;   56.200; -523.000; -530.000
356.362;  607.200; -373.000; -266.000
356.494; 1165.300; -229.000; -162.000
356.627;  910.500;  269.000;  377.000
356.760; 1283.300;  120.000;   53.000
356.892; 1861.000; -286.000; -601.000
357.025; 1196.000;  403.000;  389.000
357.157; 1075.900; -167.000; -179.000
357.290; 1339.900; -856.000; -713.000
357.423;  388.200; -667.000; -556.000
357.555;  235.900; -217.000; -228.000
357.688;  220.900; -483.000; -364.000
357.820;  743.300; -870.000; -877.000
357.953; 6220.200; -563.000; -589.000
358.085; 1316.600; -632.000; -612.000
358.218; 1933.200;-1131.000; -932.000
358.350;  394.200;  -58.000;  312.000
358.483; -241.300;-1300.000;-1187.000
358.615;  -22.700;-1182.000;-1078.000
358.747; -111.300;-1187.000;-1058.000
358.880;   20.000; -810.000; -744.000
359.012;    0.400; -376.000; -202.000
359.145;  -28.300; -480.000; -511.000
359.277;   63.700; -962.000; -913.000
359.409; 5207.500;  536.000;  231.000
359.542; 1303.500; -738.000; -688.000
359.674;  162.100;   46.000;   13.000
359.806;  -75.100; -565.000; -438.000
359.939;  -37.100; -617.000; -516.000
360.071;  -13.200; -583.000; -579.000
360.203;  -16.900; -411.000; -364.000
360.335;  129.000;  164.000;  -16.000
360.468;  344.400; -249.000; -307.000
360.600; 4144.600; -547.000; -454.000
360.732; 5363.100; -546.000; -423.000
360.864;  685.100;-1216.000;-1044.000
360.996;  453.700; -516.000; -554.000
361.129;   93.900; -389.000; -598.000
361.261;  113.000;  110.000; -113.000
361.393;  -25.300; -252.000; -214.000
361.525;   96.500;   94.000;  244.000
361.657;  -99.900; -821.000; -703.000
361.789;   74.900; -139.000; -155.000
361.921;  406.500; -642.000; -593.000
362.053;  505.000;  524.000;  541.000
362.185;  104.500;  288.000;   72.000
362.318; -116.900; -709.000; -705.000
362.450;  252.400;  294.000;  444.000
362.582;  164.600; -913.000; -870.000
362.714;  -10.400; -353.000; -332.000
362.846; -135.200; -606.000; -490.000
362.978; -251.500; -941.000; -811.000
363.109;  128.200; -161.000; -260.000
363.241;  840.100; -739.000; -749.000
363.373;  858.600; -649.000; -564.000
363.505; 1365.500; -186.000;  -91.000
363.637;  338.500; -787.000; -601.000
363.769; -203.700;-1067.000;-1080.000
363.901;  -85.900; -596.000; -654.000
364.033; -222.400;-1103.000;-1062.000
364.165;   67.700; -283.000; -283.000
364.296;  217.600; -316.000; -177.000
364.428;  172.200;-1344.000;-1220.000
364.560; -100.900; -679.000; -661.000
364.692;  -68.200; -738.000; -835.000
364.824;  489.200; -588.000; -456.000
364.955;  839.100; -402.000; -564.000
365.087; 1788.000;-1097.000; -852.000
365.219;   73.800; -686.000; -816.000
365.351;  -97.400; -526.000; -572.000
365.482;  153.700;  300.000;  240.000
365.614;  -44.900; -402.000; -314.000
365.746; -146.400; -729.000; -752.000
365.877; -157.900; -706.000; -672.000
366.009;  528.200;  -35.000;  -62.000
366.141; -155.100;-1249.000;-1134.000
366.272; -160.300; -803.000; -719.000
366.404; -198.700;-1005.000; -874.000
366.535;   39.600; -139.000;  -12.000
366.667; -157.900; -644.000; -649.000
366.799;  111.800;  353.000;  203.000
366.930; -212.500; -862.000; -996.000
367.062;  294.200; -639.000; -613.000
367.193;  323.900; -872.000; -842.000
367.325;  -80.400; -580.000; -684.000
367.456;  142.800; -246.000;   31.000
367.588;  332.800; -371.000; -318.000
367.719;   75.800;  -44.000;  -45.000
367.851;   12.400; -222.000; -241.000
367.982;  -71.000; -875.000; -732.000
368.113;  182.800; -475.000; -358.000
368.245; -187.700; -960.000; -841.000
368.376;   -6.900; -254.000; -302.000
368.508;  -25.100; -188.000; -263.000
368.639; -263.400;-1166.000;-1034.000
368.770;  -31.200; -670.000; -589.000
368.902;  -87.500; -836.000; -926.000
369.033; -190.100; -906.000; -855.000
369.164;  -51.800; -720.000; -653.000
369.296; -155.300; -452.000; -601.000
369.427;   35.100; -209.000; -144.000
369.558;  -69.600; -593.000; -377.000
369.689; -140.900; -721.000; -569.000
369.821; -241.300; -951.000; -845.000
369.952;   20.300;   42.000; -108.000
370.083;  -51.500; -229.000; -108.000
370.214; -123.500; -735.000; -650.000
370.345;   22.800;   65.000;   81.000
370.477; -144.500; -810.000; -790.000
370.608;  444.200; -328.000; -264.000
370.739;  -97.000;-1233.000;-1292.000
370.870;  -67.200;-1102.000; -923.000
371.001;  152.600; -378.000; -467.000
371.132;  -90.100; -754.000; -735.000
371.263;  -26.100;  -42.000; -148.000
371.394; -221.900; -841.000; -748.000
371.525;  101.300;  345.000;  225.000
371.657; -142.900; -808.000; -670.000
371.788;  183.400;  103.000;  199.000
371.919;  336.300; -384.000; -304.000
372.050; 6170.400;  -91.000; -156.000
372.181; 1751.000; -188.000; -294.000
372.311;  628.400;   42.000; -127.000
372.442;   55.000; -457.000; -451.000
372.573;    8.400; -444.000; -340.000
372.704; -213.000;-1008.000; -980.000
372.835;  179.500; -228.000; -289.000
372.966;  -85.800; -646.000; -554.000
373.097; -118.200; -575.000; -711.000
373.228;  -56.900; -717.000; -542.000
373.359;  237.400; -824.000; -536.000
373.490; 1599.300; -881.000; -727.000
373.620; 1965.200;-1001.000; -803.000
373.751; 3028.100; -332.000; -396.000
373.882; 1254.400; -663.000; -733.000
374.013;  160.900; -449.000; -262.000
374.143;  -66.900; -581.000; -659.000
374.274; -163.500; -987.000; -908.000
374.405;  368.200; -388.000; -276.000
374.536;  775.000; -526.000; -387.000
374.666; 1947.700; -759.000; -807.000
374.797;  387.400; -817.000; -868.000
374.928; 1463.100; -710.000; -560.000
375.058; 1525.600; -535.000; -500.000
375.189;  156.500;  -59.000;  -93.000
375.320; -175.800; -928.000;-1034.000
375.450;  -15.400; -625.000; -616.000
375.581;  -52.800; -526.000; -436.000
375.712;  -34.900; -574.000; -250.000
375.842;  571.400; -438.000; -415.000
375.973;  398.200; -554.000; -513.000
376.103;  -43.000; -665.000; -648.000
376.234; -119.400; -531.000; -552.000
376.364; -108.500; -944.000; -867.000
376.495;  664.700;  925.000;  529.000
376.625;    3.100; -472.000; -485.000
376.756;   99.500; -709.000; -678.000
376.886; -121.700;-1178.000;-1026.000
377.017;  152.000;-1048.000;-1061.000
377.147;  665.700; -786.000; -782.000
377.278;  185.100;  174.000;  228.000
377.408; -196.700; -801.000; -815.000
377.538; -164.600; -707.000; -693.000
377.669;  -98.800; -537.000; -613.000
377.799; -152.100; -645.000; -635.000
377.929;  -83.900; -610.000; -428.000
378.060; -204.900; -781.000; -847.000
378.190;  -90.700; -726.000; -531.000
378.320;  -61.200; -401.000; -406.000
378.451;   15.300; -131.000;  -22.000
378.581;   31.700;  -67.000; -110.000
378.711;  365.800; 1035.000;  866.000
378.841;   -3.800; -533.000; -675.000
378.972; -135.900; -871.000; -751.000
379.102;    1.400; -652.000; -579.000
379.232;  -19.700; -126.000;  -73.000
379.362; -179.700;-1001.000; -885.000
379.492;   45.500; -373.000; -424.000
379.623;  235.000;    0.000;  111.000
379.753; -183.600;-1107.000; -974.000
379.883;  413.900;   59.000;  156.000
380.013;   12.200;-1081.000;-1017.000
380.143; -179.400;-1097.000;-1056.000
380.273; -162.700; -985.000; -861.000
380.403;   34.700; -344.000; -257.000
380.533;  -70.300; -651.000; -664.000
380.663;  180.200;  173.000;  128.000
380.793; -194.100;-1027.000;-1074.000
380.923;   18.300; -103.000;  -34.000
381.053; -153.200; -613.000; -623.000
381.183;    1.500; -106.000; -248.000
381.313;   80.000; -656.000; -470.000
381.443;  105.600; -692.000; -473.000
381.573;  413.000; -402.000; -409.000
381.703;  479.500;-1249.000;-1095.000
381.833; -261.200;-1454.000;-1336.000
381.963;  252.400; -134.000;  -87.000
382.093; 2427.500; -925.000; -909.000
382.223;  725.000; -713.000; -602.000
382.353;   -9.300; -801.000; -608.000
382.482;  610.500;-1091.000; -964.000
382.612; 1288.500; -872.000; -644.000
382.742;  714.400; -695.000; -622.000
382.872;  471.400; -565.000; -551.000
383.002;  152.200;  347.000; -132.000
383.131;   -3.800; -226.000; -160.000
383.261;  -47.900; -706.000; -768.000
383.391;  597.700; -552.000; -377.000
383.521; 6330.900;  451.000;  263.000
383.650; 1382.800; -947.000; -904.000
383.780;    0.000; -783.000; -656.000
383.910;  289.400;  880.000;  802.000
384.039;   45.800; -794.000; -656.000
384.169;  354.100;-1205.000;-1017.000
384.299;   10.200; -650.000; -662.000
384.428; -136.500; -764.000; -680.000
384.558;  -40.900; -308.000; -275.000
384.687;  -59.600; -414.000; -334.000
384.817;   91.600;   75.000;   -2.000
384.947;   94.200; -234.000; -141.000
385.076;  614.200;  982.000;  912.000
385.206;  256.300;  369.000;  480.000
385.335;   -9.600; -549.000; -417.000
385.465; -124.100; -655.000; -663.000
385.594;  278.100;  -53.000;  -44.000
385.724;  712.700; -868.000; -838.000
385.853;  232.300; -296.000; -270.000
385.982; 2405.800; -743.000; -787.000
386.112; 3527.700;-1052.000; -871.000
386.241;  256.500; -307.000; -312.000
386.371;  125.300; -174.000;  -87.000
386.500;   32.100; -825.000; -789.000
386.629;   67.300; -874.000; -817.000
386.759;  178.300;  -43.000;   68.000
386.888;   38.600; -170.000; -250.000
387.017;  -95.500; -648.000; -620.000
387.147; -128.400; -771.000; -798.000
387.276;    4.100; -410.000; -397.000
387.405;   67.600; -398.000; -342.000
387.535;  -50.200; -452.000; -361.000
387.664;  -55.100; -692.000; -620.000
387.793;  193.100; -198.000; -113.000
387.922;  965.400;  255.000;  200.000
388.052;   26.100; -576.000; -423.000
388.181;   45.600; -342.000; -472.000
388.310;  -20.900; -889.000; -710.000
388.439;  -90.800; -749.000; -742.000
388.568;  388.100;  365.000;  244.000
388.697; 1748.200; -756.000; -653.000
388.826;  312.100; -768.000; -666.000
388.956;  140.600; -285.000; -307.000
389.085;   -2.400; -347.000; -287.000
389.214; -161.700; -842.000; -872.000
389.343;  -74.400; -645.000; -413.000
389.472;  817.400;  126.000;  149.000
389.601; 1005.000;   91.000;    0.000
389.730;   67.500; -568.000; -687.000
389.859;  177.600;  226.000;   46.000
389.988;  346.700; -423.000; -408.000
390.117;  285.300; -168.000; -146.000
390.246;   14.300; -331.000; -320.000
390.375;  208.600; -673.000; -626.000
390.504;  -57.200; -703.000; -621.000
390.633; -136.100; -672.000; -726.000
390.761; -101.200; -732.000; -645.000
390.890;   73.800;   -4.000; -130.000
391.019;   -4.100; -421.000; -441.000
391.148; -224.500; -826.000; -855.000
391.277;  -93.100; -576.000; -493.000
391.406;  -81.900; -821.000; -805.000
391.534;  113.500;  574.000; -301.000
391.663;  -99.300; -583.000; -645.000
391.792; -120.300; -673.000; -701.000
391.921;  195.200;   -3.000;   15.000
392.050;  346.600; -287.000; -228.000
392.178;  -67.800;-1206.000;-1061.000
392.307;  273.000; -758.000; -712.000
392.436;  114.100; -427.000; -641.000
392.564;   97.900;  166.000;   -6.000
392.693; -179.600; -860.000; -682.000
392.822;  393.900; -529.000; -534.000
392.950;  156.000; -880.000; -714.000
393.079;  598.100; -188.000; -328.000
393.208;   34.900; -488.000; -511.000
393.336;   28.700; -170.000; -145.000
393.465;  -69.400; -317.000; -199.000
393.593;   67.000;   62.000;   79.000
393.722; -240.800;-1121.000; -916.000
393.850;   -2.800; -188.000;  -61.000
393.979; -279.300; -926.000; -805.000
394.107;  -69.700; -517.000; -537.000
394.236;  -23.200; -570.000; -507.000
394.364;  534.600;  383.000;  206.000
394.493;  822.200; -911.000; -767.000
394.621;   -2.600; -955.000; -916.000
394.750; 1512.700; -873.000; -923.000
394.878; 5979.500; -247.000; -149.000
395.007; 7638.300; -721.000; -807.000
395.135;  608.600; -790.000; -721.000
395.263; -148.100;-1038.000;-1040.000
395.392;   44.900;  -25.000; -107.000
395.520; -163.200; -818.000; -679.000
395.648; -151.600; -865.000; -915.000
395.777;   19.500; -366.000; -405.000
395.905;  -47.300; -449.000; -564.000
396.033;  113.600;  217.000;  172.000
396.162; 1343.700; -399.000; -453.000
396.290; 1141.500;  -17.000;   -2.000
396.418;  190.300; -555.000; -514.000
396.546; -140.900; -571.000; -466.000
396.674; -176.800; -850.000; -878.000
396.803;   44.700;  -72.000;  -23.000
396.931;  186.700; -179.000; -199.000
397.059;   27.200;-1026.000; -989.000
397.187; -175.300;-1026.000; -975.000
397.315; -251.100; -884.000; -649.000
397.443; -130.800; -592.000; -443.000
397.572; -142.900; -578.000; -424.000
397.700;   16.700; -607.000; -614.000
397.828;  124.900;  120.000;  -90.000
397.956;  -51.100; -508.000; -478.000
398.084;  -99.000; -767.000; -626.000
398.212;  104.600;  137.000;  124.000
398.340;   68.000;  -56.000;  159.000
398.468;  100.100; -390.000; -169.000
398.596; -244.000; -993.000; -953.000
398.724; -190.100; -762.000; -767.000
398.852; -282.000;-1024.000; -976.000
398.980;  -78.400; -560.000; -560.000
399.108; -108.000; -982.000; -735.000
399.236;  102.300;   13.000;    8.000
399.363;  100.600;  222.000;  196.000
399.491; -103.100; -404.000; -398.000
399.619; -229.400; -829.000; -800.000
399.747; -194.200; -859.000; -771.000
399.875;  167.600;  220.000;  234.000
400.003;  -12.000; -359.000; -284.000
400.130; -113.400; -421.000; -341.000
400.258;    1.400;  -83.000;   38.000
400.386;  -67.600; -352.000; -168.000
400.514;  -16.400; -526.000; -587.000
400.641; -140.700; -928.000; -802.000
400.769; -226.000; -979.000; -888.000
400.897; -157.900; -838.000; -793.000
401.025;   32.300; -166.000; -152.000
401.152;   47.300;  220.000;   38.000
401.280;  -86.500; -430.000; -429.000
401.408; -198.600; -712.000; -576.000
401.535; -160.100; -735.000; -758.000
401.663; -341.500;-1134.000;-1054.000
401.790;  -95.400; -514.000; -525.000
401.918;  144.700;  436.000;  405.000
402.046;   21.700;  134.000;  122.000
402.173;  -10.200;  -18.000;    7.000
402.301;  -84.300; -519.000; -397.000
402.428;  133.900;  528.000;  383.000
402.556; -245.200;-1188.000; -913.000
402.683;    8.500;  -20.000;   -1.000
402.811;   25.600;  -37.000; -206.000
402.938;   31.200;   20.000;   27.000
403.066;  331.600; -574.000; -558.000
403.193;  572.600;  299.000;  239.000
403.321;  443.400; -396.000; -574.000
403.448;  513.100;   83.000;   27.000
403.575;  277.400;  -90.000;  -46.000
403.703; -131.500; -732.000; -557.000
403.830;  -84.000; -531.000; -496.000
403.957; -245.100;-1117.000;-1023.000
404.085;   51.800;  -61.000; -172.000
404.212;  249.100;  -50.000;   63.000
404.339;  611.000; -566.000; -306.000
404.467;11708.400; -612.000; -524.000
404.594; 7057.800; -287.000; -227.000
404.721; 1579.600; -869.000; -764.000
404.848;  219.800; -113.000; -202.000
404.976; -184.000; -856.000; -783.000
405.103;   36.000;  -14.000;  -82.000
405.230;   61.400;  190.000;  226.000
405.357;   83.400;  117.000;   44.000
405.484;  598.200;  -49.000;    5.000
405.612;  128.500; -548.000; -563.000
405.739;  -79.200; -488.000; -243.000
405.866;  231.900;  669.000;  385.000
405.993;  -12.400; -398.000; -102.000
406.120; -201.400; -801.000; -887.000
406.247;  -59.300; -323.000; -342.000
406.374;  860.600;  540.000;  629.000
406.501;  191.700; -632.000; -702.000
406.628; -128.500; -621.000; -589.000
406.755; -161.500; -803.000; -620.000
406.882;  -54.300; -228.000; -277.000
407.009; -140.500; -719.000; -628.000
407.136;  163.700; -480.000; -401.000
407.263;  229.200; -939.000; -829.000
407.390; -109.900; -692.000; -614.000
407.517; -281.800;-1139.000;-1187.000
407.644;  -53.200; -332.000; -256.000
407.771; -106.400; -249.000; -287.000
407.898;  116.800;  168.000;  328.000
408.025;  -83.600; -421.000; -313.000
408.151;   55.600;   82.000;  153.000
408.278;  -96.000; -267.000; -216.000
408.405; -201.500; -931.000; -899.000
408.532; -140.800; -549.000; -542.000
408.659; -159.900; -677.000; -648.000
408.785; -358.900;-1298.000;-1170.000
408.912;  -69.400; -412.000; -296.000
409.039; -167.400; -610.000; -686.000
409.166; -137.600; -591.000; -555.000
409.292; -145.300; -571.000; -534.000
409.419; -183.800; -665.000; -649.000
409.546; -133.900; -431.000; -192.000
409.672; -188.000; -713.000; -545.000
409.799;   12.200;  -36.000;   34.000
409.926;   -8.000; -180.000; -179.000
410.052; -299.500;-1127.000;-1091.000
410.179;  -79.000; -368.000; -392.000
410.305; -117.700; -375.000; -493.000
410.432;  -51.400; -220.000; -333.000
410.558; -140.900; -305.000; -380.000
410.685; -116.200; -688.000; -431.000
410.812; -127.200; -409.000; -588.000
410.938; -219.200; -964.000; -808.000
411.065; -156.200; -671.000; -645.000
411.191;   22.500; -189.000; -174.000
411.317; -222.200; -823.000; -742.000
411.444;  -95.700; -317.000; -246.000
411.570;  -87.200; -339.000; -294.000
411.697; -193.400; -758.000; -752.000
411.823; -293.900; -989.000; -999.000
411.949;  -25.700;  -56.000;   17.000
412.076; -200.700; -539.000; -519.000
412.202; -183.800; -758.000; -757.000
412.329; -233.500; -798.000; -752.000
412.455; -166.900; -821.000; -657.000
412.581;   -4.800;  -15.000;  172.000
412.707;  -85.500; -540.000; -457.000
412.834;   77.100;  156.000;  219.000
412.960; -122.800; -785.000; -784.000
413.086; -157.500; -743.000; -701.000
413.212;  381.900;  604.000;  578.000
413.339;  -68.900; -685.000; -701.000
413.465;   38.100; -364.000; -310.000
413.591; -137.400; -757.000; -474.000
413.717;  -56.100; -358.000; -366.000
413.843; -224.800; -839.000; -861.000
413.969;  -67.900;  -47.000; -292.000
414.096; -123.600; -679.000; -679.000
414.222;   46.300;  -33.000;   85.000
414.348;  -28.100; -652.000; -385.000
414.474;  221.800;   38.000;  -52.000
414.600;   14.000; -126.000; -144.000
414.726;   44.700;  -96.000;  -55.000
414.852;  -76.100; -365.000; -342.000
414.978;  104.700;  104.000;  -18.000
415.104;  143.800;   38.000;   80.000
415.230;  112.600; -329.000; -330.000
415.356;  108.600; -409.000; -514.000
415.482;  448.800;   13.000;  -35.000
415.608;  576.200; -247.000; -323.000
415.734; 2007.200;   67.000;   38.000
415.860;40743.200; -875.000; -767.000
415.986;26888.400; -685.000; -607.000
416.111; 2242.700; -798.000; -652.000
416.237;  514.400; -424.000; -571.000
416.363; 2442.300; -765.000; -733.000
416.489; 8181.200; -324.000; -251.000
416.615;  787.700; -707.000; -742.000
416.741;   -7.100; -677.000; -784.000
416.866; -135.500; -673.000; -736.000
416.992; -197.700; -801.000; -818.000
417.118;   21.800;  -41.000;  -80.000
417.244;  -75.000; -798.000; -531.000
417.369; -126.900; -801.000; -612.000
417.495;   49.400; -325.000; -254.000
417.621; -114.900;-1015.000; -803.000
417.746;   42.300; -579.000; -572.000
417.872;  145.100; -254.000; -144.000
417.998;  216.700; -515.000; -530.000
418.123; 2267.100;-1073.000; -845.000
418.249;10613.200; -512.000; -601.000
418.374; 1349.800; -916.000; -824.000
418.500;  242.600; -383.000; -482.000
418.626;  305.400;   70.000;  -59.000
418.751;  282.600; -549.000; -448.000
418.877;  416.700; -637.000; -643.000
419.002; 3964.400; -688.000; -560.000
419.128;24997.700; -930.000; -721.000
419.253; 5544.900; -967.000; -837.000
419.379;  813.700; -391.000; -338.000
419.504;  842.600;  325.000;  415.000
419.629; 1053.700; -393.000; -212.000
419.755; 7719.600; -317.000; -254.000
419.880;41198.100;  -98.000;   67.000
420.006;22976.300; -280.000; -221.000
420.131;55773.400; -662.000; -775.000
420.256; 7295.400; -315.000; -316.000
420.382; 1022.500; -665.000; -687.000
420.507;  125.400; -649.000; -778.000
420.632;  253.900; -337.000; -339.000
420.758;  393.200; -251.000; -425.000
420.883; -119.800; -876.000; -672.000
421.008; -130.500; -775.000; -619.000
421.133;  -91.300; -509.000; -467.000
421.259;  -44.700; -325.000; -259.000
421.384; -163.200; -834.000; -693.000
421.509;  -50.000;-1052.000; -862.000
421.634; 1998.500; -936.000; -820.000
421.759;  781.200; -359.000; -327.000
421.885;  -75.500; -717.000; -656.000
422.010;  -92.400; -673.000; -542.000
422.135; -257.500; -695.000; -727.000
422.260;  139.500;  340.000;  280.000
422.385;    7.600;   12.000;  -98.000
422.510;   98.700;  151.000;  -26.000
422.635;   96.100;  -87.000;  -43.000
422.760;  170.400; -766.000; -791.000
422.885;  128.000;  -57.000;  -80.000
423.010;  -10.900; -112.000; -169.000
423.135; -115.400; -481.000; -561.000
423.260;   36.400; -150.000; -245.000
423.385;  190.900;  476.000;  222.000
423.510;  119.900;   71.000;  -22.000
423.635;  178.200;  133.000;   45.000
423.760;  183.400;  383.000;  328.000
423.885;  176.100;  336.000;  391.000
424.010;   70.100;  -68.000;  -13.000
424.135;   17.500;    5.000;  -33.000
424.259; -108.500; -654.000; -457.000
424.384;  -89.200; -279.000; -272.000
424.509;    7.600; -260.000; -186.000
424.634; -145.900; -761.000; -623.000
424.759;   21.700; -688.000; -544.000
424.883;    6.300; -506.000; -527.000
425.008;  443.600; -502.000; -410.000
425.133; 4118.200; -679.000; -653.000
425.258; 1682.000; -517.000; -381.000
425.382; 1926.600; -867.000; -774.000
425.507; 4280.200; -487.000; -543.000
425.632;  761.900; -802.000; -663.000
425.756;  898.200; -256.000; -146.000
425.881;13914.600; -831.000; -857.000
426.006;34041.200; -604.000; -355.000
426.130; 4908.200; -696.000; -508.000
426.255;  677.300; -611.000; -491.000
426.379;  340.800; -189.000; -577.000
426.504;  851.100;  660.000;  544.000
426.629; 8304.000; -519.000; -466.000
426.753; 5099.300;   64.000;  -46.000
426.878;  652.500; -252.000; -288.000
427.002;  405.200; -651.000; -668.000
427.127; 3486.700;  -35.000; -158.000
427.251;22789.500;  372.000;  401.000
427.375; 5784.000; -191.000; -173.000
427.500; 3983.500; -616.000; -610.000
427.624; 1234.900; -234.000; -400.000
427.749;  195.700; -216.000; -225.000
427.873;  -35.100; -499.000; -412.000
427.997;  -19.500; -222.000; -230.000
428.122;  234.800;  795.000;  703.000
428.246;  206.600;  433.000;  434.000
428.371; -198.300; -869.000; -773.000
428.495; -129.600; -624.000; -646.000
428.619;   35.200; -186.000; -117.000
428.743;   94.100;   65.000;  132.000
428.868;   70.600; -732.000; -643.000
428.992; 2451.100; -219.000; -326.000
429.116;  943.600; -329.000; -357.000
429.240;  504.900;  419.000;  426.000
429.365;   31.900; -454.000; -574.000
429.489;  -23.900; -638.000; -647.000
429.613;   63.600; -236.000; -177.000
429.737;  155.800; -563.000; -432.000
429.861;  597.200; -247.000; -133.000
429.985;11734.400; -425.000; -305.000
430.109;11596.600; -770.000; -908.000
430.234; 1351.000;   76.000;  -50.000
430.358;  175.000; -250.000; -160.000
430.482;  -52.900; -672.000; -564.000
430.606;  -76.200; -655.000; -375.000
430.730;  112.600; -437.000; -388.000
430.854;  256.100; -909.000; -835.000
430.978;  -91.700; -795.000; -764.000
431.102;  -93.000; -499.000; -422.000
431.226; -146.000; -874.000; -815.000
431.350;  136.400;  345.000;  422.000
431.474;  -88.800; -661.000; -373.000
431.597; -247.000;-1060.000; -848.000
431.721; -115.300; -276.000; -267.000
431.845; -206.100; -704.000; -472.000
431.969;  -84.500; -304.000; -349.000
432.093; -106.200; -395.000; -317.000
432.217;   48.900;   32.000;   82.000
432.341; -118.100; -523.000; -518.000
432.464;   65.100;   96.000;   40.000
432.588;  432.100; -401.000; -329.000
432.712;  221.600;  -52.000;  -52.000
432.836;  151.400;  213.000;  263.000
432.959;   47.000; -372.000; -311.000
433.083;  276.000;   11.000;    2.000
433.207;  863.500;  285.000;  930.000
433.330;10718.200; -391.000; -200.000
433.454;11922.800; -654.000; -638.000
433.578; 7049.200;  583.000;  278.000
433.701; 1196.900; -623.000; -675.000
433.825;  293.200; -292.000; -299.000
433.949;  353.500;   28.000;  -72.000
434.072;   95.700; -410.000; -323.000
434.196;   35.000; -309.000; -117.000
434.319; 7819.200;25482.000;25124.000
434.443; 1573.100; -656.000; -603.000
434.566; 5224.700;  281.000;   62.000
434.690;  792.500; -637.000; -383.000
434.813;  167.700; -251.000; -173.000
434.937;  -73.200; -569.000; -696.000
435.060;  -61.200; -423.000; -332.000
435.184;  525.100; -492.000; -217.000
435.307;  338.000;  159.000;  102.000
435.431;   20.700;  -40.000;   24.000
435.554;  -85.500; -399.000; -240.000
435.677;  -94.900; -350.000; -258.000
435.801;  -42.000;  -25.000;   49.000
435.924;   49.900;    1.000;  -67.000
436.048; -184.200;-1019.000; -732.000
436.171;  -44.600; -240.000;  -66.000
436.294;   28.100; -248.000; -229.000
436.417;  222.300; -963.000; -849.000
436.541; -144.800; -814.000; -840.000
436.664;  -33.900; -242.000; -316.000
436.787;   56.000;   13.000;  113.000
436.910; -200.600; -792.000; -422.000
437.034;   65.900;  142.000;  143.000
437.157;  150.800;  -11.000;    0.000
437.280;  -71.700; -392.000; -292.000
437.403; -132.500; -982.000; -869.000
437.526; 1114.000; -903.000; -865.000
437.649; 3648.700; -505.000; -332.000
437.772;  432.500; -692.000; -540.000
437.896;  288.200;  700.000;  544.000
438.019; -167.200; -758.000; -503.000
438.142; -124.900; -596.000; -506.000
438.265;   20.000; -639.000; -670.000
438.388; 1059.700; -520.000; -410.000
438.511;  181.500; -597.000; -394.000
438.634;  -81.000; -247.000; -125.000
438.757; -216.100; -693.000; -619.000
438.880;   17.800;  -34.000;  -57.000
439.003; -110.800; -417.000; -437.000
439.126;  -74.700; -287.000; -167.000
439.248;  -39.400;  -98.000; -139.000
439.371;   34.800;    9.000;  -53.000
439.494;  115.300;  510.000;  439.000
439.617;  -40.600;   65.000;  -88.000
439.740; -301.800; -968.000; -816.000
439.863; -232.200; -755.000; -595.000
439.986; -171.100; -476.000; -431.000
440.108;  -31.400; -161.000; -112.000
440.231; -296.600; -950.000; -836.000
440.354;  -14.000;  -64.000; -150.000
440.477;  122.200; -566.000; -542.000
440.599;   71.400; -200.000; -225.000
440.722; -210.500; -709.000; -586.000
440.845;  186.400;  751.000;  928.000
440.968; -175.400; -415.000; -311.000
441.090;  -67.100; -199.000;  -33.000
441.213; -282.800;-1021.000; -825.000
441.336;  -66.000; -159.000;   -5.000
441.458; -121.000; -549.000; -396.000
441.581; -123.500; -628.000; -629.000
441.703; -102.400; -152.000;   13.000
441.826; -179.000; -557.000; -400.000
441.948;  -62.000;   56.000;   51.000
442.071;  133.600;  555.000;  424.000
442.193; -166.200; -531.000; -485.000
442.316;  124.600;  152.000;   97.000
442.438;  120.200; -233.000;  -10.000
442.561;  193.300;  272.000;  262.000
442.683; 1016.900; -809.000; -522.000
442.806; 1958.600;   -8.000;   74.000
442.928;  -20.400; -859.000; -604.000
443.051; -113.900; -577.000; -373.000
443.173; -127.000; -341.000; -339.000
443.295;  -91.200; -263.000; -371.000
443.418;  -80.300; -321.000;  -29.000
443.540;   23.800; -106.000;   -4.000
443.662; -174.200; -563.000; -465.000
443.785;   61.800;  335.000;  199.000
443.907; -166.000; -362.000; -208.000
444.029; -176.400; -767.000; -494.000
444.152; -212.700; -644.000; -554.000
444.274;   16.900;  -18.000;  -24.000
444.396; -184.200; -461.000; -221.000
444.518; -234.200; -691.000; -454.000
444.640; -153.700; -268.000; -111.000
444.763;   70.200;  388.000;  249.000
444.885; -197.200; -432.000; -392.000
445.007;   -1.200;   35.000;   86.000
445.129; -179.400; -610.000; -515.000
445.251; -167.500; -372.000; -439.000
445.373; -217.300; -537.000; -386.000
445.495;   57.000;  242.000;  350.000
445.617;  180.700;  853.000;  753.000
445.739;  -60.000; -215.000;  -97.000
445.861;  -12.600; -245.000; -112.000
445.984;   -2.200; -267.000; -101.000
446.105;  387.600; -418.000; -251.000
446.227;  997.800; -176.000;  -19.000
446.349;    2.600; -358.000; -249.000
446.471; -143.500; -615.000; -448.000
446.593;  -97.200; -316.000;   19.000
446.715;   31.600;  -67.000;   41.000
446.837;  203.100;  697.000;  832.000
446.959; -151.500; -457.000; -478.000
447.081; -187.800; -628.000; -518.000
447.203;  205.700;  862.000;  834.000
447.325;  -96.600; -270.000;   42.000
447.446;   42.800;  286.000;  530.000
447.568; -274.600; -921.000; -803.000
447.690; -138.700; -236.000; -245.000
447.812; -241.400; -798.000; -519.000
447.933;   29.900;  155.000;  127.000
448.055;  -92.700; -306.000; -261.000
448.177;  340.800;   31.000;   79.000
448.299;  109.000; -935.000; -727.000
448.420;   78.300;  -25.000;  159.000
448.542;  -43.000;   -3.000;   33.000
448.664;   41.500;  109.000;  322.000
448.785;  -21.800;  265.000;   83.000
448.907;  -97.600; -614.000; -353.000
449.028;  -17.200; -771.000; -471.000
449.150;  160.100;  492.000;  589.000
449.272; -300.600;-1044.000; -913.000
449.393;  116.000;  612.000;  694.000
449.515; -215.600; -634.000; -581.000
449.636;  -67.500; -264.000; -155.000
449.758;  210.800;  763.000;  622.000
449.879; -131.800; -498.000; -396.000
450.001;  -88.900; -149.000;  -49.000
450.122;   41.000;  -95.000;  162.000
450.244;   21.300;   37.000;  364.000
450.365; -149.700; -495.000; -301.000
450.486;   15.400;   80.000;  268.000
450.608;  116.900;  393.000;  326.000
450.729;  232.600;  578.000;  645.000
450.850;   82.200; -574.000; -466.000
450.972; 1694.900; -552.000; -389.000
451.093;10018.400;  190.000;  588.000
451.214; 3903.600; -516.000; -337.000
451.336;  748.900;  773.000;  579.000
451.457;  164.100;  264.000;  393.000
451.578;   -1.600; -118.000;  -74.000
451.699; -200.900; -546.000; -540.000
451.821;  -94.700; -284.000;  -50.000
451.942;   90.800;  278.000;  285.000
452.063;  136.200;  228.000;  419.000
452.184; 1257.100;  -54.000;  -49.000
452.305; 2185.900;  103.000;  170.000
452.427;  271.800; -549.000; -301.000
452.548;    9.600;   23.000;   79.000
452.669;  -38.200; -257.000;  -89.000
452.790;  -12.200;    3.000;  -18.000
452.911;   75.700;  195.000;  259.000
453.032;  -62.600; -289.000;  -60.000
453.153;  -35.200;  -29.000;   81.000
453.274;  173.400;  737.000;  868.000
453.395;  -19.700;  -51.000;  175.000
453.516;  340.200; 1317.000; 1388.000
453.637;  -93.800; -205.000; -150.000
453.758;  -59.600;   15.000;   69.000
453.879; -179.400; -462.000; -250.000
454.000;  232.400; 1086.000;  948.000
454.121; -200.500; -554.000; -326.000
454.242; -173.400; -599.000; -383.000
454.362;  -35.200;  -99.000;  114.000
454.483;   10.000; -309.000; -229.000
454.604;  189.600;  512.000;  580.000
454.725; -209.500; -627.000; -555.000
454.846; -174.200; -474.000; -406.000
454.967;   19.700;  230.000;  539.000
455.087;  -11.200;  179.000;  153.000
455.208;   91.700;  554.000;  856.000
455.329;  -44.700;  -22.000;   82.000
455.450;  143.600;  473.000;  633.000
455.570; -115.500; -234.000; -211.000
455.691;   -2.000;  201.000;  407.000
455.812; -140.200; -270.000;  -92.000
455.932;  -45.900;  107.000;  -97.000
456.053; -114.900;   36.000;   24.000
456.173; -166.800; -433.000; -355.000
456.294; -204.600; -476.000; -303.000
456.415;  -54.900;  -73.000;   70.000
456.535;  -15.800;  297.000;  273.000
456.656;  -21.600;  132.000;  240.000
456.776;  -67.900;    3.000;  298.000
456.897;   75.400;  308.000;  513.000
457.017;  -94.800; -153.000;   -3.000
457.138; -141.900; -402.000; -249.000
457.258;  -17.400;  263.000;  224.000
457.379;   51.500;  509.000;  521.000
457.499;   12.400;  443.000;  432.000
457.620; -152.100; -407.000; -231.000
457.740; -179.100; -132.000;  -11.000
457.860;  -39.500;   87.000;   44.000
457.981;  -26.200;  132.000;  124.000
458.101;  -97.000;  -89.000;   40.000
458.221;   49.200;  336.000;  402.000
458.342;  -50.900;   -4.000;  -37.000
458.462;  118.200;  617.000;  352.000
458.582;   -3.800; -302.000; -294.000
458.703;   83.100;  303.000;  154.000
458.823;   24.400;   22.000;  163.000
458.943;   88.100;  341.000;  467.000
459.063;   43.600; 1124.000;  192.000
459.183;   20.200;  328.000;  313.000
459.304;   79.000;  315.000;  517.000
459.424;  -42.200; -246.000;  -89.000
459.544;  777.000;  388.000;  764.000
459.664; 1692.200;  499.000;  506.000
459.784;  646.200; 1004.000; 1175.000
459.904;  206.200;  867.000;  744.000
460.024;  214.100;  867.000;  684.000
460.144;   77.900;  449.000;  554.000
460.264;   72.900;  515.000;  327.000
460.385; -122.200; -145.000; -119.000
460.505;  130.300;  905.000;  858.000
460.625; -111.100;  -17.000;  -68.000
460.745;   14.900;  396.000;  541.000
460.864;  -10.500;  153.000;  469.000
460.984;  118.900;  499.000;  573.000
461.104;  328.400; 1656.000; 1775.000
461.224;  119.200;  657.000;  650.000
461.344;   22.600;  431.000;  360.000
461.464;   -4.600;  258.000;  513.000
461.584;   11.700;  283.000;  466.000
461.704;  -28.900;   58.000;  108.000
461.824;  -48.400;  238.000;  259.000
461.943;    5.300;  191.000;  130.000
462.063;  -85.200;    2.000;  324.000
462.183;  154.800;  639.000;  717.000
462.303;  240.800; 1678.000; 1230.000
462.422;  117.800;  781.000;  840.000
462.542;   20.600;  271.000;  391.000
462.662;  131.900;  353.000;  380.000
462.782;  570.100;  833.000;  572.000
462.901;  987.700;  545.000;  717.000
463.021;  607.700; 1702.000; 1638.000
463.141;   35.200;  337.000;  770.000
463.260;    4.600;  614.000;  474.000
463.380;  118.700;  902.000;  884.000
463.499;   15.400;  342.000;  332.000
463.619;   -6.200;  581.000;  559.000
463.738;  313.900; 1644.000;  903.000
463.858;   85.300;  657.000;  811.000
463.978;   13.300;  542.000;  396.000
464.097;  178.200;  921.000; 1114.000
464.217;  288.500; 1196.000; 1143.000
464.336;  287.500; 1068.000; 1130.000
464.455;   -1.400;  328.000;  659.000
464.575;  156.800;  597.000;  602.000
464.694;  401.500; 1204.000; 1179.000
464.814;  331.200; 1190.000; 1138.000
464.933;  183.900; 1095.000; 1027.000
465.052;  248.200; 1412.000; 1054.000
465.172;  205.200;  922.000;  799.000
465.291;  312.700; 1376.000; 1320.000
465.410;   88.300;  462.000;  735.000
465.530;  251.700; 1355.000; 1310.000
465.649;  194.600; 1209.000; 1273.000
465.768;  365.100; 1673.000; 1508.000
465.888;  154.700;  941.000; 1174.000
466.007;  254.600; 1335.000; 1440.000
466.126;   43.600;  721.000;  641.000
466.245;  164.000; 1176.000; 1187.000
466.364;  100.400;  950.000; 1060.000
466.484;  185.100; 1024.000; 1213.000
466.603;  139.900; 1101.000; 1222.000
466.722;  324.900; 1490.000; 1769.000
466.841;  226.600; 1151.000; 1401.000
466.960;  181.800; 1069.000;  972.000
467.079;  367.000; 1971.000; 1786.000
467.198;  165.300; 1238.000; 1181.000
467.317;  228.400; 1768.000; 1162.000
467.436;  253.400; 1709.000; 1261.000
467.555;  339.500; 1796.000; 1746.000
467.674;  213.100; 1227.000; 1329.000
467.793;  168.600; 1376.000; 1374.000
467.912;  245.000; 1658.000; 1539.000
468.031;  329.100; 2038.000; 1930.000
468.150;  328.500; 1842.000; 1837.000
468.269;  444.700; 2313.000; 2090.000
468.388;  473.000; 2168.000; 2339.000
468.507;  611.000; 2884.000; 2903.000
468.626;  614.400; 2555.000; 2541.000
468.744;  372.900; 2018.000; 2174.000
468.863;  440.700; 2312.000; 2523.000
468.982;  254.800; 1503.000; 1555.000
469.101;  562.900; 2788.000; 2692.000
469.220;  403.900; 2333.000; 2176.000
469.338;  598.300; 2935.000; 3051.000
469.457;  466.300; 2719.000; 2545.000
469.576;  778.900; 3953.000; 3784.000
469.695;  533.100; 2877.000; 3066.000
469.813;  959.500; 4148.000; 4192.000
469.932;  919.600; 4255.000; 4485.000
470.051;  949.800; 4075.000; 4161.000
470.169; 1858.800; 4470.000; 4338.000
470.288; 3056.700; 4700.000; 4809.000
470.406; 1809.000; 5059.000; 5194.000
470.525; 1337.700; 6101.000; 5787.000
470.644; 1362.200; 6847.000; 6794.000
470.762; 1749.700; 8397.000; 7873.000
470.881; 1925.300; 8651.000; 8464.000
470.999; 2125.500; 9685.000; 9151.000
471.118; 2309.100;11174.000;10711.000

