
Integration time [ms]: 100.000
Averaging Nr. [scans]: 40
Smoothing Nr. [pixels]: 0
Data measured with spectrometer [name]: 2101012U2
Wave   ;Sample   ;Dark     ;Reference
[nm]   ;[counts] ;[counts] ;[counts] 

197.733;   76.050;  516.000;  404.000
197.879;  -83.950; -610.000; -634.000
198.025;  -35.950; -475.000; -420.000
198.171;  -83.250; -602.000; -612.000
198.317;  -28.725; -401.000; -316.000
198.463;  -60.550; -655.000; -404.000
198.609;   23.800;  181.000; -137.000
198.755;  -86.275; -644.000; -410.000
198.901;  -64.600; -505.000; -424.000
199.047;  -75.825; -615.000; -488.000
199.193;  -49.400; -230.000; -468.000
199.339;  -44.650; -222.000; -369.000
199.485;   32.975;  330.000;  271.000
199.631;   11.175;  227.000;  310.000
199.777;  -44.775; -466.000; -398.000
199.923;  -65.675; -610.000; -424.000
200.069;    6.500; -141.000;  -58.000
200.215;   50.950;  128.000;  453.000
200.361;   49.125;  243.000;  477.000
200.507;  -72.125; -600.000; -373.000
200.653;  -29.100; -371.000; -194.000
200.798;  -35.625; -215.000; -125.000
200.944;   -7.400; -146.000;  -41.000
201.090;   33.700;   61.000;  222.000
201.236;    3.900; -116.000; -158.000
201.382;  123.400;  874.000;  903.000
201.528;   13.350;  -58.000;  -48.000
201.674;  -53.500; -386.000; -293.000
201.819;  -52.775; -540.000; -439.000
201.965;  -83.250; -699.000; -447.000
202.111;  -27.625; -273.000; -226.000
202.257;  -32.675; -250.000; -238.000
202.402;   11.100;   13.000;  -36.000
202.548;  -32.000; -169.000; -116.000
202.694;   76.625;  410.000; -183.000
202.840;  -78.375; -603.000; -531.000
202.985;  -68.400; -681.000; -639.000
203.131; -113.100; -832.000; -666.000
203.277;  -15.600; -199.000; -262.000
203.423;  -53.925; -434.000; -520.000
203.568;  -29.775; -462.000; -237.000
203.714;  -63.825; -535.000; -542.000
203.860;  -81.875; -682.000; -641.000
204.005;   12.000;  112.000;  167.000
204.151;   72.600;  561.000;  556.000
204.296;  -57.050; -354.000; -221.000
204.442;  -66.250; -600.000; -547.000
204.588;  -79.000; -592.000; -579.000
204.733;   28.725;  178.000;  168.000
204.879; -132.000;-1018.000; -822.000
205.025;   15.650;  -99.000;  126.000
205.170;   -8.800;  -17.000;   94.000
205.316;   78.600;  438.000;  661.000
205.461;  -87.100; -698.000; -554.000
205.607;   90.625;  609.000;  665.000
205.752;  -83.525; -626.000; -551.000
205.898;  -56.575; -501.000; -391.000
206.043;  -62.475; -578.000; -506.000
206.189;  -39.675; -243.000; -285.000
206.334;   71.525;  554.000;  606.000
206.480;   80.650;  409.000;  239.000
206.625;  -85.925; -529.000; -552.000
206.771;  -51.500; -451.000; -373.000
206.916;  -29.575; -210.000; -537.000
207.062;  -61.375; -545.000; -591.000
207.207;  -67.175; -546.000; -443.000
207.353;   64.800;  185.000;  460.000
207.498;   18.275;  196.000;   85.000
207.643;  -44.275; -501.000; -370.000
207.789; -134.150;-1069.000; -910.000
207.934;  -96.000; -665.000; -713.000
208.080;  -26.800; -154.000;   66.000
208.225;   -4.525;  -22.000;  -57.000
208.370;  -72.825; -727.000; -619.000
208.516;  -69.025; -741.000; -487.000
208.661;  -51.950; -127.000;  -69.000
208.806;  -11.000; -165.000; -171.000
208.952; -131.575;-1044.000; -731.000
209.097;   73.300;  378.000;  349.000
209.242;  -45.950; -307.000; -382.000
209.387;   65.525;  392.000;  350.000
209.533;  -67.150; -321.000; -350.000
209.678;   80.100;  472.000;  543.000
209.823;  -57.800; -408.000; -310.000
209.969;  -90.050; -860.000; -757.000
210.114; -115.925; -907.000; -719.000
210.259; -126.575; -939.000; -889.000
210.404;  -17.075; -171.000;  103.000
210.549;    3.000;  108.000;    3.000
210.695;  -18.550;   -3.000;  -95.000
210.840;   43.475;   94.000;   67.000
210.985;  -76.300; -484.000; -303.000
211.130;   71.500;  268.000;  406.000
211.275;   22.175;  207.000;  199.000
211.420;  -54.250; -300.000; -289.000
211.566;  -74.425; -536.000; -489.000
211.711;   26.200;  218.000;  157.000
211.856;  -62.075; -545.000; -519.000
212.001;    8.800;  151.000;   44.000
212.146;   26.600;  153.000;   49.000
212.291;  -21.025; -210.000; -186.000
212.436;  -39.600; -280.000;   -6.000
212.581;  -75.725; -685.000; -653.000
212.726;  -87.650; -487.000; -538.000
212.871;  -48.275; -552.000; -217.000
213.016; -150.525;-1172.000;-1029.000
213.161;   67.325;  406.000;  291.000
213.306;  -78.425; -435.000; -577.000
213.451;  -99.150; -778.000; -689.000
213.596;  -43.875; -455.000; -347.000
213.741;  -66.100; -448.000; -538.000
213.886;  -90.775; -498.000; -517.000
214.031;  -16.325; -294.000; -124.000
214.176;  -56.400; -408.000; -341.000
214.321;  -21.275; -296.000; -157.000
214.466;  -16.400; -163.000;  -43.000
214.611;    7.925;  -61.000;  -10.000
214.756; -127.525; -948.000; -858.000
214.901;  -25.650; -388.000; -226.000
215.046; -136.225; -797.000; -825.000
215.191;   22.600;  128.000;   35.000
215.336;  -30.650; -157.000;  -19.000
215.480;  -67.775; -684.000; -505.000
215.625;  -22.350; -175.000;  -19.000
215.770;  -83.200; -757.000; -662.000
215.915;   -6.525;   -5.000;  -97.000
216.060;    9.550; -113.000;  -21.000
216.205; -117.850; -731.000; -779.000
216.349;  -63.050; -470.000; -533.000
216.494; -142.850; -939.000; -867.000
216.639; -116.650; -823.000; -888.000
216.784;  -91.200; -577.000; -525.000
216.929;   65.650;  392.000;  281.000
217.073;  -25.775; -244.000;  -31.000
217.218;    8.125;   78.000;  -47.000
217.363;  -97.750; -656.000; -618.000
217.507;  -80.775; -623.000; -588.000
217.652; -111.925; -845.000; -874.000
217.797;  -76.200; -708.000; -659.000
217.942; -101.250; -856.000; -720.000
218.086;   85.925;  608.000;  539.000
218.231;  -38.150; -174.000;  -26.000
218.376;  -35.850; -337.000; -229.000
218.520;   15.100;  -41.000;   96.000
218.665;  -37.725; -338.000; -204.000
218.810;  -48.250; -275.000; -233.000
218.954;    8.475;  201.000;   35.000
219.099; -126.300; -713.000; -963.000
219.243;  -75.225; -589.000; -554.000
219.388;  -33.850; -264.000; -136.000
219.532;   -7.550; -116.000; -116.000
219.677;  -87.750; -564.000; -521.000
219.822;    6.175;   33.000;   89.000
219.966;   -3.400;   17.000;  -99.000
220.111;  -29.525; -328.000;  -40.000
220.255;  -96.775; -797.000; -750.000
220.400;  -22.450; -180.000; -146.000
220.544;  -71.450; -516.000; -450.000
220.689;  -63.675; -422.000; -451.000
220.833;  -35.100; -123.000;  -58.000
220.978;  -52.025; -393.000; -563.000
221.122;   21.275;  319.000;  307.000
221.267;  -96.175; -906.000; -837.000
221.411;  -73.400; -478.000; -394.000
221.555;  -17.775; -104.000;  -23.000
221.700;  -47.525; -329.000; -222.000
221.844;   37.200;  255.000;  272.000
221.989;  -48.000; -328.000; -311.000
222.133;  -33.800; -289.000; -307.000
222.277;  -19.925;    5.000;   78.000
222.422;    1.300;  227.000;  113.000
222.566;  -37.975; -381.000; -214.000
222.711;  -47.825; -414.000; -479.000
222.855;  -92.625; -643.000; -586.000
222.999;  -84.550; -642.000; -717.000
223.144;  -34.000; -195.000; -194.000
223.288;   67.300;  423.000;  251.000
223.432;   32.800;  184.000;  230.000
223.576;   15.875;  152.000;  -21.000
223.721;   41.725;  364.000;  273.000
223.865;  -60.325; -472.000; -475.000
224.009;  213.650; 1673.000; 1631.000
224.153;  -72.150; -660.000; -671.000
224.298;  -68.800; -531.000; -489.000
224.442;   -7.000;  -74.000;  -33.000
224.586;  -27.825; -169.000; -106.000
224.730; -102.325; -858.000; -670.000
224.875;  -96.400; -739.000; -688.000
225.019;   11.075;  102.000;  188.000
225.163;   29.175;  208.000;  341.000
225.307;   25.450;   97.000;  -91.000
225.451;   32.175;  360.000;  481.000
225.595;   38.425;  264.000;  176.000
225.739;  -20.175; -170.000;  -94.000
225.884;   -6.625;   86.000;    5.000
226.028; -115.825; -760.000; -626.000
226.172;  -34.400; -260.000; -273.000
226.316; -127.625; -941.000; -902.000
226.460;  -63.800; -645.000; -493.000
226.604;  -55.100; -406.000; -400.000
226.748; -100.450; -836.000; -733.000
226.892;  -44.175; -227.000; -181.000
227.036;  -50.400; -537.000; -447.000
227.180;  -49.975; -551.000; -375.000
227.324;  -68.600; -561.000; -580.000
227.468; -122.175; -819.000; -717.000
227.612;    6.375;  242.000;  -28.000
227.756;  -98.475; -845.000; -698.000
227.900;   48.250;  342.000;  441.000
228.044;  -74.350; -509.000; -290.000
228.188;   71.125;  448.000;  568.000
228.332;  -90.500; -546.000; -472.000
228.476;  -23.525; -223.000; -149.000
228.620;  -31.150; -210.000; -150.000
228.764;   66.075;  431.000;  349.000
228.908;  -24.125; -155.000;   30.000
229.052;  -59.325; -615.000; -528.000
229.195;  -19.950; -172.000;   13.000
229.339;  -28.550; -235.000; -305.000
229.483;  -31.200;    5.000; -162.000
229.627;   -3.950; -156.000;  139.000
229.771;  -60.900; -218.000; -294.000
229.915;   25.900;  230.000;   79.000
230.059;  -97.975; -648.000; -663.000
230.202;  -36.275; -370.000; -317.000
230.346;  -27.575; -107.000;  107.000
230.490;  -54.250; -489.000; -521.000
230.634; -127.625; -736.000; -553.000
230.777;   73.575;  478.000;  509.000
230.921;  -64.075; -450.000; -359.000
231.065;  -46.600; -246.000; -286.000
231.209;   10.025;  261.000;  265.000
231.352;   11.875;   54.000;   40.000
231.496;   25.150;  568.000;  188.000
231.640;  -74.200; -693.000; -621.000
231.783;   45.725;  546.000;  525.000
231.927;  -41.800; -294.000; -365.000
232.071; -115.500; -962.000; -736.000
232.214; -104.100; -980.000; -764.000
232.358; -100.925; -683.000; -599.000
232.502;    2.850;  -19.000;    7.000
232.645; -137.175;-1090.000; -927.000
232.789;  -19.725; -257.000; -218.000
232.933;  -50.600; -407.000; -224.000
233.076; -131.475;-1038.000; -897.000
233.220; -106.325; -752.000; -777.000
233.363;  -65.950; -669.000; -477.000
233.507;   50.125;  371.000;  129.000
233.650;  -94.600; -764.000; -834.000
233.794;   37.650;  438.000;  461.000
233.938;  -54.575; -530.000; -362.000
234.081;  -30.575;  -93.000;   31.000
234.225;  -70.500; -631.000; -539.000
234.368; -115.600; -773.000; -723.000
234.512;  -39.275; -385.000; -299.000
234.655;  -84.000; -582.000; -555.000
234.798;  -70.600; -493.000; -466.000
234.942; -137.250; -884.000;-1002.000
235.085;  -71.525; -651.000; -443.000
235.229;  -72.100; -405.000; -410.000
235.372;  -35.750; -247.000; -191.000
235.516;  -59.125; -397.000; -321.000
235.659;   23.125;   92.000;  121.000
235.802;  -21.075;  -38.000;  -22.000
235.946;   11.925;  335.000;  215.000
236.089;   20.050;  126.000;  250.000
236.233;   64.825;  275.000;  298.000
236.376;  -53.650; -235.000; -378.000
236.519;  -38.125; -297.000; -319.000
236.663;  -38.400; -215.000; -117.000
236.806; -132.600;-1029.000; -999.000
236.949;   51.550;  543.000;  431.000
237.092;   60.525;  412.000;  391.000
237.236;  -92.075; -589.000; -502.000
237.379;   70.675;  352.000;  428.000
237.522; -124.375; -879.000; -768.000
237.666;  -17.425; -271.000;   18.000
237.809; -123.600; -851.000; -823.000
237.952;   37.475;  469.000;  271.000
238.095;  -65.175; -447.000; -442.000
238.238;   74.900;  688.000;  700.000
238.382;   -8.000;  166.000;  103.000
238.525;  -73.925; -598.000; -511.000
238.668; -151.850;-1060.000; -985.000
238.811;  -82.200; -638.000; -643.000
238.954;  -63.975; -483.000; -334.000
239.097;  104.075;  617.000;  664.000
239.241;   11.025;  394.000;  326.000
239.384;  -25.225; -254.000; -214.000
239.527;  -77.375; -424.000; -224.000
239.670; -149.100; -994.000;-1091.000
239.813; -115.675; -696.000; -658.000
239.956;   75.725;  579.000;  473.000
240.099; -124.875; -778.000; -725.000
240.242;   70.650;  428.000;  432.000
240.385;   49.475;  466.000;  450.000
240.528;  -73.700; -706.000; -473.000
240.671;    8.900;  189.000;  134.000
240.814;  -45.525; -441.000; -158.000
240.957; -103.625; -767.000; -578.000
241.100;  -87.525; -779.000; -755.000
241.243; -142.000;-1234.000; -893.000
241.386;  -70.025; -508.000; -379.000
241.529;  -90.925; -735.000; -547.000
241.672;  -66.525; -566.000; -495.000
241.815; -120.100; -832.000; -808.000
241.958;  -26.075; -125.000; -182.000
242.101;  -81.850; -545.000; -390.000
242.244;  -45.300; -270.000; -325.000
242.387;  -45.475; -304.000; -246.000
242.530;   53.375;  470.000;  134.000
242.673;  -29.950; -381.000; -309.000
242.815; -119.750; -925.000; -899.000
242.958;  -77.750; -482.000; -381.000
243.101;   17.525;  132.000;  187.000
243.244;  -98.475; -564.000; -521.000
243.387;  -43.700; -313.000; -316.000
243.530;  -96.750; -657.000; -674.000
243.672;   13.400;   43.000;  -92.000
243.815;  -55.800; -355.000; -283.000
243.958;    2.725;   98.000;  -26.000
244.101;   -8.125;   59.000;  -16.000
244.243;   -6.250;  -47.000;  101.000
244.386; -103.675; -761.000; -630.000
244.529;  -17.325; -132.000; -139.000
244.672; -161.450;-1154.000; -951.000
244.814;  -81.150; -621.000; -794.000
244.957;  -39.275; -380.000; -304.000
245.100;  -74.275; -489.000; -489.000
245.242;  -66.825; -387.000; -374.000
245.385;   -5.325;  -59.000;  -39.000
245.528; -125.750; -871.000; -705.000
245.670;   95.700;  612.000;  634.000
245.813;  -88.550; -599.000; -547.000
245.956;  -29.250; -324.000; -275.000
246.098;  -77.475; -508.000; -650.000
246.241;   -2.300;  194.000;   48.000
246.383;  -35.325; -119.000;  -73.000
246.526;  -78.075; -454.000; -525.000
246.669; -126.275; -889.000; -780.000
246.811;   10.500;  172.000;   -1.000
246.954;  -66.150; -512.000; -426.000
247.096;  -25.050;  -84.000;   -6.000
247.239;  -67.975; -482.000; -445.000
247.381;  -61.725; -647.000; -488.000
247.524;   89.300;  645.000;  679.000
247.666;   -7.075;   58.000;   11.000
247.809; -120.950; -887.000; -691.000
247.951;  -16.650;  -75.000;  138.000
248.094;   30.250;  432.000;  308.000
248.236; -152.100;-1262.000;-1238.000
248.378;   -4.175; -356.000;  -81.000
248.521;  -15.575; -334.000; -337.000
248.663;  -43.875; -236.000; -267.000
248.806;  -10.250; -300.000; -266.000
248.948; -105.925; -886.000; -763.000
249.090;  -40.475; -428.000; -398.000
249.233;  -51.475; -344.000; -381.000
249.375;  -66.325; -474.000; -451.000
249.518;  -25.625;  -83.000; -133.000
249.660;    4.075; -103.000;    3.000
249.802; -185.325;-1303.000;-1189.000
249.945;  -71.050; -612.000; -540.000
250.087; -128.575; -834.000; -768.000
250.229;  -47.550; -362.000; -480.000
250.371;  -72.275; -494.000; -439.000
250.514;  -46.100; -310.000; -244.000
250.656;  -69.750;   69.000;  102.000
250.798; -111.725; -849.000; -800.000
250.940;  -63.425; -322.000; -322.000
251.083;  -17.375; -335.000; -111.000
251.225;   57.975;  338.000;  310.000
251.367;  -27.075; -274.000; -373.000
251.509;  -44.225; -265.000; -210.000
251.651; -103.700; -731.000; -671.000
251.794;   60.875;  538.000;  632.000
251.936; -109.750; -821.000; -747.000
252.078;  -89.900; -540.000; -461.000
252.220;  -79.925; -645.000; -477.000
252.362;   78.575;  344.000;  462.000
252.504;  -61.425; -677.000; -584.000
252.646; -121.400; -875.000; -722.000
252.788;    5.175;   14.000; -128.000
252.931;  -49.600; -257.000; -253.000
253.073;  -40.850; -376.000; -317.000
253.215;  -16.350;  141.000;  122.000
253.357;   -8.600;   82.000; -153.000
253.499;  -65.075; -374.000; -234.000
253.641;  -77.400; -749.000; -594.000
253.783;  -98.150; -609.000; -527.000
253.925;  -82.625; -586.000; -591.000
254.067; -111.775; -744.000; -667.000
254.209;  -10.350; -391.000; -259.000
254.351; -142.200; -865.000; -883.000
254.493;  -61.875; -441.000; -417.000
254.635; -133.550; -936.000; -818.000
254.777;  -76.550; -752.000; -687.000
254.918;  -68.750; -512.000; -430.000
255.060;  -65.650; -551.000; -395.000
255.202;  -68.850; -473.000; -261.000
255.344;  -81.275; -658.000; -455.000
255.486;  -78.525; -471.000; -406.000
255.628; -107.900; -780.000; -781.000
255.770;  -80.825; -676.000; -536.000
255.912;  -65.975; -559.000; -468.000
256.053;  -94.175; -730.000; -508.000
256.195;  147.875; 1008.000;  903.000
256.337; -111.225; -861.000; -595.000
256.479;   60.675;  532.000;  416.000
256.621;  -52.675; -394.000; -212.000
256.762;  -96.625; -789.000; -742.000
256.904;   41.150;  485.000;  487.000
257.046;  -42.775; -381.000; -271.000
257.188;  -52.175; -351.000; -264.000
257.329;  -76.475; -525.000; -464.000
257.471; -116.325; -939.000; -807.000
257.613;  -59.425; -584.000; -498.000
257.755; -151.200;-1073.000; -982.000
257.896;   47.225;  286.000;  392.000
258.038;  -65.125; -403.000; -352.000
258.180;  -35.275; -354.000; -279.000
258.321;  -87.550; -581.000; -457.000
258.463;   -8.200;  -71.000;  133.000
258.605;  -86.575; -562.000; -570.000
258.746;  -98.325; -886.000; -772.000
258.888; -150.800;-1026.000;-1020.000
259.029;   12.475;  121.000;   -8.000
259.171;  -95.975; -614.000; -550.000
259.313;    9.725;  -49.000;  -47.000
259.454;  -87.200; -536.000; -414.000
259.596;  -43.225; -483.000; -390.000
259.737;  -73.650; -590.000; -474.000
259.879;   44.525;  217.000;  311.000
260.020;   86.375;  901.000;  636.000
260.162;  -36.275; -146.000; -253.000
260.303; -123.050; -768.000; -687.000
260.445;  -78.450; -609.000; -613.000
260.586;   19.100;  392.000;  157.000
260.728;  -44.925; -360.000; -248.000
260.869;  -66.125; -350.000; -343.000
261.011;   67.075;  706.000;  537.000
261.152;  -74.450; -479.000; -319.000
261.293;  -68.500; -576.000; -595.000
261.435;  -31.475; -219.000; -184.000
261.576;  -49.750; -455.000; -325.000
261.718;   55.650;  420.000;  470.000
261.859; -128.600; -940.000; -949.000
262.000; -148.150; -951.000;-1016.000
262.142;  -21.675;  -52.000;  -60.000
262.283; -128.000; -808.000; -691.000
262.424;  -92.500; -666.000; -625.000
262.566; -161.075;-1161.000; -983.000
262.707; -101.325; -840.000; -830.000
262.848; -117.925; -769.000; -726.000
262.990;  -51.050; -362.000; -345.000
263.131;   77.450;  650.000;  681.000
263.272;   -9.050;  -61.000;  -41.000
263.413;  -99.575; -589.000; -561.000
263.555;  -67.300; -669.000; -143.000
263.696;  -91.175; -550.000; -641.000
263.837;  -54.250; -449.000; -551.000
263.978;  -11.325;   -5.000;  -77.000
264.119;  -33.350; -283.000; -264.000
264.261; -104.125; -847.000; -630.000
264.402;  -13.550;   33.000;   40.000
264.543;  -88.300; -509.000; -524.000
264.684;  -18.275;   61.000;  -50.000
264.825;  -80.250; -816.000; -538.000
264.966;  -11.350;  -84.000;  -67.000
265.107; -122.900; -646.000; -670.000
265.248; -117.700; -825.000; -812.000
265.390;   -7.350;  152.000;   -9.000
265.531;  -20.025; -238.000; -107.000
265.672;  -86.350; -557.000; -630.000
265.813;   56.050;  563.000;  439.000
265.954; -136.225; -959.000; -940.000
266.095;   -8.650; -372.000; -322.000
266.236; -104.125; -686.000; -548.000
266.377;  -43.900; -243.000; -297.000
266.518;  -76.875; -619.000; -547.000
266.659;   30.975;  170.000;  268.000
266.800;    4.075;   83.000;   85.000
266.941;  -61.400; -487.000; -478.000
267.082;   17.725;  354.000;   99.000
267.223;  -44.650; -344.000; -273.000
267.364; -123.525; -892.000; -686.000
267.504;   -7.450;    3.000;  135.000
267.645;  -13.950;  160.000;   67.000
267.786;  -21.025; -147.000;  -86.000
267.927;  -74.250; -473.000; -379.000
268.068;  -30.675; -186.000;  -61.000
268.209;  -49.325; -175.000; -413.000
268.350;  -63.825; -388.000; -532.000
268.490;  -94.150; -648.000; -521.000
268.631;   24.200;  127.000;  225.000
268.772; -111.850; -874.000; -647.000
268.913;  -44.475; -328.000; -476.000
269.054;  -22.800; -117.000;   12.000
269.194;  -36.025; -418.000; -402.000
269.335; -154.175;-1137.000;-1074.000
269.476;   -2.500;   33.000;  -35.000
269.617;  -52.925; -347.000; -392.000
269.757;  -85.625; -713.000; -646.000
269.898; -112.575; -856.000; -613.000
270.039;  -47.300; -415.000; -405.000
270.180; -148.550; -952.000; -816.000
270.320;  -25.700; -190.000; -250.000
270.461;  -47.375; -277.000; -249.000
270.602;   -7.100; -186.000; -156.000
270.742; -124.900; -868.000; -943.000
270.883;  -51.525; -442.000; -390.000
271.023;  -70.200; -358.000; -357.000
271.164;  -83.450; -607.000; -528.000
271.305; -101.250; -666.000; -654.000
271.445;  -83.800; -722.000; -683.000
271.586;  -77.225; -462.000; -283.000
271.726;  -52.550; -397.000; -322.000
271.867;  -72.475; -594.000; -534.000
272.008;  177.050; -473.000; -285.000
272.148;  150.950;  462.000;  468.000
272.289;   16.250; -113.000; -181.000
272.429;   10.650;   19.000;  185.000
272.570;  -93.775; -633.000; -737.000
272.710; -102.500; -825.000; -775.000
272.851;   -8.675;  113.000; -130.000
272.991; -166.625;-1173.000;-1077.000
273.131;  -82.350; -419.000; -459.000
273.272;  -92.875; -683.000; -723.000
273.412;   16.200; -143.000;  -31.000
273.553;  -63.325; -488.000; -507.000
273.693;  126.175;  913.000;  858.000
273.834;  -86.550; -894.000; -692.000
273.974;  -60.725; -664.000; -615.000
274.114; -107.950; -772.000; -560.000
274.255;   71.825;  414.000;  373.000
274.395;    4.375; -180.000; -125.000
274.535;   42.475;  199.000;  350.000
274.676;   17.775;  225.000;   94.000
274.816;   26.575;  110.000;   34.000
274.956;  -90.775; -624.000; -690.000
275.097;  -51.800;-1014.000; -922.000
275.237; -110.750; -913.000; -803.000
275.377; -101.000; -778.000; -689.000
275.517; -147.950; -878.000; -937.000
275.658;  -60.000; -590.000; -555.000
275.798;  -78.450; -606.000; -413.000
275.938;   24.250;  215.000;  323.000
276.078; -109.600; -626.000; -395.000
276.218;   14.525;   99.000;  104.000
276.359; -127.850;-1026.000;-1024.000
276.499;  -64.950; -605.000; -446.000
276.639;  -38.375; -305.000; -151.000
276.779;  -54.125; -475.000; -357.000
276.919; -104.350; -783.000; -624.000
277.059;  -16.975; -261.000; -212.000
277.199;  -45.675; -357.000; -259.000
277.340;   41.750;  287.000;  175.000
277.480; -119.800; -840.000; -693.000
277.620;   29.600;  192.000;   16.000
277.760; -200.550;-1533.000;-1294.000
277.900;   23.675;  113.000;   33.000
278.040;   23.950;  137.000;  159.000
278.180;   45.150;  270.000;  170.000
278.320;    5.325;   21.000;   56.000
278.460;  -79.100; -443.000; -469.000
278.600;  -87.250; -708.000; -598.000
278.740;   47.975;  448.000;  224.000
278.880;  -38.600; -768.000; -791.000
279.020;    9.225; -194.000; -144.000
279.160;  -97.200; -672.000; -595.000
279.300; -115.050; -926.000; -873.000
279.440;  -94.250; -709.000; -622.000
279.579;    0.575;-1014.000; -929.000
279.719;  -56.700; -410.000; -394.000
279.859;   82.950;   -4.000;   41.000
279.999;   20.000; -208.000;  101.000
280.139;  -14.275; -435.000; -387.000
280.279;  -86.650; -708.000; -745.000
280.419;   -8.025; -229.000; -147.000
280.559;  -27.975; -259.000; -180.000
280.698;  -77.700; -790.000; -639.000
280.838;  -89.050; -778.000; -800.000
280.978;  -90.550; -846.000; -790.000
281.118; -114.850; -811.000; -704.000
281.257;    7.275;   24.000;    6.000
281.397; -101.200;-1094.000; -960.000
281.537;  -72.625; -599.000; -712.000
281.677;  -26.750; -150.000; -101.000
281.816;  -99.875; -700.000; -630.000
281.956;  -28.650; -193.000; -257.000
282.096;  -61.700; -539.000; -396.000
282.235; -106.725; -672.000; -638.000
282.375;  -16.425; -243.000;  -98.000
282.515; -101.075; -715.000; -707.000
282.654;   35.250;   29.000;  106.000
282.794;   28.800;  388.000;  244.000
282.934;  -61.025; -530.000; -491.000
283.073; -128.675;-1030.000; -857.000
283.213;  -50.650; -460.000; -467.000
283.353;  -37.800; -408.000; -349.000
283.492;  -24.050; -264.000; -296.000
283.632;  -47.950; -254.000; -168.000
283.771; -100.275; -859.000; -730.000
283.911;  -44.525; -369.000; -260.000
284.050; -110.950; -794.000; -748.000
284.190; -167.300;-1229.000;-1096.000
284.329; -134.900;-1055.000; -964.000
284.469;  -58.200; -516.000; -591.000
284.608;  -51.500; -559.000; -598.000
284.748;  -87.225; -614.000; -570.000
284.887;    1.150;  -87.000;  -20.000
285.027; -127.375; -844.000; -892.000
285.166;  -22.525; -192.000; -249.000
285.306;   -3.350; -116.000;  -33.000
285.445;  -46.200; -229.000; -343.000
285.584;  -86.775; -630.000; -494.000
285.724;  -30.600; -282.000; -322.000
285.863; -119.425; -857.000; -507.000
286.002;  -53.975; -366.000; -276.000
286.142; -107.725; -715.000; -622.000
286.281;  -60.175; -525.000; -493.000
286.420;  -76.925; -554.000; -417.000
286.560;  106.450;  653.000;  623.000
286.699; -139.350; -958.000; -912.000
286.838;  -78.000; -590.000; -591.000
286.978;  -87.425; -533.000; -537.000
287.117; -124.875;-1085.000; -950.000
287.256;  -30.475; -228.000; -211.000
287.395;  -38.300; -197.000; -378.000
287.535;  -48.050; -370.000; -298.000
287.674;  -63.875; -509.000; -484.000
287.813;   53.325;  661.000;  533.000
287.952; -123.725;-1010.000; -871.000
288.091; -151.975;-1049.000; -915.000
288.231;   20.375;   13.000;   15.000
288.370; -177.150;-1217.000;-1200.000
288.509;  -87.800; -728.000; -645.000
288.648;  -85.550; -770.000; -548.000
288.787;  -19.175; -243.000;  -87.000
288.926;  -63.025; -454.000; -475.000
289.065;  129.025;  859.000;  672.000
289.204;  -52.425; -377.000; -217.000
289.344;  -87.975; -791.000; -690.000
289.483;   24.450;  416.000;  304.000
289.622;  -15.500; -291.000; -149.000
289.761;  -11.675; -309.000; -166.000
289.900; -113.250; -785.000; -626.000
290.039;  -21.175;  -12.000;  -95.000
290.178;  -28.300; -274.000; -180.000
290.317;  -80.375; -618.000; -479.000
290.456;  -54.500; -463.000; -451.000
290.595; -149.025; -961.000; -833.000
290.734; -134.825; -904.000; -891.000
290.873;  -71.275; -456.000; -420.000
291.011; -105.950; -833.000; -843.000
291.150;  -96.100; -770.000; -682.000
291.289;  -31.775; -343.000; -110.000
291.428;  -90.475; -599.000; -480.000
291.567;  -56.600; -370.000; -442.000
291.706;  -10.575;  109.000;  154.000
291.845;  -89.200; -597.000; -505.000
291.984; -166.975;-1234.000;-1061.000
292.122;   70.350;  602.000;  582.000
292.261;   44.700;  620.000;  463.000
292.400;    2.975; -144.000;  211.000
292.539; -123.475; -959.000; -813.000
292.678;  -36.450; -325.000; -300.000
292.816; -155.550;-1136.000; -965.000
292.955;  -80.325; -844.000; -684.000
293.094;  -34.625; -173.000; -337.000
293.233;  -59.400; -556.000; -400.000
293.371;  -29.775; -225.000;  -84.000
293.510;  -94.200; -866.000; -780.000
293.649; -128.525; -959.000; -924.000
293.787;  -48.825;-1083.000;-1012.000
293.926;   -1.825; -113.000;  -32.000
294.065;  -39.050; -379.000; -290.000
294.203;   51.475;  298.000;  406.000
294.342;   28.175;   74.000;  156.000
294.481; 5911.425;51180.000; -836.000
294.619;  -25.975; -425.000; -582.000
294.758; -138.950;-1230.000;-1137.000
294.896;   86.850; -125.000;    5.000
295.035; -106.925;-1040.000;-1006.000
295.174; -102.500;-1082.000; -954.000
295.312;  -39.300; -323.000; -203.000
295.451;   10.025; -307.000; -428.000
295.589;  -38.175; -389.000; -518.000
295.728;   40.225; -292.000; -165.000
295.866;    9.725;  -36.000;  -51.000
296.005;  -44.375; -584.000; -341.000
296.143;  -73.575; -558.000; -596.000
296.282;  -98.175; -957.000; -881.000
296.420;  -81.800; -657.000; -557.000
296.559;  -76.900; -892.000; -633.000
296.697;   49.025; -847.000; -665.000
296.835;  111.825;-1141.000;-1002.000
296.974;   59.025;  -23.000;   39.000
297.112;   25.050; -443.000; -504.000
297.251;  -79.400; -815.000; -755.000
297.389;  127.675; -576.000; -438.000
297.527;   47.775; -145.000;  -83.000
297.666;  -30.175; -486.000; -438.000
297.804;  -58.825; -404.000; -264.000
297.942;   -1.200; -136.000; -161.000
298.081;   -3.650; -183.000;   63.000
298.219;   97.475;  -17.000;  -19.000
298.357;   59.350; -144.000;  -71.000
298.495;   69.975; -810.000; -812.000
298.634;  103.425;  245.000;  219.000
298.772;   83.200; -220.000; -338.000
298.910;  -30.850; -309.000; -182.000
299.048;    2.425; -130.000; -153.000
299.187;  -24.000; -350.000; -250.000
299.325;   21.275;   52.000;  122.000
299.463;   64.175; -389.000; -299.000
299.601;  133.300; -327.000; -271.000
299.739; -100.750; -908.000; -883.000
299.877;  -77.600; -791.000; -703.000
300.016;  -39.175;-1095.000; -935.000
300.154;  203.650;  -19.000; -161.000
300.292;   78.575; -428.000; -348.000
300.430;   50.625; -408.000; -291.000
300.568; -108.675; -940.000; -874.000
300.706;  -35.800; -366.000; -469.000
300.844;  -68.800;-1108.000; -979.000
300.982;  143.400;  246.000;  282.000
301.120; -102.875; -965.000; -866.000
301.258;  -53.425; -812.000; -705.000
301.396;   48.200;  104.000;  -41.000
301.534;  121.350; -218.000; -293.000
301.672;   29.500; -664.000; -521.000
301.810;   67.125; -613.000; -545.000
301.948;  142.575;   53.000;  149.000
302.086;  694.175; -250.000;  -32.000
302.224; 1082.100; -610.000; -585.000
302.362;   59.850; -558.000; -622.000
302.500;   -2.500; -923.000; -893.000
302.638;  139.025;  128.000;  245.000
302.776;    8.875; -352.000; -408.000
302.913;   44.500;  447.000;  236.000
303.051;    9.775;  -86.000;  -23.000
303.189;   61.575;   90.000;  118.000
303.327;  -50.125; -341.000; -256.000
303.465;  -84.225; -832.000; -588.000
303.603;  -84.525; -805.000; -604.000
303.740;  114.100;  417.000;  241.000
303.878;   29.825; -800.000; -759.000
304.016;  -87.250; -915.000; -790.000
304.154; -122.375;-1123.000;-1152.000
304.291;  -30.800; -505.000; -554.000
304.429;    5.450;  102.000;   74.000
304.567; -121.050; -908.000; -893.000
304.705;  -60.275; -408.000; -515.000
304.842;  118.600; -616.000; -540.000
304.980;   62.975;  215.000;   35.000
305.118;   68.400; -367.000; -365.000
305.255;  -56.925; -945.000; -927.000
305.393;   59.750;  178.000;  239.000
305.531;  -85.975;-1173.000; -956.000
305.668;  -52.800; -663.000; -582.000
305.806;   92.475; -358.000; -439.000
305.943;  110.075; -629.000; -637.000
306.081;   67.100; -378.000; -267.000
306.219;  -93.225; -863.000; -748.000
306.356;    2.775;  158.000;   27.000
306.494;  119.075;  981.000;  761.000
306.631;    6.700;  -11.000;  -55.000
306.769;    8.500; -613.000; -485.000
306.906;  -18.150; -284.000; -258.000
307.044;  -51.600; -473.000; -488.000
307.181;  -58.875; -410.000; -332.000
307.319;   22.150;  112.000;   87.000
307.456; -163.500;-1191.000;-1153.000
307.594;  -91.700; -980.000; -727.000
307.731;   -2.375; -371.000; -164.000
307.868;    6.775;  -15.000;   20.000
308.006; -130.125; -961.000; -847.000
308.143;  -56.450; -618.000; -330.000
308.281;  157.025;  -37.000; -254.000
308.418;   -1.100; -748.000; -640.000
308.555;  -67.875; -400.000; -250.000
308.693;  -75.200; -577.000; -573.000
308.830; -117.225; -712.000; -657.000
308.967;  -12.025; -215.000;  -95.000
309.105;  -50.600; -507.000; -396.000
309.242;   44.275; -468.000; -367.000
309.379;  303.000; -577.000; -655.000
309.517;  -65.650; -936.000; -948.000
309.654;  -98.775; -910.000; -734.000
309.791;  -63.550; -662.000; -580.000
309.928; -111.575; -977.000; -914.000
310.065;  207.575;  819.000;  697.000
310.203;   19.775; -825.000; -850.000
310.340;   21.775; -465.000; -321.000
310.477;  -76.050; -412.000; -516.000
310.614;  -50.650; -383.000; -473.000
310.751;  -76.775; -427.000; -518.000
310.889;   -7.400;    1.000;   11.000
311.026; -161.225;-1161.000; -939.000
311.163;  -29.950; -386.000; -380.000
311.300;  -65.950; -512.000; -479.000
311.437;  -67.000; -658.000; -619.000
311.574; -169.825;-1226.000; -985.000
311.711;  -53.350; -595.000; -433.000
311.848;  -44.125; -380.000; -388.000
311.985;   25.675;  270.000;   93.000
312.122; -126.650; -932.000; -762.000
312.259; -117.825; -941.000; -994.000
312.396;  -87.875; -508.000; -551.000
312.533;  -75.875; -812.000; -790.000
312.670; -131.050;-1070.000; -898.000
312.807;  -14.025; -352.000; -367.000
312.944;  -80.025; -513.000; -611.000
313.081;  -21.125; -150.000; -415.000
313.218;  -91.775;-1111.000; -867.000
313.355;   32.325; -531.000; -449.000
313.492;   17.975; -455.000; -292.000
313.629;  152.600;  815.000;  735.000
313.766; -164.800;-1176.000;-1008.000
313.902;    5.425; -186.000;   21.000
314.039;  -43.325; -372.000; -289.000
314.176;   41.200;  286.000;  192.000
314.313;  -84.300; -569.000; -473.000
314.450;  -63.950; -788.000; -684.000
314.587;  -61.475; -468.000; -480.000
314.723;   13.425;  -78.000;  130.000
314.860;   50.675;  318.000;  332.000
314.997;   37.475;  223.000;  142.000
315.134;  -35.100; -385.000; -368.000
315.270;  -11.225; -480.000; -496.000
315.407; -120.600;-1094.000; -967.000
315.544;  -41.600; -657.000; -538.000
315.681;  -57.825; -681.000; -565.000
315.817;   40.775; -133.000; -176.000
315.954;   26.900; -613.000; -392.000
316.091; -108.750;-1045.000;-1023.000
316.227;  -42.800;  -71.000; -179.000
316.364;   10.225;   23.000;    6.000
316.500;  -37.550; -113.000; -300.000
316.637;  -30.250; -181.000; -302.000
316.774;  -89.425; -625.000; -358.000
316.910;  -79.475; -598.000; -629.000
317.047;  -70.825; -487.000; -351.000
317.183;  -40.425; -435.000; -566.000
317.320;  -27.025; -367.000; -321.000
317.456;  -76.600; -733.000; -805.000
317.593;  -91.925; -598.000; -641.000
317.729;   12.300;  168.000;  -67.000
317.866; -185.525;-1434.000;-1285.000
318.002;  -76.825; -708.000; -948.000
318.139;  -88.675; -883.000; -867.000
318.275; -105.125;-1003.000; -738.000
318.412;  -57.675; -517.000; -336.000
318.548;  -11.225; -751.000; -720.000
318.685;  -84.550; -985.000; -888.000
318.821;  -90.150; -762.000; -735.000
318.957;  -31.400;   34.000;  -23.000
319.094;   45.850;  297.000;  154.000
319.230;  -34.025; -756.000; -742.000
319.367;  146.850; -471.000; -520.000
319.503;   72.000; -538.000; -436.000
319.639; -109.025; -877.000; -793.000
319.775;  -52.800; -750.000; -685.000
319.912;  -42.650; -424.000; -519.000
320.048;  -89.275;-1184.000;-1184.000
320.184;   70.525;   59.000;   70.000
320.321;  -77.600; -497.000; -467.000
320.457;   74.100;  475.000;  662.000
320.593;  -68.350; -375.000; -382.000
320.729;  -94.950; -732.000; -734.000
320.866;  -82.725; -577.000; -635.000
321.002;  -64.025; -759.000; -809.000
321.138;    1.375; -135.000; -211.000
321.274;   80.525; -148.000; -115.000
321.410;  -45.300; -585.000; -353.000
321.546;   -5.725;-1011.000; -911.000
321.683;   61.075;  400.000;  185.000
321.819;   18.450;  -48.000; -117.000
321.955; -116.225; -743.000; -722.000
322.091;  -26.325; -585.000; -540.000
322.227;   13.175; -382.000; -202.000
322.363;    0.375; -320.000; -215.000
322.499;  -39.800; -343.000; -331.000
322.635;  182.125;  636.000;  443.000
322.771;   31.700; -139.000;   12.000
322.907;  106.225;  129.000;  327.000
323.043;  -33.250; -115.000; -206.000
323.179;  -23.950; -394.000; -363.000
323.315;   37.450; -401.000; -371.000
323.451;  138.350; -328.000; -236.000
323.587;   65.975;  -60.000;  -77.000
323.723;   38.575; -682.000; -601.000
323.859;   -3.425; -258.000;  -76.000
323.995;  -23.600; -467.000; -409.000
324.131; -123.975; -967.000; -892.000
324.267;  -22.125; -254.000; -276.000
324.402; -120.925; -960.000; -983.000
324.538;   -1.075; -279.000; -104.000
324.674;   28.600;  164.000;   77.000
324.810;  184.475;  226.000;  308.000
324.946;   21.100; -810.000; -658.000
325.082;  -46.625; -568.000; -475.000
325.217;   -5.375;  -62.000;   16.000
325.353;  -88.925; -764.000; -659.000
325.489;  -85.025; -540.000; -506.000
325.625;  -68.425; -579.000; -525.000
325.760;   51.825;  517.000;  376.000
325.896;  -35.700; -515.000; -702.000
326.032;  -43.875; -403.000; -352.000
326.168;  -66.725; -462.000; -369.000
326.303;  -60.275; -352.000; -461.000
326.439;  -15.825; -336.000; -276.000
326.575;   -4.575; -190.000;  -29.000
326.710;   -8.550; -156.000;  -30.000
326.846;   -9.025;  146.000;  103.000
326.982;  -83.200; -530.000; -548.000
327.117;  -72.100; -481.000; -442.000
327.253;  -94.875; -745.000; -742.000
327.388; -143.175;-1137.000;-1153.000
327.524;  -16.575; -811.000; -578.000
327.659;  -26.925;  -58.000;  -22.000
327.795;   -6.025;   69.000;   45.000
327.931;  -91.375; -723.000; -499.000
328.066;  -14.900; -417.000; -276.000
328.202;   -9.650;   12.000; -129.000
328.337;  119.300;  957.000;  713.000
328.473;   41.200;  -12.000;  -74.000
328.608;    0.925; -256.000; -267.000
328.743;  -92.400; -799.000; -664.000
328.879;   24.200;  214.000;  114.000
329.014;  -27.500; -102.000; -122.000
329.150;  -77.975; -358.000; -483.000
329.285;  -80.275; -465.000; -466.000
329.421;  -45.475; -548.000; -246.000
329.556;  -11.800;  -36.000;   85.000
329.691;  -95.950; -633.000; -615.000
329.827;  -73.650; -626.000; -480.000
329.962;  -43.300;  131.000; -301.000
330.097; -104.600; -673.000; -585.000
330.233;  -52.425; -410.000; -223.000
330.368; -140.275; -839.000; -628.000
330.503;   -7.400;    3.000;   98.000
330.638;    7.350;  -93.000; -125.000
330.774;  -52.725; -609.000; -530.000
330.909;  -46.250; -434.000; -244.000
331.044;  -95.150; -714.000; -708.000
331.179; -176.275;-1217.000;-1109.000
331.315;   15.650;   77.000;   20.000
331.450;    7.300;  157.000;  285.000
331.585;  -74.050; -805.000; -706.000
331.720;  -69.250; -510.000; -460.000
331.855;   -5.725;  -35.000; -102.000
331.990;  196.475;   62.000;  138.000
332.126;  121.450; -110.000;   71.000
332.261;  -22.625; -379.000; -265.000
332.396;    8.300; -135.000; -242.000
332.531; -115.475;-1074.000;-1031.000
332.666;    3.400; -519.000; -363.000
332.801; -107.075; -726.000; -807.000
332.936;  -15.575; -192.000; -122.000
333.071; -135.700; -870.000; -817.000
333.206;   24.550;  307.000;  379.000
333.341;   34.075;  344.000;  418.000
333.476;  -80.375; -627.000; -623.000
333.611;  -33.975; -251.000; -173.000
333.746;  -29.725; -381.000; -464.000
333.881; -102.500; -973.000; -935.000
334.016; -103.125; -936.000; -917.000
334.151; -117.250; -746.000; -702.000
334.286;   44.975;  152.000;  186.000
334.421;    3.600; -125.000; -178.000
334.556;  -61.150; -611.000; -567.000
334.690;  -83.100; -631.000; -577.000
334.825;   55.450;  381.000;   83.000
334.960;  -30.825; -285.000; -413.000
335.095;   14.925;  135.000;  -91.000
335.230;  -86.650; -722.000; -738.000
335.365; -128.650;-1084.000; -990.000
335.499; -129.725;-1108.000;-1037.000
335.634;   45.050;    9.000;  534.000
335.769;  -95.975; -755.000; -720.000
335.904;  -37.875; -603.000; -561.000
336.038;  -43.150; -735.000; -657.000
336.173;  -95.550;-1206.000;-1194.000
336.308;   13.400; -116.000; -189.000
336.443;   38.650; -544.000; -634.000
336.577;  -58.975; -936.000; -787.000
336.712;   98.875;   -4.000;  -12.000
336.847;  -15.725; -724.000; -607.000
336.981;  105.225; -272.000; -208.000
337.116;  321.975;  615.000;  501.000
337.250;  201.800; -434.000; -421.000
337.385;  190.375; -297.000; -208.000
337.520;   46.825; -632.000; -603.000
337.654;  -29.475; -215.000; -126.000
337.789; -109.925; -989.000; -933.000
337.923;  -36.175; -104.000; -205.000
338.058;  -75.550; -673.000; -738.000
338.192;  -19.500; -611.000; -488.000
338.327;   10.600;  -18.000; -155.000
338.461;  -43.200; -299.000; -469.000
338.596;  -81.325; -780.000; -638.000
338.730; -102.025; -767.000; -803.000
338.865;   80.025;  -46.000; -140.000
338.999;  -59.400; -846.000; -702.000
339.134;  -41.500; -634.000; -536.000
339.268;    2.025; -741.000; -603.000
339.403;  307.725; -740.000; -775.000
339.537;   57.825; -894.000; -820.000
339.671; -112.050; -829.000; -813.000
339.806;  -87.025; -556.000; -512.000
339.940;    4.925; -261.000; -235.000
340.074;  -98.600; -685.000; -510.000
340.209;  -37.000; -351.000; -230.000
340.343;  -98.350; -517.000; -573.000
340.477;  152.125;  998.000; 1036.000
340.612;  -71.175;-1033.000; -900.000
340.746;   98.925; -199.000; -243.000
340.880;  -66.700; -924.000; -785.000
341.014;  -22.400;  -45.000; -154.000
341.149; -110.175; -756.000; -718.000
341.283; -102.250; -839.000; -754.000
341.417;  -79.800;-1124.000; -938.000
341.551;  204.150; -768.000; -708.000
341.685;  -34.275; -633.000; -611.000
341.820;  -50.900; -562.000; -493.000
341.954;  -42.175; -218.000; -349.000
342.088; -137.450;-1102.000;-1019.000
342.222;   50.450;  565.000;  618.000
342.356;  -53.900; -395.000; -335.000
342.490;  -84.625; -880.000; -841.000
342.624;  -50.400; -339.000; -242.000
342.758;   -2.950; -364.000; -312.000
342.892;  -49.425; -710.000; -585.000
343.026;  -43.300;  -58.000; -116.000
343.160;  -61.150; -426.000; -376.000
343.294;  -84.025; -474.000; -337.000
343.428;   -4.300; -488.000; -448.000
343.562;   -3.275; -172.000;  -23.000
343.696;    1.400; -385.000; -314.000
343.830;    0.375; -362.000; -356.000
343.964;   31.250; -231.000; -168.000
344.098; 1067.050;  199.000;   70.000
344.232;  921.275; -266.000; -127.000
344.366;  110.150; -567.000; -453.000
344.500;   84.150; -665.000; -744.000
344.634;   65.125; -324.000; -164.000
344.768;    7.175; -531.000; -341.000
344.902;   11.525;  278.000;  256.000
345.035;  -74.500; -556.000; -496.000
345.169; -122.900; -933.000; -656.000
345.303;  -32.100; -308.000; -482.000
345.437;  -52.725; -826.000; -717.000
345.571;  -68.475; -675.000; -594.000
345.704;  -56.150; -309.000; -532.000
345.838;  -16.975; -331.000; -284.000
345.972;  -30.700; -543.000; -495.000
346.106;  129.875; -179.000; -190.000
346.239;  412.450; -312.000; -243.000
346.373;   10.375; -343.000; -302.000
346.507; -146.225; -950.000; -962.000
346.640;  175.750;  -30.000;   13.000
346.774;  -31.475; -650.000; -797.000
346.908;    0.350; -138.000;  -11.000
347.041;  -98.550; -646.000; -593.000
347.175;   21.175;  259.000;   27.000
347.309;  -66.150; -698.000; -628.000
347.442;  -80.675; -883.000; -732.000
347.576;  315.100;  670.000;  668.000
347.709;  243.250; -123.000;  -52.000
347.843;  -86.325; -933.000; -825.000
347.976;   36.750;  235.000;  294.000
348.110; -181.975;-1268.000;-1186.000
348.243;  -91.100; -679.000; -772.000
348.377;    0.325;  -26.000;   60.000
348.510;   72.300;  403.000;  540.000
348.644;  -34.400;  -37.000; -159.000
348.777;    7.625;  180.000;  191.000
348.911;  -38.825; -142.000; -112.000
349.044;  189.350;  471.000;  448.000
349.178;  207.975;-1069.000;-1006.000
349.311;  108.150;  141.000;  255.000
349.444;  -18.750; -927.000; -813.000
349.578;  -10.225; -347.000; -200.000
349.711;  -95.600; -959.000; -862.000
349.845;   19.000; -661.000; -591.000
349.978; -141.450;-1224.000;-1137.000
350.111;  -79.425; -546.000; -612.000
350.244;  -78.350; -596.000; -700.000
350.378;   22.150; -392.000; -393.000
350.511;  -75.675; -393.000; -426.000
350.644; -104.225; -808.000; -806.000
350.778;    4.800;  168.000;  104.000
350.911;    8.925;  134.000;  140.000
351.044;  -98.925; -685.000; -615.000
351.177;   -9.750; -321.000; -281.000
351.310;  -16.825;    3.000; -131.000
351.444;  -45.750; -888.000; -788.000
351.577;  148.950;  140.000;   90.000
351.710;   92.925;  593.000;  417.000
351.843;  -28.675; -165.000;  -77.000
351.976;   10.525;  149.000;  -79.000
352.109;  -94.350; -621.000; -612.000
352.242;   -8.500; -464.000; -419.000
352.376;  -41.500; -580.000; -636.000
352.509;  247.125; -437.000; -356.000
352.642;   47.750; -654.000; -604.000
352.775;   71.125; -141.000;  -98.000
352.908; -108.925; -933.000; -904.000
353.041;  -98.550; -814.000; -824.000
353.174;  -63.350; -551.000; -424.000
353.307;  -70.175; -753.000; -764.000
353.440;   74.100;  541.000;  453.000
353.573; -117.800; -957.000;-1008.000
353.706;  -54.400; -384.000; -558.000
353.839;   -7.425; -264.000; -220.000
353.971;  -84.900; -657.000; -512.000
354.104;  -85.075; -896.000; -835.000
354.237;  -31.100; -627.000; -662.000
354.370;  -68.100; -846.000; -879.000
354.503; -171.350;-1231.000;-1308.000
354.636;  -18.225; -529.000; -348.000
354.769; -131.875; -937.000; -860.000
354.902;    3.400; -230.000; -139.000
355.034;  -19.725; -164.000; -220.000
355.167;  -11.400; -262.000; -162.000
355.300;  -96.825;-1061.000; -880.000
355.433;  850.450;  -71.000;  -14.000
355.565; 1301.650; -402.000; -384.000
355.698;  324.500; -356.000; -296.000
355.831;    8.350; -882.000; -801.000
355.964;  113.775; -285.000; -170.000
356.096;  -69.775; -856.000; -843.000
356.229;   31.425; -523.000; -530.000
356.362;  265.050; -373.000; -266.000
356.494;  522.475; -229.000; -162.000
356.627;  543.375;  269.000;  377.000
356.760;  601.650;  120.000;   53.000
356.892;  807.200; -286.000; -601.000
357.025;  756.600;  403.000;  389.000
357.157;  728.975; -167.000; -179.000
357.290;  514.775; -856.000; -713.000
357.423;  166.875; -667.000; -556.000
357.555;  143.600; -217.000; -228.000
357.688;  149.475; -483.000; -364.000
357.820;  516.125; -870.000; -877.000
357.953; 4017.750; -563.000; -589.000
358.085;  957.050; -632.000; -612.000
358.218; 1502.775;-1131.000; -932.000
358.350;  296.350;  -58.000;  312.000
358.483; -105.400;-1300.000;-1187.000
358.615;   26.100;-1182.000;-1078.000
358.747;  -30.000;-1187.000;-1058.000
358.880;   58.150; -810.000; -744.000
359.012;  -12.325; -376.000; -202.000
359.145;  -40.350; -480.000; -511.000
359.277;   97.925; -962.000; -913.000
359.409; 3379.975;  536.000;  231.000
359.542;  899.250; -738.000; -688.000
359.674;   79.125;   46.000;   13.000
359.806;  -63.225; -565.000; -438.000
359.939;  -42.200; -617.000; -516.000
360.071;  -20.875; -583.000; -579.000
360.203;  -14.200; -411.000; -364.000
360.335;   49.375;  164.000;  -16.000
360.468;  220.600; -249.000; -307.000
360.600; 2589.100; -547.000; -454.000
360.732; 2376.925; -546.000; -423.000
360.864;  317.200;-1216.000;-1044.000
360.996;  375.650; -516.000; -554.000
361.129;   56.250; -389.000; -598.000
361.261;   32.825;  110.000; -113.000
361.393;  -28.800; -252.000; -214.000
361.525;   41.000;   94.000;  244.000
361.657;  -35.900; -821.000; -703.000
361.789;   28.775; -139.000; -155.000
361.921;  305.675; -642.000; -593.000
362.053;  303.325;  524.000;  541.000
362.185;   58.575;  288.000;   72.000
362.318;  -55.925; -709.000; -705.000
362.450;  185.100;  294.000;  444.000
362.582;  226.325; -913.000; -870.000
362.714;  -24.550; -353.000; -332.000
362.846;  -88.175; -606.000; -490.000
362.978; -149.750; -941.000; -811.000
363.109;   67.000; -161.000; -260.000
363.241;  529.475; -739.000; -749.000
363.373;  392.650; -649.000; -564.000
363.505;  555.400; -186.000;  -91.000
363.637;  133.025; -787.000; -601.000
363.769; -117.300;-1067.000;-1080.000
363.901;  -58.525; -596.000; -654.000
364.033; -116.825;-1103.000;-1062.000
364.165;   15.300; -283.000; -283.000
364.296;   60.000; -316.000; -177.000
364.428;   44.325;-1344.000;-1220.000
364.560;  -67.125; -679.000; -661.000
364.692;  -39.450; -738.000; -835.000
364.824;  373.075; -588.000; -456.000
364.955;  424.050; -402.000; -564.000
365.087;  681.850;-1097.000; -852.000
365.219;   -3.025; -686.000; -816.000
365.351;  -67.475; -526.000; -572.000
365.482;   50.575;  300.000;  240.000
365.614;  -47.075; -402.000; -314.000
365.746;  -93.200; -729.000; -752.000
365.877; -105.375; -706.000; -672.000
366.009;  208.325;  -35.000;  -62.000
366.141; -102.500;-1249.000;-1134.000
366.272;  -96.075; -803.000; -719.000
366.404; -115.600;-1005.000; -874.000
366.535;   -9.975; -139.000;  -12.000
366.667; -102.350; -644.000; -649.000
366.799;   39.500;  353.000;  203.000
366.930; -106.550; -862.000; -996.000
367.062;  117.775; -639.000; -613.000
367.193;   77.175; -872.000; -842.000
367.325;  -59.475; -580.000; -684.000
367.456;   99.275; -246.000;   31.000
367.588;  138.625; -371.000; -318.000
367.719;   23.900;  -44.000;  -45.000
367.851;   -7.700; -222.000; -241.000
367.982;  -30.650; -875.000; -732.000
368.113;  135.825; -475.000; -358.000
368.245; -103.225; -960.000; -841.000
368.376;  -17.200; -254.000; -302.000
368.508;  -41.900; -188.000; -263.000
368.639; -116.350;-1166.000;-1034.000
368.770;    8.250; -670.000; -589.000
368.902;  -50.275; -836.000; -926.000
369.033; -103.750; -906.000; -855.000
369.164;  -50.425; -720.000; -653.000
369.296;  -94.875; -452.000; -601.000
369.427;   17.750; -209.000; -144.000
369.558;  -38.975; -593.000; -377.000
369.689;  -77.225; -721.000; -569.000
369.821; -132.675; -951.000; -845.000
369.952;  -16.750;   42.000; -108.000
370.083;  -53.125; -229.000; -108.000
370.214;  -86.950; -735.000; -650.000
370.345;   -3.350;   65.000;   81.000
370.477;  -69.825; -810.000; -790.000
370.608;  287.225; -328.000; -264.000
370.739;  -23.350;-1233.000;-1292.000
370.870;  -22.225;-1102.000; -923.000
371.001;  132.200; -378.000; -467.000
371.132;  -77.425; -754.000; -735.000
371.263;   -7.575;  -42.000; -148.000
371.394; -131.475; -841.000; -748.000
371.525;   41.000;  345.000;  225.000
371.657;  -92.650; -808.000; -670.000
371.788;   79.750;  103.000;  199.000
371.919;  210.700; -384.000; -304.000
372.050; 4184.000;  -91.000; -156.000
372.181; 1228.700; -188.000; -294.000
372.311;  458.575;   42.000; -127.000
372.442;   62.950; -457.000; -451.000
372.573;  -15.325; -444.000; -340.000
372.704; -122.325;-1008.000; -980.000
372.835;  119.000; -228.000; -289.000
372.966;  -52.450; -646.000; -554.000
373.097;  -55.800; -575.000; -711.000
373.228;  -26.900; -717.000; -542.000
373.359;  184.525; -824.000; -536.000
373.490; 1123.375; -881.000; -727.000
373.620; 1430.775;-1001.000; -803.000
373.751; 2199.100; -332.000; -396.000
373.882;  971.450; -663.000; -733.000
374.013;  105.925; -449.000; -262.000
374.143;  -24.625; -581.000; -659.000
374.274; -104.275; -987.000; -908.000
374.405;  214.850; -388.000; -276.000
374.536;  539.425; -526.000; -387.000
374.666; 1395.150; -759.000; -807.000
374.797;  309.850; -817.000; -868.000
374.928; 1069.825; -710.000; -560.000
375.058; 1081.200; -535.000; -500.000
375.189;  111.850;  -59.000;  -93.000
375.320;  -88.800; -928.000;-1034.000
375.450;  -32.600; -625.000; -616.000
375.581;  -45.450; -526.000; -436.000
375.712;  -13.925; -574.000; -250.000
375.842;  384.925; -438.000; -415.000
375.973;  299.100; -554.000; -513.000
376.103;  -24.200; -665.000; -648.000
376.234;  -67.450; -531.000; -552.000
376.364;  -19.875; -944.000; -867.000
376.495;  375.150;  925.000;  529.000
376.625;   22.075; -472.000; -485.000
376.756;  101.950; -709.000; -678.000
376.886;  -57.650;-1178.000;-1026.000
377.017;   19.150;-1048.000;-1061.000
377.147;  267.775; -786.000; -782.000
377.278;   51.200;  174.000;  228.000
377.408; -116.850; -801.000; -815.000
377.538;  -97.950; -707.000; -693.000
377.669;  -69.750; -537.000; -613.000
377.799;  -66.175; -645.000; -635.000
377.929;  -42.100; -610.000; -428.000
378.060; -127.925; -781.000; -847.000
378.190;  -61.775; -726.000; -531.000
378.320;  -42.475; -401.000; -406.000
378.451;   -6.300; -131.000;  -22.000
378.581;   -5.550;  -67.000; -110.000
378.711;  159.775; 1035.000;  866.000
378.841;    0.375; -533.000; -675.000
378.972;  -69.975; -871.000; -751.000
379.102;   25.800; -652.000; -579.000
379.232;  -14.675; -126.000;  -73.000
379.362;  -98.825;-1001.000; -885.000
379.492;   30.425; -373.000; -424.000
379.623;  132.150;    0.000;  111.000
379.753;  -86.900;-1107.000; -974.000
379.883;  250.650;   59.000;  156.000
380.013;   30.725;-1081.000;-1017.000
380.143;  -87.625;-1097.000;-1056.000
380.273;  -94.300; -985.000; -861.000
380.403;   25.750; -344.000; -257.000
380.533;  -13.700; -651.000; -664.000
380.663;   98.200;  173.000;  128.000
380.793;  -76.700;-1027.000;-1074.000
380.923;  -22.000; -103.000;  -34.000
381.053; -101.300; -613.000; -623.000
381.183;  -24.050; -106.000; -248.000
381.313;   51.575; -656.000; -470.000
381.443;   70.350; -692.000; -473.000
381.573;  266.650; -402.000; -409.000
381.703;  425.600;-1249.000;-1095.000
381.833; -115.925;-1454.000;-1336.000
381.963;  139.000; -134.000;  -87.000
382.093; 1586.800; -925.000; -909.000
382.223;  497.425; -713.000; -602.000
382.353;   -1.775; -801.000; -608.000
382.482;  507.600;-1091.000; -964.000
382.612;  899.475; -872.000; -644.000
382.742;  510.350; -695.000; -622.000
382.872;  353.075; -565.000; -551.000
383.002;   81.350;  347.000; -132.000
383.131;   -5.400; -226.000; -160.000
383.261;  -41.450; -706.000; -768.000
383.391;  268.225; -552.000; -377.000
383.521; 2638.425;  451.000;  263.000
383.650;  564.400; -947.000; -904.000
383.780;  -23.175; -783.000; -656.000
383.910;  115.650;  880.000;  802.000
384.039;   52.975; -794.000; -656.000
384.169;  292.275;-1205.000;-1017.000
384.299;   12.375; -650.000; -662.000
384.428;  -74.700; -764.000; -680.000
384.558;  -39.250; -308.000; -275.000
384.687;  -36.475; -414.000; -334.000
384.817;   18.975;   75.000;   -2.000
384.947;   35.700; -234.000; -141.000
385.076;  353.425;  982.000;  912.000
385.206;  125.525;  369.000;  480.000
385.335;  -14.175; -549.000; -417.000
385.465;  -71.600; -655.000; -663.000
385.594;  182.300;  -53.000;  -44.000
385.724;  577.075; -868.000; -838.000
385.853;  166.500; -296.000; -270.000
385.982; 1659.050; -743.000; -787.000
386.112; 2571.550;-1052.000; -871.000
386.241;  191.775; -307.000; -312.000
386.371;   44.300; -174.000;  -87.000
386.500;   11.800; -825.000; -789.000
386.629;   48.475; -874.000; -817.000
386.759;   75.275;  -43.000;   68.000
386.888;   17.250; -170.000; -250.000
387.017;  -60.000; -648.000; -620.000
387.147;  -56.450; -771.000; -798.000
387.276;   27.975; -410.000; -397.000
387.405;   33.800; -398.000; -342.000
387.535;  -27.000; -452.000; -361.000
387.664;  -63.350; -692.000; -620.000
387.793;   81.050; -198.000; -113.000
387.922;  659.475;  255.000;  200.000
388.052;   48.700; -576.000; -423.000
388.181;   83.250; -342.000; -472.000
388.310;   70.425; -889.000; -710.000
388.439;   -1.450; -749.000; -742.000
388.568;  239.200;  365.000;  244.000
388.697; 1300.175; -756.000; -653.000
388.826;  279.850; -768.000; -666.000
388.956;   94.950; -285.000; -307.000
389.085;  -26.675; -347.000; -287.000
389.214;  -99.725; -842.000; -872.000
389.343;  -72.400; -645.000; -413.000
389.472;  367.425;  126.000;  149.000
389.601;  502.275;   91.000;    0.000
389.730;   44.075; -568.000; -687.000
389.859;   86.725;  226.000;   46.000
389.988;  249.500; -423.000; -408.000
390.117;  176.475; -168.000; -146.000
390.246;   15.575; -331.000; -320.000
390.375;  166.350; -673.000; -626.000
390.504;  -55.400; -703.000; -621.000
390.633;  -79.050; -672.000; -726.000
390.761;  -50.300; -732.000; -645.000
390.890;   42.750;   -4.000; -130.000
391.019;  -16.475; -421.000; -441.000
391.148; -119.950; -826.000; -855.000
391.277;  -55.925; -576.000; -493.000
391.406;  -66.150; -821.000; -805.000
391.534;   39.975;  574.000; -301.000
391.663;  -60.100; -583.000; -645.000
391.792;  -60.325; -673.000; -701.000
391.921;  145.700;   -3.000;   15.000
392.050;  275.200; -287.000; -228.000
392.178;    1.100;-1206.000;-1061.000
392.307;  199.175; -758.000; -712.000
392.436;  114.500; -427.000; -641.000
392.564;   24.350;  166.000;   -6.000
392.693;  -86.650; -860.000; -682.000
392.822;  280.000; -529.000; -534.000
392.950;  128.650; -880.000; -714.000
393.079;  415.425; -188.000; -328.000
393.208;   53.450; -488.000; -511.000
393.336;   -9.350; -170.000; -145.000
393.465;  -47.675; -317.000; -199.000
393.593;   10.725;   62.000;   79.000
393.722; -155.600;-1121.000; -916.000
393.850;  -27.750; -188.000;  -61.000
393.979; -170.500; -926.000; -805.000
394.107;  -54.250; -517.000; -537.000
394.236;  -21.675; -570.000; -507.000
394.364;  226.900;  383.000;  206.000
394.493;  335.525; -911.000; -767.000
394.621;  -14.050; -955.000; -916.000
394.750;  609.025; -873.000; -923.000
394.878; 2551.475; -247.000; -149.000
395.007; 3444.375; -721.000; -807.000
395.135;  257.900; -790.000; -721.000
395.263; -105.250;-1038.000;-1040.000
395.392;   -2.175;  -25.000; -107.000
395.520; -146.025; -818.000; -679.000
395.648;  -80.875; -865.000; -915.000
395.777;  -14.100; -366.000; -405.000
395.905;  -51.700; -449.000; -564.000
396.033;    7.600;  217.000;  172.000
396.162;  559.075; -399.000; -453.000
396.290;  482.900;  -17.000;   -2.000
396.418;  124.650; -555.000; -514.000
396.546;  -82.850; -571.000; -466.000
396.674;  -83.800; -850.000; -878.000
396.803;   11.675;  -72.000;  -23.000
396.931;  122.375; -179.000; -199.000
397.059;  111.425;-1026.000; -989.000
397.187;  -92.825;-1026.000; -975.000
397.315; -131.875; -884.000; -649.000
397.443;  -77.850; -592.000; -443.000
397.572;  -88.325; -578.000; -424.000
397.700;   26.425; -607.000; -614.000
397.828;   25.025;  120.000;  -90.000
397.956;  -47.250; -508.000; -478.000
398.084;  -76.625; -767.000; -626.000
398.212;   35.325;  137.000;  124.000
398.340;   21.625;  -56.000;  159.000
398.468;   53.750; -390.000; -169.000
398.596; -135.975; -993.000; -953.000
398.724; -110.400; -762.000; -767.000
398.852; -158.125;-1024.000; -976.000
398.980;  -69.100; -560.000; -560.000
399.108;  -32.050; -982.000; -735.000
399.236;   51.975;   13.000;    8.000
399.363;   25.625;  222.000;  196.000
399.491;  -58.825; -404.000; -398.000
399.619; -124.225; -829.000; -800.000
399.747;  -92.650; -859.000; -771.000
399.875;   81.125;  220.000;  234.000
400.003;  -39.525; -359.000; -284.000
400.130;  -92.050; -421.000; -341.000
400.258;  -26.500;  -83.000;   38.000
400.386;  -67.800; -352.000; -168.000
400.514;  -30.375; -526.000; -587.000
400.641;  -67.025; -928.000; -802.000
400.769; -133.050; -979.000; -888.000
400.897;  -88.350; -838.000; -793.000
401.025;    1.125; -166.000; -152.000
401.152;   -3.325;  220.000;   38.000
401.280;  -78.050; -430.000; -429.000
401.408; -118.550; -712.000; -576.000
401.535;  -91.750; -735.000; -758.000
401.663; -196.175;-1134.000;-1054.000
401.790;  -82.600; -514.000; -525.000
401.918;   34.500;  436.000;  405.000
402.046;  -23.325;  134.000;  122.000
402.173;  -39.275;  -18.000;    7.000
402.301;  -63.700; -519.000; -397.000
402.428;   39.200;  528.000;  383.000
402.556; -136.150;-1188.000; -913.000
402.683;  -28.650;  -20.000;   -1.000
402.811;  -15.325;  -37.000; -206.000
402.938;   -8.750;   20.000;   27.000
403.066;  278.200; -574.000; -558.000
403.193;  390.775;  299.000;  239.000
403.321;  344.550; -396.000; -574.000
403.448;  403.025;   83.000;   27.000
403.575;  185.175;  -90.000;  -46.000
403.703;  -89.525; -732.000; -557.000
403.830;  -60.925; -531.000; -496.000
403.957; -145.875;-1117.000;-1023.000
404.085;   22.025;  -61.000; -172.000
404.212;  111.025;  -50.000;   63.000
404.339;  233.150; -566.000; -306.000
404.467; 4980.325; -612.000; -524.000
404.594; 3585.325; -287.000; -227.000
404.721;  939.300; -869.000; -764.000
404.848;   98.325; -113.000; -202.000
404.976; -102.575; -856.000; -783.000
405.103;  -12.125;  -14.000;  -82.000
405.230;    4.125;  190.000;  226.000
405.357;   34.450;  117.000;   44.000
405.484;  219.450;  -49.000;    5.000
405.612;   43.300; -548.000; -563.000
405.739;  -61.700; -488.000; -243.000
405.866;   87.875;  669.000;  385.000
405.993;  -36.600; -398.000; -102.000
406.120; -133.025; -801.000; -887.000
406.247;  -66.825; -323.000; -342.000
406.374;  541.475;  540.000;  629.000
406.501;  174.625; -632.000; -702.000
406.628;  -72.275; -621.000; -589.000
406.755;  -85.750; -803.000; -620.000
406.882;  -45.075; -228.000; -277.000
407.009;  -95.750; -719.000; -628.000
407.136;   86.750; -480.000; -401.000
407.263;  211.400; -939.000; -829.000
407.390;  -68.875; -692.000; -614.000
407.517; -157.000;-1139.000;-1187.000
407.644;  -49.675; -332.000; -256.000
407.771;  -78.050; -249.000; -287.000
407.898;   11.650;  168.000;  328.000
408.025;  -77.100; -421.000; -313.000
408.151;   -5.750;   82.000;  153.000
408.278;  -63.375; -267.000; -216.000
408.405; -103.500; -931.000; -899.000
408.532;  -73.250; -549.000; -542.000
408.659; -111.350; -677.000; -648.000
408.785; -209.500;-1298.000;-1170.000
408.912;  -67.050; -412.000; -296.000
409.039; -110.150; -610.000; -686.000
409.166; -111.000; -591.000; -555.000
409.292; -118.700; -571.000; -534.000
409.419; -116.025; -665.000; -649.000
409.546;  -96.175; -431.000; -192.000
409.672;  -89.825; -713.000; -545.000
409.799;  -21.525;  -36.000;   34.000
409.926;  -27.425; -180.000; -179.000
410.052; -170.675;-1127.000;-1091.000
410.179;  -54.050; -368.000; -392.000
410.305; -100.100; -375.000; -493.000
410.432;  -43.800; -220.000; -333.000
410.558;  -90.125; -305.000; -380.000
410.685; -106.025; -688.000; -431.000
410.812;  -98.425; -409.000; -588.000
410.938; -130.625; -964.000; -808.000
411.065; -109.125; -671.000; -645.000
411.191;  -13.075; -189.000; -174.000
411.317; -126.100; -823.000; -742.000
411.444;  -58.600; -317.000; -246.000
411.570;  -79.950; -339.000; -294.000
411.697; -129.375; -758.000; -752.000
411.823; -172.450; -989.000; -999.000
411.949;  -29.275;  -56.000;   17.000
412.076; -101.700; -539.000; -519.000
412.202; -104.550; -758.000; -757.000
412.329; -130.525; -798.000; -752.000
412.455; -114.350; -821.000; -657.000
412.581;  -18.250;  -15.000;  172.000
412.707;  -47.525; -540.000; -457.000
412.834;    9.350;  156.000;  219.000
412.960;  -68.850; -785.000; -784.000
413.086; -111.525; -743.000; -701.000
413.212;  175.450;  604.000;  578.000
413.339;  -49.025; -685.000; -701.000
413.465;   25.450; -364.000; -310.000
413.591;  -84.075; -757.000; -474.000
413.717;  -57.075; -358.000; -366.000
413.843; -140.950; -839.000; -861.000
413.969;  -65.725;  -47.000; -292.000
414.096;  -99.725; -679.000; -679.000
414.222;   -1.900;  -33.000;   85.000
414.348;    0.825; -652.000; -385.000
414.474;  132.400;   38.000;  -52.000
414.600;  -19.850; -126.000; -144.000
414.726;  -12.100;  -96.000;  -55.000
414.852;  -67.075; -365.000; -342.000
414.978;   36.175;  104.000;  -18.000
415.104;   31.850;   38.000;   80.000
415.230;   20.625; -329.000; -330.000
415.356;   27.150; -409.000; -514.000
415.482;  185.725;   13.000;  -35.000
415.608;  243.850; -247.000; -323.000
415.734;  857.425;   67.000;   38.000
415.860;18172.800; -875.000; -767.000
415.986;13229.225; -685.000; -607.000
416.111; 1108.275; -798.000; -652.000
416.237;  213.550; -424.000; -571.000
416.363;  951.475; -765.000; -733.000
416.489; 3611.925; -324.000; -251.000
416.615;  354.600; -707.000; -742.000
416.741;  -43.775; -677.000; -784.000
416.866; -103.850; -673.000; -736.000
416.992; -112.075; -801.000; -818.000
417.118;  -20.850;  -41.000;  -80.000
417.244;  -59.200; -798.000; -531.000
417.369;  -86.550; -801.000; -612.000
417.495;   -0.550; -325.000; -254.000
417.621;  -83.175;-1015.000; -803.000
417.746;    8.700; -579.000; -572.000
417.872;   41.600; -254.000; -144.000
417.998;   50.875; -515.000; -530.000
418.123;  886.825;-1073.000; -845.000
418.249; 4731.250; -512.000; -601.000
418.374;  620.175; -916.000; -824.000
418.500;   95.800; -383.000; -482.000
418.626;   97.225;   70.000;  -59.000
418.751;  114.050; -549.000; -448.000
418.877;  171.600; -637.000; -643.000
419.002; 1586.775; -688.000; -560.000
419.128;10952.700; -930.000; -721.000
419.253; 2692.625; -967.000; -837.000
419.379;  345.600; -391.000; -338.000
419.504;  347.125;  325.000;  415.000
419.629;  422.225; -393.000; -212.000
419.755; 2970.950; -317.000; -254.000
419.880;17667.375;  -98.000;   67.000
420.006; 9979.675; -280.000; -221.000
420.131;26158.425; -662.000; -775.000
420.256; 3824.225; -315.000; -316.000
420.382;  498.425; -665.000; -687.000
420.507;   54.225; -649.000; -778.000
420.632;  178.650; -337.000; -339.000
420.758;  337.625; -251.000; -425.000
420.883;  -72.925; -876.000; -672.000
421.008;  -92.425; -775.000; -619.000
421.133;  -80.500; -509.000; -467.000
421.259;  -50.250; -325.000; -259.000
421.384; -111.175; -834.000; -693.000
421.509;   -6.350;-1052.000; -862.000
421.634; 1577.600; -936.000; -820.000
421.759;  667.575; -359.000; -327.000
421.885;  -39.850; -717.000; -656.000
422.010;  -73.950; -673.000; -542.000
422.135; -146.075; -695.000; -727.000
422.260;   34.800;  340.000;  280.000
422.385;  -51.550;   12.000;  -98.000
422.510;   20.875;  151.000;  -26.000
422.635;    8.950;  -87.000;  -43.000
422.760;  114.625; -766.000; -791.000
422.885;   53.925;  -57.000;  -80.000
423.010;  -26.075; -112.000; -169.000
423.135; -103.850; -481.000; -561.000
423.260;    4.275; -150.000; -245.000
423.385;   86.625;  476.000;  222.000
423.510;   46.225;   71.000;  -22.000
423.635;   87.300;  133.000;   45.000
423.760;   68.550;  383.000;  328.000
423.885;   43.225;  336.000;  391.000
424.010;    3.050;  -68.000;  -13.000
424.135;  -20.450;    5.000;  -33.000
424.259;  -92.725; -654.000; -457.000
424.384;  -70.250; -279.000; -272.000
424.509;   -7.825; -260.000; -186.000
424.634; -103.950; -761.000; -623.000
424.759;  -17.225; -688.000; -544.000
424.883;  -22.750; -506.000; -527.000
425.008;  143.375; -502.000; -410.000
425.133; 1761.600; -679.000; -653.000
425.258;  827.175; -517.000; -381.000
425.382; 1150.200; -867.000; -774.000
425.507; 3022.950; -487.000; -543.000
425.632;  473.850; -802.000; -663.000
425.756;  398.350; -256.000; -146.000
425.881; 5301.375; -831.000; -857.000
426.006;14222.875; -604.000; -355.000
426.130; 2295.550; -696.000; -508.000
426.255;  289.350; -611.000; -491.000
426.379;  117.875; -189.000; -577.000
426.504;  347.200;  660.000;  544.000
426.629; 3697.200; -519.000; -466.000
426.753; 2531.075;   64.000;  -46.000
426.878;  289.650; -252.000; -288.000
427.002;  173.975; -651.000; -668.000
427.127; 1457.850;  -35.000; -158.000
427.251; 9917.800;  372.000;  401.000
427.375; 2868.675; -191.000; -173.000
427.500; 2594.050; -616.000; -610.000
427.624;  901.675; -234.000; -400.000
427.749;  107.500; -216.000; -225.000
427.873;  -21.575; -499.000; -412.000
427.997;  -35.500; -222.000; -230.000
428.122;   74.675;  795.000;  703.000
428.246;   80.825;  433.000;  434.000
428.371; -123.675; -869.000; -773.000
428.495; -100.125; -624.000; -646.000
428.619;  -28.125; -186.000; -117.000
428.743;   42.400;   65.000;  132.000
428.868;   29.450; -732.000; -643.000
428.992; 1683.150; -219.000; -326.000
429.116;  689.450; -329.000; -357.000
429.240;  356.925;  419.000;  426.000
429.365;  -10.050; -454.000; -574.000
429.489;  -28.825; -638.000; -647.000
429.613;   13.250; -236.000; -177.000
429.737;   26.650; -563.000; -432.000
429.861;  248.975; -247.000; -133.000
429.985; 4955.575; -425.000; -305.000
430.109; 5429.300; -770.000; -908.000
430.234;  625.075;   76.000;  -50.000
430.358;   64.525; -250.000; -160.000
430.482;  -58.850; -672.000; -564.000
430.606;  -67.925; -655.000; -375.000
430.730;   45.000; -437.000; -388.000
430.854;  177.325; -909.000; -835.000
430.978;  -47.825; -795.000; -764.000
431.102;  -82.775; -499.000; -422.000
431.226; -106.575; -874.000; -815.000
431.350;   39.750;  345.000;  422.000
431.474;  -59.250; -661.000; -373.000
431.597; -148.775;-1060.000; -848.000
431.721;  -70.350; -276.000; -267.000
431.845; -143.800; -704.000; -472.000
431.969;  -79.300; -304.000; -349.000
432.093;  -91.700; -395.000; -317.000
432.217;  -28.550;   32.000;   82.000
432.341;  -73.075; -523.000; -518.000
432.464;   16.075;   96.000;   40.000
432.588;  265.350; -401.000; -329.000
432.712;  127.200;  -52.000;  -52.000
432.836;   23.350;  213.000;  263.000
432.959;  -17.525; -372.000; -311.000
433.083;   70.000;   11.000;    2.000
433.207;  338.075;  285.000;  930.000
433.330; 4328.500; -391.000; -200.000
433.454; 5390.850; -654.000; -638.000
433.578; 3136.375;  583.000;  278.000
433.701;  601.075; -623.000; -675.000
433.825;  175.275; -292.000; -299.000
433.949;  274.025;   28.000;  -72.000
434.072;  108.025; -410.000; -323.000
434.196;  -11.550; -309.000; -117.000
434.319; 3700.250;25482.000;25124.000
434.443;  714.125; -656.000; -603.000
434.566; 2311.950;  281.000;   62.000
434.690;  386.000; -637.000; -383.000
434.813;   55.800; -251.000; -173.000
434.937;  -76.775; -569.000; -696.000
435.060;  -20.525; -423.000; -332.000
435.184;  483.750; -492.000; -217.000
435.307;  241.900;  159.000;  102.000
435.431;    0.050;  -40.000;   24.000
435.554;  -74.875; -399.000; -240.000
435.677;  -77.700; -350.000; -258.000
435.801;  -39.100;  -25.000;   49.000
435.924;   27.600;    1.000;  -67.000
436.048;  -95.975;-1019.000; -732.000
436.171;  -78.875; -240.000;  -66.000
436.294;  -35.550; -248.000; -229.000
436.417;   56.350; -963.000; -849.000
436.541;  -98.825; -814.000; -840.000
436.664;  -49.625; -242.000; -316.000
436.787;  -15.850;   13.000;  113.000
436.910;  -96.000; -792.000; -422.000
437.034;   10.075;  142.000;  143.000
437.157;   73.375;  -11.000;    0.000
437.280;  -54.300; -392.000; -292.000
437.403;  -69.575; -982.000; -869.000
437.526;  907.525; -903.000; -865.000
437.649; 3152.850; -505.000; -332.000
437.772;  496.825; -692.000; -540.000
437.896;  152.925;  700.000;  544.000
438.019;  -83.625; -758.000; -503.000
438.142;  -71.300; -596.000; -506.000
438.265;    9.575; -639.000; -670.000
438.388;  732.075; -520.000; -410.000
438.511;  162.700; -597.000; -394.000
438.634;  -27.050; -247.000; -125.000
438.757; -142.825; -693.000; -619.000
438.880;  -31.500;  -34.000;  -57.000
439.003;  -70.050; -417.000; -437.000
439.126;  -60.900; -287.000; -167.000
439.248;  -68.350;  -98.000; -139.000
439.371;  -47.100;    9.000;  -53.000
439.494;   20.550;  510.000;  439.000
439.617;  -48.600;   65.000;  -88.000
439.740; -190.550; -968.000; -816.000
439.863; -149.200; -755.000; -595.000
439.986; -126.900; -476.000; -431.000
440.108;  -49.975; -161.000; -112.000
440.231; -161.700; -950.000; -836.000
440.354;  -26.325;  -64.000; -150.000
440.477;   61.800; -566.000; -542.000
440.599;   30.825; -200.000; -225.000
440.722; -129.375; -709.000; -586.000
440.845;   79.150;  751.000;  928.000
440.968; -125.550; -415.000; -311.000
441.090;  -52.525; -199.000;  -33.000
441.213; -169.350;-1021.000; -825.000
441.336;  -57.800; -159.000;   -5.000
441.458;  -72.350; -549.000; -396.000
441.581;  -85.375; -628.000; -629.000
441.703;  -91.050; -152.000;   13.000
441.826; -109.200; -557.000; -400.000
441.948;  -49.600;   56.000;   51.000
442.071;   31.225;  555.000;  424.000
442.193; -126.200; -531.000; -485.000
442.316;   22.225;  152.000;   97.000
442.438;   22.150; -233.000;  -10.000
442.561;   67.625;  272.000;  262.000
442.683;  752.000; -809.000; -522.000
442.806; 1564.500;   -8.000;   74.000
442.928;   77.800; -859.000; -604.000
443.051;  -56.000; -577.000; -373.000
443.173; -107.675; -341.000; -339.000
443.295;  -85.300; -263.000; -371.000
443.418;  -76.800; -321.000;  -29.000
443.540;   -0.275; -106.000;   -4.000
443.662; -121.275; -563.000; -465.000
443.785;  -18.425;  335.000;  199.000
443.907; -118.250; -362.000; -208.000
444.029; -132.475; -767.000; -494.000
444.152; -150.375; -644.000; -554.000
444.274;  -36.100;  -18.000;  -24.000
444.396; -115.450; -461.000; -221.000
444.518; -136.575; -691.000; -454.000
444.640;  -97.525; -268.000; -111.000
444.763;   -3.850;  388.000;  249.000
444.885; -131.300; -432.000; -392.000
445.007;  -19.300;   35.000;   86.000
445.129; -131.025; -610.000; -515.000
445.251; -104.050; -372.000; -439.000
445.373; -148.125; -537.000; -386.000
445.495;    1.625;  242.000;  350.000
445.617;   49.125;  853.000;  753.000
445.739;  -64.325; -215.000;  -97.000
445.861;  -41.575; -245.000; -112.000
445.984;  -30.275; -267.000; -101.000
446.105;  265.150; -418.000; -251.000
446.227;  779.625; -176.000;  -19.000
446.349;   36.925; -358.000; -249.000
446.471;  -84.850; -615.000; -448.000
446.593;  -63.675; -316.000;   19.000
446.715;   13.125;  -67.000;   41.000
446.837;   55.000;  697.000;  832.000
446.959; -110.675; -457.000; -478.000
447.081; -131.025; -628.000; -518.000
447.203;   63.675;  862.000;  834.000
447.325;  -90.725; -270.000;   42.000
447.446;   -3.325;  286.000;  530.000
447.568; -170.275; -921.000; -803.000
447.690;  -64.550; -236.000; -245.000
447.812; -158.375; -798.000; -519.000
447.933;  -22.425;  155.000;  127.000
448.055;  -72.575; -306.000; -261.000
448.177;  181.075;   31.000;   79.000
448.299;  128.375; -935.000; -727.000
448.420;   39.325;  -25.000;  159.000
448.542;  -51.200;   -3.000;   33.000
448.664;  -27.675;  109.000;  322.000
448.785;  -42.175;  265.000;   83.000
448.907;  -78.775; -614.000; -353.000
449.028;  -12.000; -771.000; -471.000
449.150;   64.075;  492.000;  589.000
449.272; -193.350;-1044.000; -913.000
449.393;   36.475;  612.000;  694.000
449.515; -153.450; -634.000; -581.000
449.636;  -60.825; -264.000; -155.000
449.758;   86.800;  763.000;  622.000
449.879; -102.600; -498.000; -396.000
450.001;  -79.800; -149.000;  -49.000
450.122;  -37.875;  -95.000;  162.000
450.244;  -42.550;   37.000;  364.000
450.365;  -79.100; -495.000; -301.000
450.486;  -45.100;   80.000;  268.000
450.608;   17.375;  393.000;  326.000
450.729;   54.425;  578.000;  645.000
450.850;  -12.475; -574.000; -466.000
450.972;  592.650; -552.000; -389.000
451.093; 4066.025;  190.000;  588.000
451.214; 1768.825; -516.000; -337.000
451.336;  347.925;  773.000;  579.000
451.457;   39.250;  264.000;  393.000
451.578;  -53.600; -118.000;  -74.000
451.699; -125.025; -546.000; -540.000
451.821;  -66.775; -284.000;  -50.000
451.942;   -6.325;  278.000;  285.000
452.063;   25.300;  228.000;  419.000
452.184;  466.625;  -54.000;  -49.000
452.305;  941.900;  103.000;  170.000
452.427;   99.875; -549.000; -301.000
452.548;  -17.175;   23.000;   79.000
452.669;  -62.525; -257.000;  -89.000
452.790;  -42.000;    3.000;  -18.000
452.911;   -9.400;  195.000;  259.000
453.032;  -61.275; -289.000;  -60.000
453.153;  -48.225;  -29.000;   81.000
453.274;   67.400;  737.000;  868.000
453.395;  -53.775;  -51.000;  175.000
453.516;  126.700; 1317.000; 1388.000
453.637;  -63.575; -205.000; -150.000
453.758;  -55.825;   15.000;   69.000
453.879; -124.600; -462.000; -250.000
454.000;   82.400; 1086.000;  948.000
454.121; -118.575; -554.000; -326.000
454.242; -115.550; -599.000; -383.000
454.362;  -70.200;  -99.000;  114.000
454.483;  -37.000; -309.000; -229.000
454.604;   63.125;  512.000;  580.000
454.725; -117.950; -627.000; -555.000
454.846; -115.250; -474.000; -406.000
454.967;  -26.000;  230.000;  539.000
455.087;  -51.225;  179.000;  153.000
455.208;   23.475;  554.000;  856.000
455.329;  -68.525;  -22.000;   82.000
455.450;   34.600;  473.000;  633.000
455.570;  -93.075; -234.000; -211.000
455.691;  -47.375;  201.000;  407.000
455.812; -116.625; -270.000;  -92.000
455.932;  -64.925;  107.000;  -97.000
456.053;  -81.200;   36.000;   24.000
456.173; -107.500; -433.000; -355.000
456.294; -143.175; -476.000; -303.000
456.415;  -65.725;  -73.000;   70.000
456.535;  -43.900;  297.000;  273.000
456.656;  -54.300;  132.000;  240.000
456.776;  -78.200;    3.000;  298.000
456.897;    1.875;  308.000;  513.000
457.017;  -71.900; -153.000;   -3.000
457.138;  -98.500; -402.000; -249.000
457.258;  -25.075;  263.000;  224.000
457.379;   -9.025;  509.000;  521.000
457.499;  -35.950;  443.000;  432.000
457.620; -116.250; -407.000; -231.000
457.740;  -96.975; -132.000;  -11.000
457.860;  -54.750;   87.000;   44.000
457.981;  -39.825;  132.000;  124.000
458.101;  -73.850;  -89.000;   40.000
458.221;  -20.550;  336.000;  402.000
458.342;  -57.275;   -4.000;  -37.000
458.462;    2.775;  617.000;  352.000
458.582;  -55.325; -302.000; -294.000
458.703;  -14.175;  303.000;  154.000
458.823;  -34.600;   22.000;  163.000
458.943;    6.850;  341.000;  467.000
459.063;   -8.000; 1124.000;  192.000
459.183;  -26.900;  328.000;  313.000
459.304;   16.750;  315.000;  517.000
459.424;  -85.775; -246.000;  -89.000
459.544;  276.200;  388.000;  764.000
459.664;  711.100;  499.000;  506.000
459.784;  253.775; 1004.000; 1175.000
459.904;   48.600;  867.000;  744.000
460.024;   69.100;  867.000;  684.000
460.144;   21.650;  449.000;  554.000
460.264;   -6.100;  515.000;  327.000
460.385; -107.250; -145.000; -119.000
460.505;   33.475;  905.000;  858.000
460.625; -107.875;  -17.000;  -68.000
460.745;  -14.100;  396.000;  541.000
460.864;  -52.600;  153.000;  469.000
460.984;   19.825;  499.000;  573.000
461.104;  130.475; 1656.000; 1775.000
461.224;   23.450;  657.000;  650.000
461.344;  -45.150;  431.000;  360.000
461.464;  -28.600;  258.000;  513.000
461.584;  -17.725;  283.000;  466.000
461.704;  -46.000;   58.000;  108.000
461.824;  -76.000;  238.000;  259.000
461.943;  -35.375;  191.000;  130.000
462.063;  -78.275;    2.000;  324.000
462.183;   29.825;  639.000;  717.000
462.303;  103.900; 1678.000; 1230.000
462.422;   23.375;  781.000;  840.000
462.542;  -38.800;  271.000;  391.000
462.662;   41.625;  353.000;  380.000
462.782;  228.025;  833.000;  572.000
462.901;  415.175;  545.000;  717.000
463.021;  250.100; 1702.000; 1638.000
463.141;   -7.200;  337.000;  770.000
463.260;  -27.775;  614.000;  474.000
463.380;   16.325;  902.000;  884.000
463.499;  -56.625;  342.000;  332.000
463.619;  -38.625;  581.000;  559.000
463.738;  108.675; 1644.000;  903.000
463.858;    8.325;  657.000;  811.000
463.978;  -30.275;  542.000;  396.000
464.097;   54.400;  921.000; 1114.000
464.217;   95.125; 1196.000; 1143.000
464.336;  117.975; 1068.000; 1130.000
464.455;  -47.100;  328.000;  659.000
464.575;   51.825;  597.000;  602.000
464.694;  190.925; 1204.000; 1179.000
464.814;  123.800; 1190.000; 1138.000
464.933;   66.575; 1095.000; 1027.000
465.052;   99.675; 1412.000; 1054.000
465.172;   75.475;  922.000;  799.000
465.291;  159.450; 1376.000; 1320.000
465.410;   18.000;  462.000;  735.000
465.530;   84.750; 1355.000; 1310.000
465.649;   47.175; 1209.000; 1273.000
465.768;  155.100; 1673.000; 1508.000
465.888;   53.900;  941.000; 1174.000
466.007;  109.350; 1335.000; 1440.000
466.126;   -0.025;  721.000;  641.000
466.245;   48.425; 1176.000; 1187.000
466.364;   10.750;  950.000; 1060.000
466.484;   56.025; 1024.000; 1213.000
466.603;   45.850; 1101.000; 1222.000
466.722;  121.850; 1490.000; 1769.000
466.841;   75.300; 1151.000; 1401.000
466.960;   46.025; 1069.000;  972.000
467.079;  113.750; 1971.000; 1786.000
467.198;   58.025; 1238.000; 1181.000
467.317;   84.000; 1768.000; 1162.000
467.436;   59.225; 1709.000; 1261.000
467.555;  107.050; 1796.000; 1746.000
467.674;   62.625; 1227.000; 1329.000
467.793;   43.525; 1376.000; 1374.000
467.912;   97.600; 1658.000; 1539.000
468.031;  134.075; 2038.000; 1930.000
468.150;  132.350; 1842.000; 1837.000
468.269;  188.925; 2313.000; 2090.000
468.388;  198.625; 2168.000; 2339.000
468.507;  244.300; 2884.000; 2903.000
468.626;  246.950; 2555.000; 2541.000
468.744;  126.975; 2018.000; 2174.000
468.863;  198.400; 2312.000; 2523.000
468.982;   81.750; 1503.000; 1555.000
469.101;  227.725; 2788.000; 2692.000
469.220;  142.275; 2333.000; 2176.000
469.338;  249.375; 2935.000; 3051.000
469.457;  172.375; 2719.000; 2545.000
469.576;  354.500; 3953.000; 3784.000
469.695;  239.050; 2877.000; 3066.000
469.813;  406.400; 4148.000; 4192.000
469.932;  419.275; 4255.000; 4485.000
470.051;  404.800; 4075.000; 4161.000
470.169;  792.825; 4470.000; 4338.000
470.288; 1341.650; 4700.000; 4809.000
470.406;  824.550; 5059.000; 5194.000
470.525;  634.475; 6101.000; 5787.000
470.644;  646.200; 6847.000; 6794.000
470.762;  798.500; 8397.000; 7873.000
470.881;  912.325; 8651.000; 8464.000
470.999; 1016.975; 9685.000; 9151.000
471.118; 1094.650;11174.000;10711.000

