
Integration time [ms]: 100.000
Averaging Nr. [scans]: 40
Smoothing Nr. [pixels]: 0
Data measured with spectrometer [name]: 2101012U2
Wave   ;Sample   ;Dark     ;Reference
[nm]   ;[counts] ;[counts] ;[counts] 

197.733;   44.925;  516.000;  404.000
197.879;  -82.725; -610.000; -634.000
198.025;  -49.650; -475.000; -420.000
198.171;  -75.400; -602.000; -612.000
198.317;  -30.675; -401.000; -316.000
198.463;  -43.925; -655.000; -404.000
198.609;   25.200;  181.000; -137.000
198.755;  -73.550; -644.000; -410.000
198.901;  -53.675; -505.000; -424.000
199.047;  -63.225; -615.000; -488.000
199.193;  -32.425; -230.000; -468.000
199.339;  -39.425; -222.000; -369.000
199.485;   43.325;  330.000;  271.000
199.631;    9.300;  227.000;  310.000
199.777;  -38.250; -466.000; -398.000
199.923;  -57.150; -610.000; -424.000
200.069;   -4.300; -141.000;  -58.000
200.215;   50.450;  128.000;  453.000
200.361;   46.825;  243.000;  477.000
200.507;  -53.425; -600.000; -373.000
200.653;  -23.750; -371.000; -194.000
200.798;  -40.400; -215.000; -125.000
200.944;   -5.425; -146.000;  -41.000
201.090;   32.250;   61.000;  222.000
201.236;   -4.525; -116.000; -158.000
201.382;  125.325;  874.000;  903.000
201.528;    5.575;  -58.000;  -48.000
201.674;  -38.525; -386.000; -293.000
201.819;  -61.525; -540.000; -439.000
201.965;  -83.025; -699.000; -447.000
202.111;  -16.025; -273.000; -226.000
202.257;  -23.625; -250.000; -238.000
202.402;   -0.350;   13.000;  -36.000
202.548;  -27.150; -169.000; -116.000
202.694;   75.175;  410.000; -183.000
202.840;  -64.875; -603.000; -531.000
202.985;  -67.400; -681.000; -639.000
203.131; -101.875; -832.000; -666.000
203.277;  -24.225; -199.000; -262.000
203.423;  -51.550; -434.000; -520.000
203.568;  -45.100; -462.000; -237.000
203.714;  -51.925; -535.000; -542.000
203.860;  -69.575; -682.000; -641.000
204.005;    3.575;  112.000;  167.000
204.151;   65.775;  561.000;  556.000
204.296;  -46.150; -354.000; -221.000
204.442;  -77.650; -600.000; -547.000
204.588;  -60.100; -592.000; -579.000
204.733;   12.800;  178.000;  168.000
204.879; -125.300;-1018.000; -822.000
205.025;   13.075;  -99.000;  126.000
205.170;   -3.450;  -17.000;   94.000
205.316;   69.925;  438.000;  661.000
205.461;  -75.250; -698.000; -554.000
205.607;   77.550;  609.000;  665.000
205.752;  -75.875; -626.000; -551.000
205.898;  -61.525; -501.000; -391.000
206.043;  -70.475; -578.000; -506.000
206.189;  -44.825; -243.000; -285.000
206.334;   73.950;  554.000;  606.000
206.480;   57.025;  409.000;  239.000
206.625;  -79.500; -529.000; -552.000
206.771;  -35.750; -451.000; -373.000
206.916;  -32.200; -210.000; -537.000
207.062;  -67.950; -545.000; -591.000
207.207;  -62.925; -546.000; -443.000
207.353;   29.875;  185.000;  460.000
207.498;   10.475;  196.000;   85.000
207.643;  -47.700; -501.000; -370.000
207.789; -130.925;-1069.000; -910.000
207.934;  -88.775; -665.000; -713.000
208.080;  -27.800; -154.000;   66.000
208.225;   -5.150;  -22.000;  -57.000
208.370;  -83.200; -727.000; -619.000
208.516;  -75.900; -741.000; -487.000
208.661;  -16.225; -127.000;  -69.000
208.806;  -13.775; -165.000; -171.000
208.952; -123.450;-1044.000; -731.000
209.097;   75.800;  378.000;  349.000
209.242;  -40.225; -307.000; -382.000
209.387;   59.525;  392.000;  350.000
209.533;  -45.275; -321.000; -350.000
209.678;   72.325;  472.000;  543.000
209.823;  -44.675; -408.000; -310.000
209.969;  -99.875; -860.000; -757.000
210.114;  -99.225; -907.000; -719.000
210.259; -115.725; -939.000; -889.000
210.404;    0.075; -171.000;  103.000
210.549;   21.400;  108.000;    3.000
210.695;  -13.275;   -3.000;  -95.000
210.840;   32.350;   94.000;   67.000
210.985;  -56.050; -484.000; -303.000
211.130;   58.975;  268.000;  406.000
211.275;   11.900;  207.000;  199.000
211.420;  -42.850; -300.000; -289.000
211.566;  -61.175; -536.000; -489.000
211.711;   18.775;  218.000;  157.000
211.856;  -62.725; -545.000; -519.000
212.001;   14.250;  151.000;   44.000
212.146;   32.050;  153.000;   49.000
212.291;  -19.250; -210.000; -186.000
212.436;  -22.150; -280.000;   -6.000
212.581;  -89.700; -685.000; -653.000
212.726;  -79.075; -487.000; -538.000
212.871;  -38.225; -552.000; -217.000
213.016; -155.250;-1172.000;-1029.000
213.161;   52.725;  406.000;  291.000
213.306;  -67.850; -435.000; -577.000
213.451; -111.525; -778.000; -689.000
213.596;  -49.100; -455.000; -347.000
213.741;  -53.200; -448.000; -538.000
213.886;  -88.100; -498.000; -517.000
214.031;  -26.200; -294.000; -124.000
214.176;  -46.000; -408.000; -341.000
214.321;  -24.375; -296.000; -157.000
214.466;  -39.800; -163.000;  -43.000
214.611;  -12.475;  -61.000;  -10.000
214.756; -109.950; -948.000; -858.000
214.901;  -38.200; -388.000; -226.000
215.046; -111.225; -797.000; -825.000
215.191;   31.650;  128.000;   35.000
215.336;  -14.525; -157.000;  -19.000
215.480;  -68.350; -684.000; -505.000
215.625;  -13.000; -175.000;  -19.000
215.770;  -74.975; -757.000; -662.000
215.915;   -0.775;   -5.000;  -97.000
216.060;  -17.350; -113.000;  -21.000
216.205; -111.350; -731.000; -779.000
216.349;  -76.275; -470.000; -533.000
216.494; -128.875; -939.000; -867.000
216.639; -106.250; -823.000; -888.000
216.784;  -71.575; -577.000; -525.000
216.929;   56.225;  392.000;  281.000
217.073;   -9.325; -244.000;  -31.000
217.218;    7.625;   78.000;  -47.000
217.363;  -96.450; -656.000; -618.000
217.507;  -74.600; -623.000; -588.000
217.652; -122.300; -845.000; -874.000
217.797;  -89.400; -708.000; -659.000
217.942; -103.375; -856.000; -720.000
218.086;   69.375;  608.000;  539.000
218.231;  -21.550; -174.000;  -26.000
218.376;  -32.625; -337.000; -229.000
218.520;   -4.425;  -41.000;   96.000
218.665;  -25.400; -338.000; -204.000
218.810;  -35.050; -275.000; -233.000
218.954;   25.025;  201.000;   35.000
219.099; -120.625; -713.000; -963.000
219.243;  -74.775; -589.000; -554.000
219.388;  -20.925; -264.000; -136.000
219.532;   -4.075; -116.000; -116.000
219.677;  -66.475; -564.000; -521.000
219.822;   -5.625;   33.000;   89.000
219.966;    7.600;   17.000;  -99.000
220.111;  -28.075; -328.000;  -40.000
220.255;  -90.825; -797.000; -750.000
220.400;  -23.575; -180.000; -146.000
220.544;  -64.675; -516.000; -450.000
220.689;  -72.150; -422.000; -451.000
220.833;  -24.225; -123.000;  -58.000
220.978;  -49.025; -393.000; -563.000
221.122;   30.725;  319.000;  307.000
221.267; -117.750; -906.000; -837.000
221.411;  -63.500; -478.000; -394.000
221.555;  -12.075; -104.000;  -23.000
221.700;  -46.050; -329.000; -222.000
221.844;   28.075;  255.000;  272.000
221.989;  -57.425; -328.000; -311.000
222.133;  -38.925; -289.000; -307.000
222.277;  -13.475;    5.000;   78.000
222.422;    7.550;  227.000;  113.000
222.566;  -33.300; -381.000; -214.000
222.711;  -57.925; -414.000; -479.000
222.855;  -79.050; -643.000; -586.000
222.999;  -79.275; -642.000; -717.000
223.144;  -35.675; -195.000; -194.000
223.288;   50.625;  423.000;  251.000
223.432;   26.500;  184.000;  230.000
223.576;   16.400;  152.000;  -21.000
223.721;   25.300;  364.000;  273.000
223.865;  -56.150; -472.000; -475.000
224.009;  217.250; 1673.000; 1631.000
224.153;  -78.025; -660.000; -671.000
224.298;  -65.725; -531.000; -489.000
224.442;  -13.700;  -74.000;  -33.000
224.586;   -8.225; -169.000; -106.000
224.730;  -91.925; -858.000; -670.000
224.875; -100.350; -739.000; -688.000
225.019;    9.650;  102.000;  188.000
225.163;   57.950;  208.000;  341.000
225.307;   12.950;   97.000;  -91.000
225.451;   41.000;  360.000;  481.000
225.595;   24.850;  264.000;  176.000
225.739;  -15.575; -170.000;  -94.000
225.884;    5.925;   86.000;    5.000
226.028; -100.200; -760.000; -626.000
226.172;  -39.800; -260.000; -273.000
226.316; -122.400; -941.000; -902.000
226.460;  -59.450; -645.000; -493.000
226.604;  -50.275; -406.000; -400.000
226.748;  -88.350; -836.000; -733.000
226.892;  -40.025; -227.000; -181.000
227.036;  -50.225; -537.000; -447.000
227.180;  -50.650; -551.000; -375.000
227.324;  -70.500; -561.000; -580.000
227.468; -120.075; -819.000; -717.000
227.612;    4.525;  242.000;  -28.000
227.756;  -95.600; -845.000; -698.000
227.900;   46.775;  342.000;  441.000
228.044;  -59.600; -509.000; -290.000
228.188;   44.550;  448.000;  568.000
228.332;  -88.125; -546.000; -472.000
228.476;  -23.025; -223.000; -149.000
228.620;  -21.400; -210.000; -150.000
228.764;   62.125;  431.000;  349.000
228.908;  -10.925; -155.000;   30.000
229.052;  -74.850; -615.000; -528.000
229.195;  -22.550; -172.000;   13.000
229.339;  -22.400; -235.000; -305.000
229.483;  -19.525;    5.000; -162.000
229.627;   -3.625; -156.000;  139.000
229.771;  -37.575; -218.000; -294.000
229.915;    0.525;  230.000;   79.000
230.059;  -93.325; -648.000; -663.000
230.202;  -45.025; -370.000; -317.000
230.346;   -9.700; -107.000;  107.000
230.490;  -55.300; -489.000; -521.000
230.634; -107.500; -736.000; -553.000
230.777;   83.000;  478.000;  509.000
230.921;  -52.400; -450.000; -359.000
231.065;  -34.875; -246.000; -286.000
231.209;   25.725;  261.000;  265.000
231.352;   23.775;   54.000;   40.000
231.496;   17.800;  568.000;  188.000
231.640;  -73.600; -693.000; -621.000
231.783;   56.100;  546.000;  525.000
231.927;  -49.125; -294.000; -365.000
232.071; -112.200; -962.000; -736.000
232.214; -108.875; -980.000; -764.000
232.358;  -98.325; -683.000; -599.000
232.502;   -8.950;  -19.000;    7.000
232.645; -138.125;-1090.000; -927.000
232.789;  -16.000; -257.000; -218.000
232.933;  -41.075; -407.000; -224.000
233.076; -123.375;-1038.000; -897.000
233.220; -104.500; -752.000; -777.000
233.363;  -72.775; -669.000; -477.000
233.507;   51.275;  371.000;  129.000
233.650;  -94.700; -764.000; -834.000
233.794;   51.575;  438.000;  461.000
233.938;  -59.075; -530.000; -362.000
234.081;  -14.600;  -93.000;   31.000
234.225;  -72.550; -631.000; -539.000
234.368; -100.825; -773.000; -723.000
234.512;  -39.050; -385.000; -299.000
234.655;  -97.675; -582.000; -555.000
234.798;  -63.750; -493.000; -466.000
234.942; -129.775; -884.000;-1002.000
235.085;  -69.850; -651.000; -443.000
235.229;  -76.750; -405.000; -410.000
235.372;  -40.400; -247.000; -191.000
235.516;  -61.400; -397.000; -321.000
235.659;    8.425;   92.000;  121.000
235.802;   -9.500;  -38.000;  -22.000
235.946;   27.300;  335.000;  215.000
236.089;   23.725;  126.000;  250.000
236.233;   50.175;  275.000;  298.000
236.376;  -36.300; -235.000; -378.000
236.519;  -59.775; -297.000; -319.000
236.663;  -17.200; -215.000; -117.000
236.806; -135.375;-1029.000; -999.000
236.949;   29.550;  543.000;  431.000
237.092;   67.875;  412.000;  391.000
237.236;  -74.000; -589.000; -502.000
237.379;   69.950;  352.000;  428.000
237.522; -110.450; -879.000; -768.000
237.666;  -10.775; -271.000;   18.000
237.809; -120.275; -851.000; -823.000
237.952;   31.500;  469.000;  271.000
238.095;  -62.525; -447.000; -442.000
238.238;   78.300;  688.000;  700.000
238.382;   -6.150;  166.000;  103.000
238.525;  -69.300; -598.000; -511.000
238.668; -149.800;-1060.000; -985.000
238.811;  -91.600; -638.000; -643.000
238.954;  -55.200; -483.000; -334.000
239.097;   96.125;  617.000;  664.000
239.241;   27.250;  394.000;  326.000
239.384;  -27.000; -254.000; -214.000
239.527;  -58.500; -424.000; -224.000
239.670; -133.525; -994.000;-1091.000
239.813;  -99.325; -696.000; -658.000
239.956;   77.500;  579.000;  473.000
240.099; -119.525; -778.000; -725.000
240.242;   50.800;  428.000;  432.000
240.385;   43.075;  466.000;  450.000
240.528;  -72.975; -706.000; -473.000
240.671;    5.775;  189.000;  134.000
240.814;  -32.400; -441.000; -158.000
240.957;  -98.375; -767.000; -578.000
241.100;  -94.075; -779.000; -755.000
241.243; -144.600;-1234.000; -893.000
241.386;  -59.800; -508.000; -379.000
241.529;  -75.100; -735.000; -547.000
241.672;  -66.350; -566.000; -495.000
241.815;  -99.900; -832.000; -808.000
241.958;  -23.925; -125.000; -182.000
242.101;  -85.900; -545.000; -390.000
242.244;  -42.250; -270.000; -325.000
242.387;  -48.400; -304.000; -246.000
242.530;   47.175;  470.000;  134.000
242.673;  -37.175; -381.000; -309.000
242.815; -113.950; -925.000; -899.000
242.958;  -69.525; -482.000; -381.000
243.101;    1.125;  132.000;  187.000
243.244;  -75.450; -564.000; -521.000
243.387;  -49.100; -313.000; -316.000
243.530;  -94.475; -657.000; -674.000
243.672;   -3.925;   43.000;  -92.000
243.815;  -51.025; -355.000; -283.000
243.958;   -0.800;   98.000;  -26.000
244.101;    4.800;   59.000;  -16.000
244.243;  -14.375;  -47.000;  101.000
244.386; -111.300; -761.000; -630.000
244.529;  -21.500; -132.000; -139.000
244.672; -149.825;-1154.000; -951.000
244.814;  -87.175; -621.000; -794.000
244.957;  -38.150; -380.000; -304.000
245.100;  -79.300; -489.000; -489.000
245.242;  -60.050; -387.000; -374.000
245.385;   -1.825;  -59.000;  -39.000
245.528; -116.975; -871.000; -705.000
245.670;   86.300;  612.000;  634.000
245.813;  -98.675; -599.000; -547.000
245.956;  -46.575; -324.000; -275.000
246.098;  -77.850; -508.000; -650.000
246.241;    7.825;  194.000;   48.000
246.383;  -18.050; -119.000;  -73.000
246.526;  -73.100; -454.000; -525.000
246.669; -121.850; -889.000; -780.000
246.811;   14.450;  172.000;   -1.000
246.954;  -61.075; -512.000; -426.000
247.096;  -16.900;  -84.000;   -6.000
247.239;  -72.625; -482.000; -445.000
247.381;  -67.625; -647.000; -488.000
247.524;   83.600;  645.000;  679.000
247.666;   -9.525;   58.000;   11.000
247.809; -104.400; -887.000; -691.000
247.951;   -4.700;  -75.000;  138.000
248.094;   18.050;  432.000;  308.000
248.236; -150.450;-1262.000;-1238.000
248.378;    6.375; -356.000;  -81.000
248.521;  -19.400; -334.000; -337.000
248.663;  -46.125; -236.000; -267.000
248.806;  -11.275; -300.000; -266.000
248.948;  -93.250; -886.000; -763.000
249.090;  -31.075; -428.000; -398.000
249.233;  -33.750; -344.000; -381.000
249.375;  -70.475; -474.000; -451.000
249.518;  -28.925;  -83.000; -133.000
249.660;   -0.275; -103.000;    3.000
249.802; -159.625;-1303.000;-1189.000
249.945;  -84.025; -612.000; -540.000
250.087; -107.125; -834.000; -768.000
250.229;  -50.675; -362.000; -480.000
250.371;  -72.225; -494.000; -439.000
250.514;  -53.725; -310.000; -244.000
250.656;  -13.500;   69.000;  102.000
250.798; -115.025; -849.000; -800.000
250.940;  -73.925; -322.000; -322.000
251.083;  -20.525; -335.000; -111.000
251.225;   67.975;  338.000;  310.000
251.367;  -32.375; -274.000; -373.000
251.509;  -33.875; -265.000; -210.000
251.651;  -87.225; -731.000; -671.000
251.794;   62.575;  538.000;  632.000
251.936;  -97.075; -821.000; -747.000
252.078;  -76.200; -540.000; -461.000
252.220;  -64.925; -645.000; -477.000
252.362;   93.175;  344.000;  462.000
252.504;  -57.250; -677.000; -584.000
252.646; -111.550; -875.000; -722.000
252.788;  -14.350;   14.000; -128.000
252.931;  -40.250; -257.000; -253.000
253.073;  -40.575; -376.000; -317.000
253.215;    3.850;  141.000;  122.000
253.357;   -6.475;   82.000; -153.000
253.499;  -34.050; -374.000; -234.000
253.641;  -87.375; -749.000; -594.000
253.783;  -96.525; -609.000; -527.000
253.925;  -86.675; -586.000; -591.000
254.067; -108.750; -744.000; -667.000
254.209;  -20.900; -391.000; -259.000
254.351; -126.500; -865.000; -883.000
254.493;  -59.625; -441.000; -417.000
254.635; -133.850; -936.000; -818.000
254.777;  -77.825; -752.000; -687.000
254.918;  -78.450; -512.000; -430.000
255.060;  -48.125; -551.000; -395.000
255.202;  -50.575; -473.000; -261.000
255.344;  -72.525; -658.000; -455.000
255.486;  -66.550; -471.000; -406.000
255.628; -109.175; -780.000; -781.000
255.770;  -91.625; -676.000; -536.000
255.912;  -60.050; -559.000; -468.000
256.053;  -85.800; -730.000; -508.000
256.195;  144.100; 1008.000;  903.000
256.337; -106.800; -861.000; -595.000
256.479;   60.650;  532.000;  416.000
256.621;  -42.525; -394.000; -212.000
256.762;  -95.950; -789.000; -742.000
256.904;   56.850;  485.000;  487.000
257.046;  -39.550; -381.000; -271.000
257.188;  -36.075; -351.000; -264.000
257.329;  -79.800; -525.000; -464.000
257.471; -114.875; -939.000; -807.000
257.613;  -63.000; -584.000; -498.000
257.755; -144.400;-1073.000; -982.000
257.896;   37.300;  286.000;  392.000
258.038;  -59.875; -403.000; -352.000
258.180;  -47.300; -354.000; -279.000
258.321;  -84.200; -581.000; -457.000
258.463;    4.950;  -71.000;  133.000
258.605;  -88.775; -562.000; -570.000
258.746; -107.475; -886.000; -772.000
258.888; -150.650;-1026.000;-1020.000
259.029;   17.475;  121.000;   -8.000
259.171;  -84.925; -614.000; -550.000
259.313;   -4.500;  -49.000;  -47.000
259.454;  -69.250; -536.000; -414.000
259.596;  -57.275; -483.000; -390.000
259.737;  -68.475; -590.000; -474.000
259.879;   27.225;  217.000;  311.000
260.020;   90.050;  901.000;  636.000
260.162;  -29.750; -146.000; -253.000
260.303; -124.825; -768.000; -687.000
260.445;  -81.975; -609.000; -613.000
260.586;   17.275;  392.000;  157.000
260.728;  -26.700; -360.000; -248.000
260.869; -114.600; -350.000; -343.000
261.011;   75.250;  706.000;  537.000
261.152;  -68.925; -479.000; -319.000
261.293;  -74.375; -576.000; -595.000
261.435;  -42.750; -219.000; -184.000
261.576;  -54.800; -455.000; -325.000
261.718;   44.275;  420.000;  470.000
261.859; -123.800; -940.000; -949.000
262.000; -126.550; -951.000;-1016.000
262.142;  -21.475;  -52.000;  -60.000
262.283; -111.550; -808.000; -691.000
262.424;  -77.875; -666.000; -625.000
262.566; -147.175;-1161.000; -983.000
262.707; -118.125; -840.000; -830.000
262.848; -120.275; -769.000; -726.000
262.990;  -40.050; -362.000; -345.000
263.131;   76.475;  650.000;  681.000
263.272;    3.450;  -61.000;  -41.000
263.413;  -89.550; -589.000; -561.000
263.555;  -61.250; -669.000; -143.000
263.696;  -84.475; -550.000; -641.000
263.837;  -62.700; -449.000; -551.000
263.978;   -3.825;   -5.000;  -77.000
264.119;  -51.600; -283.000; -264.000
264.261; -112.925; -847.000; -630.000
264.402;   -6.550;   33.000;   40.000
264.543;  -66.450; -509.000; -524.000
264.684;  -16.650;   61.000;  -50.000
264.825;  -75.300; -816.000; -538.000
264.966;    3.775;  -84.000;  -67.000
265.107; -103.600; -646.000; -670.000
265.248; -117.075; -825.000; -812.000
265.390;  -14.100;  152.000;   -9.000
265.531;  -16.700; -238.000; -107.000
265.672;  -76.100; -557.000; -630.000
265.813;   61.900;  563.000;  439.000
265.954; -146.700; -959.000; -940.000
266.095;  -15.200; -372.000; -322.000
266.236;  -90.900; -686.000; -548.000
266.377;  -54.100; -243.000; -297.000
266.518;  -74.550; -619.000; -547.000
266.659;   39.800;  170.000;  268.000
266.800;    4.875;   83.000;   85.000
266.941;  -75.075; -487.000; -478.000
267.082;   20.075;  354.000;   99.000
267.223;  -51.150; -344.000; -273.000
267.364; -116.775; -892.000; -686.000
267.504;  -24.950;    3.000;  135.000
267.645;   13.550;  160.000;   67.000
267.786;  -19.350; -147.000;  -86.000
267.927;  -64.300; -473.000; -379.000
268.068;  -24.900; -186.000;  -61.000
268.209;  -44.550; -175.000; -413.000
268.350;  -49.850; -388.000; -532.000
268.490;  -85.725; -648.000; -521.000
268.631;   24.125;  127.000;  225.000
268.772; -114.425; -874.000; -647.000
268.913;  -44.025; -328.000; -476.000
269.054;  -10.800; -117.000;   12.000
269.194;  -41.825; -418.000; -402.000
269.335; -147.850;-1137.000;-1074.000
269.476;  -11.975;   33.000;  -35.000
269.617;  -47.450; -347.000; -392.000
269.757;  -90.575; -713.000; -646.000
269.898;  -98.325; -856.000; -613.000
270.039;  -49.050; -415.000; -405.000
270.180; -127.975; -952.000; -816.000
270.320;  -27.050; -190.000; -250.000
270.461;  -34.900; -277.000; -249.000
270.602;  -19.150; -186.000; -156.000
270.742; -110.550; -868.000; -943.000
270.883;  -51.350; -442.000; -390.000
271.023;  -52.550; -358.000; -357.000
271.164;  -63.425; -607.000; -528.000
271.305;  -99.200; -666.000; -654.000
271.445;  -86.975; -722.000; -683.000
271.586;  -58.375; -462.000; -283.000
271.726;  -40.700; -397.000; -322.000
271.867;  -56.025; -594.000; -534.000
272.008;  182.075; -473.000; -285.000
272.148;  134.325;  462.000;  468.000
272.289;   15.175; -113.000; -181.000
272.429;   25.025;   19.000;  185.000
272.570;  -88.000; -633.000; -737.000
272.710;  -90.825; -825.000; -775.000
272.851;  -20.200;  113.000; -130.000
272.991; -153.000;-1173.000;-1077.000
273.131;  -63.725; -419.000; -459.000
273.272;  -97.150; -683.000; -723.000
273.412;   16.050; -143.000;  -31.000
273.553;  -62.150; -488.000; -507.000
273.693;  123.050;  913.000;  858.000
273.834;  -80.800; -894.000; -692.000
273.974;  -71.575; -664.000; -615.000
274.114;  -93.900; -772.000; -560.000
274.255;   85.350;  414.000;  373.000
274.395;   19.600; -180.000; -125.000
274.535;   47.600;  199.000;  350.000
274.676;   29.550;  225.000;   94.000
274.816;    8.925;  110.000;   34.000
274.956;  -76.250; -624.000; -690.000
275.097;  -40.125;-1014.000; -922.000
275.237; -112.125; -913.000; -803.000
275.377;  -92.375; -778.000; -689.000
275.517; -148.350; -878.000; -937.000
275.658;  -56.750; -590.000; -555.000
275.798;  -66.450; -606.000; -413.000
275.938;   13.800;  215.000;  323.000
276.078; -107.850; -626.000; -395.000
276.218;    2.325;   99.000;  104.000
276.359; -129.600;-1026.000;-1024.000
276.499;  -64.675; -605.000; -446.000
276.639;  -24.225; -305.000; -151.000
276.779;  -51.025; -475.000; -357.000
276.919; -101.200; -783.000; -624.000
277.059;  -28.200; -261.000; -212.000
277.199;  -43.200; -357.000; -259.000
277.340;   40.475;  287.000;  175.000
277.480; -113.575; -840.000; -693.000
277.620;   25.725;  192.000;   16.000
277.760; -188.450;-1533.000;-1294.000
277.900;   25.950;  113.000;   33.000
278.040;   24.600;  137.000;  159.000
278.180;   32.500;  270.000;  170.000
278.320;   13.550;   21.000;   56.000
278.460;  -83.850; -443.000; -469.000
278.600;  -83.875; -708.000; -598.000
278.740;   63.250;  448.000;  224.000
278.880;  -37.025; -768.000; -791.000
279.020;   -3.825; -194.000; -144.000
279.160;  -93.450; -672.000; -595.000
279.300; -108.150; -926.000; -873.000
279.440;  -82.900; -709.000; -622.000
279.579;  -10.750;-1014.000; -929.000
279.719;  -52.950; -410.000; -394.000
279.859;   78.000;   -4.000;   41.000
279.999;   29.775; -208.000;  101.000
280.139;   -9.550; -435.000; -387.000
280.279;  -69.525; -708.000; -745.000
280.419;  -16.750; -229.000; -147.000
280.559;  -16.975; -259.000; -180.000
280.698;  -78.300; -790.000; -639.000
280.838;  -84.225; -778.000; -800.000
280.978;  -96.100; -846.000; -790.000
281.118; -100.925; -811.000; -704.000
281.257;   10.925;   24.000;    6.000
281.397;  -97.550;-1094.000; -960.000
281.537;  -80.025; -599.000; -712.000
281.677;  -20.275; -150.000; -101.000
281.816;  -75.425; -700.000; -630.000
281.956;  -29.975; -193.000; -257.000
282.096;  -64.925; -539.000; -396.000
282.235; -102.000; -672.000; -638.000
282.375;  -14.150; -243.000;  -98.000
282.515; -107.625; -715.000; -707.000
282.654;   36.075;   29.000;  106.000
282.794;   25.750;  388.000;  244.000
282.934;  -48.525; -530.000; -491.000
283.073; -137.375;-1030.000; -857.000
283.213;  -56.775; -460.000; -467.000
283.353;  -22.525; -408.000; -349.000
283.492;  -29.100; -264.000; -296.000
283.632;  -34.275; -254.000; -168.000
283.771;  -89.300; -859.000; -730.000
283.911;  -52.775; -369.000; -260.000
284.050;  -93.500; -794.000; -748.000
284.190; -159.075;-1229.000;-1096.000
284.329; -133.225;-1055.000; -964.000
284.469;  -67.050; -516.000; -591.000
284.608;  -62.175; -559.000; -598.000
284.748;  -70.950; -614.000; -570.000
284.887;   -3.250;  -87.000;  -20.000
285.027; -124.950; -844.000; -892.000
285.166;  -32.025; -192.000; -249.000
285.306;   10.625; -116.000;  -33.000
285.445;  -24.750; -229.000; -343.000
285.584;  -93.450; -630.000; -494.000
285.724;  -39.800; -282.000; -322.000
285.863;  -96.300; -857.000; -507.000
286.002;  -54.075; -366.000; -276.000
286.142; -101.100; -715.000; -622.000
286.281;  -67.400; -525.000; -493.000
286.420;  -71.800; -554.000; -417.000
286.560;  100.200;  653.000;  623.000
286.699; -128.600; -958.000; -912.000
286.838;  -86.450; -590.000; -591.000
286.978;  -81.825; -533.000; -537.000
287.117; -126.200;-1085.000; -950.000
287.256;  -38.725; -228.000; -211.000
287.395;  -52.325; -197.000; -378.000
287.535;  -33.800; -370.000; -298.000
287.674;  -70.175; -509.000; -484.000
287.813;   59.925;  661.000;  533.000
287.952; -104.975;-1010.000; -871.000
288.091; -132.375;-1049.000; -915.000
288.231;   26.100;   13.000;   15.000
288.370; -170.775;-1217.000;-1200.000
288.509;  -83.875; -728.000; -645.000
288.648;  -81.025; -770.000; -548.000
288.787;  -37.200; -243.000;  -87.000
288.926;  -52.750; -454.000; -475.000
289.065;  116.850;  859.000;  672.000
289.204;  -44.850; -377.000; -217.000
289.344;  -79.125; -791.000; -690.000
289.483;   29.175;  416.000;  304.000
289.622;  -25.575; -291.000; -149.000
289.761;  -19.000; -309.000; -166.000
289.900; -106.525; -785.000; -626.000
290.039;  -10.375;  -12.000;  -95.000
290.178;  -31.875; -274.000; -180.000
290.317;  -68.175; -618.000; -479.000
290.456;  -53.375; -463.000; -451.000
290.595; -125.350; -961.000; -833.000
290.734; -138.025; -904.000; -891.000
290.873;  -67.900; -456.000; -420.000
291.011; -107.200; -833.000; -843.000
291.150;  -96.350; -770.000; -682.000
291.289;  -17.550; -343.000; -110.000
291.428;  -95.350; -599.000; -480.000
291.567;  -50.875; -370.000; -442.000
291.706;   13.925;  109.000;  154.000
291.845;  -74.500; -597.000; -505.000
291.984; -166.325;-1234.000;-1061.000
292.122;   60.150;  602.000;  582.000
292.261;   37.200;  620.000;  463.000
292.400;    7.750; -144.000;  211.000
292.539; -125.775; -959.000; -813.000
292.678;  -39.850; -325.000; -300.000
292.816; -148.325;-1136.000; -965.000
292.955;  -89.375; -844.000; -684.000
293.094;  -16.150; -173.000; -337.000
293.233;  -50.150; -556.000; -400.000
293.371;  -23.500; -225.000;  -84.000
293.510; -103.975; -866.000; -780.000
293.649; -119.725; -959.000; -924.000
293.787;  -38.225;-1083.000;-1012.000
293.926;   10.975; -113.000;  -32.000
294.065;  -49.425; -379.000; -290.000
294.203;   33.175;  298.000;  406.000
294.342;   10.075;   74.000;  156.000
294.481; 5303.950;51180.000; -836.000
294.619;  -32.200; -425.000; -582.000
294.758; -139.825;-1230.000;-1137.000
294.896;   91.975; -125.000;    5.000
295.035; -107.500;-1040.000;-1006.000
295.174; -116.550;-1082.000; -954.000
295.312;  -31.100; -323.000; -203.000
295.451;   -3.900; -307.000; -428.000
295.589;  -33.375; -389.000; -518.000
295.728;   10.625; -292.000; -165.000
295.866;    8.725;  -36.000;  -51.000
296.005;  -64.075; -584.000; -341.000
296.143;  -58.050; -558.000; -596.000
296.282;  -94.150; -957.000; -881.000
296.420;  -88.675; -657.000; -557.000
296.559;  -75.050; -892.000; -633.000
296.697;   50.575; -847.000; -665.000
296.835;   87.950;-1141.000;-1002.000
296.974;   61.350;  -23.000;   39.000
297.112;   21.575; -443.000; -504.000
297.251;  -65.650; -815.000; -755.000
297.389;  125.525; -576.000; -438.000
297.527;   44.025; -145.000;  -83.000
297.666;  -50.150; -486.000; -438.000
297.804;  -43.500; -404.000; -264.000
297.942;    4.650; -136.000; -161.000
298.081;   -0.750; -183.000;   63.000
298.219;   73.600;  -17.000;  -19.000
298.357;   68.275; -144.000;  -71.000
298.495;   53.425; -810.000; -812.000
298.634;   85.675;  245.000;  219.000
298.772;   74.650; -220.000; -338.000
298.910;  -25.175; -309.000; -182.000
299.048;   -0.425; -130.000; -153.000
299.187;  -28.625; -350.000; -250.000
299.325;   19.250;   52.000;  122.000
299.463;   79.500; -389.000; -299.000
299.601;  144.825; -327.000; -271.000
299.739;  -90.275; -908.000; -883.000
299.877;  -72.500; -791.000; -703.000
300.016;  -28.850;-1095.000; -935.000
300.154;  185.025;  -19.000; -161.000
300.292;   72.150; -428.000; -348.000
300.430;   56.000; -408.000; -291.000
300.568;  -97.850; -940.000; -874.000
300.706;  -39.375; -366.000; -469.000
300.844;  -52.125;-1108.000; -979.000
300.982;  123.800;  246.000;  282.000
301.120;  -92.200; -965.000; -866.000
301.258;  -49.125; -812.000; -705.000
301.396;   36.675;  104.000;  -41.000
301.534;  109.850; -218.000; -293.000
301.672;   18.725; -664.000; -521.000
301.810;   68.500; -613.000; -545.000
301.948;  135.750;   53.000;  149.000
302.086;  723.625; -250.000;  -32.000
302.224; 1081.325; -610.000; -585.000
302.362;   59.550; -558.000; -622.000
302.500;   -3.475; -923.000; -893.000
302.638;  109.725;  128.000;  245.000
302.776;    2.825; -352.000; -408.000
302.913;   59.575;  447.000;  236.000
303.051;    8.475;  -86.000;  -23.000
303.189;   61.275;   90.000;  118.000
303.327;  -35.450; -341.000; -256.000
303.465;  -74.675; -832.000; -588.000
303.603;  -84.575; -805.000; -604.000
303.740;  103.300;  417.000;  241.000
303.878;   43.825; -800.000; -759.000
304.016;  -89.175; -915.000; -790.000
304.154; -104.525;-1123.000;-1152.000
304.291;  -29.275; -505.000; -554.000
304.429;   19.175;  102.000;   74.000
304.567; -112.475; -908.000; -893.000
304.705;  -52.200; -408.000; -515.000
304.842;  114.150; -616.000; -540.000
304.980;   65.900;  215.000;   35.000
305.118;   71.875; -367.000; -365.000
305.255;  -65.025; -945.000; -927.000
305.393;   68.525;  178.000;  239.000
305.531;  -87.250;-1173.000; -956.000
305.668;  -61.225; -663.000; -582.000
305.806;  119.725; -358.000; -439.000
305.943;  120.575; -629.000; -637.000
306.081;   63.450; -378.000; -267.000
306.219;  -94.975; -863.000; -748.000
306.356;   14.275;  158.000;   27.000
306.494;  112.175;  981.000;  761.000
306.631;    3.400;  -11.000;  -55.000
306.769;    7.475; -613.000; -485.000
306.906;  -23.050; -284.000; -258.000
307.044;  -63.525; -473.000; -488.000
307.181;  -59.325; -410.000; -332.000
307.319;    8.875;  112.000;   87.000
307.456; -163.950;-1191.000;-1153.000
307.594;  -96.475; -980.000; -727.000
307.731;    5.175; -371.000; -164.000
307.868;    2.750;  -15.000;   20.000
308.006; -136.375; -961.000; -847.000
308.143;  -59.150; -618.000; -330.000
308.281;  209.375;  -37.000; -254.000
308.418;    7.800; -748.000; -640.000
308.555;  -60.375; -400.000; -250.000
308.693;  -71.525; -577.000; -573.000
308.830; -113.500; -712.000; -657.000
308.967;    5.550; -215.000;  -95.000
309.105;  -36.175; -507.000; -396.000
309.242;   57.275; -468.000; -367.000
309.379;  389.150; -577.000; -655.000
309.517;  -51.500; -936.000; -948.000
309.654; -113.325; -910.000; -734.000
309.791;  -57.075; -662.000; -580.000
309.928; -115.825; -977.000; -914.000
310.065;  183.450;  819.000;  697.000
310.203;   20.550; -825.000; -850.000
310.340;   -6.650; -465.000; -321.000
310.477;  -74.375; -412.000; -516.000
310.614;  -72.575; -383.000; -473.000
310.751;  -70.450; -427.000; -518.000
310.889;   -8.925;    1.000;   11.000
311.026; -136.450;-1161.000; -939.000
311.163;  -37.400; -386.000; -380.000
311.300;  -74.425; -512.000; -479.000
311.437;  -63.650; -658.000; -619.000
311.574; -132.375;-1226.000; -985.000
311.711;  -48.825; -595.000; -433.000
311.848;  -21.800; -380.000; -388.000
311.985;   12.300;  270.000;   93.000
312.122; -113.250; -932.000; -762.000
312.259; -112.700; -941.000; -994.000
312.396;  -68.250; -508.000; -551.000
312.533;  -75.500; -812.000; -790.000
312.670; -105.100;-1070.000; -898.000
312.807;  -23.600; -352.000; -367.000
312.944;  -63.075; -513.000; -611.000
313.081;  -23.200; -150.000; -415.000
313.218; -107.075;-1111.000; -867.000
313.355;    8.200; -531.000; -449.000
313.492;   12.675; -455.000; -292.000
313.629;  141.850;  815.000;  735.000
313.766; -151.600;-1176.000;-1008.000
313.902;  -14.275; -186.000;   21.000
314.039;  -40.625; -372.000; -289.000
314.176;   27.375;  286.000;  192.000
314.313;  -59.850; -569.000; -473.000
314.450;  -64.525; -788.000; -684.000
314.587;  -51.425; -468.000; -480.000
314.723;    3.325;  -78.000;  130.000
314.860;   33.050;  318.000;  332.000
314.997;   26.600;  223.000;  142.000
315.134;  -30.075; -385.000; -368.000
315.270;  -30.775; -480.000; -496.000
315.407; -111.350;-1094.000; -967.000
315.544;  -48.925; -657.000; -538.000
315.681;  -54.000; -681.000; -565.000
315.817;   37.775; -133.000; -176.000
315.954;   20.775; -613.000; -392.000
316.091; -121.325;-1045.000;-1023.000
316.227;  -22.425;  -71.000; -179.000
316.364;   -6.250;   23.000;    6.000
316.500;  -34.575; -113.000; -300.000
316.637;  -41.850; -181.000; -302.000
316.774;  -91.650; -625.000; -358.000
316.910;  -88.625; -598.000; -629.000
317.047;  -66.625; -487.000; -351.000
317.183;  -61.650; -435.000; -566.000
317.320;   -6.775; -367.000; -321.000
317.456;  -70.375; -733.000; -805.000
317.593;  -83.600; -598.000; -641.000
317.729;   -4.500;  168.000;  -67.000
317.866; -195.425;-1434.000;-1285.000
318.002;  -86.450; -708.000; -948.000
318.139;  -86.100; -883.000; -867.000
318.275;  -87.850;-1003.000; -738.000
318.412;  -50.800; -517.000; -336.000
318.548;  -23.775; -751.000; -720.000
318.685;  -85.425; -985.000; -888.000
318.821;  -82.600; -762.000; -735.000
318.957;  -23.500;   34.000;  -23.000
319.094;   41.500;  297.000;  154.000
319.230;  -63.950; -756.000; -742.000
319.367;  159.000; -471.000; -520.000
319.503;   82.700; -538.000; -436.000
319.639;  -89.750; -877.000; -793.000
319.775;  -46.400; -750.000; -685.000
319.912;  -63.075; -424.000; -519.000
320.048;  -82.375;-1184.000;-1184.000
320.184;   82.375;   59.000;   70.000
320.321;  -61.200; -497.000; -467.000
320.457;   65.375;  475.000;  662.000
320.593;  -64.750; -375.000; -382.000
320.729;  -97.650; -732.000; -734.000
320.866;  -66.000; -577.000; -635.000
321.002;  -76.025; -759.000; -809.000
321.138;   -7.050; -135.000; -211.000
321.274;   70.850; -148.000; -115.000
321.410;   -7.650; -585.000; -353.000
321.546;  -19.550;-1011.000; -911.000
321.683;   60.925;  400.000;  185.000
321.819;   10.025;  -48.000; -117.000
321.955;  -96.225; -743.000; -722.000
322.091;  -42.750; -585.000; -540.000
322.227;  -15.950; -382.000; -202.000
322.363;  -15.075; -320.000; -215.000
322.499;  -29.600; -343.000; -331.000
322.635;  172.275;  636.000;  443.000
322.771;   31.200; -139.000;   12.000
322.907;  100.000;  129.000;  327.000
323.043;  -21.325; -115.000; -206.000
323.179;  -27.000; -394.000; -363.000
323.315;   45.925; -401.000; -371.000
323.451;  123.425; -328.000; -236.000
323.587;   59.675;  -60.000;  -77.000
323.723;   42.125; -682.000; -601.000
323.859;    2.925; -258.000;  -76.000
323.995;  -13.200; -467.000; -409.000
324.131; -110.550; -967.000; -892.000
324.267;  -40.375; -254.000; -276.000
324.402; -109.175; -960.000; -983.000
324.538;   -5.075; -279.000; -104.000
324.674;   23.675;  164.000;   77.000
324.810;  161.100;  226.000;  308.000
324.946;   18.625; -810.000; -658.000
325.082;  -61.600; -568.000; -475.000
325.217;   -3.575;  -62.000;   16.000
325.353;  -91.525; -764.000; -659.000
325.489;  -85.150; -540.000; -506.000
325.625;  -69.900; -579.000; -525.000
325.760;   58.875;  517.000;  376.000
325.896;  -28.375; -515.000; -702.000
326.032;  -47.750; -403.000; -352.000
326.168;  -53.925; -462.000; -369.000
326.303;  -60.975; -352.000; -461.000
326.439;  -30.275; -336.000; -276.000
326.575;    0.175; -190.000;  -29.000
326.710;   -4.075; -156.000;  -30.000
326.846;   -4.600;  146.000;  103.000
326.982;  -78.650; -530.000; -548.000
327.117;  -72.425; -481.000; -442.000
327.253;  -82.175; -745.000; -742.000
327.388; -134.425;-1137.000;-1153.000
327.524;  -34.550; -811.000; -578.000
327.659;  -30.350;  -58.000;  -22.000
327.795;  -20.150;   69.000;   45.000
327.931;  -80.750; -723.000; -499.000
328.066;  -17.250; -417.000; -276.000
328.202;   -5.875;   12.000; -129.000
328.337;   98.375;  957.000;  713.000
328.473;   34.000;  -12.000;  -74.000
328.608;   -8.700; -256.000; -267.000
328.743;  -79.400; -799.000; -664.000
328.879;   25.800;  214.000;  114.000
329.014;  -32.550; -102.000; -122.000
329.150;  -82.125; -358.000; -483.000
329.285;  -68.350; -465.000; -466.000
329.421;  -61.500; -548.000; -246.000
329.556;  -17.150;  -36.000;   85.000
329.691;  -90.075; -633.000; -615.000
329.827;  -87.625; -626.000; -480.000
329.962;  -29.500;  131.000; -301.000
330.097;  -92.750; -673.000; -585.000
330.233;  -50.500; -410.000; -223.000
330.368; -110.475; -839.000; -628.000
330.503;  -17.250;    3.000;   98.000
330.638;    8.375;  -93.000; -125.000
330.774;  -47.800; -609.000; -530.000
330.909;  -36.850; -434.000; -244.000
331.044;  -91.475; -714.000; -708.000
331.179; -166.825;-1217.000;-1109.000
331.315;   20.300;   77.000;   20.000
331.450;    5.300;  157.000;  285.000
331.585;  -92.800; -805.000; -706.000
331.720;  -75.375; -510.000; -460.000
331.855;  -17.375;  -35.000; -102.000
331.990;  233.900;   62.000;  138.000
332.126;  125.500; -110.000;   71.000
332.261;  -19.600; -379.000; -265.000
332.396;   -3.825; -135.000; -242.000
332.531;  -87.125;-1074.000;-1031.000
332.666;   25.700; -519.000; -363.000
332.801;  -99.075; -726.000; -807.000
332.936;  -23.275; -192.000; -122.000
333.071; -133.425; -870.000; -817.000
333.206;   27.500;  307.000;  379.000
333.341;   32.625;  344.000;  418.000
333.476;  -73.275; -627.000; -623.000
333.611;  -26.525; -251.000; -173.000
333.746;  -37.750; -381.000; -464.000
333.881; -100.800; -973.000; -935.000
334.016; -134.175; -936.000; -917.000
334.151; -107.925; -746.000; -702.000
334.286;   32.325;  152.000;  186.000
334.421;  -26.875; -125.000; -178.000
334.556;  -79.550; -611.000; -567.000
334.690;  -85.175; -631.000; -577.000
334.825;   47.100;  381.000;   83.000
334.960;  -43.600; -285.000; -413.000
335.095;    9.400;  135.000;  -91.000
335.230;  -79.825; -722.000; -738.000
335.365; -122.450;-1084.000; -990.000
335.499; -125.925;-1108.000;-1037.000
335.634;   38.625;    9.000;  534.000
335.769;  -84.750; -755.000; -720.000
335.904;  -52.925; -603.000; -561.000
336.038;  -32.675; -735.000; -657.000
336.173; -100.350;-1206.000;-1194.000
336.308;   19.800; -116.000; -189.000
336.443;   21.475; -544.000; -634.000
336.577;  -57.775; -936.000; -787.000
336.712;   85.850;   -4.000;  -12.000
336.847;  -27.825; -724.000; -607.000
336.981;   83.275; -272.000; -208.000
337.116;  321.525;  615.000;  501.000
337.250;  178.700; -434.000; -421.000
337.385;  239.600; -297.000; -208.000
337.520;   79.150; -632.000; -603.000
337.654;  -47.550; -215.000; -126.000
337.789; -124.650; -989.000; -933.000
337.923;  -36.400; -104.000; -205.000
338.058;  -75.450; -673.000; -738.000
338.192;  -20.525; -611.000; -488.000
338.327;   -2.825;  -18.000; -155.000
338.461;  -57.025; -299.000; -469.000
338.596;  -82.675; -780.000; -638.000
338.730;  -93.200; -767.000; -803.000
338.865;   92.325;  -46.000; -140.000
338.999;  -65.650; -846.000; -702.000
339.134;  -24.875; -634.000; -536.000
339.268;   23.575; -741.000; -603.000
339.403;  357.475; -740.000; -775.000
339.537;  116.375; -894.000; -820.000
339.671; -111.125; -829.000; -813.000
339.806;  -55.000; -556.000; -512.000
339.940;    1.275; -261.000; -235.000
340.074;  -91.225; -685.000; -510.000
340.209;  -45.100; -351.000; -230.000
340.343;  -78.775; -517.000; -573.000
340.477;  151.600;  998.000; 1036.000
340.612;  -57.850;-1033.000; -900.000
340.746;  137.425; -199.000; -243.000
340.880;  -57.700; -924.000; -785.000
341.014;  -16.475;  -45.000; -154.000
341.149; -107.725; -756.000; -718.000
341.283; -103.300; -839.000; -754.000
341.417;  -79.675;-1124.000; -938.000
341.551;  178.625; -768.000; -708.000
341.685;  -34.575; -633.000; -611.000
341.820;  -40.975; -562.000; -493.000
341.954;  -38.175; -218.000; -349.000
342.088; -137.000;-1102.000;-1019.000
342.222;   54.450;  565.000;  618.000
342.356;  -58.950; -395.000; -335.000
342.490;  -74.400; -880.000; -841.000
342.624;  -47.175; -339.000; -242.000
342.758;   19.625; -364.000; -312.000
342.892;  -62.775; -710.000; -585.000
343.026;  -31.900;  -58.000; -116.000
343.160;  -45.675; -426.000; -376.000
343.294;  -65.250; -474.000; -337.000
343.428;  -16.050; -488.000; -448.000
343.562;  -22.100; -172.000;  -23.000
343.696;   -6.075; -385.000; -314.000
343.830;   -9.550; -362.000; -356.000
343.964;   22.000; -231.000; -168.000
344.098; 1052.350;  199.000;   70.000
344.232;  859.075; -266.000; -127.000
344.366;  102.000; -567.000; -453.000
344.500;   97.725; -665.000; -744.000
344.634;   65.775; -324.000; -164.000
344.768;   -9.775; -531.000; -341.000
344.902;   17.450;  278.000;  256.000
345.035;  -72.950; -556.000; -496.000
345.169; -131.975; -933.000; -656.000
345.303;  -21.300; -308.000; -482.000
345.437;  -49.350; -826.000; -717.000
345.571;  -66.750; -675.000; -594.000
345.704;  -52.375; -309.000; -532.000
345.838;  -16.750; -331.000; -284.000
345.972;  -39.175; -543.000; -495.000
346.106;  147.025; -179.000; -190.000
346.239;  451.825; -312.000; -243.000
346.373;   16.225; -343.000; -302.000
346.507; -136.175; -950.000; -962.000
346.640;  177.300;  -30.000;   13.000
346.774;  -33.700; -650.000; -797.000
346.908;  -12.325; -138.000;  -11.000
347.041;  -95.075; -646.000; -593.000
347.175;    3.250;  259.000;   27.000
347.309;  -59.050; -698.000; -628.000
347.442;  -83.950; -883.000; -732.000
347.576;  306.450;  670.000;  668.000
347.709;  235.750; -123.000;  -52.000
347.843;  -87.475; -933.000; -825.000
347.976;   43.750;  235.000;  294.000
348.110; -173.900;-1268.000;-1186.000
348.243;  -99.525; -679.000; -772.000
348.377;   10.550;  -26.000;   60.000
348.510;   52.500;  403.000;  540.000
348.644;  -41.225;  -37.000; -159.000
348.777;    8.625;  180.000;  191.000
348.911;  -50.975; -142.000; -112.000
349.044;  170.925;  471.000;  448.000
349.178;  196.225;-1069.000;-1006.000
349.311;  129.725;  141.000;  255.000
349.444;   -1.350; -927.000; -813.000
349.578;  -18.250; -347.000; -200.000
349.711;  -85.475; -959.000; -862.000
349.845;   21.775; -661.000; -591.000
349.978; -129.225;-1224.000;-1137.000
350.111;  -88.375; -546.000; -612.000
350.244;  -68.125; -596.000; -700.000
350.378;   21.500; -392.000; -393.000
350.511;  -53.450; -393.000; -426.000
350.644; -101.625; -808.000; -806.000
350.778;   16.575;  168.000;  104.000
350.911;   15.425;  134.000;  140.000
351.044;  -87.050; -685.000; -615.000
351.177;  -24.175; -321.000; -281.000
351.310;   -5.550;    3.000; -131.000
351.444;  -69.475; -888.000; -788.000
351.577;  129.800;  140.000;   90.000
351.710;  100.450;  593.000;  417.000
351.843;  -34.625; -165.000;  -77.000
351.976;    5.375;  149.000;  -79.000
352.109;  -75.850; -621.000; -612.000
352.242;   -8.875; -464.000; -419.000
352.376;  -52.275; -580.000; -636.000
352.509;  218.950; -437.000; -356.000
352.642;   35.100; -654.000; -604.000
352.775;   76.150; -141.000;  -98.000
352.908;  -96.175; -933.000; -904.000
353.041; -100.425; -814.000; -824.000
353.174;  -52.150; -551.000; -424.000
353.307;  -77.300; -753.000; -764.000
353.440;   68.125;  541.000;  453.000
353.573; -103.325; -957.000;-1008.000
353.706;   -8.775; -384.000; -558.000
353.839;   -6.550; -264.000; -220.000
353.971;  -79.925; -657.000; -512.000
354.104;  -72.925; -896.000; -835.000
354.237;  -35.875; -627.000; -662.000
354.370;  -71.500; -846.000; -879.000
354.503; -169.375;-1231.000;-1308.000
354.636;  -34.275; -529.000; -348.000
354.769; -117.900; -937.000; -860.000
354.902;   -1.500; -230.000; -139.000
355.034;  -11.900; -164.000; -220.000
355.167;  -15.425; -262.000; -162.000
355.300;  -76.600;-1061.000; -880.000
355.433;  942.325;  -71.000;  -14.000
355.565; 1469.925; -402.000; -384.000
355.698;  391.250; -356.000; -296.000
355.831;   11.275; -882.000; -801.000
355.964;   94.950; -285.000; -170.000
356.096;  -76.050; -856.000; -843.000
356.229;   30.200; -523.000; -530.000
356.362;  308.850; -373.000; -266.000
356.494;  580.650; -229.000; -162.000
356.627;  530.375;  269.000;  377.000
356.760;  676.450;  120.000;   53.000
356.892;  917.200; -286.000; -601.000
357.025;  739.325;  403.000;  389.000
357.157;  699.425; -167.000; -179.000
357.290;  638.850; -856.000; -713.000
357.423;  206.600; -667.000; -556.000
357.555;  144.625; -217.000; -228.000
357.688;  136.050; -483.000; -364.000
357.820;  501.700; -870.000; -877.000
357.953; 4053.675; -563.000; -589.000
358.085;  936.550; -632.000; -612.000
358.218; 1387.850;-1131.000; -932.000
358.350;  256.800;  -58.000;  312.000
358.483; -106.950;-1300.000;-1187.000
358.615;   10.825;-1182.000;-1078.000
358.747;  -23.600;-1187.000;-1058.000
358.880;   44.600; -810.000; -744.000
359.012;   14.100; -376.000; -202.000
359.145;  -28.150; -480.000; -511.000
359.277;   81.950; -962.000; -913.000
359.409; 3341.275;  536.000;  231.000
359.542;  917.025; -738.000; -688.000
359.674;   86.025;   46.000;   13.000
359.806;  -57.100; -565.000; -438.000
359.939;  -44.975; -617.000; -516.000
360.071;   -9.325; -583.000; -579.000
360.203;  -27.325; -411.000; -364.000
360.335;   63.075;  164.000;  -16.000
360.468;  206.475; -249.000; -307.000
360.600; 2682.650; -547.000; -454.000
360.732; 2714.075; -546.000; -423.000
360.864;  384.750;-1216.000;-1044.000
360.996;  348.875; -516.000; -554.000
361.129;   75.400; -389.000; -598.000
361.261;   16.450;  110.000; -113.000
361.393;  -20.400; -252.000; -214.000
361.525;   40.200;   94.000;  244.000
361.657;  -38.150; -821.000; -703.000
361.789;   25.225; -139.000; -155.000
361.921;  298.825; -642.000; -593.000
362.053;  304.775;  524.000;  541.000
362.185;   59.950;  288.000;   72.000
362.318;  -78.100; -709.000; -705.000
362.450;  135.775;  294.000;  444.000
362.582;  169.700; -913.000; -870.000
362.714;  -31.775; -353.000; -332.000
362.846;  -98.725; -606.000; -490.000
362.978; -121.100; -941.000; -811.000
363.109;   69.550; -161.000; -260.000
363.241;  533.350; -739.000; -749.000
363.373;  444.475; -649.000; -564.000
363.505;  636.975; -186.000;  -91.000
363.637;  162.525; -787.000; -601.000
363.769; -110.225;-1067.000;-1080.000
363.901;  -58.050; -596.000; -654.000
364.033; -105.625;-1103.000;-1062.000
364.165;   13.325; -283.000; -283.000
364.296;   67.625; -316.000; -177.000
364.428;   67.675;-1344.000;-1220.000
364.560;  -58.750; -679.000; -661.000
364.692;  -47.600; -738.000; -835.000
364.824;  311.275; -588.000; -456.000
364.955;  448.750; -402.000; -564.000
365.087;  843.775;-1097.000; -852.000
365.219;   40.100; -686.000; -816.000
365.351;  -63.550; -526.000; -572.000
365.482;   75.225;  300.000;  240.000
365.614;  -30.525; -402.000; -314.000
365.746;  -86.775; -729.000; -752.000
365.877;  -96.650; -706.000; -672.000
366.009;  231.200;  -35.000;  -62.000
366.141;  -95.125;-1249.000;-1134.000
366.272;  -97.400; -803.000; -719.000
366.404; -110.525;-1005.000; -874.000
366.535;    7.000; -139.000;  -12.000
366.667;  -77.150; -644.000; -649.000
366.799;   33.900;  353.000;  203.000
366.930; -109.100; -862.000; -996.000
367.062;  122.425; -639.000; -613.000
367.193;  135.325; -872.000; -842.000
367.325;  -61.275; -580.000; -684.000
367.456;   64.925; -246.000;   31.000
367.588;  156.700; -371.000; -318.000
367.719;   22.900;  -44.000;  -45.000
367.851;   -9.025; -222.000; -241.000
367.982;  -37.175; -875.000; -732.000
368.113;  122.400; -475.000; -358.000
368.245; -108.200; -960.000; -841.000
368.376;  -12.675; -254.000; -302.000
368.508;  -20.325; -188.000; -263.000
368.639; -133.900;-1166.000;-1034.000
368.770;   -3.475; -670.000; -589.000
368.902;  -51.900; -836.000; -926.000
369.033;  -95.150; -906.000; -855.000
369.164;  -43.825; -720.000; -653.000
369.296; -110.875; -452.000; -601.000
369.427;   -5.400; -209.000; -144.000
369.558;  -40.650; -593.000; -377.000
369.689;  -77.350; -721.000; -569.000
369.821; -133.850; -951.000; -845.000
369.952;  -12.500;   42.000; -108.000
370.083;  -42.725; -229.000; -108.000
370.214;  -75.200; -735.000; -650.000
370.345;    8.250;   65.000;   81.000
370.477;  -72.050; -810.000; -790.000
370.608;  280.675; -328.000; -264.000
370.739;  -23.925;-1233.000;-1292.000
370.870;  -23.775;-1102.000; -923.000
371.001;  121.375; -378.000; -467.000
371.132;  -68.325; -754.000; -735.000
371.263;  -19.225;  -42.000; -148.000
371.394; -125.325; -841.000; -748.000
371.525;   34.125;  345.000;  225.000
371.657;  -85.500; -808.000; -670.000
371.788;   87.300;  103.000;  199.000
371.919;  186.550; -384.000; -304.000
372.050; 4051.125;  -91.000; -156.000
372.181; 1262.775; -188.000; -294.000
372.311;  434.375;   42.000; -127.000
372.442;   77.525; -457.000; -451.000
372.573;  -11.750; -444.000; -340.000
372.704; -109.650;-1008.000; -980.000
372.835;  107.225; -228.000; -289.000
372.966;  -48.775; -646.000; -554.000
373.097;  -55.775; -575.000; -711.000
373.228;  -33.050; -717.000; -542.000
373.359;  178.550; -824.000; -536.000
373.490; 1083.225; -881.000; -727.000
373.620; 1386.400;-1001.000; -803.000
373.751; 2031.125; -332.000; -396.000
373.882;  940.925; -663.000; -733.000
374.013;   89.700; -449.000; -262.000
374.143;  -37.525; -581.000; -659.000
374.274;  -90.950; -987.000; -908.000
374.405;  201.875; -388.000; -276.000
374.536;  524.825; -526.000; -387.000
374.666; 1313.850; -759.000; -807.000
374.797;  273.225; -817.000; -868.000
374.928; 1027.450; -710.000; -560.000
375.058; 1045.425; -535.000; -500.000
375.189;   81.600;  -59.000;  -93.000
375.320;  -88.600; -928.000;-1034.000
375.450;  -27.450; -625.000; -616.000
375.581;  -31.975; -526.000; -436.000
375.712;  -31.275; -574.000; -250.000
375.842;  360.475; -438.000; -415.000
375.973;  280.200; -554.000; -513.000
376.103;  -26.675; -665.000; -648.000
376.234;  -60.550; -531.000; -552.000
376.364;  -19.350; -944.000; -867.000
376.495;  372.025;  925.000;  529.000
376.625;   14.775; -472.000; -485.000
376.756;   97.375; -709.000; -678.000
376.886;  -54.550;-1178.000;-1026.000
377.017;   36.825;-1048.000;-1061.000
377.147;  326.575; -786.000; -782.000
377.278;   68.600;  174.000;  228.000
377.408; -112.650; -801.000; -815.000
377.538; -110.275; -707.000; -693.000
377.669;  -61.100; -537.000; -613.000
377.799;  -66.450; -645.000; -635.000
377.929;  -52.425; -610.000; -428.000
378.060; -120.000; -781.000; -847.000
378.190;  -58.150; -726.000; -531.000
378.320;  -46.250; -401.000; -406.000
378.451;   -0.475; -131.000;  -22.000
378.581;   -0.850;  -67.000; -110.000
378.711;  159.675; 1035.000;  866.000
378.841;   -4.750; -533.000; -675.000
378.972;  -48.600; -871.000; -751.000
379.102;   21.150; -652.000; -579.000
379.232;   -6.150; -126.000;  -73.000
379.362;  -81.925;-1001.000; -885.000
379.492;   36.325; -373.000; -424.000
379.623;  109.100;    0.000;  111.000
379.753;  -87.475;-1107.000; -974.000
379.883;  226.075;   59.000;  156.000
380.013;   47.650;-1081.000;-1017.000
380.143;  -90.175;-1097.000;-1056.000
380.273;  -89.775; -985.000; -861.000
380.403;    7.925; -344.000; -257.000
380.533;    0.550; -651.000; -664.000
380.663;  100.175;  173.000;  128.000
380.793;  -75.150;-1027.000;-1074.000
380.923;  -29.575; -103.000;  -34.000
381.053;  -93.300; -613.000; -623.000
381.183;  -17.150; -106.000; -248.000
381.313;   42.475; -656.000; -470.000
381.443;   65.775; -692.000; -473.000
381.573;  238.425; -402.000; -409.000
381.703;  376.400;-1249.000;-1095.000
381.833; -104.600;-1454.000;-1336.000
381.963;  139.350; -134.000;  -87.000
382.093; 1564.150; -925.000; -909.000
382.223;  535.800; -713.000; -602.000
382.353;    7.875; -801.000; -608.000
382.482;  443.025;-1091.000; -964.000
382.612;  883.350; -872.000; -644.000
382.742;  520.775; -695.000; -622.000
382.872;  335.950; -565.000; -551.000
383.002;   81.175;  347.000; -132.000
383.131;   -2.400; -226.000; -160.000
383.261;  -35.050; -706.000; -768.000
383.391;  299.625; -552.000; -377.000
383.521; 2996.325;  451.000;  263.000
383.650;  742.225; -947.000; -904.000
383.780;  -12.750; -783.000; -656.000
383.910;  110.225;  880.000;  802.000
384.039;   56.575; -794.000; -656.000
384.169;  285.300;-1205.000;-1017.000
384.299;   14.050; -650.000; -662.000
384.428;  -91.425; -764.000; -680.000
384.558;  -45.250; -308.000; -275.000
384.687;  -25.825; -414.000; -334.000
384.817;   30.500;   75.000;   -2.000
384.947;   36.900; -234.000; -141.000
385.076;  314.975;  982.000;  912.000
385.206;  119.125;  369.000;  480.000
385.335;  -24.700; -549.000; -417.000
385.465;  -79.300; -655.000; -663.000
385.594;  161.575;  -53.000;  -44.000
385.724;  516.525; -868.000; -838.000
385.853;  154.100; -296.000; -270.000
385.982; 1520.575; -743.000; -787.000
386.112; 2517.025;-1052.000; -871.000
386.241;  179.650; -307.000; -312.000
386.371;   38.400; -174.000;  -87.000
386.500;   20.825; -825.000; -789.000
386.629;   33.650; -874.000; -817.000
386.759;   83.600;  -43.000;   68.000
386.888;    6.775; -170.000; -250.000
387.017;  -71.850; -648.000; -620.000
387.147;  -74.050; -771.000; -798.000
387.276;   24.550; -410.000; -397.000
387.405;   13.825; -398.000; -342.000
387.535;  -22.375; -452.000; -361.000
387.664;  -45.700; -692.000; -620.000
387.793;   84.150; -198.000; -113.000
387.922;  614.675;  255.000;  200.000
388.052;   43.375; -576.000; -423.000
388.181;   44.425; -342.000; -472.000
388.310;   32.325; -889.000; -710.000
388.439;  -16.675; -749.000; -742.000
388.568;  210.725;  365.000;  244.000
388.697; 1210.225; -756.000; -653.000
388.826;  273.950; -768.000; -666.000
388.956;   69.275; -285.000; -307.000
389.085;  -33.700; -347.000; -287.000
389.214; -103.950; -842.000; -872.000
389.343;  -62.450; -645.000; -413.000
389.472;  406.975;  126.000;  149.000
389.601;  519.150;   91.000;    0.000
389.730;   38.675; -568.000; -687.000
389.859;   75.950;  226.000;   46.000
389.988;  206.225; -423.000; -408.000
390.117;  176.775; -168.000; -146.000
390.246;  -13.000; -331.000; -320.000
390.375;  132.375; -673.000; -626.000
390.504;  -49.675; -703.000; -621.000
390.633;  -84.425; -672.000; -726.000
390.761;  -46.475; -732.000; -645.000
390.890;   31.925;   -4.000; -130.000
391.019;   -7.650; -421.000; -441.000
391.148; -118.400; -826.000; -855.000
391.277;  -63.675; -576.000; -493.000
391.406;  -62.100; -821.000; -805.000
391.534;   24.575;  574.000; -301.000
391.663;  -55.725; -583.000; -645.000
391.792;  -78.525; -673.000; -701.000
391.921;  128.275;   -3.000;   15.000
392.050;  225.025; -287.000; -228.000
392.178;   -9.875;-1206.000;-1061.000
392.307;  173.900; -758.000; -712.000
392.436;  106.000; -427.000; -641.000
392.564;   13.400;  166.000;   -6.000
392.693;  -80.725; -860.000; -682.000
392.822;  234.050; -529.000; -534.000
392.950;  138.550; -880.000; -714.000
393.079;  364.625; -188.000; -328.000
393.208;   47.800; -488.000; -511.000
393.336;    7.925; -170.000; -145.000
393.465;  -51.925; -317.000; -199.000
393.593;    9.675;   62.000;   79.000
393.722; -154.350;-1121.000; -916.000
393.850;  -21.750; -188.000;  -61.000
393.979; -152.225; -926.000; -805.000
394.107;  -51.475; -517.000; -537.000
394.236;  -21.400; -570.000; -507.000
394.364;  244.600;  383.000;  206.000
394.493;  452.350; -911.000; -767.000
394.621;    6.350; -955.000; -916.000
394.750;  653.050; -873.000; -923.000
394.878; 2781.425; -247.000; -149.000
395.007; 3969.350; -721.000; -807.000
395.135;  316.900; -790.000; -721.000
395.263;  -87.475;-1038.000;-1040.000
395.392;    3.150;  -25.000; -107.000
395.520; -135.825; -818.000; -679.000
395.648;  -71.775; -865.000; -915.000
395.777;   10.750; -366.000; -405.000
395.905;  -42.425; -449.000; -564.000
396.033;   11.950;  217.000;  172.000
396.162;  677.200; -399.000; -453.000
396.290;  607.900;  -17.000;   -2.000
396.418;  131.200; -555.000; -514.000
396.546;  -57.575; -571.000; -466.000
396.674;  -90.450; -850.000; -878.000
396.803;   16.500;  -72.000;  -23.000
396.931;  122.150; -179.000; -199.000
397.059;  103.550;-1026.000; -989.000
397.187;  -94.850;-1026.000; -975.000
397.315; -130.575; -884.000; -649.000
397.443; -102.175; -592.000; -443.000
397.572;  -98.600; -578.000; -424.000
397.700;    3.150; -607.000; -614.000
397.828;   46.950;  120.000;  -90.000
397.956;  -41.925; -508.000; -478.000
398.084;  -59.500; -767.000; -626.000
398.212;   32.825;  137.000;  124.000
398.340;   10.275;  -56.000;  159.000
398.468;   46.775; -390.000; -169.000
398.596; -128.300; -993.000; -953.000
398.724; -103.925; -762.000; -767.000
398.852; -157.525;-1024.000; -976.000
398.980;  -57.725; -560.000; -560.000
399.108;  -26.775; -982.000; -735.000
399.236;   41.225;   13.000;    8.000
399.363;    9.775;  222.000;  196.000
399.491;  -50.075; -404.000; -398.000
399.619; -123.100; -829.000; -800.000
399.747;  -92.200; -859.000; -771.000
399.875;   91.800;  220.000;  234.000
400.003;  -47.175; -359.000; -284.000
400.130;  -86.675; -421.000; -341.000
400.258;  -31.200;  -83.000;   38.000
400.386;  -60.150; -352.000; -168.000
400.514;  -31.500; -526.000; -587.000
400.641;  -68.375; -928.000; -802.000
400.769; -134.250; -979.000; -888.000
400.897;  -94.450; -838.000; -793.000
401.025;  -13.050; -166.000; -152.000
401.152;   -0.500;  220.000;   38.000
401.280;  -87.800; -430.000; -429.000
401.408; -104.625; -712.000; -576.000
401.535;  -98.525; -735.000; -758.000
401.663; -190.200;-1134.000;-1054.000
401.790;  -81.650; -514.000; -525.000
401.918;   38.300;  436.000;  405.000
402.046;  -20.475;  134.000;  122.000
402.173;  -36.450;  -18.000;    7.000
402.301;  -67.175; -519.000; -397.000
402.428;   35.975;  528.000;  383.000
402.556; -140.050;-1188.000; -913.000
402.683;  -33.675;  -20.000;   -1.000
402.811;  -19.950;  -37.000; -206.000
402.938;  -12.275;   20.000;   27.000
403.066;  241.775; -574.000; -558.000
403.193;  396.375;  299.000;  239.000
403.321;  306.150; -396.000; -574.000
403.448;  370.825;   83.000;   27.000
403.575;  167.525;  -90.000;  -46.000
403.703;  -87.650; -732.000; -557.000
403.830;  -66.600; -531.000; -496.000
403.957; -137.600;-1117.000;-1023.000
404.085;   13.225;  -61.000; -172.000
404.212;  117.325;  -50.000;   63.000
404.339;  248.000; -566.000; -306.000
404.467; 5484.500; -612.000; -524.000
404.594; 3935.950; -287.000; -227.000
404.721; 1036.325; -869.000; -764.000
404.848;  107.150; -113.000; -202.000
404.976;  -93.800; -856.000; -783.000
405.103;  -29.550;  -14.000;  -82.000
405.230;   -4.500;  190.000;  226.000
405.357;   31.825;  117.000;   44.000
405.484;  241.300;  -49.000;    5.000
405.612;   61.800; -548.000; -563.000
405.739;  -53.675; -488.000; -243.000
405.866;   80.475;  669.000;  385.000
405.993;  -39.325; -398.000; -102.000
406.120; -133.400; -801.000; -887.000
406.247;  -51.200; -323.000; -342.000
406.374;  497.775;  540.000;  629.000
406.501;  150.000; -632.000; -702.000
406.628;  -72.950; -621.000; -589.000
406.755;  -86.625; -803.000; -620.000
406.882;  -38.100; -228.000; -277.000
407.009;  -98.525; -719.000; -628.000
407.136;   64.575; -480.000; -401.000
407.263;  183.275; -939.000; -829.000
407.390;  -78.700; -692.000; -614.000
407.517; -159.075;-1139.000;-1187.000
407.644;  -74.325; -332.000; -256.000
407.771; -122.500; -249.000; -287.000
407.898;    3.200;  168.000;  328.000
408.025;  -60.800; -421.000; -313.000
408.151;  -13.600;   82.000;  153.000
408.278;  -73.900; -267.000; -216.000
408.405; -110.975; -931.000; -899.000
408.532;  -62.500; -549.000; -542.000
408.659; -115.000; -677.000; -648.000
408.785; -200.375;-1298.000;-1170.000
408.912;  -67.650; -412.000; -296.000
409.039; -106.575; -610.000; -686.000
409.166; -110.725; -591.000; -555.000
409.292; -105.000; -571.000; -534.000
409.419; -124.125; -665.000; -649.000
409.546;  -92.450; -431.000; -192.000
409.672; -107.525; -713.000; -545.000
409.799;   -4.325;  -36.000;   34.000
409.926;  -49.475; -180.000; -179.000
410.052; -175.075;-1127.000;-1091.000
410.179;  -54.700; -368.000; -392.000
410.305;  -86.900; -375.000; -493.000
410.432;  -50.475; -220.000; -333.000
410.558;  -88.300; -305.000; -380.000
410.685; -103.150; -688.000; -431.000
410.812; -102.875; -409.000; -588.000
410.938; -140.975; -964.000; -808.000
411.065; -104.800; -671.000; -645.000
411.191;   -5.550; -189.000; -174.000
411.317; -112.350; -823.000; -742.000
411.444;  -61.675; -317.000; -246.000
411.570;  -75.300; -339.000; -294.000
411.697; -125.775; -758.000; -752.000
411.823; -165.125; -989.000; -999.000
411.949;  -41.475;  -56.000;   17.000
412.076; -115.450; -539.000; -519.000
412.202; -102.775; -758.000; -757.000
412.329; -122.575; -798.000; -752.000
412.455; -122.650; -821.000; -657.000
412.581;  -11.950;  -15.000;  172.000
412.707;  -64.600; -540.000; -457.000
412.834;   17.400;  156.000;  219.000
412.960;  -70.350; -785.000; -784.000
413.086;  -89.125; -743.000; -701.000
413.212;  162.175;  604.000;  578.000
413.339;  -52.100; -685.000; -701.000
413.465;   16.325; -364.000; -310.000
413.591;  -81.450; -757.000; -474.000
413.717;  -66.950; -358.000; -366.000
413.843; -126.850; -839.000; -861.000
413.969;  -53.750;  -47.000; -292.000
414.096; -103.475; -679.000; -679.000
414.222;  -10.450;  -33.000;   85.000
414.348;  -27.000; -652.000; -385.000
414.474;  128.250;   38.000;  -52.000
414.600;  -13.300; -126.000; -144.000
414.726;   -6.300;  -96.000;  -55.000
414.852;  -55.275; -365.000; -342.000
414.978;   22.575;  104.000;  -18.000
415.104;   26.650;   38.000;   80.000
415.230;   30.525; -329.000; -330.000
415.356;   47.575; -409.000; -514.000
415.482;  215.950;   13.000;  -35.000
415.608;  270.200; -247.000; -323.000
415.734;  929.075;   67.000;   38.000
415.860;19126.775; -875.000; -767.000
415.986;14912.000; -685.000; -607.000
416.111; 1313.550; -798.000; -652.000
416.237;  258.125; -424.000; -571.000
416.363; 1020.925; -765.000; -733.000
416.489; 4081.725; -324.000; -251.000
416.615;  478.175; -707.000; -742.000
416.741;  -19.975; -677.000; -784.000
416.866;  -78.675; -673.000; -736.000
416.992; -130.925; -801.000; -818.000
417.118;  -33.200;  -41.000;  -80.000
417.244;  -73.950; -798.000; -531.000
417.369;  -87.700; -801.000; -612.000
417.495;    9.575; -325.000; -254.000
417.621;  -70.575;-1015.000; -803.000
417.746;    7.100; -579.000; -572.000
417.872;   57.100; -254.000; -144.000
417.998;   52.125; -515.000; -530.000
418.123;  955.600;-1073.000; -845.000
418.249; 5244.975; -512.000; -601.000
418.374;  799.425; -916.000; -824.000
418.500;  125.025; -383.000; -482.000
418.626;  112.175;   70.000;  -59.000
418.751;  122.525; -549.000; -448.000
418.877;  192.925; -637.000; -643.000
419.002; 1661.575; -688.000; -560.000
419.128;12108.075; -930.000; -721.000
419.253; 3202.400; -967.000; -837.000
419.379;  428.300; -391.000; -338.000
419.504;  388.275;  325.000;  415.000
419.629;  505.300; -393.000; -212.000
419.755; 3223.525; -317.000; -254.000
419.880;20124.075;  -98.000;   67.000
420.006;10980.550; -280.000; -221.000
420.131;29040.225; -662.000; -775.000
420.256; 4443.850; -315.000; -316.000
420.382;  592.175; -665.000; -687.000
420.507;   88.575; -649.000; -778.000
420.632;  145.625; -337.000; -339.000
420.758;  304.825; -251.000; -425.000
420.883;  -56.650; -876.000; -672.000
421.008;  -93.200; -775.000; -619.000
421.133;  -81.400; -509.000; -467.000
421.259;  -33.600; -325.000; -259.000
421.384; -113.200; -834.000; -693.000
421.509;  -31.775;-1052.000; -862.000
421.634; 1346.800; -936.000; -820.000
421.759;  636.325; -359.000; -327.000
421.885;  -34.100; -717.000; -656.000
422.010;  -74.250; -673.000; -542.000
422.135; -142.725; -695.000; -727.000
422.260;   27.425;  340.000;  280.000
422.385;  -32.300;   12.000;  -98.000
422.510;    8.500;  151.000;  -26.000
422.635;   28.600;  -87.000;  -43.000
422.760;  106.775; -766.000; -791.000
422.885;   75.150;  -57.000;  -80.000
423.010;  -39.150; -112.000; -169.000
423.135;  -95.675; -481.000; -561.000
423.260;   -0.525; -150.000; -245.000
423.385;   80.475;  476.000;  222.000
423.510;   40.675;   71.000;  -22.000
423.635;  103.375;  133.000;   45.000
423.760;   64.500;  383.000;  328.000
423.885;   54.025;  336.000;  391.000
424.010;   -4.275;  -68.000;  -13.000
424.135;  -22.800;    5.000;  -33.000
424.259;  -88.150; -654.000; -457.000
424.384;  -53.450; -279.000; -272.000
424.509;  -22.250; -260.000; -186.000
424.634;  -96.225; -761.000; -623.000
424.759;  -26.175; -688.000; -544.000
424.883;   -4.600; -506.000; -527.000
425.008;  152.750; -502.000; -410.000
425.133; 1938.650; -679.000; -653.000
425.258;  971.500; -517.000; -381.000
425.382; 1097.575; -867.000; -774.000
425.507; 2971.600; -487.000; -543.000
425.632;  513.850; -802.000; -663.000
425.756;  453.575; -256.000; -146.000
425.881; 5863.100; -831.000; -857.000
426.006;16869.100; -604.000; -355.000
426.130; 2835.875; -696.000; -508.000
426.255;  362.125; -611.000; -491.000
426.379;  154.150; -189.000; -577.000
426.504;  360.450;  660.000;  544.000
426.629; 3909.750; -519.000; -466.000
426.753; 2893.975;   64.000;  -46.000
426.878;  330.750; -252.000; -288.000
427.002;  182.850; -651.000; -668.000
427.127; 1486.825;  -35.000; -158.000
427.251;10973.875;  372.000;  401.000
427.375; 3392.575; -191.000; -173.000
427.500; 2531.200; -616.000; -610.000
427.624;  947.900; -234.000; -400.000
427.749;  125.050; -216.000; -225.000
427.873;  -16.475; -499.000; -412.000
427.997;  -35.025; -222.000; -230.000
428.122;   81.975;  795.000;  703.000
428.246;   80.475;  433.000;  434.000
428.371; -108.850; -869.000; -773.000
428.495;  -94.275; -624.000; -646.000
428.619;  -31.300; -186.000; -117.000
428.743;   24.825;   65.000;  132.000
428.868;   25.100; -732.000; -643.000
428.992; 1557.300; -219.000; -326.000
429.116;  674.400; -329.000; -357.000
429.240;  320.800;  419.000;  426.000
429.365;   -8.125; -454.000; -574.000
429.489;  -28.600; -638.000; -647.000
429.613;   33.350; -236.000; -177.000
429.737;   43.675; -563.000; -432.000
429.861;  277.600; -247.000; -133.000
429.985; 5227.300; -425.000; -305.000
430.109; 6176.525; -770.000; -908.000
430.234;  768.350;   76.000;  -50.000
430.358;   77.625; -250.000; -160.000
430.482;  -59.650; -672.000; -564.000
430.606;  -59.925; -655.000; -375.000
430.730;   26.600; -437.000; -388.000
430.854;  180.275; -909.000; -835.000
430.978;  -55.225; -795.000; -764.000
431.102;  -85.825; -499.000; -422.000
431.226; -110.825; -874.000; -815.000
431.350;   43.275;  345.000;  422.000
431.474;  -77.300; -661.000; -373.000
431.597; -151.125;-1060.000; -848.000
431.721;  -72.875; -276.000; -267.000
431.845; -125.775; -704.000; -472.000
431.969;  -82.275; -304.000; -349.000
432.093;  -94.875; -395.000; -317.000
432.217;  -30.425;   32.000;   82.000
432.341;  -98.150; -523.000; -518.000
432.464;    5.275;   96.000;   40.000
432.588;  246.550; -401.000; -329.000
432.712;  141.625;  -52.000;  -52.000
432.836;   40.250;  213.000;  263.000
432.959;  -23.275; -372.000; -311.000
433.083;   72.475;   11.000;    2.000
433.207;  353.450;  285.000;  930.000
433.330; 4686.675; -391.000; -200.000
433.454; 6202.600; -654.000; -638.000
433.578; 3516.075;  583.000;  278.000
433.701;  707.575; -623.000; -675.000
433.825;  168.975; -292.000; -299.000
433.949;  225.375;   28.000;  -72.000
434.072;   83.950; -410.000; -323.000
434.196;   -2.200; -309.000; -117.000
434.319; 3579.400;25482.000;25124.000
434.443;  684.475; -656.000; -603.000
434.566; 2616.775;  281.000;   62.000
434.690;  475.925; -637.000; -383.000
434.813;   58.800; -251.000; -173.000
434.937;  -72.525; -569.000; -696.000
435.060;  -28.075; -423.000; -332.000
435.184;  374.475; -492.000; -217.000
435.307;  213.175;  159.000;  102.000
435.431;  -10.650;  -40.000;   24.000
435.554;  -77.275; -399.000; -240.000
435.677;  -84.900; -350.000; -258.000
435.801;  -54.650;  -25.000;   49.000
435.924;   -4.375;    1.000;  -67.000
436.048;  -94.100;-1019.000; -732.000
436.171;  -74.000; -240.000;  -66.000
436.294;  -35.775; -248.000; -229.000
436.417;   83.175; -963.000; -849.000
436.541;  -73.525; -814.000; -840.000
436.664;  -62.125; -242.000; -316.000
436.787;  -31.175;   13.000;  113.000
436.910; -100.400; -792.000; -422.000
437.034;    6.575;  142.000;  143.000
437.157;   60.500;  -11.000;    0.000
437.280;  -29.225; -392.000; -292.000
437.403;  -67.650; -982.000; -869.000
437.526;  711.075; -903.000; -865.000
437.649; 2711.025; -505.000; -332.000
437.772;  472.150; -692.000; -540.000
437.896;  144.100;  700.000;  544.000
438.019;  -84.950; -758.000; -503.000
438.142;  -83.350; -596.000; -506.000
438.265;    7.600; -639.000; -670.000
438.388;  654.200; -520.000; -410.000
438.511;  141.550; -597.000; -394.000
438.634;  -31.125; -247.000; -125.000
438.757; -126.800; -693.000; -619.000
438.880;  -14.825;  -34.000;  -57.000
439.003;  -74.200; -417.000; -437.000
439.126;  -67.850; -287.000; -167.000
439.248;  -61.775;  -98.000; -139.000
439.371;  -40.025;    9.000;  -53.000
439.494;   27.100;  510.000;  439.000
439.617;  -55.800;   65.000;  -88.000
439.740; -164.600; -968.000; -816.000
439.863; -159.850; -755.000; -595.000
439.986; -115.525; -476.000; -431.000
440.108;  -52.700; -161.000; -112.000
440.231; -156.825; -950.000; -836.000
440.354;  -38.825;  -64.000; -150.000
440.477;   61.450; -566.000; -542.000
440.599;   23.250; -200.000; -225.000
440.722; -129.975; -709.000; -586.000
440.845;   57.325;  751.000;  928.000
440.968; -121.350; -415.000; -311.000
441.090;  -72.075; -199.000;  -33.000
441.213; -162.800;-1021.000; -825.000
441.336;  -49.150; -159.000;   -5.000
441.458;  -82.150; -549.000; -396.000
441.581;  -73.650; -628.000; -629.000
441.703;  -65.525; -152.000;   13.000
441.826;  -96.275; -557.000; -400.000
441.948;  -62.150;   56.000;   51.000
442.071;   21.950;  555.000;  424.000
442.193; -117.500; -531.000; -485.000
442.316;   31.350;  152.000;   97.000
442.438;   35.875; -233.000;  -10.000
442.561;   78.625;  272.000;  262.000
442.683;  601.475; -809.000; -522.000
442.806; 1402.925;   -8.000;   74.000
442.928;   79.875; -859.000; -604.000
443.051;  -55.875; -577.000; -373.000
443.173;  -82.500; -341.000; -339.000
443.295;  -77.600; -263.000; -371.000
443.418;  -83.300; -321.000;  -29.000
443.540;   -3.550; -106.000;   -4.000
443.662; -120.150; -563.000; -465.000
443.785;    0.475;  335.000;  199.000
443.907;  -88.325; -362.000; -208.000
444.029; -121.225; -767.000; -494.000
444.152; -142.825; -644.000; -554.000
444.274;  -39.475;  -18.000;  -24.000
444.396; -105.925; -461.000; -221.000
444.518; -121.350; -691.000; -454.000
444.640;  -99.400; -268.000; -111.000
444.763;  -20.850;  388.000;  249.000
444.885; -124.075; -432.000; -392.000
445.007;  -26.775;   35.000;   86.000
445.129; -112.475; -610.000; -515.000
445.251; -109.000; -372.000; -439.000
445.373; -127.475; -537.000; -386.000
445.495;  -12.175;  242.000;  350.000
445.617;   54.950;  853.000;  753.000
445.739;  -67.875; -215.000;  -97.000
445.861;  -20.675; -245.000; -112.000
445.984;  -26.700; -267.000; -101.000
446.105;  221.125; -418.000; -251.000
446.227;  710.975; -176.000;  -19.000
446.349;   51.050; -358.000; -249.000
446.471;  -82.900; -615.000; -448.000
446.593;  -55.325; -316.000;   19.000
446.715;   -8.050;  -67.000;   41.000
446.837;   43.450;  697.000;  832.000
446.959; -101.025; -457.000; -478.000
447.081; -132.550; -628.000; -518.000
447.203;   53.450;  862.000;  834.000
447.325;  -78.675; -270.000;   42.000
447.446;    3.800;  286.000;  530.000
447.568; -146.775; -921.000; -803.000
447.690;  -86.000; -236.000; -245.000
447.812; -148.225; -798.000; -519.000
447.933;  -36.050;  155.000;  127.000
448.055;  -66.000; -306.000; -261.000
448.177;  165.525;   31.000;   79.000
448.299;  143.550; -935.000; -727.000
448.420;   26.975;  -25.000;  159.000
448.542;  -53.650;   -3.000;   33.000
448.664;  -22.475;  109.000;  322.000
448.785;  -27.950;  265.000;   83.000
448.907;  -81.225; -614.000; -353.000
449.028;   -3.550; -771.000; -471.000
449.150;   57.350;  492.000;  589.000
449.272; -172.900;-1044.000; -913.000
449.393;   20.625;  612.000;  694.000
449.515; -149.500; -634.000; -581.000
449.636;  -46.325; -264.000; -155.000
449.758;   65.500;  763.000;  622.000
449.879;  -90.425; -498.000; -396.000
450.001;  -72.750; -149.000;  -49.000
450.122;  -25.375;  -95.000;  162.000
450.244;  -29.375;   37.000;  364.000
450.365;  -89.750; -495.000; -301.000
450.486;  -36.675;   80.000;  268.000
450.608;   16.800;  393.000;  326.000
450.729;   51.500;  578.000;  645.000
450.850;   15.325; -574.000; -466.000
450.972;  678.550; -552.000; -389.000
451.093; 4565.250;  190.000;  588.000
451.214; 2186.675; -516.000; -337.000
451.336;  361.900;  773.000;  579.000
451.457;   47.525;  264.000;  393.000
451.578;  -37.700; -118.000;  -74.000
451.699; -113.125; -546.000; -540.000
451.821;  -56.525; -284.000;  -50.000
451.942;  -10.175;  278.000;  285.000
452.063;   31.700;  228.000;  419.000
452.184;  506.150;  -54.000;  -49.000
452.305; 1085.650;  103.000;  170.000
452.427;  159.075; -549.000; -301.000
452.548;  -12.450;   23.000;   79.000
452.669;  -56.075; -257.000;  -89.000
452.790;  -49.200;    3.000;  -18.000
452.911;  -17.150;  195.000;  259.000
453.032;  -61.125; -289.000;  -60.000
453.153;  -48.600;  -29.000;   81.000
453.274;   52.000;  737.000;  868.000
453.395;  -59.550;  -51.000;  175.000
453.516;  116.875; 1317.000; 1388.000
453.637;  -60.150; -205.000; -150.000
453.758;  -45.025;   15.000;   69.000
453.879; -120.900; -462.000; -250.000
454.000;   62.125; 1086.000;  948.000
454.121; -103.625; -554.000; -326.000
454.242; -121.250; -599.000; -383.000
454.362;  -62.025;  -99.000;  114.000
454.483;  -38.525; -309.000; -229.000
454.604;   58.625;  512.000;  580.000
454.725; -120.000; -627.000; -555.000
454.846; -131.425; -474.000; -406.000
454.967;  -26.350;  230.000;  539.000
455.087;  -52.025;  179.000;  153.000
455.208;    4.425;  554.000;  856.000
455.329;  -64.625;  -22.000;   82.000
455.450;   22.800;  473.000;  633.000
455.570;  -86.850; -234.000; -211.000
455.691;  -24.025;  201.000;  407.000
455.812; -111.200; -270.000;  -92.000
455.932;  -62.875;  107.000;  -97.000
456.053;  -74.025;   36.000;   24.000
456.173;  -97.000; -433.000; -355.000
456.294; -144.650; -476.000; -303.000
456.415;  -61.800;  -73.000;   70.000
456.535;  -32.575;  297.000;  273.000
456.656;  -38.800;  132.000;  240.000
456.776;  -62.550;    3.000;  298.000
456.897;  -14.425;  308.000;  513.000
457.017;  -74.450; -153.000;   -3.000
457.138; -100.175; -402.000; -249.000
457.258;  -34.675;  263.000;  224.000
457.379;  -20.050;  509.000;  521.000
457.499;  -22.750;  443.000;  432.000
457.620; -115.650; -407.000; -231.000
457.740;  -93.375; -132.000;  -11.000
457.860;  -60.575;   87.000;   44.000
457.981;  -53.325;  132.000;  124.000
458.101;  -65.450;  -89.000;   40.000
458.221;  -27.275;  336.000;  402.000
458.342;  -58.675;   -4.000;  -37.000
458.462;   23.100;  617.000;  352.000
458.582;  -43.200; -302.000; -294.000
458.703;    1.750;  303.000;  154.000
458.823;  -29.525;   22.000;  163.000
458.943;   32.425;  341.000;  467.000
459.063;  -13.150; 1124.000;  192.000
459.183;   -8.575;  328.000;  313.000
459.304;   12.175;  315.000;  517.000
459.424;  -56.000; -246.000;  -89.000
459.544;  302.725;  388.000;  764.000
459.664;  803.100;  499.000;  506.000
459.784;  301.450; 1004.000; 1175.000
459.904;   61.750;  867.000;  744.000
460.024;   75.825;  867.000;  684.000
460.144;   23.425;  449.000;  554.000
460.264;   -7.050;  515.000;  327.000
460.385;  -92.425; -145.000; -119.000
460.505;   34.300;  905.000;  858.000
460.625; -104.775;  -17.000;  -68.000
460.745;  -28.300;  396.000;  541.000
460.864;  -43.500;  153.000;  469.000
460.984;   -7.025;  499.000;  573.000
461.104;  149.600; 1656.000; 1775.000
461.224;   11.900;  657.000;  650.000
461.344;  -42.375;  431.000;  360.000
461.464;  -31.100;  258.000;  513.000
461.584;  -23.475;  283.000;  466.000
461.704;  -40.825;   58.000;  108.000
461.824;  -54.800;  238.000;  259.000
461.943;  -36.225;  191.000;  130.000
462.063;  -76.150;    2.000;  324.000
462.183;   21.025;  639.000;  717.000
462.303;  104.925; 1678.000; 1230.000
462.422;   24.675;  781.000;  840.000
462.542;  -34.875;  271.000;  391.000
462.662;   24.850;  353.000;  380.000
462.782;  224.075;  833.000;  572.000
462.901;  477.525;  545.000;  717.000
463.021;  298.300; 1702.000; 1638.000
463.141;   -6.750;  337.000;  770.000
463.260;  -30.075;  614.000;  474.000
463.380;   17.250;  902.000;  884.000
463.499;  -42.450;  342.000;  332.000
463.619;  -45.725;  581.000;  559.000
463.738;  112.450; 1644.000;  903.000
463.858;   23.175;  657.000;  811.000
463.978;  -32.350;  542.000;  396.000
464.097;   44.375;  921.000; 1114.000
464.217;  104.725; 1196.000; 1143.000
464.336;  120.325; 1068.000; 1130.000
464.455;  -19.700;  328.000;  659.000
464.575;   43.925;  597.000;  602.000
464.694;  172.775; 1204.000; 1179.000
464.814;  135.700; 1190.000; 1138.000
464.933;   77.250; 1095.000; 1027.000
465.052;   93.900; 1412.000; 1054.000
465.172;   81.400;  922.000;  799.000
465.291;  141.100; 1376.000; 1320.000
465.410;   10.250;  462.000;  735.000
465.530;   75.325; 1355.000; 1310.000
465.649;   83.900; 1209.000; 1273.000
465.768;  148.800; 1673.000; 1508.000
465.888;   48.950;  941.000; 1174.000
466.007;   83.575; 1335.000; 1440.000
466.126;    5.750;  721.000;  641.000
466.245;   52.725; 1176.000; 1187.000
466.364;   10.600;  950.000; 1060.000
466.484;   60.850; 1024.000; 1213.000
466.603;   40.775; 1101.000; 1222.000
466.722;  120.200; 1490.000; 1769.000
466.841;   86.700; 1151.000; 1401.000
466.960;   48.100; 1069.000;  972.000
467.079;  131.775; 1971.000; 1786.000
467.198;   40.525; 1238.000; 1181.000
467.317;   94.350; 1768.000; 1162.000
467.436;   58.325; 1709.000; 1261.000
467.555;  115.925; 1796.000; 1746.000
467.674;   53.050; 1227.000; 1329.000
467.793;   45.800; 1376.000; 1374.000
467.912;   85.025; 1658.000; 1539.000
468.031;  143.300; 2038.000; 1930.000
468.150;  140.100; 1842.000; 1837.000
468.269;  198.200; 2313.000; 2090.000
468.388;  182.675; 2168.000; 2339.000
468.507;  249.225; 2884.000; 2903.000
468.626;  263.200; 2555.000; 2541.000
468.744;  123.900; 2018.000; 2174.000
468.863;  216.750; 2312.000; 2523.000
468.982;   91.725; 1503.000; 1555.000
469.101;  218.825; 2788.000; 2692.000
469.220;  142.900; 2333.000; 2176.000
469.338;  241.375; 2935.000; 3051.000
469.457;  177.750; 2719.000; 2545.000
469.576;  333.500; 3953.000; 3784.000
469.695;  245.525; 2877.000; 3066.000
469.813;  409.350; 4148.000; 4192.000
469.932;  421.100; 4255.000; 4485.000
470.051;  425.675; 4075.000; 4161.000
470.169;  841.600; 4470.000; 4338.000
470.288; 1418.725; 4700.000; 4809.000
470.406;  880.425; 5059.000; 5194.000
470.525;  652.525; 6101.000; 5787.000
470.644;  646.600; 6847.000; 6794.000
470.762;  815.125; 8397.000; 7873.000
470.881;  900.275; 8651.000; 8464.000
470.999; 1025.100; 9685.000; 9151.000
471.118; 1100.125;11174.000;10711.000

