
Integration time [ms]: 100.000
Averaging Nr. [scans]: 40
Smoothing Nr. [pixels]: 0
Data measured with spectrometer [name]: 2101012U2
Wave   ;Sample   ;Dark     ;Reference
[nm]   ;[counts] ;[counts] ;[counts] 

197.733;   61.275;  516.000;  404.000
197.879;  -88.025; -610.000; -634.000
198.025;  -40.575; -475.000; -420.000
198.171;  -61.950; -602.000; -612.000
198.317;  -34.925; -401.000; -316.000
198.463;  -46.775; -655.000; -404.000
198.609;   29.250;  181.000; -137.000
198.755;  -78.425; -644.000; -410.000
198.901;  -69.375; -505.000; -424.000
199.047;  -57.225; -615.000; -488.000
199.193;  -44.600; -230.000; -468.000
199.339;  -36.900; -222.000; -369.000
199.485;   52.725;  330.000;  271.000
199.631;   25.625;  227.000;  310.000
199.777;  -48.125; -466.000; -398.000
199.923;  -53.600; -610.000; -424.000
200.069;    4.000; -141.000;  -58.000
200.215;   56.875;  128.000;  453.000
200.361;   47.875;  243.000;  477.000
200.507;  -58.875; -600.000; -373.000
200.653;  -19.225; -371.000; -194.000
200.798;  -21.700; -215.000; -125.000
200.944;    4.600; -146.000;  -41.000
201.090;   47.125;   61.000;  222.000
201.236;    4.200; -116.000; -158.000
201.382;  141.525;  874.000;  903.000
201.528;    1.025;  -58.000;  -48.000
201.674;  -38.750; -386.000; -293.000
201.819;  -59.225; -540.000; -439.000
201.965;  -70.050; -699.000; -447.000
202.111;  -20.825; -273.000; -226.000
202.257;  -37.675; -250.000; -238.000
202.402;   13.650;   13.000;  -36.000
202.548;  -33.375; -169.000; -116.000
202.694;   86.475;  410.000; -183.000
202.840;  -68.425; -603.000; -531.000
202.985;  -76.850; -681.000; -639.000
203.131;  -96.925; -832.000; -666.000
203.277;  -21.550; -199.000; -262.000
203.423;  -44.650; -434.000; -520.000
203.568;  -43.450; -462.000; -237.000
203.714;  -50.925; -535.000; -542.000
203.860;  -89.475; -682.000; -641.000
204.005;   14.325;  112.000;  167.000
204.151;   78.550;  561.000;  556.000
204.296;  -27.800; -354.000; -221.000
204.442;  -71.525; -600.000; -547.000
204.588;  -87.525; -592.000; -579.000
204.733;   28.725;  178.000;  168.000
204.879; -121.100;-1018.000; -822.000
205.025;   16.975;  -99.000;  126.000
205.170;   11.775;  -17.000;   94.000
205.316;   85.000;  438.000;  661.000
205.461;  -85.700; -698.000; -554.000
205.607;   99.425;  609.000;  665.000
205.752;  -76.000; -626.000; -551.000
205.898;  -50.025; -501.000; -391.000
206.043;  -73.475; -578.000; -506.000
206.189;  -42.300; -243.000; -285.000
206.334;   70.450;  554.000;  606.000
206.480;   81.700;  409.000;  239.000
206.625;  -80.200; -529.000; -552.000
206.771;  -54.250; -451.000; -373.000
206.916;  -39.875; -210.000; -537.000
207.062;  -71.850; -545.000; -591.000
207.207;  -65.075; -546.000; -443.000
207.353;   49.800;  185.000;  460.000
207.498;    9.725;  196.000;   85.000
207.643;  -42.775; -501.000; -370.000
207.789; -144.575;-1069.000; -910.000
207.934;  -95.050; -665.000; -713.000
208.080;  -37.575; -154.000;   66.000
208.225;   -6.175;  -22.000;  -57.000
208.370;  -86.000; -727.000; -619.000
208.516;  -77.925; -741.000; -487.000
208.661;  -27.225; -127.000;  -69.000
208.806;  -13.275; -165.000; -171.000
208.952; -103.750;-1044.000; -731.000
209.097;   84.300;  378.000;  349.000
209.242;  -39.100; -307.000; -382.000
209.387;   76.375;  392.000;  350.000
209.533;  -60.175; -321.000; -350.000
209.678;   66.550;  472.000;  543.000
209.823;  -49.550; -408.000; -310.000
209.969;  -89.825; -860.000; -757.000
210.114; -108.925; -907.000; -719.000
210.259; -103.625; -939.000; -889.000
210.404;  -15.225; -171.000;  103.000
210.549;    6.250;  108.000;    3.000
210.695;   -0.725;   -3.000;  -95.000
210.840;   26.225;   94.000;   67.000
210.985;  -64.425; -484.000; -303.000
211.130;   89.300;  268.000;  406.000
211.275;   23.350;  207.000;  199.000
211.420;  -59.775; -300.000; -289.000
211.566;  -65.200; -536.000; -489.000
211.711;   24.675;  218.000;  157.000
211.856;  -56.150; -545.000; -519.000
212.001;   16.800;  151.000;   44.000
212.146;   26.625;  153.000;   49.000
212.291;  -15.400; -210.000; -186.000
212.436;  -20.675; -280.000;   -6.000
212.581;  -84.400; -685.000; -653.000
212.726;  -78.175; -487.000; -538.000
212.871;  -43.725; -552.000; -217.000
213.016; -148.725;-1172.000;-1029.000
213.161;   73.325;  406.000;  291.000
213.306;  -74.425; -435.000; -577.000
213.451;  -78.400; -778.000; -689.000
213.596;  -41.100; -455.000; -347.000
213.741;  -61.200; -448.000; -538.000
213.886;  -77.900; -498.000; -517.000
214.031;  -11.925; -294.000; -124.000
214.176;  -49.925; -408.000; -341.000
214.321;   -7.000; -296.000; -157.000
214.466;  -24.875; -163.000;  -43.000
214.611;    3.225;  -61.000;  -10.000
214.756; -123.150; -948.000; -858.000
214.901;  -23.500; -388.000; -226.000
215.046; -112.275; -797.000; -825.000
215.191;   20.475;  128.000;   35.000
215.336;  -15.400; -157.000;  -19.000
215.480;  -69.375; -684.000; -505.000
215.625;   -4.275; -175.000;  -19.000
215.770;  -82.000; -757.000; -662.000
215.915;   -5.925;   -5.000;  -97.000
216.060;   11.775; -113.000;  -21.000
216.205; -106.325; -731.000; -779.000
216.349;  -72.425; -470.000; -533.000
216.494; -129.100; -939.000; -867.000
216.639; -109.700; -823.000; -888.000
216.784;  -86.275; -577.000; -525.000
216.929;   62.950;  392.000;  281.000
217.073;    8.300; -244.000;  -31.000
217.218;    4.650;   78.000;  -47.000
217.363;  -77.025; -656.000; -618.000
217.507;  -80.525; -623.000; -588.000
217.652; -133.050; -845.000; -874.000
217.797;  -83.225; -708.000; -659.000
217.942; -116.450; -856.000; -720.000
218.086;   70.750;  608.000;  539.000
218.231;  -12.350; -174.000;  -26.000
218.376;  -13.850; -337.000; -229.000
218.520;   -0.950;  -41.000;   96.000
218.665;  -48.975; -338.000; -204.000
218.810;  -42.000; -275.000; -233.000
218.954;   22.725;  201.000;   35.000
219.099; -105.250; -713.000; -963.000
219.243;  -74.825; -589.000; -554.000
219.388;  -28.575; -264.000; -136.000
219.532;    0.025; -116.000; -116.000
219.677;  -70.825; -564.000; -521.000
219.822;   25.450;   33.000;   89.000
219.966;    7.700;   17.000;  -99.000
220.111;  -34.275; -328.000;  -40.000
220.255;  -93.100; -797.000; -750.000
220.400;  -22.400; -180.000; -146.000
220.544;  -75.025; -516.000; -450.000
220.689;  -46.750; -422.000; -451.000
220.833;  -19.250; -123.000;  -58.000
220.978;  -39.625; -393.000; -563.000
221.122;   34.475;  319.000;  307.000
221.267; -111.025; -906.000; -837.000
221.411;  -71.075; -478.000; -394.000
221.555;   -3.875; -104.000;  -23.000
221.700;  -57.300; -329.000; -222.000
221.844;   50.700;  255.000;  272.000
221.989;  -53.550; -328.000; -311.000
222.133;  -29.300; -289.000; -307.000
222.277;   -0.875;    5.000;   78.000
222.422;   22.350;  227.000;  113.000
222.566;  -36.700; -381.000; -214.000
222.711;  -50.950; -414.000; -479.000
222.855;  -92.000; -643.000; -586.000
222.999;  -73.600; -642.000; -717.000
223.144;  -32.875; -195.000; -194.000
223.288;   52.725;  423.000;  251.000
223.432;   21.000;  184.000;  230.000
223.576;   30.425;  152.000;  -21.000
223.721;   47.950;  364.000;  273.000
223.865;  -50.025; -472.000; -475.000
224.009;  231.750; 1673.000; 1631.000
224.153;  -80.425; -660.000; -671.000
224.298;  -66.825; -531.000; -489.000
224.442;  -15.250;  -74.000;  -33.000
224.586;   -7.700; -169.000; -106.000
224.730;  -94.875; -858.000; -670.000
224.875; -104.725; -739.000; -688.000
225.019;   24.000;  102.000;  188.000
225.163;   45.425;  208.000;  341.000
225.307;   28.425;   97.000;  -91.000
225.451;   54.525;  360.000;  481.000
225.595;   21.675;  264.000;  176.000
225.739;  -14.450; -170.000;  -94.000
225.884;    2.400;   86.000;    5.000
226.028;  -91.000; -760.000; -626.000
226.172;  -32.425; -260.000; -273.000
226.316; -125.375; -941.000; -902.000
226.460;  -63.450; -645.000; -493.000
226.604;  -65.200; -406.000; -400.000
226.748;  -92.125; -836.000; -733.000
226.892;  -34.075; -227.000; -181.000
227.036;  -54.500; -537.000; -447.000
227.180;  -52.525; -551.000; -375.000
227.324;  -74.950; -561.000; -580.000
227.468; -117.150; -819.000; -717.000
227.612;   32.125;  242.000;  -28.000
227.756;  -90.225; -845.000; -698.000
227.900;   64.475;  342.000;  441.000
228.044;  -64.725; -509.000; -290.000
228.188;   56.425;  448.000;  568.000
228.332;  -91.250; -546.000; -472.000
228.476;  -25.125; -223.000; -149.000
228.620;  -39.075; -210.000; -150.000
228.764;   59.375;  431.000;  349.000
228.908;  -17.875; -155.000;   30.000
229.052;  -66.150; -615.000; -528.000
229.195;   -9.025; -172.000;   13.000
229.339;  -23.550; -235.000; -305.000
229.483;  -27.675;    5.000; -162.000
229.627;   -1.325; -156.000;  139.000
229.771;  -27.725; -218.000; -294.000
229.915;   20.275;  230.000;   79.000
230.059;  -84.025; -648.000; -663.000
230.202;  -24.625; -370.000; -317.000
230.346;  -14.000; -107.000;  107.000
230.490;  -62.200; -489.000; -521.000
230.634; -104.600; -736.000; -553.000
230.777;   79.025;  478.000;  509.000
230.921;  -61.825; -450.000; -359.000
231.065;  -41.150; -246.000; -286.000
231.209;   32.250;  261.000;  265.000
231.352;   24.475;   54.000;   40.000
231.496;   25.375;  568.000;  188.000
231.640;  -74.825; -693.000; -621.000
231.783;   68.450;  546.000;  525.000
231.927;  -40.350; -294.000; -365.000
232.071; -132.700; -962.000; -736.000
232.214; -111.250; -980.000; -764.000
232.358; -105.950; -683.000; -599.000
232.502;    5.450;  -19.000;    7.000
232.645; -138.475;-1090.000; -927.000
232.789;  -15.475; -257.000; -218.000
232.933;  -41.075; -407.000; -224.000
233.076; -129.025;-1038.000; -897.000
233.220; -103.950; -752.000; -777.000
233.363;  -62.125; -669.000; -477.000
233.507;   60.675;  371.000;  129.000
233.650; -101.250; -764.000; -834.000
233.794;   51.525;  438.000;  461.000
233.938;  -58.350; -530.000; -362.000
234.081;  -15.625;  -93.000;   31.000
234.225;  -64.475; -631.000; -539.000
234.368; -112.475; -773.000; -723.000
234.512;  -33.475; -385.000; -299.000
234.655;  -95.375; -582.000; -555.000
234.798;  -55.400; -493.000; -466.000
234.942; -128.275; -884.000;-1002.000
235.085;  -86.350; -651.000; -443.000
235.229;  -69.825; -405.000; -410.000
235.372;  -47.575; -247.000; -191.000
235.516;  -59.700; -397.000; -321.000
235.659;   28.825;   92.000;  121.000
235.802;  -21.125;  -38.000;  -22.000
235.946;   24.600;  335.000;  215.000
236.089;   24.975;  126.000;  250.000
236.233;   57.675;  275.000;  298.000
236.376;  -41.725; -235.000; -378.000
236.519;  -43.525; -297.000; -319.000
236.663;  -15.400; -215.000; -117.000
236.806; -130.025;-1029.000; -999.000
236.949;   61.900;  543.000;  431.000
237.092;   69.250;  412.000;  391.000
237.236;  -82.525; -589.000; -502.000
237.379;   73.975;  352.000;  428.000
237.522; -104.625; -879.000; -768.000
237.666;  -18.775; -271.000;   18.000
237.809; -127.850; -851.000; -823.000
237.952;   44.900;  469.000;  271.000
238.095;  -55.150; -447.000; -442.000
238.238;   73.900;  688.000;  700.000
238.382;    2.825;  166.000;  103.000
238.525;  -70.975; -598.000; -511.000
238.668; -137.650;-1060.000; -985.000
238.811;  -86.375; -638.000; -643.000
238.954;  -57.250; -483.000; -334.000
239.097;   87.525;  617.000;  664.000
239.241;   22.400;  394.000;  326.000
239.384;  -29.075; -254.000; -214.000
239.527;  -63.725; -424.000; -224.000
239.670; -135.375; -994.000;-1091.000
239.813; -106.625; -696.000; -658.000
239.956;   88.475;  579.000;  473.000
240.099; -128.775; -778.000; -725.000
240.242;   64.575;  428.000;  432.000
240.385;   51.900;  466.000;  450.000
240.528;  -66.100; -706.000; -473.000
240.671;   16.025;  189.000;  134.000
240.814;  -33.425; -441.000; -158.000
240.957;  -97.975; -767.000; -578.000
241.100;  -93.400; -779.000; -755.000
241.243; -142.675;-1234.000; -893.000
241.386;  -53.225; -508.000; -379.000
241.529;  -85.925; -735.000; -547.000
241.672;  -69.000; -566.000; -495.000
241.815; -112.050; -832.000; -808.000
241.958;  -18.125; -125.000; -182.000
242.101;  -82.175; -545.000; -390.000
242.244;  -41.150; -270.000; -325.000
242.387;  -40.925; -304.000; -246.000
242.530;   54.250;  470.000;  134.000
242.673;  -52.500; -381.000; -309.000
242.815; -132.950; -925.000; -899.000
242.958;  -69.450; -482.000; -381.000
243.101;   24.975;  132.000;  187.000
243.244;  -79.250; -564.000; -521.000
243.387;  -37.525; -313.000; -316.000
243.530;  -84.175; -657.000; -674.000
243.672;   14.100;   43.000;  -92.000
243.815;  -44.450; -355.000; -283.000
243.958;    1.900;   98.000;  -26.000
244.101;    4.075;   59.000;  -16.000
244.243;  -18.350;  -47.000;  101.000
244.386; -114.000; -761.000; -630.000
244.529;  -25.375; -132.000; -139.000
244.672; -152.525;-1154.000; -951.000
244.814;  -91.950; -621.000; -794.000
244.957;  -63.025; -380.000; -304.000
245.100;  -73.025; -489.000; -489.000
245.242;  -59.775; -387.000; -374.000
245.385;   -9.675;  -59.000;  -39.000
245.528; -127.700; -871.000; -705.000
245.670;   91.600;  612.000;  634.000
245.813;  -84.650; -599.000; -547.000
245.956;  -26.900; -324.000; -275.000
246.098;  -69.100; -508.000; -650.000
246.241;   15.600;  194.000;   48.000
246.383;  -21.150; -119.000;  -73.000
246.526;  -65.100; -454.000; -525.000
246.669; -123.250; -889.000; -780.000
246.811;   16.425;  172.000;   -1.000
246.954;  -68.675; -512.000; -426.000
247.096;  -19.650;  -84.000;   -6.000
247.239;  -72.425; -482.000; -445.000
247.381;  -70.675; -647.000; -488.000
247.524;   87.550;  645.000;  679.000
247.666;   -0.725;   58.000;   11.000
247.809; -117.925; -887.000; -691.000
247.951;   -6.425;  -75.000;  138.000
248.094;   32.550;  432.000;  308.000
248.236; -151.575;-1262.000;-1238.000
248.378;   13.675; -356.000;  -81.000
248.521;  -12.625; -334.000; -337.000
248.663;  -41.575; -236.000; -267.000
248.806;  -12.600; -300.000; -266.000
248.948; -102.475; -886.000; -763.000
249.090;  -51.875; -428.000; -398.000
249.233;  -50.850; -344.000; -381.000
249.375;  -69.625; -474.000; -451.000
249.518;   -9.050;  -83.000; -133.000
249.660;   -3.725; -103.000;    3.000
249.802; -161.250;-1303.000;-1189.000
249.945;  -66.250; -612.000; -540.000
250.087; -109.025; -834.000; -768.000
250.229;  -45.525; -362.000; -480.000
250.371;  -74.800; -494.000; -439.000
250.514;  -54.025; -310.000; -244.000
250.656;  -63.850;   69.000;  102.000
250.798; -127.375; -849.000; -800.000
250.940;  -61.500; -322.000; -322.000
251.083;  -25.300; -335.000; -111.000
251.225;   62.425;  338.000;  310.000
251.367;  -30.975; -274.000; -373.000
251.509;  -25.300; -265.000; -210.000
251.651;  -92.050; -731.000; -671.000
251.794;   56.650;  538.000;  632.000
251.936; -108.950; -821.000; -747.000
252.078;  -66.200; -540.000; -461.000
252.220;  -66.675; -645.000; -477.000
252.362;   99.450;  344.000;  462.000
252.504;  -63.675; -677.000; -584.000
252.646; -107.025; -875.000; -722.000
252.788;   -7.050;   14.000; -128.000
252.931;  -49.175; -257.000; -253.000
253.073;  -34.425; -376.000; -317.000
253.215;  -10.000;  141.000;  122.000
253.357;  -16.000;   82.000; -153.000
253.499;  -65.800; -374.000; -234.000
253.641;  -82.375; -749.000; -594.000
253.783;  -85.875; -609.000; -527.000
253.925;  -73.900; -586.000; -591.000
254.067;  -99.425; -744.000; -667.000
254.209;  -22.175; -391.000; -259.000
254.351; -142.000; -865.000; -883.000
254.493;  -59.550; -441.000; -417.000
254.635; -127.750; -936.000; -818.000
254.777;  -74.000; -752.000; -687.000
254.918;  -60.575; -512.000; -430.000
255.060;  -51.925; -551.000; -395.000
255.202;  -65.950; -473.000; -261.000
255.344;  -62.750; -658.000; -455.000
255.486;  -73.000; -471.000; -406.000
255.628; -104.450; -780.000; -781.000
255.770;  -83.800; -676.000; -536.000
255.912;  -50.925; -559.000; -468.000
256.053;  -81.300; -730.000; -508.000
256.195;  168.375; 1008.000;  903.000
256.337;  -96.250; -861.000; -595.000
256.479;   72.300;  532.000;  416.000
256.621;  -40.125; -394.000; -212.000
256.762; -101.550; -789.000; -742.000
256.904;   55.475;  485.000;  487.000
257.046;  -35.325; -381.000; -271.000
257.188;  -38.550; -351.000; -264.000
257.329;  -77.875; -525.000; -464.000
257.471; -115.750; -939.000; -807.000
257.613;  -63.950; -584.000; -498.000
257.755; -143.575;-1073.000; -982.000
257.896;   29.875;  286.000;  392.000
258.038;  -71.025; -403.000; -352.000
258.180;  -36.200; -354.000; -279.000
258.321;  -87.300; -581.000; -457.000
258.463;    3.250;  -71.000;  133.000
258.605;  -90.875; -562.000; -570.000
258.746;  -85.975; -886.000; -772.000
258.888; -158.000;-1026.000;-1020.000
259.029;   27.750;  121.000;   -8.000
259.171;  -94.850; -614.000; -550.000
259.313;    4.950;  -49.000;  -47.000
259.454;  -61.425; -536.000; -414.000
259.596;  -57.375; -483.000; -390.000
259.737;  -72.650; -590.000; -474.000
259.879;   40.875;  217.000;  311.000
260.020;   81.025;  901.000;  636.000
260.162;  -30.525; -146.000; -253.000
260.303; -116.100; -768.000; -687.000
260.445;  -74.725; -609.000; -613.000
260.586;   24.425;  392.000;  157.000
260.728;  -47.675; -360.000; -248.000
260.869;  -79.650; -350.000; -343.000
261.011;   99.550;  706.000;  537.000
261.152;  -72.325; -479.000; -319.000
261.293;  -73.850; -576.000; -595.000
261.435;  -31.175; -219.000; -184.000
261.576;  -40.450; -455.000; -325.000
261.718;   59.775;  420.000;  470.000
261.859; -119.950; -940.000; -949.000
262.000; -130.850; -951.000;-1016.000
262.142;  -17.850;  -52.000;  -60.000
262.283; -114.525; -808.000; -691.000
262.424;  -97.575; -666.000; -625.000
262.566; -146.925;-1161.000; -983.000
262.707; -107.250; -840.000; -830.000
262.848; -127.250; -769.000; -726.000
262.990;  -42.175; -362.000; -345.000
263.131;   87.950;  650.000;  681.000
263.272;   -0.500;  -61.000;  -41.000
263.413; -104.025; -589.000; -561.000
263.555;  -73.325; -669.000; -143.000
263.696;  -90.900; -550.000; -641.000
263.837;  -46.050; -449.000; -551.000
263.978;   -0.075;   -5.000;  -77.000
264.119;  -39.800; -283.000; -264.000
264.261; -118.750; -847.000; -630.000
264.402;    3.175;   33.000;   40.000
264.543;  -86.675; -509.000; -524.000
264.684;  -11.000;   61.000;  -50.000
264.825;  -70.925; -816.000; -538.000
264.966;    8.500;  -84.000;  -67.000
265.107; -108.800; -646.000; -670.000
265.248; -124.950; -825.000; -812.000
265.390;  -10.375;  152.000;   -9.000
265.531;  -21.300; -238.000; -107.000
265.672;  -86.525; -557.000; -630.000
265.813;   64.250;  563.000;  439.000
265.954; -173.625; -959.000; -940.000
266.095;  -22.425; -372.000; -322.000
266.236;  -94.000; -686.000; -548.000
266.377;  -46.575; -243.000; -297.000
266.518;  -86.100; -619.000; -547.000
266.659;   43.550;  170.000;  268.000
266.800;    6.600;   83.000;   85.000
266.941;  -81.300; -487.000; -478.000
267.082;   32.500;  354.000;   99.000
267.223;  -52.525; -344.000; -273.000
267.364; -113.750; -892.000; -686.000
267.504;   -3.425;    3.000;  135.000
267.645;   -2.525;  160.000;   67.000
267.786;  -19.175; -147.000;  -86.000
267.927;  -84.000; -473.000; -379.000
268.068;  -15.450; -186.000;  -61.000
268.209;  -49.200; -175.000; -413.000
268.350;  -60.950; -388.000; -532.000
268.490;  -87.075; -648.000; -521.000
268.631;   37.775;  127.000;  225.000
268.772; -105.625; -874.000; -647.000
268.913;  -43.850; -328.000; -476.000
269.054;   -2.125; -117.000;   12.000
269.194;  -36.875; -418.000; -402.000
269.335; -150.500;-1137.000;-1074.000
269.476;   -7.425;   33.000;  -35.000
269.617;  -43.775; -347.000; -392.000
269.757;  -89.075; -713.000; -646.000
269.898; -100.425; -856.000; -613.000
270.039;  -60.275; -415.000; -405.000
270.180; -128.300; -952.000; -816.000
270.320;  -30.550; -190.000; -250.000
270.461;  -38.150; -277.000; -249.000
270.602;   -8.350; -186.000; -156.000
270.742; -114.250; -868.000; -943.000
270.883;  -49.450; -442.000; -390.000
271.023;  -61.325; -358.000; -357.000
271.164;  -75.500; -607.000; -528.000
271.305;  -94.025; -666.000; -654.000
271.445; -101.275; -722.000; -683.000
271.586;  -63.575; -462.000; -283.000
271.726;  -39.250; -397.000; -322.000
271.867;  -65.725; -594.000; -534.000
272.008;  214.000; -473.000; -285.000
272.148;  133.500;  462.000;  468.000
272.289;   17.525; -113.000; -181.000
272.429;   17.800;   19.000;  185.000
272.570;  -82.925; -633.000; -737.000
272.710;  -91.700; -825.000; -775.000
272.851;  -31.750;  113.000; -130.000
272.991; -179.900;-1173.000;-1077.000
273.131;  -52.975; -419.000; -459.000
273.272;  -88.575; -683.000; -723.000
273.412;   16.150; -143.000;  -31.000
273.553;  -45.725; -488.000; -507.000
273.693;  132.325;  913.000;  858.000
273.834;  -83.300; -894.000; -692.000
273.974;  -57.975; -664.000; -615.000
274.114;  -94.875; -772.000; -560.000
274.255;   88.075;  414.000;  373.000
274.395;   15.125; -180.000; -125.000
274.535;   58.675;  199.000;  350.000
274.676;   27.025;  225.000;   94.000
274.816;    9.400;  110.000;   34.000
274.956;  -69.800; -624.000; -690.000
275.097;  -41.850;-1014.000; -922.000
275.237;  -99.450; -913.000; -803.000
275.377;  -81.075; -778.000; -689.000
275.517; -149.950; -878.000; -937.000
275.658;  -47.600; -590.000; -555.000
275.798;  -65.075; -606.000; -413.000
275.938;   31.525;  215.000;  323.000
276.078; -101.675; -626.000; -395.000
276.218;   11.750;   99.000;  104.000
276.359; -134.525;-1026.000;-1024.000
276.499;  -76.725; -605.000; -446.000
276.639;  -38.850; -305.000; -151.000
276.779;  -58.825; -475.000; -357.000
276.919;  -90.600; -783.000; -624.000
277.059;  -14.425; -261.000; -212.000
277.199;  -37.800; -357.000; -259.000
277.340;   46.750;  287.000;  175.000
277.480;  -99.000; -840.000; -693.000
277.620;   32.525;  192.000;   16.000
277.760; -189.800;-1533.000;-1294.000
277.900;   36.650;  113.000;   33.000
278.040;   36.975;  137.000;  159.000
278.180;   44.700;  270.000;  170.000
278.320;    6.600;   21.000;   56.000
278.460;  -74.600; -443.000; -469.000
278.600;  -91.400; -708.000; -598.000
278.740;   66.425;  448.000;  224.000
278.880;  -33.250; -768.000; -791.000
279.020;    2.800; -194.000; -144.000
279.160;  -92.575; -672.000; -595.000
279.300; -118.750; -926.000; -873.000
279.440;  -94.900; -709.000; -622.000
279.579;   -2.175;-1014.000; -929.000
279.719;  -45.200; -410.000; -394.000
279.859;   73.775;   -4.000;   41.000
279.999;   27.975; -208.000;  101.000
280.139;  -21.500; -435.000; -387.000
280.279;  -70.475; -708.000; -745.000
280.419;  -11.175; -229.000; -147.000
280.559;  -15.875; -259.000; -180.000
280.698;  -74.450; -790.000; -639.000
280.838;  -66.450; -778.000; -800.000
280.978;  -94.175; -846.000; -790.000
281.118; -117.900; -811.000; -704.000
281.257;   15.325;   24.000;    6.000
281.397;  -91.150;-1094.000; -960.000
281.537;  -74.200; -599.000; -712.000
281.677;  -20.500; -150.000; -101.000
281.816;  -83.500; -700.000; -630.000
281.956;  -26.300; -193.000; -257.000
282.096;  -61.825; -539.000; -396.000
282.235; -106.950; -672.000; -638.000
282.375;  -13.575; -243.000;  -98.000
282.515; -100.950; -715.000; -707.000
282.654;   29.625;   29.000;  106.000
282.794;   40.300;  388.000;  244.000
282.934;  -47.600; -530.000; -491.000
283.073; -115.000;-1030.000; -857.000
283.213;  -46.075; -460.000; -467.000
283.353;  -21.550; -408.000; -349.000
283.492;  -23.225; -264.000; -296.000
283.632;  -49.825; -254.000; -168.000
283.771;  -91.050; -859.000; -730.000
283.911;  -50.575; -369.000; -260.000
284.050; -111.225; -794.000; -748.000
284.190; -154.550;-1229.000;-1096.000
284.329; -142.750;-1055.000; -964.000
284.469;  -48.175; -516.000; -591.000
284.608;  -32.325; -559.000; -598.000
284.748;  -79.275; -614.000; -570.000
284.887;    2.825;  -87.000;  -20.000
285.027; -117.900; -844.000; -892.000
285.166;  -17.350; -192.000; -249.000
285.306;    9.200; -116.000;  -33.000
285.445;  -47.400; -229.000; -343.000
285.584;  -87.375; -630.000; -494.000
285.724;  -39.850; -282.000; -322.000
285.863;  -98.875; -857.000; -507.000
286.002;  -49.125; -366.000; -276.000
286.142; -114.625; -715.000; -622.000
286.281;  -61.650; -525.000; -493.000
286.420;  -52.650; -554.000; -417.000
286.560;  108.800;  653.000;  623.000
286.699; -135.400; -958.000; -912.000
286.838;  -73.175; -590.000; -591.000
286.978;  -84.950; -533.000; -537.000
287.117; -138.725;-1085.000; -950.000
287.256;  -17.150; -228.000; -211.000
287.395;  -46.850; -197.000; -378.000
287.535;  -50.250; -370.000; -298.000
287.674;  -74.200; -509.000; -484.000
287.813;   65.575;  661.000;  533.000
287.952; -119.275;-1010.000; -871.000
288.091; -146.075;-1049.000; -915.000
288.231;   31.900;   13.000;   15.000
288.370; -176.575;-1217.000;-1200.000
288.509;  -85.425; -728.000; -645.000
288.648;  -84.625; -770.000; -548.000
288.787;  -26.225; -243.000;  -87.000
288.926;  -64.675; -454.000; -475.000
289.065;  128.475;  859.000;  672.000
289.204;  -38.975; -377.000; -217.000
289.344;  -80.200; -791.000; -690.000
289.483;   35.925;  416.000;  304.000
289.622;  -15.050; -291.000; -149.000
289.761;  -21.850; -309.000; -166.000
289.900; -110.650; -785.000; -626.000
290.039;  -13.750;  -12.000;  -95.000
290.178;  -30.900; -274.000; -180.000
290.317;  -76.525; -618.000; -479.000
290.456;  -67.975; -463.000; -451.000
290.595; -147.725; -961.000; -833.000
290.734; -136.325; -904.000; -891.000
290.873;  -66.925; -456.000; -420.000
291.011; -100.350; -833.000; -843.000
291.150;  -92.275; -770.000; -682.000
291.289;  -19.300; -343.000; -110.000
291.428;  -69.850; -599.000; -480.000
291.567;  -54.425; -370.000; -442.000
291.706;   -0.225;  109.000;  154.000
291.845;  -76.275; -597.000; -505.000
291.984; -167.050;-1234.000;-1061.000
292.122;   70.025;  602.000;  582.000
292.261;   46.350;  620.000;  463.000
292.400;   14.750; -144.000;  211.000
292.539; -128.900; -959.000; -813.000
292.678;  -23.900; -325.000; -300.000
292.816; -151.150;-1136.000; -965.000
292.955;  -75.600; -844.000; -684.000
293.094;  -12.550; -173.000; -337.000
293.233;  -45.575; -556.000; -400.000
293.371;  -39.475; -225.000;  -84.000
293.510; -104.250; -866.000; -780.000
293.649; -124.975; -959.000; -924.000
293.787;  -34.475;-1083.000;-1012.000
293.926;    8.100; -113.000;  -32.000
294.065;  -47.250; -379.000; -290.000
294.203;   60.700;  298.000;  406.000
294.342;   33.350;   74.000;  156.000
294.481; 5430.500;51180.000; -836.000
294.619;  -11.825; -425.000; -582.000
294.758; -122.325;-1230.000;-1137.000
294.896;   95.200; -125.000;    5.000
295.035; -121.175;-1040.000;-1006.000
295.174; -111.275;-1082.000; -954.000
295.312;  -37.625; -323.000; -203.000
295.451;    5.475; -307.000; -428.000
295.589;  -41.575; -389.000; -518.000
295.728;   26.425; -292.000; -165.000
295.866;   21.500;  -36.000;  -51.000
296.005;  -64.825; -584.000; -341.000
296.143;  -72.050; -558.000; -596.000
296.282;  -89.450; -957.000; -881.000
296.420;  -77.325; -657.000; -557.000
296.559;  -72.375; -892.000; -633.000
296.697;   45.450; -847.000; -665.000
296.835;  113.025;-1141.000;-1002.000
296.974;   52.100;  -23.000;   39.000
297.112;   32.050; -443.000; -504.000
297.251;  -54.675; -815.000; -755.000
297.389;  127.175; -576.000; -438.000
297.527;   69.000; -145.000;  -83.000
297.666;  -35.950; -486.000; -438.000
297.804;  -35.375; -404.000; -264.000
297.942;   -6.475; -136.000; -161.000
298.081;   20.550; -183.000;   63.000
298.219;   92.175;  -17.000;  -19.000
298.357;   84.875; -144.000;  -71.000
298.495;   79.675; -810.000; -812.000
298.634;  107.700;  245.000;  219.000
298.772;   84.625; -220.000; -338.000
298.910;  -25.625; -309.000; -182.000
299.048;    4.975; -130.000; -153.000
299.187;  -18.475; -350.000; -250.000
299.325;   31.375;   52.000;  122.000
299.463;   82.100; -389.000; -299.000
299.601;  156.900; -327.000; -271.000
299.739;  -91.850; -908.000; -883.000
299.877;  -72.875; -791.000; -703.000
300.016;  -22.225;-1095.000; -935.000
300.154;  206.075;  -19.000; -161.000
300.292;  101.500; -428.000; -348.000
300.430;   81.900; -408.000; -291.000
300.568;  -86.150; -940.000; -874.000
300.706;  -29.700; -366.000; -469.000
300.844;  -46.100;-1108.000; -979.000
300.982;  146.400;  246.000;  282.000
301.120; -100.450; -965.000; -866.000
301.258;  -39.625; -812.000; -705.000
301.396;   47.600;  104.000;  -41.000
301.534;  133.850; -218.000; -293.000
301.672;   23.975; -664.000; -521.000
301.810;   85.175; -613.000; -545.000
301.948;  164.750;   53.000;  149.000
302.086;  743.350; -250.000;  -32.000
302.224; 1159.750; -610.000; -585.000
302.362;   73.775; -558.000; -622.000
302.500;   19.975; -923.000; -893.000
302.638;  145.550;  128.000;  245.000
302.776;   -0.175; -352.000; -408.000
302.913;   62.750;  447.000;  236.000
303.051;   12.175;  -86.000;  -23.000
303.189;   59.600;   90.000;  118.000
303.327;  -25.475; -341.000; -256.000
303.465;  -83.350; -832.000; -588.000
303.603;  -85.075; -805.000; -604.000
303.740;  117.375;  417.000;  241.000
303.878;   46.750; -800.000; -759.000
304.016;  -68.875; -915.000; -790.000
304.154; -119.050;-1123.000;-1152.000
304.291;  -24.500; -505.000; -554.000
304.429;   22.750;  102.000;   74.000
304.567; -120.775; -908.000; -893.000
304.705;  -45.700; -408.000; -515.000
304.842;  131.500; -616.000; -540.000
304.980;   79.350;  215.000;   35.000
305.118;   71.750; -367.000; -365.000
305.255;  -45.325; -945.000; -927.000
305.393;   73.850;  178.000;  239.000
305.531;  -92.875;-1173.000; -956.000
305.668;  -45.325; -663.000; -582.000
305.806;  116.350; -358.000; -439.000
305.943;  141.550; -629.000; -637.000
306.081;   87.075; -378.000; -267.000
306.219;  -86.900; -863.000; -748.000
306.356;    7.075;  158.000;   27.000
306.494;  125.850;  981.000;  761.000
306.631;    5.575;  -11.000;  -55.000
306.769;   16.175; -613.000; -485.000
306.906;   -8.500; -284.000; -258.000
307.044;  -63.225; -473.000; -488.000
307.181;  -60.575; -410.000; -332.000
307.319;   11.525;  112.000;   87.000
307.456; -171.675;-1191.000;-1153.000
307.594;  -80.250; -980.000; -727.000
307.731;   13.100; -371.000; -164.000
307.868;    6.275;  -15.000;   20.000
308.006; -135.375; -961.000; -847.000
308.143;  -61.825; -618.000; -330.000
308.281;  163.825;  -37.000; -254.000
308.418;  -16.425; -748.000; -640.000
308.555;  -60.675; -400.000; -250.000
308.693;  -62.025; -577.000; -573.000
308.830; -100.850; -712.000; -657.000
308.967;   -0.700; -215.000;  -95.000
309.105;  -56.950; -507.000; -396.000
309.242;   42.275; -468.000; -367.000
309.379;  305.325; -577.000; -655.000
309.517;  -53.750; -936.000; -948.000
309.654;  -85.775; -910.000; -734.000
309.791;  -66.525; -662.000; -580.000
309.928; -106.600; -977.000; -914.000
310.065;  211.675;  819.000;  697.000
310.203;   27.250; -825.000; -850.000
310.340;   19.900; -465.000; -321.000
310.477;  -67.950; -412.000; -516.000
310.614;  -74.850; -383.000; -473.000
310.751;  -80.375; -427.000; -518.000
310.889;   -9.225;    1.000;   11.000
311.026; -134.925;-1161.000; -939.000
311.163;  -34.300; -386.000; -380.000
311.300;  -65.950; -512.000; -479.000
311.437;  -64.325; -658.000; -619.000
311.574; -144.550;-1226.000; -985.000
311.711;  -45.925; -595.000; -433.000
311.848;  -28.725; -380.000; -388.000
311.985;   20.950;  270.000;   93.000
312.122; -100.075; -932.000; -762.000
312.259; -127.200; -941.000; -994.000
312.396;  -87.625; -508.000; -551.000
312.533;  -76.975; -812.000; -790.000
312.670; -122.850;-1070.000; -898.000
312.807;  -42.425; -352.000; -367.000
312.944;  -77.400; -513.000; -611.000
313.081;  -40.275; -150.000; -415.000
313.218; -102.525;-1111.000; -867.000
313.355;   33.625; -531.000; -449.000
313.492;    9.725; -455.000; -292.000
313.629;  155.575;  815.000;  735.000
313.766; -161.125;-1176.000;-1008.000
313.902;   -3.750; -186.000;   21.000
314.039;  -44.775; -372.000; -289.000
314.176;   28.650;  286.000;  192.000
314.313;  -64.275; -569.000; -473.000
314.450;  -70.075; -788.000; -684.000
314.587;  -44.750; -468.000; -480.000
314.723;   20.350;  -78.000;  130.000
314.860;   49.650;  318.000;  332.000
314.997;   45.925;  223.000;  142.000
315.134;  -24.400; -385.000; -368.000
315.270;  -16.650; -480.000; -496.000
315.407; -118.825;-1094.000; -967.000
315.544;  -34.775; -657.000; -538.000
315.681;  -50.100; -681.000; -565.000
315.817;   31.375; -133.000; -176.000
315.954;   25.125; -613.000; -392.000
316.091; -118.100;-1045.000;-1023.000
316.227;  -22.050;  -71.000; -179.000
316.364;   19.350;   23.000;    6.000
316.500;  -39.300; -113.000; -300.000
316.637;  -38.575; -181.000; -302.000
316.774;  -68.200; -625.000; -358.000
316.910;  -84.600; -598.000; -629.000
317.047;  -60.650; -487.000; -351.000
317.183;  -43.650; -435.000; -566.000
317.320;  -14.525; -367.000; -321.000
317.456;  -80.675; -733.000; -805.000
317.593;  -79.800; -598.000; -641.000
317.729;   10.050;  168.000;  -67.000
317.866; -194.575;-1434.000;-1285.000
318.002;  -80.550; -708.000; -948.000
318.139;  -75.750; -883.000; -867.000
318.275;  -93.075;-1003.000; -738.000
318.412;  -54.150; -517.000; -336.000
318.548;   -4.600; -751.000; -720.000
318.685;  -89.350; -985.000; -888.000
318.821;  -92.325; -762.000; -735.000
318.957;  -14.200;   34.000;  -23.000
319.094;   34.075;  297.000;  154.000
319.230;  -37.175; -756.000; -742.000
319.367;  178.700; -471.000; -520.000
319.503;   79.650; -538.000; -436.000
319.639;  -83.100; -877.000; -793.000
319.775;  -48.300; -750.000; -685.000
319.912;  -42.125; -424.000; -519.000
320.048;  -81.825;-1184.000;-1184.000
320.184;   75.975;   59.000;   70.000
320.321;  -50.975; -497.000; -467.000
320.457;   62.000;  475.000;  662.000
320.593;  -54.050; -375.000; -382.000
320.729;  -93.850; -732.000; -734.000
320.866;  -70.350; -577.000; -635.000
321.002;  -64.875; -759.000; -809.000
321.138;   -1.750; -135.000; -211.000
321.274;   99.175; -148.000; -115.000
321.410;  -10.800; -585.000; -353.000
321.546;    4.175;-1011.000; -911.000
321.683;   66.875;  400.000;  185.000
321.819;   16.350;  -48.000; -117.000
321.955;  -95.550; -743.000; -722.000
322.091;  -19.850; -585.000; -540.000
322.227;   -8.550; -382.000; -202.000
322.363;   11.325; -320.000; -215.000
322.499;  -51.525; -343.000; -331.000
322.635;  199.400;  636.000;  443.000
322.771;   31.800; -139.000;   12.000
322.907;  100.150;  129.000;  327.000
323.043;   -7.825; -115.000; -206.000
323.179;  -18.300; -394.000; -363.000
323.315;   73.000; -401.000; -371.000
323.451;  155.400; -328.000; -236.000
323.587;   76.625;  -60.000;  -77.000
323.723;   45.600; -682.000; -601.000
323.859;   -1.450; -258.000;  -76.000
323.995;  -34.700; -467.000; -409.000
324.131; -117.800; -967.000; -892.000
324.267;  -37.350; -254.000; -276.000
324.402; -123.225; -960.000; -983.000
324.538;   -6.650; -279.000; -104.000
324.674;   34.250;  164.000;   77.000
324.810;  171.025;  226.000;  308.000
324.946;   51.375; -810.000; -658.000
325.082;  -57.400; -568.000; -475.000
325.217;  -14.400;  -62.000;   16.000
325.353;  -88.800; -764.000; -659.000
325.489;  -88.825; -540.000; -506.000
325.625;  -56.825; -579.000; -525.000
325.760;   49.475;  517.000;  376.000
325.896;  -27.350; -515.000; -702.000
326.032;  -41.375; -403.000; -352.000
326.168;  -48.725; -462.000; -369.000
326.303;  -50.100; -352.000; -461.000
326.439;  -13.450; -336.000; -276.000
326.575;    6.425; -190.000;  -29.000
326.710;    6.625; -156.000;  -30.000
326.846;  -12.900;  146.000;  103.000
326.982;  -90.450; -530.000; -548.000
327.117;  -81.250; -481.000; -442.000
327.253;  -80.875; -745.000; -742.000
327.388; -135.825;-1137.000;-1153.000
327.524;  -22.325; -811.000; -578.000
327.659;  -23.650;  -58.000;  -22.000
327.795;   -7.325;   69.000;   45.000
327.931;  -72.025; -723.000; -499.000
328.066;  -24.475; -417.000; -276.000
328.202;    5.625;   12.000; -129.000
328.337;  113.950;  957.000;  713.000
328.473;   44.175;  -12.000;  -74.000
328.608;  -14.700; -256.000; -267.000
328.743;  -74.375; -799.000; -664.000
328.879;   21.650;  214.000;  114.000
329.014;  -18.550; -102.000; -122.000
329.150;  -72.125; -358.000; -483.000
329.285;  -60.550; -465.000; -466.000
329.421;  -57.700; -548.000; -246.000
329.556;  -22.050;  -36.000;   85.000
329.691;  -90.200; -633.000; -615.000
329.827;  -88.950; -626.000; -480.000
329.962;  -38.600;  131.000; -301.000
330.097;  -82.325; -673.000; -585.000
330.233;  -45.150; -410.000; -223.000
330.368; -122.875; -839.000; -628.000
330.503;  -19.400;    3.000;   98.000
330.638;   12.925;  -93.000; -125.000
330.774;  -34.325; -609.000; -530.000
330.909;  -33.050; -434.000; -244.000
331.044;  -74.200; -714.000; -708.000
331.179; -167.250;-1217.000;-1109.000
331.315;    1.800;   77.000;   20.000
331.450;   14.100;  157.000;  285.000
331.585;  -80.800; -805.000; -706.000
331.720;  -79.775; -510.000; -460.000
331.855;   -8.850;  -35.000; -102.000
331.990;  203.500;   62.000;  138.000
332.126;  102.225; -110.000;   71.000
332.261;  -25.300; -379.000; -265.000
332.396;   -6.925; -135.000; -242.000
332.531; -114.975;-1074.000;-1031.000
332.666;   19.825; -519.000; -363.000
332.801;  -88.600; -726.000; -807.000
332.936;  -17.225; -192.000; -122.000
333.071; -128.275; -870.000; -817.000
333.206;   26.475;  307.000;  379.000
333.341;   34.175;  344.000;  418.000
333.476;  -78.950; -627.000; -623.000
333.611;  -19.275; -251.000; -173.000
333.746;  -24.425; -381.000; -464.000
333.881;  -98.250; -973.000; -935.000
334.016; -112.500; -936.000; -917.000
334.151; -123.775; -746.000; -702.000
334.286;   53.325;  152.000;  186.000
334.421;   -5.200; -125.000; -178.000
334.556;  -70.075; -611.000; -567.000
334.690;  -62.825; -631.000; -577.000
334.825;   73.575;  381.000;   83.000
334.960;  -41.900; -285.000; -413.000
335.095;   23.925;  135.000;  -91.000
335.230;  -92.250; -722.000; -738.000
335.365; -111.150;-1084.000; -990.000
335.499; -107.700;-1108.000;-1037.000
335.634;   42.350;    9.000;  534.000
335.769;  -81.525; -755.000; -720.000
335.904;  -48.075; -603.000; -561.000
336.038;  -41.200; -735.000; -657.000
336.173;  -85.500;-1206.000;-1194.000
336.308;   37.250; -116.000; -189.000
336.443;   20.500; -544.000; -634.000
336.577;  -56.000; -936.000; -787.000
336.712;   97.475;   -4.000;  -12.000
336.847;    6.400; -724.000; -607.000
336.981;  101.650; -272.000; -208.000
337.116;  338.800;  615.000;  501.000
337.250;  217.300; -434.000; -421.000
337.385;  202.400; -297.000; -208.000
337.520;   47.275; -632.000; -603.000
337.654;  -52.400; -215.000; -126.000
337.789; -112.050; -989.000; -933.000
337.923;   -9.625; -104.000; -205.000
338.058;  -82.925; -673.000; -738.000
338.192;  -12.075; -611.000; -488.000
338.327;    3.175;  -18.000; -155.000
338.461;  -58.325; -299.000; -469.000
338.596;  -82.325; -780.000; -638.000
338.730;  -95.225; -767.000; -803.000
338.865;   82.850;  -46.000; -140.000
338.999;  -59.750; -846.000; -702.000
339.134;  -30.400; -634.000; -536.000
339.268;   20.825; -741.000; -603.000
339.403;  315.175; -740.000; -775.000
339.537;   72.000; -894.000; -820.000
339.671; -116.200; -829.000; -813.000
339.806;  -61.950; -556.000; -512.000
339.940;   21.175; -261.000; -235.000
340.074;  -95.225; -685.000; -510.000
340.209;  -39.375; -351.000; -230.000
340.343;  -95.700; -517.000; -573.000
340.477;  152.600;  998.000; 1036.000
340.612;  -63.700;-1033.000; -900.000
340.746;  113.475; -199.000; -243.000
340.880;  -47.400; -924.000; -785.000
341.014;  -23.550;  -45.000; -154.000
341.149; -111.425; -756.000; -718.000
341.283; -101.825; -839.000; -754.000
341.417;  -77.950;-1124.000; -938.000
341.551;  211.175; -768.000; -708.000
341.685;  -10.900; -633.000; -611.000
341.820;  -44.400; -562.000; -493.000
341.954;  -29.775; -218.000; -349.000
342.088; -144.800;-1102.000;-1019.000
342.222;   50.325;  565.000;  618.000
342.356;  -42.900; -395.000; -335.000
342.490;  -73.700; -880.000; -841.000
342.624;  -32.750; -339.000; -242.000
342.758;   21.575; -364.000; -312.000
342.892;  -50.050; -710.000; -585.000
343.026;  -12.025;  -58.000; -116.000
343.160;  -41.150; -426.000; -376.000
343.294;  -70.775; -474.000; -337.000
343.428;   -5.300; -488.000; -448.000
343.562;  -15.675; -172.000;  -23.000
343.696;   -5.450; -385.000; -314.000
343.830;    8.200; -362.000; -356.000
343.964;   36.175; -231.000; -168.000
344.098; 1140.300;  199.000;   70.000
344.232;  962.850; -266.000; -127.000
344.366;  113.900; -567.000; -453.000
344.500;  102.675; -665.000; -744.000
344.634;   56.975; -324.000; -164.000
344.768;   11.625; -531.000; -341.000
344.902;   33.700;  278.000;  256.000
345.035;  -54.575; -556.000; -496.000
345.169; -118.575; -933.000; -656.000
345.303;  -27.450; -308.000; -482.000
345.437;  -45.650; -826.000; -717.000
345.571;  -74.650; -675.000; -594.000
345.704;  -59.775; -309.000; -532.000
345.838;   -6.125; -331.000; -284.000
345.972;  -11.425; -543.000; -495.000
346.106;  136.250; -179.000; -190.000
346.239;  440.625; -312.000; -243.000
346.373;   39.850; -343.000; -302.000
346.507; -125.625; -950.000; -962.000
346.640;  209.200;  -30.000;   13.000
346.774;   -7.650; -650.000; -797.000
346.908;  -12.375; -138.000;  -11.000
347.041;  -85.350; -646.000; -593.000
347.175;   24.225;  259.000;   27.000
347.309;  -45.775; -698.000; -628.000
347.442;  -85.800; -883.000; -732.000
347.576;  342.275;  670.000;  668.000
347.709;  280.300; -123.000;  -52.000
347.843;  -51.375; -933.000; -825.000
347.976;   51.225;  235.000;  294.000
348.110; -169.450;-1268.000;-1186.000
348.243;  -92.075; -679.000; -772.000
348.377;   -9.575;  -26.000;   60.000
348.510;   56.000;  403.000;  540.000
348.644;  -24.375;  -37.000; -159.000
348.777;   -3.200;  180.000;  191.000
348.911;  -48.175; -142.000; -112.000
349.044;  202.800;  471.000;  448.000
349.178;  226.300;-1069.000;-1006.000
349.311;  122.950;  141.000;  255.000
349.444;  -13.575; -927.000; -813.000
349.578;   12.450; -347.000; -200.000
349.711;  -88.550; -959.000; -862.000
349.845;   32.625; -661.000; -591.000
349.978; -135.350;-1224.000;-1137.000
350.111;  -74.500; -546.000; -612.000
350.244;  -73.900; -596.000; -700.000
350.378;   28.425; -392.000; -393.000
350.511;  -56.100; -393.000; -426.000
350.644; -110.100; -808.000; -806.000
350.778;   13.825;  168.000;  104.000
350.911;   13.975;  134.000;  140.000
351.044;  -72.300; -685.000; -615.000
351.177;  -15.875; -321.000; -281.000
351.310;   -7.350;    3.000; -131.000
351.444;  -61.975; -888.000; -788.000
351.577;  160.800;  140.000;   90.000
351.710;  116.350;  593.000;  417.000
351.843;  -26.925; -165.000;  -77.000
351.976;    6.000;  149.000;  -79.000
352.109;  -75.650; -621.000; -612.000
352.242;    6.200; -464.000; -419.000
352.376;  -32.475; -580.000; -636.000
352.509;  256.725; -437.000; -356.000
352.642;   68.300; -654.000; -604.000
352.775;  104.725; -141.000;  -98.000
352.908;  -99.450; -933.000; -904.000
353.041;  -84.575; -814.000; -824.000
353.174;  -46.825; -551.000; -424.000
353.307;  -76.750; -753.000; -764.000
353.440;   74.200;  541.000;  453.000
353.573; -117.225; -957.000;-1008.000
353.706;  -20.550; -384.000; -558.000
353.839;    6.100; -264.000; -220.000
353.971;  -78.200; -657.000; -512.000
354.104;  -63.925; -896.000; -835.000
354.237;  -19.675; -627.000; -662.000
354.370;  -63.600; -846.000; -879.000
354.503; -168.975;-1231.000;-1308.000
354.636;  -17.975; -529.000; -348.000
354.769; -101.500; -937.000; -860.000
354.902;    3.575; -230.000; -139.000
355.034;  -18.650; -164.000; -220.000
355.167;   -0.950; -262.000; -162.000
355.300;  -85.325;-1061.000; -880.000
355.433;  857.250;  -71.000;  -14.000
355.565; 1309.800; -402.000; -384.000
355.698;  332.225; -356.000; -296.000
355.831;   11.625; -882.000; -801.000
355.964;  135.450; -285.000; -170.000
356.096;  -72.100; -856.000; -843.000
356.229;   28.925; -523.000; -530.000
356.362;  280.175; -373.000; -266.000
356.494;  524.925; -229.000; -162.000
356.627;  570.700;  269.000;  377.000
356.760;  619.325;  120.000;   53.000
356.892;  810.675; -286.000; -601.000
357.025;  803.950;  403.000;  389.000
357.157;  741.825; -167.000; -179.000
357.290;  529.075; -856.000; -713.000
357.423;  182.100; -667.000; -556.000
357.555;  151.625; -217.000; -228.000
357.688;  172.750; -483.000; -364.000
357.820;  546.325; -870.000; -877.000
357.953; 4232.675; -563.000; -589.000
358.085;  992.875; -632.000; -612.000
358.218; 1623.250;-1131.000; -932.000
358.350;  292.575;  -58.000;  312.000
358.483; -106.600;-1300.000;-1187.000
358.615;   40.325;-1182.000;-1078.000
358.747;   -9.175;-1187.000;-1058.000
358.880;   75.075; -810.000; -744.000
359.012;    8.675; -376.000; -202.000
359.145;  -29.625; -480.000; -511.000
359.277;   96.025; -962.000; -913.000
359.409; 3554.900;  536.000;  231.000
359.542;  923.975; -738.000; -688.000
359.674;   90.525;   46.000;   13.000
359.806;  -37.600; -565.000; -438.000
359.939;  -50.425; -617.000; -516.000
360.071;  -16.500; -583.000; -579.000
360.203;   -9.875; -411.000; -364.000
360.335;   74.400;  164.000;  -16.000
360.468;  218.875; -249.000; -307.000
360.600; 2746.075; -547.000; -454.000
360.732; 2425.900; -546.000; -423.000
360.864;  351.850;-1216.000;-1044.000
360.996;  401.300; -516.000; -554.000
361.129;   91.325; -389.000; -598.000
361.261;   29.825;  110.000; -113.000
361.393;  -15.725; -252.000; -214.000
361.525;   57.300;   94.000;  244.000
361.657;  -22.000; -821.000; -703.000
361.789;   36.650; -139.000; -155.000
361.921;  322.350; -642.000; -593.000
362.053;  340.125;  524.000;  541.000
362.185;   69.900;  288.000;   72.000
362.318;  -62.050; -709.000; -705.000
362.450;  189.300;  294.000;  444.000
362.582;  263.875; -913.000; -870.000
362.714;  -21.800; -353.000; -332.000
362.846;  -72.375; -606.000; -490.000
362.978; -126.925; -941.000; -811.000
363.109;   95.200; -161.000; -260.000
363.241;  581.175; -739.000; -749.000
363.373;  394.800; -649.000; -564.000
363.505;  549.800; -186.000;  -91.000
363.637;  148.025; -787.000; -601.000
363.769; -108.475;-1067.000;-1080.000
363.901;  -51.900; -596.000; -654.000
364.033;  -98.975;-1103.000;-1062.000
364.165;   17.600; -283.000; -283.000
364.296;   65.475; -316.000; -177.000
364.428;   36.100;-1344.000;-1220.000
364.560;  -64.825; -679.000; -661.000
364.692;  -44.050; -738.000; -835.000
364.824;  392.250; -588.000; -456.000
364.955;  455.600; -402.000; -564.000
365.087;  690.850;-1097.000; -852.000
365.219;   20.425; -686.000; -816.000
365.351;  -65.075; -526.000; -572.000
365.482;   79.700;  300.000;  240.000
365.614;  -36.250; -402.000; -314.000
365.746;  -75.500; -729.000; -752.000
365.877;  -98.100; -706.000; -672.000
366.009;  195.525;  -35.000;  -62.000
366.141; -106.150;-1249.000;-1134.000
366.272; -109.950; -803.000; -719.000
366.404;  -98.800;-1005.000; -874.000
366.535;  -11.625; -139.000;  -12.000
366.667;  -99.475; -644.000; -649.000
366.799;   50.325;  353.000;  203.000
366.930; -105.300; -862.000; -996.000
367.062;  118.650; -639.000; -613.000
367.193;   87.175; -872.000; -842.000
367.325;  -65.100; -580.000; -684.000
367.456;   99.475; -246.000;   31.000
367.588;  150.750; -371.000; -318.000
367.719;   40.750;  -44.000;  -45.000
367.851;   -3.800; -222.000; -241.000
367.982;  -24.750; -875.000; -732.000
368.113;  154.200; -475.000; -358.000
368.245; -112.775; -960.000; -841.000
368.376;    2.175; -254.000; -302.000
368.508;  -27.075; -188.000; -263.000
368.639; -123.100;-1166.000;-1034.000
368.770;   -3.900; -670.000; -589.000
368.902;  -49.350; -836.000; -926.000
369.033;  -95.550; -906.000; -855.000
369.164;  -36.775; -720.000; -653.000
369.296;  -97.675; -452.000; -601.000
369.427;   11.350; -209.000; -144.000
369.558;  -27.625; -593.000; -377.000
369.689;  -64.150; -721.000; -569.000
369.821; -131.125; -951.000; -845.000
369.952;   14.250;   42.000; -108.000
370.083;  -50.600; -229.000; -108.000
370.214;  -78.925; -735.000; -650.000
370.345;   12.025;   65.000;   81.000
370.477;  -69.150; -810.000; -790.000
370.608;  315.000; -328.000; -264.000
370.739;  -13.300;-1233.000;-1292.000
370.870;    2.050;-1102.000; -923.000
371.001;  160.225; -378.000; -467.000
371.132;  -67.075; -754.000; -735.000
371.263;  -15.700;  -42.000; -148.000
371.394; -129.725; -841.000; -748.000
371.525;   38.650;  345.000;  225.000
371.657;  -69.575; -808.000; -670.000
371.788;  101.800;  103.000;  199.000
371.919;  216.850; -384.000; -304.000
372.050; 4473.350;  -91.000; -156.000
372.181; 1335.175; -188.000; -294.000
372.311;  489.275;   42.000; -127.000
372.442;   78.050; -457.000; -451.000
372.573;    3.800; -444.000; -340.000
372.704;  -97.475;-1008.000; -980.000
372.835;  114.850; -228.000; -289.000
372.966;  -43.750; -646.000; -554.000
373.097;  -30.275; -575.000; -711.000
373.228;   -8.575; -717.000; -542.000
373.359;  212.025; -824.000; -536.000
373.490; 1218.025; -881.000; -727.000
373.620; 1504.050;-1001.000; -803.000
373.751; 2284.000; -332.000; -396.000
373.882; 1063.550; -663.000; -733.000
374.013;  118.975; -449.000; -262.000
374.143;  -16.525; -581.000; -659.000
374.274;  -82.750; -987.000; -908.000
374.405;  223.700; -388.000; -276.000
374.536;  596.625; -526.000; -387.000
374.666; 1473.200; -759.000; -807.000
374.797;  328.300; -817.000; -868.000
374.928; 1158.750; -710.000; -560.000
375.058; 1162.975; -535.000; -500.000
375.189;  118.800;  -59.000;  -93.000
375.320;  -90.750; -928.000;-1034.000
375.450;  -24.350; -625.000; -616.000
375.581;  -32.050; -526.000; -436.000
375.712;  -12.925; -574.000; -250.000
375.842;  415.700; -438.000; -415.000
375.973;  314.875; -554.000; -513.000
376.103;    2.775; -665.000; -648.000
376.234;  -69.800; -531.000; -552.000
376.364;    5.350; -944.000; -867.000
376.495;  411.250;  925.000;  529.000
376.625;   43.575; -472.000; -485.000
376.756;  104.800; -709.000; -678.000
376.886;  -45.375;-1178.000;-1026.000
377.017;   16.950;-1048.000;-1061.000
377.147;  267.150; -786.000; -782.000
377.278;   57.550;  174.000;  228.000
377.408; -116.750; -801.000; -815.000
377.538;  -93.975; -707.000; -693.000
377.669;  -81.450; -537.000; -613.000
377.799;  -64.150; -645.000; -635.000
377.929;  -17.525; -610.000; -428.000
378.060; -108.725; -781.000; -847.000
378.190;  -56.000; -726.000; -531.000
378.320;  -46.900; -401.000; -406.000
378.451;   15.650; -131.000;  -22.000
378.581;   20.400;  -67.000; -110.000
378.711;  189.600; 1035.000;  866.000
378.841;   26.500; -533.000; -675.000
378.972;  -45.350; -871.000; -751.000
379.102;   30.575; -652.000; -579.000
379.232;   -7.575; -126.000;  -73.000
379.362;  -88.150;-1001.000; -885.000
379.492;   62.675; -373.000; -424.000
379.623;  133.425;    0.000;  111.000
379.753;  -77.425;-1107.000; -974.000
379.883;  258.500;   59.000;  156.000
380.013;   48.600;-1081.000;-1017.000
380.143;  -73.350;-1097.000;-1056.000
380.273;  -84.450; -985.000; -861.000
380.403;   19.100; -344.000; -257.000
380.533;    1.600; -651.000; -664.000
380.663;   99.725;  173.000;  128.000
380.793;  -60.300;-1027.000;-1074.000
380.923;   -7.350; -103.000;  -34.000
381.053;  -85.350; -613.000; -623.000
381.183;  -16.850; -106.000; -248.000
381.313;   88.375; -656.000; -470.000
381.443;   75.125; -692.000; -473.000
381.573;  300.050; -402.000; -409.000
381.703;  441.275;-1249.000;-1095.000
381.833;  -98.800;-1454.000;-1336.000
381.963;  147.100; -134.000;  -87.000
382.093; 1665.925; -925.000; -909.000
382.223;  539.825; -713.000; -602.000
382.353;   11.450; -801.000; -608.000
382.482;  536.975;-1091.000; -964.000
382.612;  970.775; -872.000; -644.000
382.742;  539.550; -695.000; -622.000
382.872;  382.525; -565.000; -551.000
383.002;   94.050;  347.000; -132.000
383.131;   -2.850; -226.000; -160.000
383.261;  -23.475; -706.000; -768.000
383.391;  306.050; -552.000; -377.000
383.521; 2609.500;  451.000;  263.000
383.650;  585.050; -947.000; -904.000
383.780;  -17.475; -783.000; -656.000
383.910;  135.575;  880.000;  802.000
384.039;   68.525; -794.000; -656.000
384.169;  338.875;-1205.000;-1017.000
384.299;   11.450; -650.000; -662.000
384.428;  -76.200; -764.000; -680.000
384.558;  -32.025; -308.000; -275.000
384.687;  -30.825; -414.000; -334.000
384.817;   41.225;   75.000;   -2.000
384.947;   65.200; -234.000; -141.000
385.076;  353.300;  982.000;  912.000
385.206;  133.650;  369.000;  480.000
385.335;   -9.625; -549.000; -417.000
385.465;  -56.950; -655.000; -663.000
385.594;  189.275;  -53.000;  -44.000
385.724;  591.300; -868.000; -838.000
385.853;  169.600; -296.000; -270.000
385.982; 1796.000; -743.000; -787.000
386.112; 2774.425;-1052.000; -871.000
386.241;  209.900; -307.000; -312.000
386.371;   59.025; -174.000;  -87.000
386.500;   26.225; -825.000; -789.000
386.629;   43.000; -874.000; -817.000
386.759;   79.525;  -43.000;   68.000
386.888;   20.100; -170.000; -250.000
387.017;  -49.000; -648.000; -620.000
387.147;  -78.700; -771.000; -798.000
387.276;   35.875; -410.000; -397.000
387.405;   42.475; -398.000; -342.000
387.535;  -32.525; -452.000; -361.000
387.664;  -52.250; -692.000; -620.000
387.793;   99.525; -198.000; -113.000
387.922;  685.050;  255.000;  200.000
388.052;   52.925; -576.000; -423.000
388.181;   71.100; -342.000; -472.000
388.310;   82.000; -889.000; -710.000
388.439;    1.750; -749.000; -742.000
388.568;  242.775;  365.000;  244.000
388.697; 1404.875; -756.000; -653.000
388.826;  303.325; -768.000; -666.000
388.956;   96.350; -285.000; -307.000
389.085;  -14.300; -347.000; -287.000
389.214; -106.300; -842.000; -872.000
389.343;  -46.100; -645.000; -413.000
389.472;  360.075;  126.000;  149.000
389.601;  509.750;   91.000;    0.000
389.730;   34.000; -568.000; -687.000
389.859;   91.500;  226.000;   46.000
389.988;  270.400; -423.000; -408.000
390.117;  198.725; -168.000; -146.000
390.246;   11.750; -331.000; -320.000
390.375;  192.275; -673.000; -626.000
390.504;  -33.750; -703.000; -621.000
390.633;  -90.100; -672.000; -726.000
390.761;  -41.800; -732.000; -645.000
390.890;   65.925;   -4.000; -130.000
391.019;    4.350; -421.000; -441.000
391.148; -116.250; -826.000; -855.000
391.277;  -55.850; -576.000; -493.000
391.406;  -43.475; -821.000; -805.000
391.534;   28.650;  574.000; -301.000
391.663;  -45.775; -583.000; -645.000
391.792;  -69.550; -673.000; -701.000
391.921;  153.425;   -3.000;   15.000
392.050;  291.600; -287.000; -228.000
392.178;   14.050;-1206.000;-1061.000
392.307;  223.850; -758.000; -712.000
392.436;  125.500; -427.000; -641.000
392.564;   39.375;  166.000;   -6.000
392.693;  -70.725; -860.000; -682.000
392.822;  300.475; -529.000; -534.000
392.950;  153.875; -880.000; -714.000
393.079;  437.675; -188.000; -328.000
393.208;   63.225; -488.000; -511.000
393.336;   -0.400; -170.000; -145.000
393.465;  -28.400; -317.000; -199.000
393.593;   12.500;   62.000;   79.000
393.722; -137.275;-1121.000; -916.000
393.850;  -32.425; -188.000;  -61.000
393.979; -170.000; -926.000; -805.000
394.107;  -49.500; -517.000; -537.000
394.236;  -17.225; -570.000; -507.000
394.364;  220.825;  383.000;  206.000
394.493;  355.975; -911.000; -767.000
394.621;  -14.750; -955.000; -916.000
394.750;  606.275; -873.000; -923.000
394.878; 2593.450; -247.000; -149.000
395.007; 3430.200; -721.000; -807.000
395.135;  254.200; -790.000; -721.000
395.263;  -89.750;-1038.000;-1040.000
395.392;   17.150;  -25.000; -107.000
395.520; -143.625; -818.000; -679.000
395.648;  -64.100; -865.000; -915.000
395.777;    1.550; -366.000; -405.000
395.905;  -41.925; -449.000; -564.000
396.033;   12.100;  217.000;  172.000
396.162;  591.400; -399.000; -453.000
396.290;  509.175;  -17.000;   -2.000
396.418;  158.150; -555.000; -514.000
396.546;  -46.775; -571.000; -466.000
396.674;  -75.150; -850.000; -878.000
396.803;   22.250;  -72.000;  -23.000
396.931;  144.200; -179.000; -199.000
397.059;  115.550;-1026.000; -989.000
397.187; -100.700;-1026.000; -975.000
397.315; -125.325; -884.000; -649.000
397.443;  -87.350; -592.000; -443.000
397.572;  -90.100; -578.000; -424.000
397.700;   27.100; -607.000; -614.000
397.828;   27.900;  120.000;  -90.000
397.956;  -43.950; -508.000; -478.000
398.084;  -64.150; -767.000; -626.000
398.212;   61.275;  137.000;  124.000
398.340;   31.625;  -56.000;  159.000
398.468;   67.725; -390.000; -169.000
398.596; -113.550; -993.000; -953.000
398.724; -105.275; -762.000; -767.000
398.852; -170.300;-1024.000; -976.000
398.980;  -39.825; -560.000; -560.000
399.108;  -31.800; -982.000; -735.000
399.236;   54.375;   13.000;    8.000
399.363;   23.475;  222.000;  196.000
399.491;  -63.900; -404.000; -398.000
399.619;  -98.750; -829.000; -800.000
399.747;  -86.050; -859.000; -771.000
399.875;   92.150;  220.000;  234.000
400.003;  -45.825; -359.000; -284.000
400.130;  -66.875; -421.000; -341.000
400.258;  -17.425;  -83.000;   38.000
400.386;  -72.200; -352.000; -168.000
400.514;  -22.400; -526.000; -587.000
400.641;  -76.750; -928.000; -802.000
400.769; -133.525; -979.000; -888.000
400.897; -101.950; -838.000; -793.000
401.025;   -9.750; -166.000; -152.000
401.152;    0.225;  220.000;   38.000
401.280;  -67.200; -430.000; -429.000
401.408; -107.175; -712.000; -576.000
401.535;  -89.525; -735.000; -758.000
401.663; -186.575;-1134.000;-1054.000
401.790;  -69.550; -514.000; -525.000
401.918;   46.625;  436.000;  405.000
402.046;  -18.750;  134.000;  122.000
402.173;  -31.800;  -18.000;    7.000
402.301;  -62.025; -519.000; -397.000
402.428;   32.775;  528.000;  383.000
402.556; -133.750;-1188.000; -913.000
402.683;   -7.050;  -20.000;   -1.000
402.811;  -10.250;  -37.000; -206.000
402.938;    0.175;   20.000;   27.000
403.066;  269.850; -574.000; -558.000
403.193;  422.525;  299.000;  239.000
403.321;  357.000; -396.000; -574.000
403.448;  426.825;   83.000;   27.000
403.575;  191.700;  -90.000;  -46.000
403.703;  -95.950; -732.000; -557.000
403.830;  -50.425; -531.000; -496.000
403.957; -124.450;-1117.000;-1023.000
404.085;   21.675;  -61.000; -172.000
404.212;  116.575;  -50.000;   63.000
404.339;  245.025; -566.000; -306.000
404.467; 5000.025; -612.000; -524.000
404.594; 3625.850; -287.000; -227.000
404.721;  977.000; -869.000; -764.000
404.848;   97.550; -113.000; -202.000
404.976;  -83.550; -856.000; -783.000
405.103;   -3.775;  -14.000;  -82.000
405.230;    9.275;  190.000;  226.000
405.357;   22.525;  117.000;   44.000
405.484;  218.825;  -49.000;    5.000
405.612;   55.750; -548.000; -563.000
405.739;  -46.475; -488.000; -243.000
405.866;   95.925;  669.000;  385.000
405.993;  -34.375; -398.000; -102.000
406.120; -117.000; -801.000; -887.000
406.247;  -45.725; -323.000; -342.000
406.374;  588.300;  540.000;  629.000
406.501;  193.200; -632.000; -702.000
406.628;  -68.575; -621.000; -589.000
406.755;  -93.600; -803.000; -620.000
406.882;  -40.250; -228.000; -277.000
407.009; -102.850; -719.000; -628.000
407.136;   91.700; -480.000; -401.000
407.263;  228.000; -939.000; -829.000
407.390;  -61.300; -692.000; -614.000
407.517; -165.125;-1139.000;-1187.000
407.644;  -45.800; -332.000; -256.000
407.771; -139.550; -249.000; -287.000
407.898;   10.350;  168.000;  328.000
408.025;  -57.175; -421.000; -313.000
408.151;  -10.800;   82.000;  153.000
408.278;  -58.500; -267.000; -216.000
408.405;  -98.150; -931.000; -899.000
408.532;  -62.800; -549.000; -542.000
408.659; -117.475; -677.000; -648.000
408.785; -198.075;-1298.000;-1170.000
408.912;  -72.800; -412.000; -296.000
409.039; -105.100; -610.000; -686.000
409.166;  -98.500; -591.000; -555.000
409.292; -113.950; -571.000; -534.000
409.419; -116.875; -665.000; -649.000
409.546;  -83.350; -431.000; -192.000
409.672; -106.825; -713.000; -545.000
409.799;  -19.575;  -36.000;   34.000
409.926;  -33.175; -180.000; -179.000
410.052; -172.900;-1127.000;-1091.000
410.179;  -50.325; -368.000; -392.000
410.305;  -92.225; -375.000; -493.000
410.432;  -34.225; -220.000; -333.000
410.558;  -81.600; -305.000; -380.000
410.685; -105.800; -688.000; -431.000
410.812; -100.925; -409.000; -588.000
410.938; -143.425; -964.000; -808.000
411.065;  -91.500; -671.000; -645.000
411.191;  -16.100; -189.000; -174.000
411.317; -125.900; -823.000; -742.000
411.444;  -56.600; -317.000; -246.000
411.570;  -65.925; -339.000; -294.000
411.697; -124.875; -758.000; -752.000
411.823; -170.075; -989.000; -999.000
411.949;  -16.100;  -56.000;   17.000
412.076; -109.500; -539.000; -519.000
412.202; -111.100; -758.000; -757.000
412.329; -126.300; -798.000; -752.000
412.455;  -98.950; -821.000; -657.000
412.581;  -20.550;  -15.000;  172.000
412.707;  -62.150; -540.000; -457.000
412.834;   25.175;  156.000;  219.000
412.960;  -64.525; -785.000; -784.000
413.086;  -83.350; -743.000; -701.000
413.212;  193.150;  604.000;  578.000
413.339;  -32.925; -685.000; -701.000
413.465;   35.250; -364.000; -310.000
413.591;  -75.500; -757.000; -474.000
413.717;  -50.100; -358.000; -366.000
413.843; -140.250; -839.000; -861.000
413.969;  -47.700;  -47.000; -292.000
414.096;  -99.825; -679.000; -679.000
414.222;  -12.225;  -33.000;   85.000
414.348;   -5.275; -652.000; -385.000
414.474;  132.150;   38.000;  -52.000
414.600;   -6.675; -126.000; -144.000
414.726;   -6.300;  -96.000;  -55.000
414.852;  -63.825; -365.000; -342.000
414.978;   40.400;  104.000;  -18.000
415.104;   38.700;   38.000;   80.000
415.230;   32.225; -329.000; -330.000
415.356;   37.800; -409.000; -514.000
415.482;  219.925;   13.000;  -35.000
415.608;  248.425; -247.000; -323.000
415.734;  901.650;   67.000;   38.000
415.860;18348.450; -875.000; -767.000
415.986;13204.150; -685.000; -607.000
416.111; 1085.900; -798.000; -652.000
416.237;  214.125; -424.000; -571.000
416.363;  967.850; -765.000; -733.000
416.489; 3609.250; -324.000; -251.000
416.615;  373.550; -707.000; -742.000
416.741;  -37.975; -677.000; -784.000
416.866;  -94.875; -673.000; -736.000
416.992; -117.800; -801.000; -818.000
417.118;  -26.875;  -41.000;  -80.000
417.244;  -68.250; -798.000; -531.000
417.369;  -99.500; -801.000; -612.000
417.495;    2.050; -325.000; -254.000
417.621;  -70.825;-1015.000; -803.000
417.746;   14.050; -579.000; -572.000
417.872;   50.300; -254.000; -144.000
417.998;   51.175; -515.000; -530.000
418.123;  920.250;-1073.000; -845.000
418.249; 4710.700; -512.000; -601.000
418.374;  639.350; -916.000; -824.000
418.500;   82.875; -383.000; -482.000
418.626;   97.175;   70.000;  -59.000
418.751;  118.800; -549.000; -448.000
418.877;  153.150; -637.000; -643.000
419.002; 1604.000; -688.000; -560.000
419.128;10944.900; -930.000; -721.000
419.253; 2619.375; -967.000; -837.000
419.379;  342.525; -391.000; -338.000
419.504;  358.350;  325.000;  415.000
419.629;  451.825; -393.000; -212.000
419.755; 3006.625; -317.000; -254.000
419.880;17670.550;  -98.000;   67.000
420.006; 9963.500; -280.000; -221.000
420.131;26265.250; -662.000; -775.000
420.256; 3759.350; -315.000; -316.000
420.382;  485.775; -665.000; -687.000
420.507;   55.675; -649.000; -778.000
420.632;  188.750; -337.000; -339.000
420.758;  382.775; -251.000; -425.000
420.883;  -62.550; -876.000; -672.000
421.008;  -87.025; -775.000; -619.000
421.133;  -65.075; -509.000; -467.000
421.259;  -30.150; -325.000; -259.000
421.384; -104.825; -834.000; -693.000
421.509;   -0.475;-1052.000; -862.000
421.634; 1706.175; -936.000; -820.000
421.759;  725.650; -359.000; -327.000
421.885;  -21.600; -717.000; -656.000
422.010;  -50.100; -673.000; -542.000
422.135; -143.875; -695.000; -727.000
422.260;   37.675;  340.000;  280.000
422.385;  -21.850;   12.000;  -98.000
422.510;    3.375;  151.000;  -26.000
422.635;   29.550;  -87.000;  -43.000
422.760;  109.200; -766.000; -791.000
422.885;   67.075;  -57.000;  -80.000
423.010;  -23.475; -112.000; -169.000
423.135;  -95.475; -481.000; -561.000
423.260;   -3.200; -150.000; -245.000
423.385;   85.100;  476.000;  222.000
423.510;   30.175;   71.000;  -22.000
423.635;  100.225;  133.000;   45.000
423.760;   73.650;  383.000;  328.000
423.885;   56.750;  336.000;  391.000
424.010;   16.475;  -68.000;  -13.000
424.135;  -11.800;    5.000;  -33.000
424.259;  -77.725; -654.000; -457.000
424.384;  -65.025; -279.000; -272.000
424.509;  -18.200; -260.000; -186.000
424.634;  -99.025; -761.000; -623.000
424.759;  -30.800; -688.000; -544.000
424.883;  -28.625; -506.000; -527.000
425.008;  153.650; -502.000; -410.000
425.133; 1801.150; -679.000; -653.000
425.258;  822.325; -517.000; -381.000
425.382; 1222.525; -867.000; -774.000
425.507; 3173.075; -487.000; -543.000
425.632;  487.050; -802.000; -663.000
425.756;  390.800; -256.000; -146.000
425.881; 5324.375; -831.000; -857.000
426.006;14178.250; -604.000; -355.000
426.130; 2303.675; -696.000; -508.000
426.255;  297.175; -611.000; -491.000
426.379;  135.975; -189.000; -577.000
426.504;  342.125;  660.000;  544.000
426.629; 3745.975; -519.000; -466.000
426.753; 2546.325;   64.000;  -46.000
426.878;  298.900; -252.000; -288.000
427.002;  129.000; -651.000; -668.000
427.127; 1461.300;  -35.000; -158.000
427.251; 9995.275;  372.000;  401.000
427.375; 2858.850; -191.000; -173.000
427.500; 2721.100; -616.000; -610.000
427.624;  932.725; -234.000; -400.000
427.749;  101.200; -216.000; -225.000
427.873;  -36.350; -499.000; -412.000
427.997;  -40.275; -222.000; -230.000
428.122;   83.175;  795.000;  703.000
428.246;   92.650;  433.000;  434.000
428.371; -116.325; -869.000; -773.000
428.495; -108.000; -624.000; -646.000
428.619;  -25.350; -186.000; -117.000
428.743;   28.925;   65.000;  132.000
428.868;   45.525; -732.000; -643.000
428.992; 1760.325; -219.000; -326.000
429.116;  736.125; -329.000; -357.000
429.240;  367.575;  419.000;  426.000
429.365;   -6.550; -454.000; -574.000
429.489;  -40.725; -638.000; -647.000
429.613;   24.375; -236.000; -177.000
429.737;   37.700; -563.000; -432.000
429.861;  263.475; -247.000; -133.000
429.985; 4958.900; -425.000; -305.000
430.109; 5452.100; -770.000; -908.000
430.234;  629.325;   76.000;  -50.000
430.358;   58.150; -250.000; -160.000
430.482;  -67.125; -672.000; -564.000
430.606;  -58.850; -655.000; -375.000
430.730;   38.675; -437.000; -388.000
430.854;  223.325; -909.000; -835.000
430.978;  -49.525; -795.000; -764.000
431.102;  -79.900; -499.000; -422.000
431.226;  -96.950; -874.000; -815.000
431.350;   40.950;  345.000;  422.000
431.474;  -48.275; -661.000; -373.000
431.597; -137.875;-1060.000; -848.000
431.721;  -74.800; -276.000; -267.000
431.845; -125.850; -704.000; -472.000
431.969;  -87.825; -304.000; -349.000
432.093;  -94.025; -395.000; -317.000
432.217;  -16.775;   32.000;   82.000
432.341;  -76.900; -523.000; -518.000
432.464;    8.025;   96.000;   40.000
432.588;  297.550; -401.000; -329.000
432.712;  138.900;  -52.000;  -52.000
432.836;   46.050;  213.000;  263.000
432.959;  -18.775; -372.000; -311.000
433.083;   66.500;   11.000;    2.000
433.207;  324.850;  285.000;  930.000
433.330; 4371.575; -391.000; -200.000
433.454; 5340.550; -654.000; -638.000
433.578; 3152.100;  583.000;  278.000
433.701;  599.500; -623.000; -675.000
433.825;  203.425; -292.000; -299.000
433.949;  280.200;   28.000;  -72.000
434.072;  119.775; -410.000; -323.000
434.196;    4.050; -309.000; -117.000
434.319; 3775.475;25482.000;25124.000
434.443;  731.975; -656.000; -603.000
434.566; 2370.725;  281.000;   62.000
434.690;  388.725; -637.000; -383.000
434.813;   67.275; -251.000; -173.000
434.937;  -74.350; -569.000; -696.000
435.060;  -11.725; -423.000; -332.000
435.184;  530.475; -492.000; -217.000
435.307;  274.075;  159.000;  102.000
435.431;    4.575;  -40.000;   24.000
435.554;  -67.825; -399.000; -240.000
435.677;  -73.650; -350.000; -258.000
435.801;  -42.850;  -25.000;   49.000
435.924;   11.975;    1.000;  -67.000
436.048;  -70.200;-1019.000; -732.000
436.171;  -66.925; -240.000;  -66.000
436.294;  -45.850; -248.000; -229.000
436.417;   69.650; -963.000; -849.000
436.541;  -89.975; -814.000; -840.000
436.664;  -43.575; -242.000; -316.000
436.787;  -13.625;   13.000;  113.000
436.910; -117.700; -792.000; -422.000
437.034;   11.575;  142.000;  143.000
437.157;   91.225;  -11.000;    0.000
437.280;  -13.575; -392.000; -292.000
437.403;  -55.275; -982.000; -869.000
437.526;  978.250; -903.000; -865.000
437.649; 3354.650; -505.000; -332.000
437.772;  523.700; -692.000; -540.000
437.896;  153.425;  700.000;  544.000
438.019;  -72.925; -758.000; -503.000
438.142;  -89.275; -596.000; -506.000
438.265;   20.150; -639.000; -670.000
438.388;  798.650; -520.000; -410.000
438.511;  182.875; -597.000; -394.000
438.634;  -24.675; -247.000; -125.000
438.757; -155.050; -693.000; -619.000
438.880;  -21.450;  -34.000;  -57.000
439.003;  -73.575; -417.000; -437.000
439.126;  -60.725; -287.000; -167.000
439.248;  -51.600;  -98.000; -139.000
439.371;  -36.050;    9.000;  -53.000
439.494;   26.125;  510.000;  439.000
439.617;  -60.850;   65.000;  -88.000
439.740; -183.600; -968.000; -816.000
439.863; -134.525; -755.000; -595.000
439.986; -115.525; -476.000; -431.000
440.108;  -31.175; -161.000; -112.000
440.231; -149.475; -950.000; -836.000
440.354;  -26.250;  -64.000; -150.000
440.477;   86.625; -566.000; -542.000
440.599;   37.050; -200.000; -225.000
440.722; -117.075; -709.000; -586.000
440.845;   68.000;  751.000;  928.000
440.968;  -97.525; -415.000; -311.000
441.090;  -67.050; -199.000;  -33.000
441.213; -170.150;-1021.000; -825.000
441.336;  -52.550; -159.000;   -5.000
441.458;  -82.500; -549.000; -396.000
441.581;  -73.500; -628.000; -629.000
441.703;  -64.700; -152.000;   13.000
441.826; -114.500; -557.000; -400.000
441.948;  -37.050;   56.000;   51.000
442.071;   37.850;  555.000;  424.000
442.193; -112.500; -531.000; -485.000
442.316;   33.325;  152.000;   97.000
442.438;   44.250; -233.000;  -10.000
442.561;   95.575;  272.000;  262.000
442.683;  819.125; -809.000; -522.000
442.806; 1670.250;   -8.000;   74.000
442.928;   95.850; -859.000; -604.000
443.051;  -57.050; -577.000; -373.000
443.173;  -90.800; -341.000; -339.000
443.295;  -92.950; -263.000; -371.000
443.418;  -66.725; -321.000;  -29.000
443.540;   16.500; -106.000;   -4.000
443.662; -123.175; -563.000; -465.000
443.785;  -18.250;  335.000;  199.000
443.907;  -96.250; -362.000; -208.000
444.029; -131.800; -767.000; -494.000
444.152; -150.350; -644.000; -554.000
444.274;  -35.525;  -18.000;  -24.000
444.396;  -99.800; -461.000; -221.000
444.518; -130.175; -691.000; -454.000
444.640; -108.400; -268.000; -111.000
444.763;  -15.125;  388.000;  249.000
444.885; -130.650; -432.000; -392.000
445.007;  -29.150;   35.000;   86.000
445.129; -114.150; -610.000; -515.000
445.251;  -92.500; -372.000; -439.000
445.373; -139.750; -537.000; -386.000
445.495;   12.925;  242.000;  350.000
445.617;   67.625;  853.000;  753.000
445.739;  -64.100; -215.000;  -97.000
445.861;  -20.600; -245.000; -112.000
445.984;  -44.525; -267.000; -101.000
446.105;  281.675; -418.000; -251.000
446.227;  840.225; -176.000;  -19.000
446.349;   41.725; -358.000; -249.000
446.471;  -97.000; -615.000; -448.000
446.593;  -44.050; -316.000;   19.000
446.715;   16.250;  -67.000;   41.000
446.837;   69.150;  697.000;  832.000
446.959; -103.600; -457.000; -478.000
447.081; -126.700; -628.000; -518.000
447.203;   42.900;  862.000;  834.000
447.325;  -95.625; -270.000;   42.000
447.446;    0.150;  286.000;  530.000
447.568; -141.575; -921.000; -803.000
447.690;  -70.125; -236.000; -245.000
447.812; -154.775; -798.000; -519.000
447.933;  -40.375;  155.000;  127.000
448.055;  -75.150; -306.000; -261.000
448.177;  206.550;   31.000;   79.000
448.299;  148.575; -935.000; -727.000
448.420;   46.075;  -25.000;  159.000
448.542;  -42.375;   -3.000;   33.000
448.664;  -28.025;  109.000;  322.000
448.785;  -21.175;  265.000;   83.000
448.907;  -67.750; -614.000; -353.000
449.028;   -5.800; -771.000; -471.000
449.150;   77.500;  492.000;  589.000
449.272; -174.625;-1044.000; -913.000
449.393;   33.000;  612.000;  694.000
449.515; -153.550; -634.000; -581.000
449.636;  -39.825; -264.000; -155.000
449.758;   91.550;  763.000;  622.000
449.879;  -89.075; -498.000; -396.000
450.001;  -80.125; -149.000;  -49.000
450.122;  -29.275;  -95.000;  162.000
450.244;  -22.575;   37.000;  364.000
450.365;  -91.275; -495.000; -301.000
450.486;  -44.925;   80.000;  268.000
450.608;   13.225;  393.000;  326.000
450.729;   53.075;  578.000;  645.000
450.850;  -20.150; -574.000; -466.000
450.972;  589.900; -552.000; -389.000
451.093; 4109.400;  190.000;  588.000
451.214; 1758.875; -516.000; -337.000
451.336;  341.425;  773.000;  579.000
451.457;   51.100;  264.000;  393.000
451.578;  -45.150; -118.000;  -74.000
451.699; -126.675; -546.000; -540.000
451.821;  -66.450; -284.000;  -50.000
451.942;   -4.325;  278.000;  285.000
452.063;   26.125;  228.000;  419.000
452.184;  457.600;  -54.000;  -49.000
452.305;  944.025;  103.000;  170.000
452.427;   93.300; -549.000; -301.000
452.548;  -12.600;   23.000;   79.000
452.669;  -45.350; -257.000;  -89.000
452.790;  -42.300;    3.000;  -18.000
452.911;    0.250;  195.000;  259.000
453.032;  -77.275; -289.000;  -60.000
453.153;  -25.400;  -29.000;   81.000
453.274;   46.075;  737.000;  868.000
453.395;  -51.350;  -51.000;  175.000
453.516;  150.450; 1317.000; 1388.000
453.637;  -51.025; -205.000; -150.000
453.758;  -62.900;   15.000;   69.000
453.879; -128.775; -462.000; -250.000
454.000;   73.200; 1086.000;  948.000
454.121; -102.500; -554.000; -326.000
454.242; -114.850; -599.000; -383.000
454.362;  -60.400;  -99.000;  114.000
454.483;  -27.825; -309.000; -229.000
454.604;   57.075;  512.000;  580.000
454.725; -124.525; -627.000; -555.000
454.846; -132.200; -474.000; -406.000
454.967;  -31.175;  230.000;  539.000
455.087;  -43.675;  179.000;  153.000
455.208;   30.625;  554.000;  856.000
455.329;  -64.375;  -22.000;   82.000
455.450;   29.425;  473.000;  633.000
455.570;  -80.850; -234.000; -211.000
455.691;  -52.450;  201.000;  407.000
455.812; -113.150; -270.000;  -92.000
455.932;  -57.950;  107.000;  -97.000
456.053;  -79.025;   36.000;   24.000
456.173; -113.975; -433.000; -355.000
456.294; -130.650; -476.000; -303.000
456.415;  -56.675;  -73.000;   70.000
456.535;  -44.575;  297.000;  273.000
456.656;  -31.950;  132.000;  240.000
456.776;  -85.900;    3.000;  298.000
456.897;   -3.100;  308.000;  513.000
457.017;  -83.700; -153.000;   -3.000
457.138; -102.400; -402.000; -249.000
457.258;  -14.675;  263.000;  224.000
457.379;  -13.000;  509.000;  521.000
457.499;  -29.075;  443.000;  432.000
457.620; -131.625; -407.000; -231.000
457.740;  -95.100; -132.000;  -11.000
457.860;  -48.500;   87.000;   44.000
457.981;  -54.750;  132.000;  124.000
458.101;  -74.475;  -89.000;   40.000
458.221;  -16.075;  336.000;  402.000
458.342;  -65.650;   -4.000;  -37.000
458.462;    0.325;  617.000;  352.000
458.582;  -53.875; -302.000; -294.000
458.703;  -10.325;  303.000;  154.000
458.823;  -28.150;   22.000;  163.000
458.943;   12.900;  341.000;  467.000
459.063;   12.975; 1124.000;  192.000
459.183;  -26.000;  328.000;  313.000
459.304;   -5.375;  315.000;  517.000
459.424;  -77.375; -246.000;  -89.000
459.544;  299.650;  388.000;  764.000
459.664;  735.700;  499.000;  506.000
459.784;  291.675; 1004.000; 1175.000
459.904;   59.525;  867.000;  744.000
460.024;   88.675;  867.000;  684.000
460.144;   10.375;  449.000;  554.000
460.264;  -15.675;  515.000;  327.000
460.385; -104.600; -145.000; -119.000
460.505;   38.450;  905.000;  858.000
460.625;  -91.925;  -17.000;  -68.000
460.745;  -28.700;  396.000;  541.000
460.864;  -52.075;  153.000;  469.000
460.984;   14.875;  499.000;  573.000
461.104;  133.800; 1656.000; 1775.000
461.224;   29.525;  657.000;  650.000
461.344;  -31.425;  431.000;  360.000
461.464;  -28.850;  258.000;  513.000
461.584;  -16.975;  283.000;  466.000
461.704;  -40.225;   58.000;  108.000
461.824;  -57.550;  238.000;  259.000
461.943;  -37.800;  191.000;  130.000
462.063;  -72.050;    2.000;  324.000
462.183;   39.475;  639.000;  717.000
462.303;  118.925; 1678.000; 1230.000
462.422;   35.725;  781.000;  840.000
462.542;  -34.975;  271.000;  391.000
462.662;   51.200;  353.000;  380.000
462.782;  213.050;  833.000;  572.000
462.901;  415.375;  545.000;  717.000
463.021;  271.875; 1702.000; 1638.000
463.141;   -8.850;  337.000;  770.000
463.260;  -14.050;  614.000;  474.000
463.380;   34.025;  902.000;  884.000
463.499;  -26.925;  342.000;  332.000
463.619;  -36.125;  581.000;  559.000
463.738;  116.250; 1644.000;  903.000
463.858;   22.075;  657.000;  811.000
463.978;  -49.700;  542.000;  396.000
464.097;   62.425;  921.000; 1114.000
464.217;   98.800; 1196.000; 1143.000
464.336;  111.075; 1068.000; 1130.000
464.455;  -36.450;  328.000;  659.000
464.575;   58.950;  597.000;  602.000
464.694;  189.525; 1204.000; 1179.000
464.814;  135.150; 1190.000; 1138.000
464.933;   75.975; 1095.000; 1027.000
465.052;   99.000; 1412.000; 1054.000
465.172;   71.800;  922.000;  799.000
465.291;  147.550; 1376.000; 1320.000
465.410;   19.275;  462.000;  735.000
465.530;   95.475; 1355.000; 1310.000
465.649;   59.825; 1209.000; 1273.000
465.768;  164.675; 1673.000; 1508.000
465.888;   48.025;  941.000; 1174.000
466.007;   97.675; 1335.000; 1440.000
466.126;   -4.875;  721.000;  641.000
466.245;   38.550; 1176.000; 1187.000
466.364;   30.825;  950.000; 1060.000
466.484;   51.025; 1024.000; 1213.000
466.603;   41.725; 1101.000; 1222.000
466.722;  121.700; 1490.000; 1769.000
466.841;   87.475; 1151.000; 1401.000
466.960;   49.700; 1069.000;  972.000
467.079;  133.725; 1971.000; 1786.000
467.198;   47.625; 1238.000; 1181.000
467.317;   95.100; 1768.000; 1162.000
467.436;   79.525; 1709.000; 1261.000
467.555;  135.075; 1796.000; 1746.000
467.674;   61.800; 1227.000; 1329.000
467.793;   56.500; 1376.000; 1374.000
467.912;   86.750; 1658.000; 1539.000
468.031;  148.375; 2038.000; 1930.000
468.150;  141.600; 1842.000; 1837.000
468.269;  198.775; 2313.000; 2090.000
468.388;  204.475; 2168.000; 2339.000
468.507;  250.850; 2884.000; 2903.000
468.626;  226.575; 2555.000; 2541.000
468.744;  143.500; 2018.000; 2174.000
468.863;  196.500; 2312.000; 2523.000
468.982;   96.350; 1503.000; 1555.000
469.101;  232.875; 2788.000; 2692.000
469.220;  166.525; 2333.000; 2176.000
469.338;  260.000; 2935.000; 3051.000
469.457;  190.450; 2719.000; 2545.000
469.576;  349.550; 3953.000; 3784.000
469.695;  244.625; 2877.000; 3066.000
469.813;  427.825; 4148.000; 4192.000
469.932;  411.950; 4255.000; 4485.000
470.051;  417.225; 4075.000; 4161.000
470.169;  800.800; 4470.000; 4338.000
470.288; 1353.775; 4700.000; 4809.000
470.406;  818.525; 5059.000; 5194.000
470.525;  618.050; 6101.000; 5787.000
470.644;  654.825; 6847.000; 6794.000
470.762;  814.025; 8397.000; 7873.000
470.881;  905.925; 8651.000; 8464.000
470.999; 1053.425; 9685.000; 9151.000
471.118; 1103.450;11174.000;10711.000

