
Integration time [ms]: 100.000
Averaging Nr. [scans]: 40
Smoothing Nr. [pixels]: 0
Data measured with spectrometer [name]: 2101012U2
Wave   ;Sample   ;Dark     ;Reference
[nm]   ;[counts] ;[counts] ;[counts] 

197.733;   53.925;  516.000;  404.000
197.879;  -77.625; -610.000; -634.000
198.025;  -55.850; -475.000; -420.000
198.171;  -73.650; -602.000; -612.000
198.317;  -34.875; -401.000; -316.000
198.463;  -52.575; -655.000; -404.000
198.609;   23.025;  181.000; -137.000
198.755;  -78.850; -644.000; -410.000
198.901;  -61.975; -505.000; -424.000
199.047;  -64.175; -615.000; -488.000
199.193;  -42.700; -230.000; -468.000
199.339;  -42.150; -222.000; -369.000
199.485;   22.450;  330.000;  271.000
199.631;   20.525;  227.000;  310.000
199.777;  -50.675; -466.000; -398.000
199.923;  -61.275; -610.000; -424.000
200.069;    2.725; -141.000;  -58.000
200.215;   46.750;  128.000;  453.000
200.361;   36.325;  243.000;  477.000
200.507;  -63.675; -600.000; -373.000
200.653;  -19.275; -371.000; -194.000
200.798;  -31.900; -215.000; -125.000
200.944;    2.650; -146.000;  -41.000
201.090;   40.400;   61.000;  222.000
201.236;  -13.875; -116.000; -158.000
201.382;  122.100;  874.000;  903.000
201.528;   21.250;  -58.000;  -48.000
201.674;  -62.050; -386.000; -293.000
201.819;  -60.025; -540.000; -439.000
201.965;  -83.200; -699.000; -447.000
202.111;  -32.350; -273.000; -226.000
202.257;  -35.575; -250.000; -238.000
202.402;   -5.300;   13.000;  -36.000
202.548;  -25.100; -169.000; -116.000
202.694;   88.275;  410.000; -183.000
202.840;  -70.400; -603.000; -531.000
202.985;  -71.425; -681.000; -639.000
203.131; -110.550; -832.000; -666.000
203.277;  -18.950; -199.000; -262.000
203.423;  -55.200; -434.000; -520.000
203.568;  -37.950; -462.000; -237.000
203.714;  -58.775; -535.000; -542.000
203.860;  -77.225; -682.000; -641.000
204.005;   24.450;  112.000;  167.000
204.151;   62.525;  561.000;  556.000
204.296;  -41.650; -354.000; -221.000
204.442;  -77.275; -600.000; -547.000
204.588;  -69.575; -592.000; -579.000
204.733;   14.250;  178.000;  168.000
204.879; -126.400;-1018.000; -822.000
205.025;    9.075;  -99.000;  126.000
205.170;    6.375;  -17.000;   94.000
205.316;   76.500;  438.000;  661.000
205.461;  -74.025; -698.000; -554.000
205.607;   81.350;  609.000;  665.000
205.752;  -70.075; -626.000; -551.000
205.898;  -36.350; -501.000; -391.000
206.043;  -57.725; -578.000; -506.000
206.189;  -41.575; -243.000; -285.000
206.334;   82.000;  554.000;  606.000
206.480;   75.700;  409.000;  239.000
206.625;  -73.150; -529.000; -552.000
206.771;  -58.650; -451.000; -373.000
206.916;  -34.300; -210.000; -537.000
207.062;  -80.875; -545.000; -591.000
207.207;  -51.525; -546.000; -443.000
207.353;   50.600;  185.000;  460.000
207.498;   18.200;  196.000;   85.000
207.643;  -51.225; -501.000; -370.000
207.789; -125.675;-1069.000; -910.000
207.934;  -92.250; -665.000; -713.000
208.080;  -22.300; -154.000;   66.000
208.225;   -9.300;  -22.000;  -57.000
208.370;  -68.450; -727.000; -619.000
208.516;  -85.300; -741.000; -487.000
208.661;  -20.275; -127.000;  -69.000
208.806;  -17.125; -165.000; -171.000
208.952; -115.700;-1044.000; -731.000
209.097;   78.125;  378.000;  349.000
209.242;  -47.900; -307.000; -382.000
209.387;   61.950;  392.000;  350.000
209.533;  -59.925; -321.000; -350.000
209.678;   79.775;  472.000;  543.000
209.823;  -44.250; -408.000; -310.000
209.969; -104.600; -860.000; -757.000
210.114; -102.725; -907.000; -719.000
210.259; -120.375; -939.000; -889.000
210.404;   -6.200; -171.000;  103.000
210.549;    6.650;  108.000;    3.000
210.695;   -8.450;   -3.000;  -95.000
210.840;   19.300;   94.000;   67.000
210.985;  -61.700; -484.000; -303.000
211.130;   57.600;  268.000;  406.000
211.275;   23.950;  207.000;  199.000
211.420;  -48.425; -300.000; -289.000
211.566;  -68.625; -536.000; -489.000
211.711;    4.750;  218.000;  157.000
211.856;  -52.900; -545.000; -519.000
212.001;   11.675;  151.000;   44.000
212.146;   23.575;  153.000;   49.000
212.291;  -18.800; -210.000; -186.000
212.436;  -24.900; -280.000;   -6.000
212.581;  -87.650; -685.000; -653.000
212.726;  -75.575; -487.000; -538.000
212.871;  -44.675; -552.000; -217.000
213.016; -144.525;-1172.000;-1029.000
213.161;   44.675;  406.000;  291.000
213.306;  -70.825; -435.000; -577.000
213.451;  -93.275; -778.000; -689.000
213.596;  -55.175; -455.000; -347.000
213.741;  -43.975; -448.000; -538.000
213.886;  -79.400; -498.000; -517.000
214.031;  -28.900; -294.000; -124.000
214.176;  -38.875; -408.000; -341.000
214.321;  -18.700; -296.000; -157.000
214.466;  -33.075; -163.000;  -43.000
214.611;  -12.975;  -61.000;  -10.000
214.756; -116.250; -948.000; -858.000
214.901;  -28.250; -388.000; -226.000
215.046; -121.050; -797.000; -825.000
215.191;   10.800;  128.000;   35.000
215.336;  -17.750; -157.000;  -19.000
215.480;  -64.650; -684.000; -505.000
215.625;  -12.150; -175.000;  -19.000
215.770;  -82.125; -757.000; -662.000
215.915;    1.750;   -5.000;  -97.000
216.060;  -12.075; -113.000;  -21.000
216.205; -108.300; -731.000; -779.000
216.349;  -70.300; -470.000; -533.000
216.494; -133.275; -939.000; -867.000
216.639; -114.400; -823.000; -888.000
216.784;  -83.075; -577.000; -525.000
216.929;   47.850;  392.000;  281.000
217.073;   -4.600; -244.000;  -31.000
217.218;    2.775;   78.000;  -47.000
217.363;  -87.125; -656.000; -618.000
217.507;  -89.150; -623.000; -588.000
217.652; -105.350; -845.000; -874.000
217.797;  -92.900; -708.000; -659.000
217.942; -110.075; -856.000; -720.000
218.086;   65.575;  608.000;  539.000
218.231;    0.550; -174.000;  -26.000
218.376;  -42.050; -337.000; -229.000
218.520;    0.525;  -41.000;   96.000
218.665;  -39.800; -338.000; -204.000
218.810;  -40.175; -275.000; -233.000
218.954;   10.075;  201.000;   35.000
219.099;  -99.425; -713.000; -963.000
219.243;  -69.125; -589.000; -554.000
219.388;  -15.800; -264.000; -136.000
219.532;  -18.400; -116.000; -116.000
219.677;  -78.925; -564.000; -521.000
219.822;   -4.650;   33.000;   89.000
219.966;    5.650;   17.000;  -99.000
220.111;  -45.425; -328.000;  -40.000
220.255;  -91.825; -797.000; -750.000
220.400;  -16.500; -180.000; -146.000
220.544;  -64.650; -516.000; -450.000
220.689;  -58.200; -422.000; -451.000
220.833;  -25.200; -123.000;  -58.000
220.978;  -46.425; -393.000; -563.000
221.122;   27.600;  319.000;  307.000
221.267; -120.475; -906.000; -837.000
221.411;  -57.525; -478.000; -394.000
221.555;   -6.825; -104.000;  -23.000
221.700;  -49.575; -329.000; -222.000
221.844;   32.250;  255.000;  272.000
221.989;  -37.950; -328.000; -311.000
222.133;  -44.900; -289.000; -307.000
222.277;    2.850;    5.000;   78.000
222.422;   15.250;  227.000;  113.000
222.566;  -41.600; -381.000; -214.000
222.711;  -56.775; -414.000; -479.000
222.855;  -79.325; -643.000; -586.000
222.999;  -77.600; -642.000; -717.000
223.144;  -27.125; -195.000; -194.000
223.288;   46.750;  423.000;  251.000
223.432;   17.550;  184.000;  230.000
223.576;   20.050;  152.000;  -21.000
223.721;   30.100;  364.000;  273.000
223.865;  -43.825; -472.000; -475.000
224.009;  243.225; 1673.000; 1631.000
224.153;  -68.125; -660.000; -671.000
224.298;  -67.225; -531.000; -489.000
224.442;  -23.475;  -74.000;  -33.000
224.586;   -5.725; -169.000; -106.000
224.730;  -94.175; -858.000; -670.000
224.875; -111.375; -739.000; -688.000
225.019;    4.175;  102.000;  188.000
225.163;   56.900;  208.000;  341.000
225.307;   13.225;   97.000;  -91.000
225.451;   46.475;  360.000;  481.000
225.595;   20.950;  264.000;  176.000
225.739;   -3.175; -170.000;  -94.000
225.884;   -2.425;   86.000;    5.000
226.028;  -90.550; -760.000; -626.000
226.172;  -38.100; -260.000; -273.000
226.316; -114.525; -941.000; -902.000
226.460;  -87.625; -645.000; -493.000
226.604;  -41.325; -406.000; -400.000
226.748; -106.325; -836.000; -733.000
226.892;  -38.325; -227.000; -181.000
227.036;  -49.025; -537.000; -447.000
227.180;  -59.400; -551.000; -375.000
227.324;  -77.525; -561.000; -580.000
227.468; -110.025; -819.000; -717.000
227.612;    1.900;  242.000;  -28.000
227.756;  -93.475; -845.000; -698.000
227.900;   27.850;  342.000;  441.000
228.044;  -57.425; -509.000; -290.000
228.188;   48.800;  448.000;  568.000
228.332;  -82.700; -546.000; -472.000
228.476;  -38.550; -223.000; -149.000
228.620;  -29.375; -210.000; -150.000
228.764;   58.450;  431.000;  349.000
228.908;  -15.925; -155.000;   30.000
229.052;  -54.350; -615.000; -528.000
229.195;  -19.825; -172.000;   13.000
229.339;  -33.825; -235.000; -305.000
229.483;  -19.275;    5.000; -162.000
229.627;  -10.775; -156.000;  139.000
229.771;  -51.700; -218.000; -294.000
229.915;   17.900;  230.000;   79.000
230.059;  -81.425; -648.000; -663.000
230.202;  -39.050; -370.000; -317.000
230.346;  -17.500; -107.000;  107.000
230.490;  -68.400; -489.000; -521.000
230.634; -108.125; -736.000; -553.000
230.777;   68.550;  478.000;  509.000
230.921;  -50.525; -450.000; -359.000
231.065;  -42.275; -246.000; -286.000
231.209;   23.950;  261.000;  265.000
231.352;   15.775;   54.000;   40.000
231.496;   23.275;  568.000;  188.000
231.640;  -74.025; -693.000; -621.000
231.783;   60.850;  546.000;  525.000
231.927;  -47.800; -294.000; -365.000
232.071; -124.600; -962.000; -736.000
232.214; -103.825; -980.000; -764.000
232.358; -110.550; -683.000; -599.000
232.502;    5.900;  -19.000;    7.000
232.645; -138.550;-1090.000; -927.000
232.789;  -23.000; -257.000; -218.000
232.933;  -43.300; -407.000; -224.000
233.076; -130.525;-1038.000; -897.000
233.220; -100.525; -752.000; -777.000
233.363;  -79.050; -669.000; -477.000
233.507;   48.825;  371.000;  129.000
233.650;  -96.325; -764.000; -834.000
233.794;   42.150;  438.000;  461.000
233.938;  -69.800; -530.000; -362.000
234.081;  -12.100;  -93.000;   31.000
234.225;  -62.850; -631.000; -539.000
234.368; -106.275; -773.000; -723.000
234.512;  -55.200; -385.000; -299.000
234.655;  -80.675; -582.000; -555.000
234.798;  -70.625; -493.000; -466.000
234.942; -124.950; -884.000;-1002.000
235.085;  -70.775; -651.000; -443.000
235.229;  -76.450; -405.000; -410.000
235.372;  -60.425; -247.000; -191.000
235.516;  -54.575; -397.000; -321.000
235.659;   16.500;   92.000;  121.000
235.802;  -24.700;  -38.000;  -22.000
235.946;   18.000;  335.000;  215.000
236.089;   34.975;  126.000;  250.000
236.233;   36.725;  275.000;  298.000
236.376;  -37.900; -235.000; -378.000
236.519;  -58.000; -297.000; -319.000
236.663;  -37.275; -215.000; -117.000
236.806; -130.150;-1029.000; -999.000
236.949;   57.525;  543.000;  431.000
237.092;   66.525;  412.000;  391.000
237.236;  -83.750; -589.000; -502.000
237.379;   60.200;  352.000;  428.000
237.522; -120.000; -879.000; -768.000
237.666;  -10.450; -271.000;   18.000
237.809; -117.550; -851.000; -823.000
237.952;   34.350;  469.000;  271.000
238.095;  -62.575; -447.000; -442.000
238.238;   85.750;  688.000;  700.000
238.382;   -1.600;  166.000;  103.000
238.525;  -67.075; -598.000; -511.000
238.668; -131.975;-1060.000; -985.000
238.811;  -88.000; -638.000; -643.000
238.954;  -64.550; -483.000; -334.000
239.097;   75.175;  617.000;  664.000
239.241;   36.450;  394.000;  326.000
239.384;  -37.225; -254.000; -214.000
239.527;  -58.175; -424.000; -224.000
239.670; -152.725; -994.000;-1091.000
239.813; -114.225; -696.000; -658.000
239.956;   66.850;  579.000;  473.000
240.099; -108.300; -778.000; -725.000
240.242;   54.400;  428.000;  432.000
240.385;   38.775;  466.000;  450.000
240.528;  -67.825; -706.000; -473.000
240.671;   16.950;  189.000;  134.000
240.814;  -40.750; -441.000; -158.000
240.957; -101.425; -767.000; -578.000
241.100;  -99.950; -779.000; -755.000
241.243; -135.200;-1234.000; -893.000
241.386;  -56.300; -508.000; -379.000
241.529;  -98.625; -735.000; -547.000
241.672;  -69.950; -566.000; -495.000
241.815; -113.800; -832.000; -808.000
241.958;  -25.850; -125.000; -182.000
242.101;  -77.550; -545.000; -390.000
242.244;  -44.350; -270.000; -325.000
242.387;  -37.825; -304.000; -246.000
242.530;   43.475;  470.000;  134.000
242.673;  -42.675; -381.000; -309.000
242.815; -122.225; -925.000; -899.000
242.958;  -73.225; -482.000; -381.000
243.101;    6.625;  132.000;  187.000
243.244;  -79.750; -564.000; -521.000
243.387;  -40.575; -313.000; -316.000
243.530;  -99.550; -657.000; -674.000
243.672;    2.925;   43.000;  -92.000
243.815;  -59.725; -355.000; -283.000
243.958;   -5.425;   98.000;  -26.000
244.101;    2.125;   59.000;  -16.000
244.243;  -15.250;  -47.000;  101.000
244.386; -116.575; -761.000; -630.000
244.529;  -33.825; -132.000; -139.000
244.672; -145.200;-1154.000; -951.000
244.814;  -94.400; -621.000; -794.000
244.957;  -47.025; -380.000; -304.000
245.100;  -70.675; -489.000; -489.000
245.242;  -60.975; -387.000; -374.000
245.385;   -9.700;  -59.000;  -39.000
245.528; -120.850; -871.000; -705.000
245.670;   75.325;  612.000;  634.000
245.813;  -96.700; -599.000; -547.000
245.956;  -45.900; -324.000; -275.000
246.098;  -75.825; -508.000; -650.000
246.241;   -6.100;  194.000;   48.000
246.383;  -13.300; -119.000;  -73.000
246.526;  -84.100; -454.000; -525.000
246.669; -119.150; -889.000; -780.000
246.811;   18.675;  172.000;   -1.000
246.954;  -49.975; -512.000; -426.000
247.096;  -23.275;  -84.000;   -6.000
247.239;  -68.275; -482.000; -445.000
247.381;  -84.625; -647.000; -488.000
247.524;   80.375;  645.000;  679.000
247.666;  -14.650;   58.000;   11.000
247.809; -117.575; -887.000; -691.000
247.951;  -17.775;  -75.000;  138.000
248.094;   28.725;  432.000;  308.000
248.236; -160.575;-1262.000;-1238.000
248.378;    4.500; -356.000;  -81.000
248.521;  -32.675; -334.000; -337.000
248.663;  -29.450; -236.000; -267.000
248.806;  -27.400; -300.000; -266.000
248.948;  -90.575; -886.000; -763.000
249.090;  -45.850; -428.000; -398.000
249.233;  -47.675; -344.000; -381.000
249.375;  -62.250; -474.000; -451.000
249.518;  -24.775;  -83.000; -133.000
249.660;  -17.325; -103.000;    3.000
249.802; -168.975;-1303.000;-1189.000
249.945;  -71.775; -612.000; -540.000
250.087; -120.350; -834.000; -768.000
250.229;  -64.425; -362.000; -480.000
250.371;  -74.675; -494.000; -439.000
250.514;  -44.750; -310.000; -244.000
250.656;   -9.525;   69.000;  102.000
250.798; -122.075; -849.000; -800.000
250.940;  -67.775; -322.000; -322.000
251.083;  -24.300; -335.000; -111.000
251.225;   70.500;  338.000;  310.000
251.367;  -43.100; -274.000; -373.000
251.509;  -30.500; -265.000; -210.000
251.651;  -89.650; -731.000; -671.000
251.794;   46.800;  538.000;  632.000
251.936; -101.950; -821.000; -747.000
252.078;  -76.125; -540.000; -461.000
252.220;  -61.550; -645.000; -477.000
252.362;   88.200;  344.000;  462.000
252.504;  -69.075; -677.000; -584.000
252.646; -108.950; -875.000; -722.000
252.788;   -0.750;   14.000; -128.000
252.931;  -33.050; -257.000; -253.000
253.073;  -43.900; -376.000; -317.000
253.215;   -3.250;  141.000;  122.000
253.357;  -17.500;   82.000; -153.000
253.499;  -45.175; -374.000; -234.000
253.641;  -83.250; -749.000; -594.000
253.783;  -95.475; -609.000; -527.000
253.925;  -84.450; -586.000; -591.000
254.067; -114.750; -744.000; -667.000
254.209;  -44.175; -391.000; -259.000
254.351; -123.400; -865.000; -883.000
254.493;  -78.575; -441.000; -417.000
254.635; -112.075; -936.000; -818.000
254.777;  -89.200; -752.000; -687.000
254.918;  -72.275; -512.000; -430.000
255.060;  -64.700; -551.000; -395.000
255.202;  -54.450; -473.000; -261.000
255.344;  -82.150; -658.000; -455.000
255.486;  -64.525; -471.000; -406.000
255.628; -107.000; -780.000; -781.000
255.770; -111.825; -676.000; -536.000
255.912;  -56.450; -559.000; -468.000
256.053;  -98.300; -730.000; -508.000
256.195;  149.100; 1008.000;  903.000
256.337; -101.475; -861.000; -595.000
256.479;   33.300;  532.000;  416.000
256.621;  -40.900; -394.000; -212.000
256.762; -101.300; -789.000; -742.000
256.904;   45.250;  485.000;  487.000
257.046;  -37.825; -381.000; -271.000
257.188;  -39.075; -351.000; -264.000
257.329;  -74.000; -525.000; -464.000
257.471; -112.475; -939.000; -807.000
257.613;  -59.875; -584.000; -498.000
257.755; -141.875;-1073.000; -982.000
257.896;   29.400;  286.000;  392.000
258.038;  -64.975; -403.000; -352.000
258.180;  -34.175; -354.000; -279.000
258.321;  -85.575; -581.000; -457.000
258.463;   -5.425;  -71.000;  133.000
258.605;  -85.900; -562.000; -570.000
258.746;  -92.050; -886.000; -772.000
258.888; -152.450;-1026.000;-1020.000
259.029;   22.875;  121.000;   -8.000
259.171;  -89.325; -614.000; -550.000
259.313;   -5.275;  -49.000;  -47.000
259.454;  -74.450; -536.000; -414.000
259.596;  -65.750; -483.000; -390.000
259.737;  -76.075; -590.000; -474.000
259.879;   41.675;  217.000;  311.000
260.020;   87.025;  901.000;  636.000
260.162;  -35.575; -146.000; -253.000
260.303; -110.150; -768.000; -687.000
260.445;  -82.000; -609.000; -613.000
260.586;   29.925;  392.000;  157.000
260.728;  -54.300; -360.000; -248.000
260.869;  -98.000; -350.000; -343.000
261.011;   68.575;  706.000;  537.000
261.152;  -60.025; -479.000; -319.000
261.293;  -73.700; -576.000; -595.000
261.435;  -28.100; -219.000; -184.000
261.576;  -56.200; -455.000; -325.000
261.718;   55.250;  420.000;  470.000
261.859; -132.725; -940.000; -949.000
262.000; -118.750; -951.000;-1016.000
262.142;  -33.025;  -52.000;  -60.000
262.283; -114.050; -808.000; -691.000
262.424;  -89.925; -666.000; -625.000
262.566; -155.400;-1161.000; -983.000
262.707; -116.575; -840.000; -830.000
262.848; -123.325; -769.000; -726.000
262.990;  -49.725; -362.000; -345.000
263.131;   84.350;  650.000;  681.000
263.272;   -2.850;  -61.000;  -41.000
263.413;  -87.450; -589.000; -561.000
263.555;  -62.625; -669.000; -143.000
263.696;  -74.975; -550.000; -641.000
263.837;  -69.050; -449.000; -551.000
263.978;  -12.175;   -5.000;  -77.000
264.119;  -40.850; -283.000; -264.000
264.261;  -97.500; -847.000; -630.000
264.402;   -3.300;   33.000;   40.000
264.543;  -74.950; -509.000; -524.000
264.684;  -26.475;   61.000;  -50.000
264.825;  -60.175; -816.000; -538.000
264.966;    0.875;  -84.000;  -67.000
265.107; -117.475; -646.000; -670.000
265.248; -108.225; -825.000; -812.000
265.390;  -11.300;  152.000;   -9.000
265.531;  -30.375; -238.000; -107.000
265.672;  -93.900; -557.000; -630.000
265.813;   75.575;  563.000;  439.000
265.954; -152.525; -959.000; -940.000
266.095;  -20.125; -372.000; -322.000
266.236; -108.350; -686.000; -548.000
266.377;  -37.125; -243.000; -297.000
266.518;  -65.250; -619.000; -547.000
266.659;   17.075;  170.000;  268.000
266.800;   -2.400;   83.000;   85.000
266.941;  -85.650; -487.000; -478.000
267.082;    8.475;  354.000;   99.000
267.223;  -58.275; -344.000; -273.000
267.364; -118.075; -892.000; -686.000
267.504;   -8.825;    3.000;  135.000
267.645;   -8.675;  160.000;   67.000
267.786;  -41.325; -147.000;  -86.000
267.927;  -57.600; -473.000; -379.000
268.068;   -8.875; -186.000;  -61.000
268.209;  -39.225; -175.000; -413.000
268.350;  -67.150; -388.000; -532.000
268.490;  -72.900; -648.000; -521.000
268.631;   21.100;  127.000;  225.000
268.772; -106.500; -874.000; -647.000
268.913;  -39.575; -328.000; -476.000
269.054;   -7.925; -117.000;   12.000
269.194;  -60.475; -418.000; -402.000
269.335; -176.450;-1137.000;-1074.000
269.476;  -16.300;   33.000;  -35.000
269.617;  -36.650; -347.000; -392.000
269.757;  -85.675; -713.000; -646.000
269.898; -111.300; -856.000; -613.000
270.039;  -47.050; -415.000; -405.000
270.180; -135.925; -952.000; -816.000
270.320;  -33.075; -190.000; -250.000
270.461;  -44.200; -277.000; -249.000
270.602;   -6.800; -186.000; -156.000
270.742; -127.075; -868.000; -943.000
270.883;  -48.950; -442.000; -390.000
271.023;  -59.400; -358.000; -357.000
271.164;  -69.750; -607.000; -528.000
271.305;  -93.275; -666.000; -654.000
271.445;  -83.700; -722.000; -683.000
271.586;  -59.250; -462.000; -283.000
271.726;  -51.375; -397.000; -322.000
271.867;  -44.525; -594.000; -534.000
272.008;  205.875; -473.000; -285.000
272.148;  148.500;  462.000;  468.000
272.289;   11.925; -113.000; -181.000
272.429;   25.100;   19.000;  185.000
272.570;  -89.575; -633.000; -737.000
272.710; -100.550; -825.000; -775.000
272.851;  -24.825;  113.000; -130.000
272.991; -156.925;-1173.000;-1077.000
273.131;  -59.950; -419.000; -459.000
273.272;  -92.575; -683.000; -723.000
273.412;   12.975; -143.000;  -31.000
273.553;  -56.225; -488.000; -507.000
273.693;  125.075;  913.000;  858.000
273.834;  -89.725; -894.000; -692.000
273.974;  -69.750; -664.000; -615.000
274.114;  -94.825; -772.000; -560.000
274.255;   79.075;  414.000;  373.000
274.395;    5.500; -180.000; -125.000
274.535;   45.700;  199.000;  350.000
274.676;   27.375;  225.000;   94.000
274.816;   -5.650;  110.000;   34.000
274.956;  -76.750; -624.000; -690.000
275.097;  -59.275;-1014.000; -922.000
275.237;  -95.900; -913.000; -803.000
275.377; -116.800; -778.000; -689.000
275.517; -151.300; -878.000; -937.000
275.658;  -61.025; -590.000; -555.000
275.798;  -56.800; -606.000; -413.000
275.938;   24.575;  215.000;  323.000
276.078;  -88.875; -626.000; -395.000
276.218;   -0.850;   99.000;  104.000
276.359; -129.125;-1026.000;-1024.000
276.499;  -76.400; -605.000; -446.000
276.639;  -34.200; -305.000; -151.000
276.779;  -56.550; -475.000; -357.000
276.919; -105.925; -783.000; -624.000
277.059;  -21.125; -261.000; -212.000
277.199;  -42.475; -357.000; -259.000
277.340;   43.850;  287.000;  175.000
277.480; -105.475; -840.000; -693.000
277.620;   20.525;  192.000;   16.000
277.760; -179.175;-1533.000;-1294.000
277.900;    6.750;  113.000;   33.000
278.040;   32.225;  137.000;  159.000
278.180;   29.050;  270.000;  170.000
278.320;   -3.125;   21.000;   56.000
278.460;  -61.550; -443.000; -469.000
278.600;  -85.000; -708.000; -598.000
278.740;   44.625;  448.000;  224.000
278.880;  -31.525; -768.000; -791.000
279.020;    5.075; -194.000; -144.000
279.160;  -83.425; -672.000; -595.000
279.300; -124.550; -926.000; -873.000
279.440;  -88.075; -709.000; -622.000
279.579;  -11.025;-1014.000; -929.000
279.719;  -40.225; -410.000; -394.000
279.859;   75.075;   -4.000;   41.000
279.999;   32.650; -208.000;  101.000
280.139;   -2.875; -435.000; -387.000
280.279;  -74.650; -708.000; -745.000
280.419;  -19.325; -229.000; -147.000
280.559;  -21.575; -259.000; -180.000
280.698;  -77.000; -790.000; -639.000
280.838;  -75.950; -778.000; -800.000
280.978; -103.025; -846.000; -790.000
281.118; -107.975; -811.000; -704.000
281.257;   12.675;   24.000;    6.000
281.397;  -88.850;-1094.000; -960.000
281.537; -102.025; -599.000; -712.000
281.677;  -12.025; -150.000; -101.000
281.816; -100.350; -700.000; -630.000
281.956;  -25.100; -193.000; -257.000
282.096;  -66.875; -539.000; -396.000
282.235;  -92.175; -672.000; -638.000
282.375;  -17.625; -243.000;  -98.000
282.515; -107.525; -715.000; -707.000
282.654;   26.400;   29.000;  106.000
282.794;   34.550;  388.000;  244.000
282.934;  -44.850; -530.000; -491.000
283.073; -129.850;-1030.000; -857.000
283.213;  -61.450; -460.000; -467.000
283.353;  -28.550; -408.000; -349.000
283.492;  -21.975; -264.000; -296.000
283.632;  -36.325; -254.000; -168.000
283.771;  -86.300; -859.000; -730.000
283.911;  -50.200; -369.000; -260.000
284.050; -109.300; -794.000; -748.000
284.190; -165.100;-1229.000;-1096.000
284.329; -149.025;-1055.000; -964.000
284.469;  -43.150; -516.000; -591.000
284.608;  -71.000; -559.000; -598.000
284.748;  -83.875; -614.000; -570.000
284.887;   -5.000;  -87.000;  -20.000
285.027; -122.850; -844.000; -892.000
285.166;  -52.000; -192.000; -249.000
285.306;   21.450; -116.000;  -33.000
285.445;  -44.425; -229.000; -343.000
285.584;  -93.325; -630.000; -494.000
285.724;  -51.975; -282.000; -322.000
285.863; -104.550; -857.000; -507.000
286.002;  -44.725; -366.000; -276.000
286.142; -100.725; -715.000; -622.000
286.281;  -70.300; -525.000; -493.000
286.420;  -77.075; -554.000; -417.000
286.560;   86.425;  653.000;  623.000
286.699; -123.400; -958.000; -912.000
286.838;  -74.850; -590.000; -591.000
286.978;  -85.350; -533.000; -537.000
287.117; -133.825;-1085.000; -950.000
287.256;  -21.925; -228.000; -211.000
287.395;  -39.875; -197.000; -378.000
287.535;  -35.925; -370.000; -298.000
287.674;  -75.000; -509.000; -484.000
287.813;   52.125;  661.000;  533.000
287.952; -120.400;-1010.000; -871.000
288.091; -138.425;-1049.000; -915.000
288.231;   22.975;   13.000;   15.000
288.370; -153.625;-1217.000;-1200.000
288.509;  -86.075; -728.000; -645.000
288.648;  -93.200; -770.000; -548.000
288.787;  -39.825; -243.000;  -87.000
288.926;  -55.600; -454.000; -475.000
289.065;  114.850;  859.000;  672.000
289.204;  -51.075; -377.000; -217.000
289.344;  -79.350; -791.000; -690.000
289.483;   27.175;  416.000;  304.000
289.622;  -23.900; -291.000; -149.000
289.761;  -12.525; -309.000; -166.000
289.900; -108.575; -785.000; -626.000
290.039;  -26.650;  -12.000;  -95.000
290.178;  -37.975; -274.000; -180.000
290.317;  -88.250; -618.000; -479.000
290.456;  -68.725; -463.000; -451.000
290.595; -128.225; -961.000; -833.000
290.734; -137.225; -904.000; -891.000
290.873;  -74.575; -456.000; -420.000
291.011; -122.275; -833.000; -843.000
291.150;  -91.250; -770.000; -682.000
291.289;  -19.250; -343.000; -110.000
291.428;  -93.900; -599.000; -480.000
291.567;  -49.850; -370.000; -442.000
291.706;  -13.150;  109.000;  154.000
291.845;  -82.550; -597.000; -505.000
291.984; -170.600;-1234.000;-1061.000
292.122;   57.400;  602.000;  582.000
292.261;   44.525;  620.000;  463.000
292.400;   10.850; -144.000;  211.000
292.539; -120.550; -959.000; -813.000
292.678;  -40.825; -325.000; -300.000
292.816; -138.900;-1136.000; -965.000
292.955;  -87.400; -844.000; -684.000
293.094;  -12.225; -173.000; -337.000
293.233;  -57.850; -556.000; -400.000
293.371;  -33.650; -225.000;  -84.000
293.510; -105.575; -866.000; -780.000
293.649; -122.075; -959.000; -924.000
293.787;  -49.825;-1083.000;-1012.000
293.926;   -2.725; -113.000;  -32.000
294.065;  -41.600; -379.000; -290.000
294.203;   55.150;  298.000;  406.000
294.342;   17.225;   74.000;  156.000
294.481; 6223.700;51180.000; -836.000
294.619;  -31.050; -425.000; -582.000
294.758; -130.625;-1230.000;-1137.000
294.896;   95.850; -125.000;    5.000
295.035; -110.525;-1040.000;-1006.000
295.174; -106.700;-1082.000; -954.000
295.312;  -31.850; -323.000; -203.000
295.451;  -13.950; -307.000; -428.000
295.589;  -23.775; -389.000; -518.000
295.728;   33.150; -292.000; -165.000
295.866;   -0.225;  -36.000;  -51.000
296.005;  -62.050; -584.000; -341.000
296.143;  -65.325; -558.000; -596.000
296.282; -100.200; -957.000; -881.000
296.420;  -74.225; -657.000; -557.000
296.559;  -77.050; -892.000; -633.000
296.697;   57.300; -847.000; -665.000
296.835;  109.925;-1141.000;-1002.000
296.974;   65.175;  -23.000;   39.000
297.112;   28.925; -443.000; -504.000
297.251;  -64.850; -815.000; -755.000
297.389;  142.750; -576.000; -438.000
297.527;   56.425; -145.000;  -83.000
297.666;  -53.550; -486.000; -438.000
297.804;  -44.125; -404.000; -264.000
297.942;   -4.400; -136.000; -161.000
298.081;    8.850; -183.000;   63.000
298.219;   78.025;  -17.000;  -19.000
298.357;   67.975; -144.000;  -71.000
298.495;   67.525; -810.000; -812.000
298.634;  103.200;  245.000;  219.000
298.772;   84.200; -220.000; -338.000
298.910;  -13.650; -309.000; -182.000
299.048;   -2.375; -130.000; -153.000
299.187;  -28.500; -350.000; -250.000
299.325;   29.975;   52.000;  122.000
299.463;   85.300; -389.000; -299.000
299.601;  135.925; -327.000; -271.000
299.739;  -94.525; -908.000; -883.000
299.877;  -67.850; -791.000; -703.000
300.016;  -30.900;-1095.000; -935.000
300.154;  189.475;  -19.000; -161.000
300.292;   97.600; -428.000; -348.000
300.430;   39.925; -408.000; -291.000
300.568;  -87.475; -940.000; -874.000
300.706;  -49.250; -366.000; -469.000
300.844;  -46.100;-1108.000; -979.000
300.982;  130.525;  246.000;  282.000
301.120;  -99.475; -965.000; -866.000
301.258;  -56.350; -812.000; -705.000
301.396;   30.150;  104.000;  -41.000
301.534;  103.575; -218.000; -293.000
301.672;   25.800; -664.000; -521.000
301.810;   66.625; -613.000; -545.000
301.948;  159.200;   53.000;  149.000
302.086;  764.325; -250.000;  -32.000
302.224; 1145.925; -610.000; -585.000
302.362;   71.975; -558.000; -622.000
302.500;   19.100; -923.000; -893.000
302.638;  127.275;  128.000;  245.000
302.776;   14.125; -352.000; -408.000
302.913;   35.350;  447.000;  236.000
303.051;   16.300;  -86.000;  -23.000
303.189;   60.050;   90.000;  118.000
303.327;  -29.475; -341.000; -256.000
303.465;  -71.875; -832.000; -588.000
303.603;  -84.375; -805.000; -604.000
303.740;  107.700;  417.000;  241.000
303.878;   61.700; -800.000; -759.000
304.016;  -73.700; -915.000; -790.000
304.154; -106.950;-1123.000;-1152.000
304.291;  -22.300; -505.000; -554.000
304.429;   17.150;  102.000;   74.000
304.567; -114.600; -908.000; -893.000
304.705;  -42.325; -408.000; -515.000
304.842;  138.175; -616.000; -540.000
304.980;   75.750;  215.000;   35.000
305.118;   63.075; -367.000; -365.000
305.255;  -58.975; -945.000; -927.000
305.393;   65.625;  178.000;  239.000
305.531;  -76.250;-1173.000; -956.000
305.668;  -56.050; -663.000; -582.000
305.806;  139.125; -358.000; -439.000
305.943;  135.100; -629.000; -637.000
306.081;   80.400; -378.000; -267.000
306.219;  -89.075; -863.000; -748.000
306.356;   -8.150;  158.000;   27.000
306.494;  106.125;  981.000;  761.000
306.631;    9.200;  -11.000;  -55.000
306.769;   12.575; -613.000; -485.000
306.906;   -9.850; -284.000; -258.000
307.044;  -59.425; -473.000; -488.000
307.181;  -59.875; -410.000; -332.000
307.319;    3.300;  112.000;   87.000
307.456; -166.425;-1191.000;-1153.000
307.594;  -84.300; -980.000; -727.000
307.731;    3.400; -371.000; -164.000
307.868;  -17.975;  -15.000;   20.000
308.006; -127.025; -961.000; -847.000
308.143;  -61.800; -618.000; -330.000
308.281;  237.525;  -37.000; -254.000
308.418;    9.125; -748.000; -640.000
308.555;  -61.000; -400.000; -250.000
308.693;  -78.475; -577.000; -573.000
308.830; -103.175; -712.000; -657.000
308.967;  -12.400; -215.000;  -95.000
309.105;  -38.425; -507.000; -396.000
309.242;   76.550; -468.000; -367.000
309.379;  451.375; -577.000; -655.000
309.517;  -44.925; -936.000; -948.000
309.654;  -95.600; -910.000; -734.000
309.791;  -67.725; -662.000; -580.000
309.928; -106.850; -977.000; -914.000
310.065;  185.075;  819.000;  697.000
310.203;   12.175; -825.000; -850.000
310.340;   -2.550; -465.000; -321.000
310.477;  -74.825; -412.000; -516.000
310.614;  -76.425; -383.000; -473.000
310.751;  -72.075; -427.000; -518.000
310.889;   -6.950;    1.000;   11.000
311.026; -127.800;-1161.000; -939.000
311.163;  -51.000; -386.000; -380.000
311.300;  -76.225; -512.000; -479.000
311.437;  -79.600; -658.000; -619.000
311.574; -153.325;-1226.000; -985.000
311.711;  -64.450; -595.000; -433.000
311.848;  -43.425; -380.000; -388.000
311.985;    8.100;  270.000;   93.000
312.122; -102.975; -932.000; -762.000
312.259; -111.575; -941.000; -994.000
312.396;  -77.100; -508.000; -551.000
312.533;  -90.300; -812.000; -790.000
312.670; -117.975;-1070.000; -898.000
312.807;  -31.500; -352.000; -367.000
312.944;  -62.700; -513.000; -611.000
313.081;  -39.525; -150.000; -415.000
313.218; -101.375;-1111.000; -867.000
313.355;   30.850; -531.000; -449.000
313.492;   18.975; -455.000; -292.000
313.629;  126.800;  815.000;  735.000
313.766; -145.150;-1176.000;-1008.000
313.902;  -13.425; -186.000;   21.000
314.039;  -48.450; -372.000; -289.000
314.176;   21.575;  286.000;  192.000
314.313;  -56.050; -569.000; -473.000
314.450;  -66.800; -788.000; -684.000
314.587;  -43.450; -468.000; -480.000
314.723;   -0.525;  -78.000;  130.000
314.860;   41.750;  318.000;  332.000
314.997;   27.475;  223.000;  142.000
315.134;  -36.350; -385.000; -368.000
315.270;  -27.100; -480.000; -496.000
315.407; -119.225;-1094.000; -967.000
315.544;  -42.975; -657.000; -538.000
315.681;  -55.525; -681.000; -565.000
315.817;   30.600; -133.000; -176.000
315.954;   28.125; -613.000; -392.000
316.091; -125.900;-1045.000;-1023.000
316.227;  -22.050;  -71.000; -179.000
316.364;   -2.250;   23.000;    6.000
316.500;  -26.525; -113.000; -300.000
316.637;  -48.925; -181.000; -302.000
316.774;  -81.175; -625.000; -358.000
316.910;  -95.050; -598.000; -629.000
317.047;  -66.275; -487.000; -351.000
317.183;  -41.725; -435.000; -566.000
317.320;   -8.600; -367.000; -321.000
317.456;  -72.950; -733.000; -805.000
317.593;  -76.100; -598.000; -641.000
317.729;   -5.225;  168.000;  -67.000
317.866; -192.875;-1434.000;-1285.000
318.002;  -72.625; -708.000; -948.000
318.139;  -74.250; -883.000; -867.000
318.275; -110.800;-1003.000; -738.000
318.412;  -56.125; -517.000; -336.000
318.548;   -8.525; -751.000; -720.000
318.685;  -90.800; -985.000; -888.000
318.821;  -95.025; -762.000; -735.000
318.957;   -7.925;   34.000;  -23.000
319.094;   25.375;  297.000;  154.000
319.230;  -52.775; -756.000; -742.000
319.367;  175.175; -471.000; -520.000
319.503;   79.900; -538.000; -436.000
319.639;  -87.625; -877.000; -793.000
319.775;  -46.500; -750.000; -685.000
319.912;  -60.375; -424.000; -519.000
320.048;  -71.925;-1184.000;-1184.000
320.184;   65.600;   59.000;   70.000
320.321;  -61.275; -497.000; -467.000
320.457;   47.375;  475.000;  662.000
320.593;  -67.450; -375.000; -382.000
320.729; -113.875; -732.000; -734.000
320.866;  -78.000; -577.000; -635.000
321.002;  -73.325; -759.000; -809.000
321.138;    5.150; -135.000; -211.000
321.274;   83.225; -148.000; -115.000
321.410;  -18.425; -585.000; -353.000
321.546;   -6.175;-1011.000; -911.000
321.683;   61.975;  400.000;  185.000
321.819;   -7.900;  -48.000; -117.000
321.955; -119.875; -743.000; -722.000
322.091;  -46.925; -585.000; -540.000
322.227;    4.725; -382.000; -202.000
322.363;   -9.500; -320.000; -215.000
322.499;  -33.100; -343.000; -331.000
322.635;  180.350;  636.000;  443.000
322.771;   33.900; -139.000;   12.000
322.907;  110.225;  129.000;  327.000
323.043;  -13.875; -115.000; -206.000
323.179;  -41.400; -394.000; -363.000
323.315;   61.425; -401.000; -371.000
323.451;  137.900; -328.000; -236.000
323.587;   74.725;  -60.000;  -77.000
323.723;   29.750; -682.000; -601.000
323.859;   -6.700; -258.000;  -76.000
323.995;   -9.525; -467.000; -409.000
324.131; -115.950; -967.000; -892.000
324.267;  -34.075; -254.000; -276.000
324.402; -125.575; -960.000; -983.000
324.538;   -9.875; -279.000; -104.000
324.674;   24.075;  164.000;   77.000
324.810;  164.175;  226.000;  308.000
324.946;   45.225; -810.000; -658.000
325.082;  -69.050; -568.000; -475.000
325.217;    2.600;  -62.000;   16.000
325.353; -107.075; -764.000; -659.000
325.489;  -77.200; -540.000; -506.000
325.625;  -74.225; -579.000; -525.000
325.760;   59.275;  517.000;  376.000
325.896;  -34.975; -515.000; -702.000
326.032;  -45.050; -403.000; -352.000
326.168;  -69.050; -462.000; -369.000
326.303;  -57.325; -352.000; -461.000
326.439;  -30.175; -336.000; -276.000
326.575;    8.800; -190.000;  -29.000
326.710;   -8.425; -156.000;  -30.000
326.846;  -13.775;  146.000;  103.000
326.982;  -96.000; -530.000; -548.000
327.117;  -71.575; -481.000; -442.000
327.253;  -87.825; -745.000; -742.000
327.388; -162.575;-1137.000;-1153.000
327.524;  -19.525; -811.000; -578.000
327.659;  -18.575;  -58.000;  -22.000
327.795;  -21.300;   69.000;   45.000
327.931;  -83.425; -723.000; -499.000
328.066;  -36.875; -417.000; -276.000
328.202;  -18.100;   12.000; -129.000
328.337;  108.250;  957.000;  713.000
328.473;   42.175;  -12.000;  -74.000
328.608;  -26.625; -256.000; -267.000
328.743;  -75.175; -799.000; -664.000
328.879;   12.425;  214.000;  114.000
329.014;  -31.250; -102.000; -122.000
329.150;  -84.125; -358.000; -483.000
329.285;  -67.625; -465.000; -466.000
329.421;  -50.575; -548.000; -246.000
329.556;  -31.225;  -36.000;   85.000
329.691;  -91.950; -633.000; -615.000
329.827;  -82.625; -626.000; -480.000
329.962;  -54.150;  131.000; -301.000
330.097;  -86.775; -673.000; -585.000
330.233;  -56.900; -410.000; -223.000
330.368; -117.000; -839.000; -628.000
330.503;  -17.750;    3.000;   98.000
330.638;    4.275;  -93.000; -125.000
330.774;  -56.475; -609.000; -530.000
330.909;  -42.175; -434.000; -244.000
331.044;  -89.450; -714.000; -708.000
331.179; -162.825;-1217.000;-1109.000
331.315;    6.875;   77.000;   20.000
331.450;   12.475;  157.000;  285.000
331.585;  -87.625; -805.000; -706.000
331.720;  -74.200; -510.000; -460.000
331.855;  -13.200;  -35.000; -102.000
331.990;  223.500;   62.000;  138.000
332.126;  120.500; -110.000;   71.000
332.261;  -14.875; -379.000; -265.000
332.396;    1.325; -135.000; -242.000
332.531;  -98.975;-1074.000;-1031.000
332.666;   16.875; -519.000; -363.000
332.801;  -81.725; -726.000; -807.000
332.936;  -32.225; -192.000; -122.000
333.071; -144.200; -870.000; -817.000
333.206;   -0.225;  307.000;  379.000
333.341;   18.525;  344.000;  418.000
333.476;  -89.625; -627.000; -623.000
333.611;  -40.550; -251.000; -173.000
333.746;  -37.875; -381.000; -464.000
333.881; -107.400; -973.000; -935.000
334.016; -117.775; -936.000; -917.000
334.151; -112.125; -746.000; -702.000
334.286;   22.300;  152.000;  186.000
334.421;  -20.900; -125.000; -178.000
334.556;  -80.350; -611.000; -567.000
334.690;  -80.250; -631.000; -577.000
334.825;   57.125;  381.000;   83.000
334.960;  -52.950; -285.000; -413.000
335.095;   -1.400;  135.000;  -91.000
335.230;  -89.350; -722.000; -738.000
335.365; -132.525;-1084.000; -990.000
335.499; -114.100;-1108.000;-1037.000
335.634;   29.050;    9.000;  534.000
335.769;  -91.075; -755.000; -720.000
335.904;  -54.800; -603.000; -561.000
336.038;  -49.150; -735.000; -657.000
336.173;  -96.750;-1206.000;-1194.000
336.308;   31.625; -116.000; -189.000
336.443;    8.975; -544.000; -634.000
336.577;  -69.250; -936.000; -787.000
336.712;   71.800;   -4.000;  -12.000
336.847;  -15.650; -724.000; -607.000
336.981;   88.275; -272.000; -208.000
337.116;  324.925;  615.000;  501.000
337.250;  217.950; -434.000; -421.000
337.385;  219.450; -297.000; -208.000
337.520;   55.475; -632.000; -603.000
337.654;  -40.825; -215.000; -126.000
337.789; -123.325; -989.000; -933.000
337.923;  -32.725; -104.000; -205.000
338.058;  -79.850; -673.000; -738.000
338.192;  -29.550; -611.000; -488.000
338.327;   -6.525;  -18.000; -155.000
338.461;  -45.275; -299.000; -469.000
338.596;  -95.900; -780.000; -638.000
338.730; -103.625; -767.000; -803.000
338.865;   89.000;  -46.000; -140.000
338.999;  -43.575; -846.000; -702.000
339.134;  -23.825; -634.000; -536.000
339.268;   21.250; -741.000; -603.000
339.403;  351.125; -740.000; -775.000
339.537;  109.475; -894.000; -820.000
339.671; -127.375; -829.000; -813.000
339.806;  -51.400; -556.000; -512.000
339.940;   -5.575; -261.000; -235.000
340.074;  -90.800; -685.000; -510.000
340.209;  -69.050; -351.000; -230.000
340.343;  -80.450; -517.000; -573.000
340.477;  150.400;  998.000; 1036.000
340.612;  -59.800;-1033.000; -900.000
340.746;  123.275; -199.000; -243.000
340.880;  -51.625; -924.000; -785.000
341.014;  -19.325;  -45.000; -154.000
341.149; -105.550; -756.000; -718.000
341.283; -118.000; -839.000; -754.000
341.417;  -77.300;-1124.000; -938.000
341.551;  188.450; -768.000; -708.000
341.685;   -9.825; -633.000; -611.000
341.820;  -47.125; -562.000; -493.000
341.954;  -41.250; -218.000; -349.000
342.088; -149.000;-1102.000;-1019.000
342.222;   47.875;  565.000;  618.000
342.356;  -55.000; -395.000; -335.000
342.490;  -84.475; -880.000; -841.000
342.624;  -48.725; -339.000; -242.000
342.758;   17.400; -364.000; -312.000
342.892;  -68.050; -710.000; -585.000
343.026;  -25.000;  -58.000; -116.000
343.160;  -67.800; -426.000; -376.000
343.294;  -81.000; -474.000; -337.000
343.428;   -2.700; -488.000; -448.000
343.562;   -2.575; -172.000;  -23.000
343.696;  -30.925; -385.000; -314.000
343.830;   -2.300; -362.000; -356.000
343.964;   17.525; -231.000; -168.000
344.098; 1168.650;  199.000;   70.000
344.232;  932.175; -266.000; -127.000
344.366;  112.150; -567.000; -453.000
344.500;   98.900; -665.000; -744.000
344.634;   51.950; -324.000; -164.000
344.768;   14.275; -531.000; -341.000
344.902;   26.125;  278.000;  256.000
345.035;  -59.625; -556.000; -496.000
345.169; -134.575; -933.000; -656.000
345.303;  -11.800; -308.000; -482.000
345.437;  -49.200; -826.000; -717.000
345.571;  -71.800; -675.000; -594.000
345.704;  -65.525; -309.000; -532.000
345.838;  -16.675; -331.000; -284.000
345.972;  -32.650; -543.000; -495.000
346.106;  145.250; -179.000; -190.000
346.239;  454.125; -312.000; -243.000
346.373;   11.800; -343.000; -302.000
346.507; -122.850; -950.000; -962.000
346.640;  190.925;  -30.000;   13.000
346.774;  -25.625; -650.000; -797.000
346.908;   -8.000; -138.000;  -11.000
347.041;  -98.350; -646.000; -593.000
347.175;   20.125;  259.000;   27.000
347.309;  -65.600; -698.000; -628.000
347.442;  -86.750; -883.000; -732.000
347.576;  324.800;  670.000;  668.000
347.709;  262.575; -123.000;  -52.000
347.843;  -69.600; -933.000; -825.000
347.976;   34.475;  235.000;  294.000
348.110; -167.625;-1268.000;-1186.000
348.243;  -96.675; -679.000; -772.000
348.377;    1.650;  -26.000;   60.000
348.510;   49.825;  403.000;  540.000
348.644;  -38.000;  -37.000; -159.000
348.777;   -2.125;  180.000;  191.000
348.911;  -55.225; -142.000; -112.000
349.044;  198.575;  471.000;  448.000
349.178;  243.475;-1069.000;-1006.000
349.311;  133.650;  141.000;  255.000
349.444;   -6.825; -927.000; -813.000
349.578;  -10.850; -347.000; -200.000
349.711;  -74.150; -959.000; -862.000
349.845;   19.150; -661.000; -591.000
349.978; -135.600;-1224.000;-1137.000
350.111;  -87.650; -546.000; -612.000
350.244;  -58.325; -596.000; -700.000
350.378;   18.800; -392.000; -393.000
350.511;  -72.800; -393.000; -426.000
350.644; -106.825; -808.000; -806.000
350.778;   22.725;  168.000;  104.000
350.911;    8.525;  134.000;  140.000
351.044;  -89.225; -685.000; -615.000
351.177;  -28.275; -321.000; -281.000
351.310;  -24.350;    3.000; -131.000
351.444;  -59.050; -888.000; -788.000
351.577;  160.450;  140.000;   90.000
351.710;  104.325;  593.000;  417.000
351.843;  -21.675; -165.000;  -77.000
351.976;    9.625;  149.000;  -79.000
352.109;  -59.225; -621.000; -612.000
352.242;  -19.475; -464.000; -419.000
352.376;  -42.325; -580.000; -636.000
352.509;  245.825; -437.000; -356.000
352.642;   46.525; -654.000; -604.000
352.775;   98.275; -141.000;  -98.000
352.908;  -95.525; -933.000; -904.000
353.041;  -91.050; -814.000; -824.000
353.174;  -46.900; -551.000; -424.000
353.307;  -76.150; -753.000; -764.000
353.440;   71.825;  541.000;  453.000
353.573; -100.550; -957.000;-1008.000
353.706;  -35.400; -384.000; -558.000
353.839;  -20.275; -264.000; -220.000
353.971;  -73.975; -657.000; -512.000
354.104;  -73.450; -896.000; -835.000
354.237;   -5.250; -627.000; -662.000
354.370;  -77.025; -846.000; -879.000
354.503; -166.500;-1231.000;-1308.000
354.636;  -29.075; -529.000; -348.000
354.769; -116.300; -937.000; -860.000
354.902;   -4.025; -230.000; -139.000
355.034;  -15.825; -164.000; -220.000
355.167;  -13.000; -262.000; -162.000
355.300;  -81.425;-1061.000; -880.000
355.433;  910.200;  -71.000;  -14.000
355.565; 1441.025; -402.000; -384.000
355.698;  372.250; -356.000; -296.000
355.831;   20.425; -882.000; -801.000
355.964;  123.125; -285.000; -170.000
356.096;  -53.750; -856.000; -843.000
356.229;   20.275; -523.000; -530.000
356.362;  287.200; -373.000; -266.000
356.494;  576.750; -229.000; -162.000
356.627;  566.975;  269.000;  377.000
356.760;  658.950;  120.000;   53.000
356.892;  900.650; -286.000; -601.000
357.025;  789.850;  403.000;  389.000
357.157;  753.200; -167.000; -179.000
357.290;  603.300; -856.000; -713.000
357.423;  205.025; -667.000; -556.000
357.555;  133.275; -217.000; -228.000
357.688;  169.800; -483.000; -364.000
357.820;  565.325; -870.000; -877.000
357.953; 4265.725; -563.000; -589.000
358.085; 1003.500; -632.000; -612.000
358.218; 1562.825;-1131.000; -932.000
358.350;  298.825;  -58.000;  312.000
358.483;  -96.900;-1300.000;-1187.000
358.615;   36.925;-1182.000;-1078.000
358.747;  -17.650;-1187.000;-1058.000
358.880;   55.200; -810.000; -744.000
359.012;   12.625; -376.000; -202.000
359.145;  -28.500; -480.000; -511.000
359.277;  114.150; -962.000; -913.000
359.409; 3545.350;  536.000;  231.000
359.542;  985.225; -738.000; -688.000
359.674;   88.500;   46.000;   13.000
359.806;  -50.975; -565.000; -438.000
359.939;  -37.125; -617.000; -516.000
360.071;  -16.825; -583.000; -579.000
360.203;  -22.800; -411.000; -364.000
360.335;   67.150;  164.000;  -16.000
360.468;  238.275; -249.000; -307.000
360.600; 2805.675; -547.000; -454.000
360.732; 2681.900; -546.000; -423.000
360.864;  386.525;-1216.000;-1044.000
360.996;  377.700; -516.000; -554.000
361.129;   76.975; -389.000; -598.000
361.261;   31.950;  110.000; -113.000
361.393;   -4.325; -252.000; -214.000
361.525;   46.200;   94.000;  244.000
361.657;  -14.800; -821.000; -703.000
361.789;   34.550; -139.000; -155.000
361.921;  331.175; -642.000; -593.000
362.053;  330.600;  524.000;  541.000
362.185;   66.625;  288.000;   72.000
362.318;  -46.325; -709.000; -705.000
362.450;  160.650;  294.000;  444.000
362.582;  214.050; -913.000; -870.000
362.714;  -12.150; -353.000; -332.000
362.846;  -72.800; -606.000; -490.000
362.978; -113.100; -941.000; -811.000
363.109;   81.525; -161.000; -260.000
363.241;  590.050; -739.000; -749.000
363.373;  434.900; -649.000; -564.000
363.505;  619.100; -186.000;  -91.000
363.637;  164.850; -787.000; -601.000
363.769; -103.125;-1067.000;-1080.000
363.901;  -50.575; -596.000; -654.000
364.033;  -94.050;-1103.000;-1062.000
364.165;    8.975; -283.000; -283.000
364.296;   76.800; -316.000; -177.000
364.428;   78.825;-1344.000;-1220.000
364.560;  -74.775; -679.000; -661.000
364.692;  -51.975; -738.000; -835.000
364.824;  392.600; -588.000; -456.000
364.955;  474.650; -402.000; -564.000
365.087;  777.300;-1097.000; -852.000
365.219;   24.550; -686.000; -816.000
365.351;  -75.025; -526.000; -572.000
365.482;   55.225;  300.000;  240.000
365.614;  -35.000; -402.000; -314.000
365.746;  -98.450; -729.000; -752.000
365.877;  -96.275; -706.000; -672.000
366.009;  224.925;  -35.000;  -62.000
366.141;  -86.575;-1249.000;-1134.000
366.272; -119.500; -803.000; -719.000
366.404; -110.800;-1005.000; -874.000
366.535;  -10.600; -139.000;  -12.000
366.667;  -96.150; -644.000; -649.000
366.799;   44.225;  353.000;  203.000
366.930;  -89.375; -862.000; -996.000
367.062;  129.100; -639.000; -613.000
367.193;  150.600; -872.000; -842.000
367.325;  -62.975; -580.000; -684.000
367.456;   95.325; -246.000;   31.000
367.588;  163.375; -371.000; -318.000
367.719;   32.100;  -44.000;  -45.000
367.851;   11.075; -222.000; -241.000
367.982;  -28.350; -875.000; -732.000
368.113;  145.850; -475.000; -358.000
368.245;  -98.900; -960.000; -841.000
368.376;  -16.575; -254.000; -302.000
368.508;  -20.225; -188.000; -263.000
368.639; -122.125;-1166.000;-1034.000
368.770;   16.275; -670.000; -589.000
368.902;  -43.225; -836.000; -926.000
369.033;  -99.800; -906.000; -855.000
369.164;  -52.925; -720.000; -653.000
369.296;  -96.400; -452.000; -601.000
369.427;    2.675; -209.000; -144.000
369.558;  -25.125; -593.000; -377.000
369.689;  -68.325; -721.000; -569.000
369.821; -127.550; -951.000; -845.000
369.952;  -16.700;   42.000; -108.000
370.083;  -35.600; -229.000; -108.000
370.214;  -80.300; -735.000; -650.000
370.345;    1.000;   65.000;   81.000
370.477;  -88.625; -810.000; -790.000
370.608;  301.500; -328.000; -264.000
370.739;  -10.800;-1233.000;-1292.000
370.870;   -2.650;-1102.000; -923.000
371.001;  130.450; -378.000; -467.000
371.132;  -49.350; -754.000; -735.000
371.263;  -25.225;  -42.000; -148.000
371.394; -123.900; -841.000; -748.000
371.525;   25.825;  345.000;  225.000
371.657;  -76.975; -808.000; -670.000
371.788;   95.100;  103.000;  199.000
371.919;  239.150; -384.000; -304.000
372.050; 4367.400;  -91.000; -156.000
372.181; 1374.800; -188.000; -294.000
372.311;  475.825;   42.000; -127.000
372.442;   79.225; -457.000; -451.000
372.573;    1.825; -444.000; -340.000
372.704; -114.750;-1008.000; -980.000
372.835;  110.175; -228.000; -289.000
372.966;  -35.100; -646.000; -554.000
373.097;  -46.600; -575.000; -711.000
373.228;  -22.075; -717.000; -542.000
373.359;  203.375; -824.000; -536.000
373.490; 1179.675; -881.000; -727.000
373.620; 1529.700;-1001.000; -803.000
373.751; 2239.100; -332.000; -396.000
373.882; 1057.300; -663.000; -733.000
374.013;  114.375; -449.000; -262.000
374.143;  -25.675; -581.000; -659.000
374.274;  -83.125; -987.000; -908.000
374.405;  218.825; -388.000; -276.000
374.536;  567.675; -526.000; -387.000
374.666; 1474.100; -759.000; -807.000
374.797;  329.500; -817.000; -868.000
374.928; 1145.025; -710.000; -560.000
375.058; 1183.825; -535.000; -500.000
375.189;   98.275;  -59.000;  -93.000
375.320;  -82.650; -928.000;-1034.000
375.450;  -33.275; -625.000; -616.000
375.581;  -23.600; -526.000; -436.000
375.712;  -31.650; -574.000; -250.000
375.842;  424.250; -438.000; -415.000
375.973;  303.850; -554.000; -513.000
376.103;   -5.775; -665.000; -648.000
376.234;  -72.025; -531.000; -552.000
376.364;   -6.100; -944.000; -867.000
376.495;  367.175;  925.000;  529.000
376.625;   23.800; -472.000; -485.000
376.756;  113.575; -709.000; -678.000
376.886;  -21.800;-1178.000;-1026.000
377.017;   31.525;-1048.000;-1061.000
377.147;  333.650; -786.000; -782.000
377.278;   55.150;  174.000;  228.000
377.408; -114.975; -801.000; -815.000
377.538; -111.775; -707.000; -693.000
377.669;  -66.600; -537.000; -613.000
377.799;  -70.400; -645.000; -635.000
377.929;  -53.550; -610.000; -428.000
378.060; -122.025; -781.000; -847.000
378.190;  -55.650; -726.000; -531.000
378.320;  -52.250; -401.000; -406.000
378.451;  -12.650; -131.000;  -22.000
378.581;   -9.000;  -67.000; -110.000
378.711;  172.500; 1035.000;  866.000
378.841;   -3.200; -533.000; -675.000
378.972;  -48.800; -871.000; -751.000
379.102;   31.525; -652.000; -579.000
379.232;  -18.575; -126.000;  -73.000
379.362;  -99.200;-1001.000; -885.000
379.492;   42.250; -373.000; -424.000
379.623;  125.875;    0.000;  111.000
379.753;  -83.900;-1107.000; -974.000
379.883;  254.425;   59.000;  156.000
380.013;   62.300;-1081.000;-1017.000
380.143;  -85.500;-1097.000;-1056.000
380.273;  -82.275; -985.000; -861.000
380.403;    0.325; -344.000; -257.000
380.533;    0.975; -651.000; -664.000
380.663;   95.425;  173.000;  128.000
380.793;  -78.700;-1027.000;-1074.000
380.923;  -11.225; -103.000;  -34.000
381.053;  -91.775; -613.000; -623.000
381.183;  -25.450; -106.000; -248.000
381.313;   60.250; -656.000; -470.000
381.443;   86.600; -692.000; -473.000
381.573;  292.825; -402.000; -409.000
381.703;  449.750;-1249.000;-1095.000
381.833;  -91.175;-1454.000;-1336.000
381.963;  139.175; -134.000;  -87.000
382.093; 1700.150; -925.000; -909.000
382.223;  579.200; -713.000; -602.000
382.353;    3.700; -801.000; -608.000
382.482;  504.600;-1091.000; -964.000
382.612;  973.125; -872.000; -644.000
382.742;  546.125; -695.000; -622.000
382.872;  399.800; -565.000; -551.000
383.002;   90.200;  347.000; -132.000
383.131;   -5.725; -226.000; -160.000
383.261;  -24.125; -706.000; -768.000
383.391;  320.600; -552.000; -377.000
383.521; 2903.950;  451.000;  263.000
383.650;  715.900; -947.000; -904.000
383.780;  -10.950; -783.000; -656.000
383.910;  133.125;  880.000;  802.000
384.039;   58.050; -794.000; -656.000
384.169;  317.150;-1205.000;-1017.000
384.299;    5.225; -650.000; -662.000
384.428;  -70.100; -764.000; -680.000
384.558;  -48.400; -308.000; -275.000
384.687;  -20.700; -414.000; -334.000
384.817;   27.400;   75.000;   -2.000
384.947;   32.225; -234.000; -141.000
385.076;  342.875;  982.000;  912.000
385.206;  122.400;  369.000;  480.000
385.335;  -22.600; -549.000; -417.000
385.465;  -38.450; -655.000; -663.000
385.594;  158.375;  -53.000;  -44.000
385.724;  599.225; -868.000; -838.000
385.853;  172.275; -296.000; -270.000
385.982; 1699.775; -743.000; -787.000
386.112; 2748.725;-1052.000; -871.000
386.241;  222.675; -307.000; -312.000
386.371;   34.175; -174.000;  -87.000
386.500;   34.550; -825.000; -789.000
386.629;   55.450; -874.000; -817.000
386.759;   72.750;  -43.000;   68.000
386.888;   -3.350; -170.000; -250.000
387.017;  -65.125; -648.000; -620.000
387.147;  -68.400; -771.000; -798.000
387.276;   44.325; -410.000; -397.000
387.405;   35.350; -398.000; -342.000
387.535;   -9.500; -452.000; -361.000
387.664;  -48.200; -692.000; -620.000
387.793;   90.450; -198.000; -113.000
387.922;  633.225;  255.000;  200.000
388.052;   71.775; -576.000; -423.000
388.181;   56.275; -342.000; -472.000
388.310;   65.200; -889.000; -710.000
388.439;   -5.975; -749.000; -742.000
388.568;  222.800;  365.000;  244.000
388.697; 1346.625; -756.000; -653.000
388.826;  308.425; -768.000; -666.000
388.956;   81.000; -285.000; -307.000
389.085;  -13.375; -347.000; -287.000
389.214; -107.300; -842.000; -872.000
389.343;  -52.600; -645.000; -413.000
389.472;  382.025;  126.000;  149.000
389.601;  555.450;   91.000;    0.000
389.730;   48.950; -568.000; -687.000
389.859;   84.000;  226.000;   46.000
389.988;  227.450; -423.000; -408.000
390.117;  198.250; -168.000; -146.000
390.246;    6.425; -331.000; -320.000
390.375;  165.225; -673.000; -626.000
390.504;  -47.025; -703.000; -621.000
390.633;  -72.525; -672.000; -726.000
390.761;  -60.075; -732.000; -645.000
390.890;   36.350;   -4.000; -130.000
391.019;   -7.375; -421.000; -441.000
391.148; -122.900; -826.000; -855.000
391.277;  -55.000; -576.000; -493.000
391.406;  -30.950; -821.000; -805.000
391.534;   25.075;  574.000; -301.000
391.663;  -52.925; -583.000; -645.000
391.792;  -73.350; -673.000; -701.000
391.921;  132.425;   -3.000;   15.000
392.050;  261.525; -287.000; -228.000
392.178;   23.975;-1206.000;-1061.000
392.307;  208.150; -758.000; -712.000
392.436;  121.625; -427.000; -641.000
392.564;   31.250;  166.000;   -6.000
392.693;  -79.300; -860.000; -682.000
392.822;  287.450; -529.000; -534.000
392.950;  171.275; -880.000; -714.000
393.079;  428.475; -188.000; -328.000
393.208;   75.300; -488.000; -511.000
393.336;  -10.025; -170.000; -145.000
393.465;  -29.125; -317.000; -199.000
393.593;   -5.700;   62.000;   79.000
393.722; -142.050;-1121.000; -916.000
393.850;  -25.850; -188.000;  -61.000
393.979; -147.600; -926.000; -805.000
394.107;  -54.950; -517.000; -537.000
394.236;  -16.100; -570.000; -507.000
394.364;  264.825;  383.000;  206.000
394.493;  496.000; -911.000; -767.000
394.621;    8.500; -955.000; -916.000
394.750;  664.975; -873.000; -923.000
394.878; 2737.950; -247.000; -149.000
395.007; 3910.200; -721.000; -807.000
395.135;  309.375; -790.000; -721.000
395.263;  -81.325;-1038.000;-1040.000
395.392;   -5.975;  -25.000; -107.000
395.520; -138.025; -818.000; -679.000
395.648;  -66.625; -865.000; -915.000
395.777;   27.000; -366.000; -405.000
395.905;  -50.775; -449.000; -564.000
396.033;   14.025;  217.000;  172.000
396.162;  741.050; -399.000; -453.000
396.290;  698.825;  -17.000;   -2.000
396.418;  169.150; -555.000; -514.000
396.546;  -50.050; -571.000; -466.000
396.674;  -82.825; -850.000; -878.000
396.803;   23.975;  -72.000;  -23.000
396.931;  134.200; -179.000; -199.000
397.059;  127.025;-1026.000; -989.000
397.187;  -88.925;-1026.000; -975.000
397.315; -107.575; -884.000; -649.000
397.443; -102.950; -592.000; -443.000
397.572;  -84.875; -578.000; -424.000
397.700;   16.450; -607.000; -614.000
397.828;   33.825;  120.000;  -90.000
397.956;  -37.500; -508.000; -478.000
398.084;  -63.500; -767.000; -626.000
398.212;   54.725;  137.000;  124.000
398.340;   22.525;  -56.000;  159.000
398.468;   62.200; -390.000; -169.000
398.596; -117.550; -993.000; -953.000
398.724; -117.900; -762.000; -767.000
398.852; -160.825;-1024.000; -976.000
398.980;  -74.750; -560.000; -560.000
399.108;  -24.125; -982.000; -735.000
399.236;   50.225;   13.000;    8.000
399.363;   27.425;  222.000;  196.000
399.491;  -69.000; -404.000; -398.000
399.619; -121.500; -829.000; -800.000
399.747;  -80.550; -859.000; -771.000
399.875;   82.075;  220.000;  234.000
400.003;  -61.950; -359.000; -284.000
400.130;  -91.250; -421.000; -341.000
400.258;  -30.325;  -83.000;   38.000
400.386;  -70.575; -352.000; -168.000
400.514;  -37.025; -526.000; -587.000
400.641;  -47.900; -928.000; -802.000
400.769; -142.125; -979.000; -888.000
400.897;  -90.925; -838.000; -793.000
401.025;  -18.200; -166.000; -152.000
401.152;   -6.550;  220.000;   38.000
401.280;  -85.300; -430.000; -429.000
401.408;  -98.900; -712.000; -576.000
401.535; -112.225; -735.000; -758.000
401.663; -186.450;-1134.000;-1054.000
401.790;  -79.250; -514.000; -525.000
401.918;   38.300;  436.000;  405.000
402.046;  -15.600;  134.000;  122.000
402.173;  -27.700;  -18.000;    7.000
402.301;  -69.275; -519.000; -397.000
402.428;   40.900;  528.000;  383.000
402.556; -142.675;-1188.000; -913.000
402.683;  -21.750;  -20.000;   -1.000
402.811;  -22.100;  -37.000; -206.000
402.938;   -2.725;   20.000;   27.000
403.066;  261.700; -574.000; -558.000
403.193;  442.650;  299.000;  239.000
403.321;  325.125; -396.000; -574.000
403.448;  416.750;   83.000;   27.000
403.575;  191.100;  -90.000;  -46.000
403.703;  -89.675; -732.000; -557.000
403.830;  -64.350; -531.000; -496.000
403.957; -140.150;-1117.000;-1023.000
404.085;   18.075;  -61.000; -172.000
404.212;   99.575;  -50.000;   63.000
404.339;  238.575; -566.000; -306.000
404.467; 5370.025; -612.000; -524.000
404.594; 3990.200; -287.000; -227.000
404.721; 1083.150; -869.000; -764.000
404.848;   94.800; -113.000; -202.000
404.976;  -93.925; -856.000; -783.000
405.103;  -14.425;  -14.000;  -82.000
405.230;    0.675;  190.000;  226.000
405.357;   18.025;  117.000;   44.000
405.484;  227.800;  -49.000;    5.000
405.612;   62.550; -548.000; -563.000
405.739;  -52.825; -488.000; -243.000
405.866;   88.000;  669.000;  385.000
405.993;  -50.175; -398.000; -102.000
406.120; -129.900; -801.000; -887.000
406.247;  -42.025; -323.000; -342.000
406.374;  566.800;  540.000;  629.000
406.501;  190.675; -632.000; -702.000
406.628;  -70.900; -621.000; -589.000
406.755;  -73.325; -803.000; -620.000
406.882;  -51.500; -228.000; -277.000
407.009;  -90.750; -719.000; -628.000
407.136;   80.625; -480.000; -401.000
407.263;  228.375; -939.000; -829.000
407.390;  -54.775; -692.000; -614.000
407.517; -163.200;-1139.000;-1187.000
407.644;  -56.375; -332.000; -256.000
407.771;  -59.250; -249.000; -287.000
407.898;    9.425;  168.000;  328.000
408.025;  -66.850; -421.000; -313.000
408.151;   -6.250;   82.000;  153.000
408.278;  -66.550; -267.000; -216.000
408.405; -105.675; -931.000; -899.000
408.532;  -60.525; -549.000; -542.000
408.659; -116.900; -677.000; -648.000
408.785; -182.000;-1298.000;-1170.000
408.912;  -57.825; -412.000; -296.000
409.039; -114.400; -610.000; -686.000
409.166; -107.675; -591.000; -555.000
409.292;  -95.250; -571.000; -534.000
409.419; -121.025; -665.000; -649.000
409.546;  -80.400; -431.000; -192.000
409.672; -112.575; -713.000; -545.000
409.799;  -11.725;  -36.000;   34.000
409.926;  -34.400; -180.000; -179.000
410.052; -173.250;-1127.000;-1091.000
410.179;  -46.925; -368.000; -392.000
410.305;  -84.900; -375.000; -493.000
410.432;  -32.400; -220.000; -333.000
410.558;  -92.800; -305.000; -380.000
410.685; -113.175; -688.000; -431.000
410.812;  -94.500; -409.000; -588.000
410.938; -140.150; -964.000; -808.000
411.065;  -91.150; -671.000; -645.000
411.191;  -10.475; -189.000; -174.000
411.317; -112.450; -823.000; -742.000
411.444;  -61.750; -317.000; -246.000
411.570;  -70.800; -339.000; -294.000
411.697; -132.450; -758.000; -752.000
411.823; -172.125; -989.000; -999.000
411.949;  -21.675;  -56.000;   17.000
412.076; -109.650; -539.000; -519.000
412.202; -121.125; -758.000; -757.000
412.329; -129.200; -798.000; -752.000
412.455; -117.825; -821.000; -657.000
412.581;  -26.725;  -15.000;  172.000
412.707;  -56.600; -540.000; -457.000
412.834;   20.650;  156.000;  219.000
412.960;  -67.000; -785.000; -784.000
413.086;  -94.825; -743.000; -701.000
413.212;  174.900;  604.000;  578.000
413.339;  -24.650; -685.000; -701.000
413.465;   12.325; -364.000; -310.000
413.591;  -72.825; -757.000; -474.000
413.717;  -53.350; -358.000; -366.000
413.843; -140.000; -839.000; -861.000
413.969;  -64.125;  -47.000; -292.000
414.096;  -92.375; -679.000; -679.000
414.222;   -9.750;  -33.000;   85.000
414.348;   -2.050; -652.000; -385.000
414.474;  137.400;   38.000;  -52.000
414.600;   -6.100; -126.000; -144.000
414.726;   -6.375;  -96.000;  -55.000
414.852;  -38.775; -365.000; -342.000
414.978;   26.450;  104.000;  -18.000
415.104;   43.350;   38.000;   80.000
415.230;   25.825; -329.000; -330.000
415.356;   44.125; -409.000; -514.000
415.482;  207.850;   13.000;  -35.000
415.608;  280.100; -247.000; -323.000
415.734;  943.125;   67.000;   38.000
415.860;19120.100; -875.000; -767.000
415.986;15014.750; -685.000; -607.000
416.111; 1334.025; -798.000; -652.000
416.237;  253.950; -424.000; -571.000
416.363; 1028.950; -765.000; -733.000
416.489; 4017.850; -324.000; -251.000
416.615;  473.750; -707.000; -742.000
416.741;  -26.450; -677.000; -784.000
416.866;  -85.600; -673.000; -736.000
416.992; -124.550; -801.000; -818.000
417.118;  -28.050;  -41.000;  -80.000
417.244;  -56.975; -798.000; -531.000
417.369;  -75.875; -801.000; -612.000
417.495;   -6.175; -325.000; -254.000
417.621;  -82.200;-1015.000; -803.000
417.746;    4.050; -579.000; -572.000
417.872;   57.150; -254.000; -144.000
417.998;   50.800; -515.000; -530.000
418.123;  952.800;-1073.000; -845.000
418.249; 5232.700; -512.000; -601.000
418.374;  794.000; -916.000; -824.000
418.500;  121.900; -383.000; -482.000
418.626;  122.525;   70.000;  -59.000
418.751;  121.450; -549.000; -448.000
418.877;  215.675; -637.000; -643.000
419.002; 1625.700; -688.000; -560.000
419.128;12020.975; -930.000; -721.000
419.253; 3189.325; -967.000; -837.000
419.379;  413.075; -391.000; -338.000
419.504;  381.850;  325.000;  415.000
419.629;  493.425; -393.000; -212.000
419.755; 3119.650; -317.000; -254.000
419.880;19646.075;  -98.000;   67.000
420.006;10819.225; -280.000; -221.000
420.131;28830.800; -662.000; -775.000
420.256; 4505.875; -315.000; -316.000
420.382;  614.950; -665.000; -687.000
420.507;   86.125; -649.000; -778.000
420.632;  153.350; -337.000; -339.000
420.758;  346.500; -251.000; -425.000
420.883;  -50.725; -876.000; -672.000
421.008;  -96.050; -775.000; -619.000
421.133;  -76.275; -509.000; -467.000
421.259;  -46.750; -325.000; -259.000
421.384; -101.150; -834.000; -693.000
421.509;  -10.400;-1052.000; -862.000
421.634; 1548.500; -936.000; -820.000
421.759;  739.625; -359.000; -327.000
421.885;  -15.450; -717.000; -656.000
422.010;  -77.900; -673.000; -542.000
422.135; -141.250; -695.000; -727.000
422.260;   34.075;  340.000;  280.000
422.385;  -31.925;   12.000;  -98.000
422.510;   -6.975;  151.000;  -26.000
422.635;   25.600;  -87.000;  -43.000
422.760;  125.950; -766.000; -791.000
422.885;   67.225;  -57.000;  -80.000
423.010;  -37.400; -112.000; -169.000
423.135;  -97.250; -481.000; -561.000
423.260;   -4.975; -150.000; -245.000
423.385;   83.450;  476.000;  222.000
423.510;   35.400;   71.000;  -22.000
423.635;  116.675;  133.000;   45.000
423.760;   65.100;  383.000;  328.000
423.885;   60.300;  336.000;  391.000
424.010;   16.875;  -68.000;  -13.000
424.135;   -0.125;    5.000;  -33.000
424.259;  -94.275; -654.000; -457.000
424.384;  -53.525; -279.000; -272.000
424.509;  -23.075; -260.000; -186.000
424.634;  -86.875; -761.000; -623.000
424.759;  -18.900; -688.000; -544.000
424.883;   -8.300; -506.000; -527.000
425.008;  161.575; -502.000; -410.000
425.133; 1872.500; -679.000; -653.000
425.258;  996.725; -517.000; -381.000
425.382; 1152.850; -867.000; -774.000
425.507; 3178.775; -487.000; -543.000
425.632;  531.425; -802.000; -663.000
425.756;  437.950; -256.000; -146.000
425.881; 5624.675; -831.000; -857.000
426.006;16309.250; -604.000; -355.000
426.130; 2846.275; -696.000; -508.000
426.255;  344.850; -611.000; -491.000
426.379;  167.525; -189.000; -577.000
426.504;  344.600;  660.000;  544.000
426.629; 3897.125; -519.000; -466.000
426.753; 2901.700;   64.000;  -46.000
426.878;  354.500; -252.000; -288.000
427.002;  144.175; -651.000; -668.000
427.127; 1463.075;  -35.000; -158.000
427.251;10797.100;  372.000;  401.000
427.375; 3393.225; -191.000; -173.000
427.500; 2673.925; -616.000; -610.000
427.624; 1009.100; -234.000; -400.000
427.749;  118.500; -216.000; -225.000
427.873;  -11.575; -499.000; -412.000
427.997;  -34.375; -222.000; -230.000
428.122;   85.600;  795.000;  703.000
428.246;   71.625;  433.000;  434.000
428.371; -112.925; -869.000; -773.000
428.495;  -97.700; -624.000; -646.000
428.619;  -25.925; -186.000; -117.000
428.743;   25.125;   65.000;  132.000
428.868;   48.250; -732.000; -643.000
428.992; 1661.475; -219.000; -326.000
429.116;  769.950; -329.000; -357.000
429.240;  358.675;  419.000;  426.000
429.365;  -10.000; -454.000; -574.000
429.489;  -20.525; -638.000; -647.000
429.613;   24.725; -236.000; -177.000
429.737;   40.800; -563.000; -432.000
429.861;  265.650; -247.000; -133.000
429.985; 5177.450; -425.000; -305.000
430.109; 6181.825; -770.000; -908.000
430.234;  744.600;   76.000;  -50.000
430.358;   65.475; -250.000; -160.000
430.482;  -65.725; -672.000; -564.000
430.606;  -55.625; -655.000; -375.000
430.730;   38.575; -437.000; -388.000
430.854;  215.575; -909.000; -835.000
430.978;  -50.450; -795.000; -764.000
431.102;  -77.775; -499.000; -422.000
431.226; -105.100; -874.000; -815.000
431.350;   23.625;  345.000;  422.000
431.474;  -63.100; -661.000; -373.000
431.597; -133.525;-1060.000; -848.000
431.721;  -84.750; -276.000; -267.000
431.845; -133.500; -704.000; -472.000
431.969;  -77.075; -304.000; -349.000
432.093;  -89.150; -395.000; -317.000
432.217;  -10.825;   32.000;   82.000
432.341;  -85.475; -523.000; -518.000
432.464;   -2.050;   96.000;   40.000
432.588;  268.000; -401.000; -329.000
432.712;  164.125;  -52.000;  -52.000
432.836;   52.300;  213.000;  263.000
432.959;  -20.250; -372.000; -311.000
433.083;   82.900;   11.000;    2.000
433.207;  365.400;  285.000;  930.000
433.330; 4593.850; -391.000; -200.000
433.454; 6137.400; -654.000; -638.000
433.578; 3459.225;  583.000;  278.000
433.701;  717.025; -623.000; -675.000
433.825;  189.525; -292.000; -299.000
433.949;  254.675;   28.000;  -72.000
434.072;  122.450; -410.000; -323.000
434.196;  -17.325; -309.000; -117.000
434.319; 3607.800;25482.000;25124.000
434.443;  729.075; -656.000; -603.000
434.566; 2600.025;  281.000;   62.000
434.690;  472.850; -637.000; -383.000
434.813;   53.825; -251.000; -173.000
434.937;  -72.725; -569.000; -696.000
435.060;  -20.275; -423.000; -332.000
435.184;  439.200; -492.000; -217.000
435.307;  278.850;  159.000;  102.000
435.431;    2.450;  -40.000;   24.000
435.554;  -63.575; -399.000; -240.000
435.677;  -84.100; -350.000; -258.000
435.801;  -47.150;  -25.000;   49.000
435.924;    6.550;    1.000;  -67.000
436.048;  -86.375;-1019.000; -732.000
436.171;  -74.500; -240.000;  -66.000
436.294;  -26.800; -248.000; -229.000
436.417;   73.925; -963.000; -849.000
436.541;  -63.300; -814.000; -840.000
436.664;  -63.300; -242.000; -316.000
436.787;  -15.300;   13.000;  113.000
436.910; -110.950; -792.000; -422.000
437.034;   17.700;  142.000;  143.000
437.157;   85.125;  -11.000;    0.000
437.280;  -28.875; -392.000; -292.000
437.403;  -68.000; -982.000; -869.000
437.526;  838.175; -903.000; -865.000
437.649; 3128.800; -505.000; -332.000
437.772;  549.950; -692.000; -540.000
437.896;  147.275;  700.000;  544.000
438.019;  -96.350; -758.000; -503.000
438.142;  -81.425; -596.000; -506.000
438.265;   -0.100; -639.000; -670.000
438.388;  755.650; -520.000; -410.000
438.511;  199.925; -597.000; -394.000
438.634;  -36.375; -247.000; -125.000
438.757; -134.750; -693.000; -619.000
438.880;  -36.000;  -34.000;  -57.000
439.003;  -62.925; -417.000; -437.000
439.126;  -55.100; -287.000; -167.000
439.248;  -56.625;  -98.000; -139.000
439.371;  -47.350;    9.000;  -53.000
439.494;   27.450;  510.000;  439.000
439.617;  -70.100;   65.000;  -88.000
439.740; -173.075; -968.000; -816.000
439.863; -129.175; -755.000; -595.000
439.986; -126.750; -476.000; -431.000
440.108;  -52.750; -161.000; -112.000
440.231; -157.975; -950.000; -836.000
440.354;  -45.275;  -64.000; -150.000
440.477;   91.875; -566.000; -542.000
440.599;   45.900; -200.000; -225.000
440.722; -107.775; -709.000; -586.000
440.845;   67.425;  751.000;  928.000
440.968; -113.800; -415.000; -311.000
441.090;  -77.750; -199.000;  -33.000
441.213; -160.025;-1021.000; -825.000
441.336;  -52.125; -159.000;   -5.000
441.458;  -82.675; -549.000; -396.000
441.581;  -83.275; -628.000; -629.000
441.703;  -56.225; -152.000;   13.000
441.826; -127.500; -557.000; -400.000
441.948;  -38.300;   56.000;   51.000
442.071;   25.225;  555.000;  424.000
442.193; -117.725; -531.000; -485.000
442.316;    4.625;  152.000;   97.000
442.438;   47.250; -233.000;  -10.000
442.561;   94.275;  272.000;  262.000
442.683;  711.375; -809.000; -522.000
442.806; 1596.825;   -8.000;   74.000
442.928;  109.125; -859.000; -604.000
443.051;  -53.325; -577.000; -373.000
443.173; -102.000; -341.000; -339.000
443.295;  -81.375; -263.000; -371.000
443.418;  -67.475; -321.000;  -29.000
443.540;   -1.500; -106.000;   -4.000
443.662; -104.025; -563.000; -465.000
443.785;   -4.625;  335.000;  199.000
443.907;  -98.425; -362.000; -208.000
444.029; -122.125; -767.000; -494.000
444.152; -136.750; -644.000; -554.000
444.274;  -35.500;  -18.000;  -24.000
444.396; -111.675; -461.000; -221.000
444.518; -133.875; -691.000; -454.000
444.640; -102.450; -268.000; -111.000
444.763;  -23.900;  388.000;  249.000
444.885; -114.650; -432.000; -392.000
445.007;  -45.575;   35.000;   86.000
445.129; -107.750; -610.000; -515.000
445.251; -101.750; -372.000; -439.000
445.373; -131.625; -537.000; -386.000
445.495;   -7.775;  242.000;  350.000
445.617;   46.125;  853.000;  753.000
445.739;  -64.100; -215.000;  -97.000
445.861;  -23.150; -245.000; -112.000
445.984;  -30.750; -267.000; -101.000
446.105;  272.475; -418.000; -251.000
446.227;  805.750; -176.000;  -19.000
446.349;   61.675; -358.000; -249.000
446.471;  -81.300; -615.000; -448.000
446.593;  -49.900; -316.000;   19.000
446.715;    0.650;  -67.000;   41.000
446.837;   67.950;  697.000;  832.000
446.959;  -93.175; -457.000; -478.000
447.081; -141.125; -628.000; -518.000
447.203;   48.475;  862.000;  834.000
447.325;  -93.575; -270.000;   42.000
447.446;   -4.175;  286.000;  530.000
447.568; -145.900; -921.000; -803.000
447.690;  -81.025; -236.000; -245.000
447.812; -145.225; -798.000; -519.000
447.933;  -43.200;  155.000;  127.000
448.055;  -53.125; -306.000; -261.000
448.177;  183.975;   31.000;   79.000
448.299;  171.450; -935.000; -727.000
448.420;   45.325;  -25.000;  159.000
448.542;  -48.750;   -3.000;   33.000
448.664;  -35.225;  109.000;  322.000
448.785;  -37.250;  265.000;   83.000
448.907;  -76.550; -614.000; -353.000
449.028;    0.300; -771.000; -471.000
449.150;   54.875;  492.000;  589.000
449.272; -163.025;-1044.000; -913.000
449.393;   20.375;  612.000;  694.000
449.515; -127.275; -634.000; -581.000
449.636;  -46.225; -264.000; -155.000
449.758;   69.650;  763.000;  622.000
449.879;  -92.525; -498.000; -396.000
450.001;  -88.825; -149.000;  -49.000
450.122;  -45.000;  -95.000;  162.000
450.244;  -23.900;   37.000;  364.000
450.365; -100.800; -495.000; -301.000
450.486;  -51.275;   80.000;  268.000
450.608;    0.150;  393.000;  326.000
450.729;   72.375;  578.000;  645.000
450.850;  -12.550; -574.000; -466.000
450.972;  630.525; -552.000; -389.000
451.093; 4465.150;  190.000;  588.000
451.214; 2143.450; -516.000; -337.000
451.336;  396.875;  773.000;  579.000
451.457;   58.900;  264.000;  393.000
451.578;  -37.950; -118.000;  -74.000
451.699; -125.650; -546.000; -540.000
451.821;  -71.325; -284.000;  -50.000
451.942;    3.450;  278.000;  285.000
452.063;   28.525;  228.000;  419.000
452.184;  482.275;  -54.000;  -49.000
452.305; 1090.450;  103.000;  170.000
452.427;  150.050; -549.000; -301.000
452.548;   -8.500;   23.000;   79.000
452.669;  -49.925; -257.000;  -89.000
452.790;  -44.650;    3.000;  -18.000
452.911;  -20.300;  195.000;  259.000
453.032;  -60.875; -289.000;  -60.000
453.153;  -31.850;  -29.000;   81.000
453.274;   56.500;  737.000;  868.000
453.395;  -45.000;  -51.000;  175.000
453.516;  131.525; 1317.000; 1388.000
453.637;  -52.450; -205.000; -150.000
453.758;  -56.625;   15.000;   69.000
453.879; -113.625; -462.000; -250.000
454.000;   74.400; 1086.000;  948.000
454.121; -109.775; -554.000; -326.000
454.242; -111.300; -599.000; -383.000
454.362;  -49.200;  -99.000;  114.000
454.483;  -33.975; -309.000; -229.000
454.604;   61.425;  512.000;  580.000
454.725; -114.975; -627.000; -555.000
454.846; -128.125; -474.000; -406.000
454.967;  -24.250;  230.000;  539.000
455.087;  -42.100;  179.000;  153.000
455.208;    7.525;  554.000;  856.000
455.329;  -54.850;  -22.000;   82.000
455.450;   25.350;  473.000;  633.000
455.570;  -69.675; -234.000; -211.000
455.691;  -44.300;  201.000;  407.000
455.812; -117.025; -270.000;  -92.000
455.932;  -61.200;  107.000;  -97.000
456.053;  -77.550;   36.000;   24.000
456.173; -107.925; -433.000; -355.000
456.294; -128.925; -476.000; -303.000
456.415;  -66.325;  -73.000;   70.000
456.535;  -42.325;  297.000;  273.000
456.656;  -36.200;  132.000;  240.000
456.776;  -66.975;    3.000;  298.000
456.897;  -16.675;  308.000;  513.000
457.017;  -78.925; -153.000;   -3.000
457.138;  -97.600; -402.000; -249.000
457.258;  -19.300;  263.000;  224.000
457.379;  -15.025;  509.000;  521.000
457.499;  -29.725;  443.000;  432.000
457.620; -126.875; -407.000; -231.000
457.740;  -99.150; -132.000;  -11.000
457.860;  -47.650;   87.000;   44.000
457.981;  -31.725;  132.000;  124.000
458.101;  -62.050;  -89.000;   40.000
458.221;  -30.225;  336.000;  402.000
458.342;  -60.400;   -4.000;  -37.000
458.462;   17.950;  617.000;  352.000
458.582;  -53.525; -302.000; -294.000
458.703;   -6.975;  303.000;  154.000
458.823;  -37.750;   22.000;  163.000
458.943;   26.950;  341.000;  467.000
459.063;  -16.125; 1124.000;  192.000
459.183;  -22.875;  328.000;  313.000
459.304;    3.875;  315.000;  517.000
459.424;  -62.875; -246.000;  -89.000
459.544;  269.800;  388.000;  764.000
459.664;  769.300;  499.000;  506.000
459.784;  314.575; 1004.000; 1175.000
459.904;   71.700;  867.000;  744.000
460.024;   75.350;  867.000;  684.000
460.144;    7.800;  449.000;  554.000
460.264;  -15.575;  515.000;  327.000
460.385;  -85.800; -145.000; -119.000
460.505;   20.925;  905.000;  858.000
460.625;  -92.475;  -17.000;  -68.000
460.745;  -34.150;  396.000;  541.000
460.864;  -48.350;  153.000;  469.000
460.984;   10.025;  499.000;  573.000
461.104;  119.725; 1656.000; 1775.000
461.224;   18.900;  657.000;  650.000
461.344;  -32.050;  431.000;  360.000
461.464;  -38.800;  258.000;  513.000
461.584;   -0.700;  283.000;  466.000
461.704;  -34.100;   58.000;  108.000
461.824;  -54.300;  238.000;  259.000
461.943;  -28.525;  191.000;  130.000
462.063;  -68.775;    2.000;  324.000
462.183;   22.125;  639.000;  717.000
462.303;  113.600; 1678.000; 1230.000
462.422;   10.550;  781.000;  840.000
462.542;  -30.725;  271.000;  391.000
462.662;   21.550;  353.000;  380.000
462.782;  218.900;  833.000;  572.000
462.901;  461.925;  545.000;  717.000
463.021;  288.825; 1702.000; 1638.000
463.141;  -17.725;  337.000;  770.000
463.260;   -0.975;  614.000;  474.000
463.380;   11.000;  902.000;  884.000
463.499;  -50.850;  342.000;  332.000
463.619;  -41.850;  581.000;  559.000
463.738;  103.050; 1644.000;  903.000
463.858;    7.450;  657.000;  811.000
463.978;  -35.700;  542.000;  396.000
464.097;   32.425;  921.000; 1114.000
464.217;   99.475; 1196.000; 1143.000
464.336;   96.600; 1068.000; 1130.000
464.455;  -19.125;  328.000;  659.000
464.575;   41.175;  597.000;  602.000
464.694;  192.650; 1204.000; 1179.000
464.814;  119.175; 1190.000; 1138.000
464.933;   75.800; 1095.000; 1027.000
465.052;  115.875; 1412.000; 1054.000
465.172;   91.675;  922.000;  799.000
465.291;  149.200; 1376.000; 1320.000
465.410;   28.975;  462.000;  735.000
465.530;   82.600; 1355.000; 1310.000
465.649;   74.350; 1209.000; 1273.000
465.768;  127.875; 1673.000; 1508.000
465.888;   55.525;  941.000; 1174.000
466.007;   94.225; 1335.000; 1440.000
466.126;   -4.500;  721.000;  641.000
466.245;   25.875; 1176.000; 1187.000
466.364;   20.375;  950.000; 1060.000
466.484;   56.800; 1024.000; 1213.000
466.603;   37.475; 1101.000; 1222.000
466.722;  130.225; 1490.000; 1769.000
466.841;   93.900; 1151.000; 1401.000
466.960;   39.050; 1069.000;  972.000
467.079;  124.875; 1971.000; 1786.000
467.198;   50.100; 1238.000; 1181.000
467.317;   97.625; 1768.000; 1162.000
467.436;   54.350; 1709.000; 1261.000
467.555;  113.750; 1796.000; 1746.000
467.674;   56.725; 1227.000; 1329.000
467.793;   35.025; 1376.000; 1374.000
467.912;   84.950; 1658.000; 1539.000
468.031;  139.925; 2038.000; 1930.000
468.150;  131.275; 1842.000; 1837.000
468.269;  200.275; 2313.000; 2090.000
468.388;  186.250; 2168.000; 2339.000
468.507;  238.950; 2884.000; 2903.000
468.626;  265.975; 2555.000; 2541.000
468.744;  133.700; 2018.000; 2174.000
468.863;  185.250; 2312.000; 2523.000
468.982;  104.225; 1503.000; 1555.000
469.101;  229.650; 2788.000; 2692.000
469.220;  154.575; 2333.000; 2176.000
469.338;  244.750; 2935.000; 3051.000
469.457;  197.725; 2719.000; 2545.000
469.576;  326.675; 3953.000; 3784.000
469.695;  245.125; 2877.000; 3066.000
469.813;  414.000; 4148.000; 4192.000
469.932;  410.500; 4255.000; 4485.000
470.051;  418.025; 4075.000; 4161.000
470.169;  828.725; 4470.000; 4338.000
470.288; 1422.250; 4700.000; 4809.000
470.406;  896.250; 5059.000; 5194.000
470.525;  637.300; 6101.000; 5787.000
470.644;  651.575; 6847.000; 6794.000
470.762;  805.400; 8397.000; 7873.000
470.881;  879.100; 8651.000; 8464.000
470.999; 1015.475; 9685.000; 9151.000
471.118; 1113.950;11174.000;10711.000

